timestamp_ms,ecg_u8_raw,ecg_counts_raw_int,ecg_counts_filt_monitor,ecg_counts_filt_diagnostic,ecg_counts_filt_st
1770452525832,123,-5,-4.192976041642852,-3.9630321127248065,-3.5064005428869844
1770452525836,124,-4,-3.722552742295153,-3.3070938616940504,-3.0185989170630787
1770452525840,125,-3,-3.2497359090605844,-2.2603232875085313,-2.529756459684315
1770452525844,125,-3,-3.0334877880117124,-2.2999572428022077,-2.298806337814975
1770452525848,124,-4,-3.1632564052136867,-2.914604829324946,-2.4133499968923435
1770452525852,124,-4,-3.524779279253644,-3.2065644586835695,-2.7577770849434926
1770452525856,124,-4,-3.912996488498933,-3.0295557590960644,-3.127814510407742
1770452525860,124,-4,-4.167934813804429,-3.5384205086287004,-3.365134606995499
1770452525864,123,-5,-4.234792718465437,-4.022960838848531,-3.415477941462833
1770452525868,124,-4,-4.137027339820893,-3.165253116512518,-3.3018603050591353
1770452525872,124,-4,-3.909027483259842,-3.0148491995942917,-3.0583680886306226
1770452525876,124,-4,-3.555400460299944,-3.1570323690698285,-2.6894744136624293
1770452525880,125,-3,-3.079952519497331,-2.4677810282756507,-2.1986150394964605
1770452525884,125,-3,-2.550680186877633,-2.017152194108972,-1.6535945968405263
1770452525888,126,-2,-2.110734024354635,-1.2501010269532808,-1.19794142679028
1770452525892,126,-2,-1.89327632544005,-0.8701905563565637,-0.9650831604330062
1770452525896,126,-2,-1.907429829078569,-1.3482360779884257,-0.9635086208848564
1770452525900,126,-2,-2.00556686921809,-1.2486773745849822,-1.0446587106894236
1770452525904,126,-2,-1.9698292209657524,-1.218521533315886,-0.9909685935425108
1770452525908,126,-2,-1.649654247038682,-1.1039906733415537,-0.6538236723296362
1770452525912,127,-1,-1.0477417378377407,0.058449110441512,-0.0378376597502251
1770452525916,128,0,-0.3078237165727235,0.6522391046679923,0.7137268136274149
1770452525920,128,0,0.3652702622400918,0.8199901078015093,1.3990569412865614
1770452525924,129,1,0.7999034076193925,1.6707437955019817,1.849172295582536
1770452525928,129,1,0.939724271997411,2.0115194227123903,2.00711660149103
1770452525932,129,1,0.8928142634420335,1.9452825094891355,1.9778487740718371
1770452525936,129,1,0.9012297666271458,1.7640581852781052,2.001312406296964
1770452525940,129,1,1.2076840494019572,1.7265154881251426,2.321076555833253
1770452525944,130,2,1.894189959789049,2.751363764039931,3.0213266580951665
1770452525948,131,3,2.8292382548512016,3.933071905502952,3.9713233657335927
1770452525952,132,4,3.779881341120162,5.025755662814959,4.937023740113599
1770452525956,133,5,4.585193617569485,5.692077750150053,5.756324176944097
1770452525960,133,5,5.224320991072109,5.802697488638007,6.408531016814855
1770452525964,134,6,5.725123826978183,6.648713006013311,6.922581369619138
1770452525968,134,6,6.028659151724701,7.054668804197991,7.240264606158244
1770452525972,134,6,5.968697550372728,6.883880965373189,7.195120040440362
1770452525976,134,6,5.403456980822213,6.881177433094466,6.644542112037519
1770452525980,133,5,4.376365360773568,5.582978529050223,5.631432038788656
1770452525984,131,3,3.139288242845141,3.864790734864578,4.407918597588415
1770452525988,130,2,1.9929771684249296,2.8346222976470257,3.275204212028801
1770452525992,129,1,1.0787308238705533,2.104803775868973,2.374310532117011
1770452525996,129,1,0.3114538077044009,1.6993003663560629,1.6194154297145498
1770452526000,128,0,-0.4885061676771696,0.7532873039800846,0.8309475884411118
1770452526004,127,-1,-1.3927373085226415,-0.3150645966768423,-0.0613624986624471
1770452526008,126,-2,-2.2733318513377414,-1.0072755923147838,-0.9281895443415225
1770452526012,125,-3,-2.8931369872847963,-2.036943565096145,-1.53243256303125
1770452526016,125,-3,-3.090012529075741,-2.149452713803006,-1.7139932522457964
1770452526020,126,-2,-2.8987392429813896,-1.3680857038833076,-1.5103915587387804
1770452526024,126,-2,-2.523213149900121,-1.2305754865365932,-1.1263564270092812
1770452526028,126,-2,-2.206298971609725,-1.091780853811784,-0.8020758414835673
1770452526032,126,-2,-2.111665023301014,-0.9515231253711692,-0.6967787678142688
1770452526036,126,-2,-2.278775109525674,-1.2326909540689868,-0.8479387655601656
1770452526040,126,-2,-2.6279259066838003,-1.2537753568220764,-1.178886927903139
1770452526044,126,-2,-2.9818858443382266,-1.3823216667563043,-1.5182754848400468
1770452526048,125,-3,-3.1184533858305423,-1.9296692000384783,-1.6473268477272365
1770452526052,125,-3,-2.8695330483107497,-2.120095704455928,-1.3955661118141496
1770452526056,126,-2,-2.201070609159246,-1.0527166359868905,-0.7224982180079604
1770452526060,128,0,-1.1591762695582792,0.5970524160073252,0.3313641350428593
1770452526064,129,1,0.325466133574209,1.7239471677967622,1.8360018720743292
1770452526068,131,3,2.594114878294369,4.00441511126582,4.127547714705371
1770452526072,135,7,6.143420366163367,7.884272736498783,7.694792121339049
1770452526076,139,11,11.186123427151143,12.02029056917972,12.745323197430254
1770452526080,145,17,17.143111005752274,17.469411484287978,18.70109502101305
1770452526084,151,23,22.505972607094886,23.9188465961929,24.059682591150143
1770452526088,155,27,25.35728812761094,27.73077658543623,26.910793442118496
1770452526092,153,25,24.356060421536345,26.194364492437007,25.91873818353198
1770452526096,148,20,19.55970237350619,20.66355508172632,21.142043883475285
1770452526100,141,13,12.496307509256194,13.82837468144242,14.103991602725069
1770452526104,134,6,5.417019331134786,6.566724181432784,7.046909919724462
1770452526108,128,0,0.2041340402755813,1.0746073957345337,1.8461842258022632
1770452526112,126,-2,-2.4114653210858976,-1.0596444733829815,-0.7676990076952835
1770452526116,126,-2,-2.916333314592353,-1.1262416077495707,-1.2760320181109366
1770452526120,127,-1,-2.430960951198556,-0.3251540172987981,-0.792611499847548
1770452526124,127,-1,-1.94280970753582,-0.3557863991156399,-0.3001718790235477
1770452526128,126,-2,-1.8712528836620024,-0.9856824792639808,-0.2168376139542089
1770452526132,126,-2,-2.1462925883658266,-0.9993911716239698,-0.4752832320424942
1770452526136,126,-2,-2.5615814600267317,-1.1988331119604851,-0.8746423290563973
1770452526140,126,-2,-3.0222284402661503,-1.2071241521710867,-1.3249187358383114
1770452526144,126,-2,-3.525845672214669,-1.5318653865568828,-1.824277963248035
1770452526148,124,-4,-4.019994489742323,-2.7601827665254297,-2.3160998600660427
1770452526152,124,-4,-4.360284511555568,-3.273421023032322,-2.651144747121041
1770452526156,124,-4,-4.419139269272734,-2.8876855052130947,-2.700938167963048
1770452526160,125,-3,-4.206239062937605,-2.513268824853082,-2.4783803036522674
1770452526164,125,-3,-3.867411361523777,-2.2537487175739104,-2.1324602989700567
1770452526168,125,-3,-3.5772448766913034,-1.9799854376067787,-1.8375240142684008
1770452526172,125,-3,-3.4349365025884295,-2.145742144792562,-1.690200501338948
1770452526176,125,-3,-3.4330729029676954,-1.9326834950811131,-1.681538302146055
1770452526180,126,-2,-3.4865960522972244,-1.5243870348538708,-1.7272155157966855
1770452526184,125,-3,-3.48367721436442,-2.2037135387260127,-1.7168122462879951
1770452526188,125,-3,-3.3377373066671754,-2.028532937618068,-1.564381496822682
1770452526192,126,-2,-3.0218645162244018,-1.1381976332063646,-1.2431015227965387
1770452526196,126,-2,-2.56590173899294,-0.8933615666438681,-0.7826750513420515
1770452526200,127,-1,-2.0280645613338657,-0.6016604264814419,-0.2405635268374413
1770452526204,127,-1,-1.4762711007342375,-0.0809363792576647,0.31635929020156
1770452526208,128,0,-0.985447573229165,0.8238974944375372,0.8132909008028091
1770452526212,128,0,-0.6254912571724136,0.9895355819128182,1.179208404164667
1770452526216,128,0,-0.4339652555159287,1.013794739447619,1.3753504020509546
1770452526220,129,1,-0.4004617190411245,1.4525704798432877,1.412156287400821
1770452526224,128,0,-0.4818231727128705,0.9247012447141644,1.33409702628714
1770452526228,128,0,-0.630769839907836,0.7608421678591354,1.1897511644738987
1770452526232,128,0,-0.8013928711800381,1.0800046091346405,1.0249375441393709
1770452526236,128,0,-0.9226298795526536,0.9117826773059372,0.909366971652068
1770452526240,128,0,-0.8838383378427962,0.5613660081202368,0.9524866450632592
1770452526244,128,0,-0.582988768468931,0.842548797904294,1.2561785832972874
1770452526248,129,1,-0.0181351731225455,1.803115994331596,1.8229706651791904
1770452526252,129,1,0.6643503064449146,2.0608930281533753,2.507225266015398
1770452526256,130,2,1.2297449479791314,2.909969936251923,3.0748729327677786
1770452526260,131,3,1.4968260151870911,3.5991594153190145,3.345156722579337
1770452526264,130,2,1.45955273506602,2.7813742420067085,3.3120965441479377
1770452526268,130,2,1.292856833923713,2.8674178698274315,3.1499683778508163
1770452526272,130,2,1.235866805940926,2.981573995523831,3.096680322243576
1770452526276,130,2,1.439443248927157,2.993159010367802,3.302337182129697
1770452526280,131,3,1.881075359934469,3.5528919839156448,3.7449176928210814
1770452526284,131,3,2.3949016593484447,3.804486248004404,4.259539418572624
1770452526288,132,4,2.7919369176053292,4.855740017320185,4.657556221835973
1770452526292,132,4,2.9850765345456325,4.955554276539969,4.8519473616044335
1770452526296,131,3,3.019774391663124,4.051287964959297,4.888814105801717
1770452526300,132,4,2.989111921546064,4.482272146513361,4.86148779954258
1770452526304,132,4,2.9301043439460743,4.908856498289598,4.805451855286694
1770452526308,132,4,2.812057035244547,4.700674730978635,4.687938694786884
1770452526312,131,3,2.608290369796965,4.149018911438683,4.482436866211168
1770452526316,131,3,2.349905824369827,3.823261670620171,4.22270459974539
1770452526320,131,3,2.109848086653628,3.751157717145321,3.983900136981213
1770452526324,131,3,1.9644076233840344,3.614498149792571,3.8416996443881417
1770452526328,131,3,1.9868677268710169,4.008831343435614,3.866865343347024
1770452526332,131,3,2.254116827679032,3.8295606698379343,4.134585164627875
1770452526336,131,3,2.811291821877593,4.14520710408723,4.690384430078457
1770452526340,133,5,3.5974841999324703,5.445941836262467,5.474749543528798
1770452526344,133,5,4.409492335095501,5.896449553241543,6.2853677314650245
1770452526348,134,6,4.968232154997674,6.756423575175599,6.843266001056225
1770452526352,134,6,5.06012584651803,7.041717602066448,6.93478051591352
1770452526356,133,5,4.652001919674506,5.97443146930068,6.5266969323097035
1770452526360,133,5,3.8959906441670142,5.5617061292805,5.770864912901506
1770452526364,132,4,3.0289118076926353,4.846839724031096,4.903662504050935
1770452526368,131,3,2.2431451568779344,3.7362950929859617,4.117437446785944
1770452526372,130,2,1.6101248595132691,3.1344237392197125,3.4838461722462752
1770452526376,130,2,1.0933663665327815,2.83442068293241,2.9659125095545935
1770452526380,130,2,0.6268599875536291,2.715463361120104,2.4966190901394043
1770452526384,129,1,0.1817056395437686,1.715608740795718,2.047304717033238
1770452526388,128,0,-0.2441892159256735,0.8117659907629368,1.6179012549711254
1770452526392,128,0,-0.6821003351382788,1.134226496226848,1.1788256019912082
1770452526396,128,0,-1.1918127704325818,0.7556053055402421,0.6696437705765605
1770452526400,127,-1,-1.7709926501286208,-0.1380469510340299,0.0905062838182974
1770452526404,127,-1,-2.276704217525334,-0.4679992923779046,-0.4169884647211905
1770452526408,126,-2,-2.4824434095851853,-0.9964647959875016,-0.6257630265634309
1770452526412,126,-2,-2.260912013039608,-1.0519839035047909,-0.4072032378612303
1770452526416,127,-1,-1.7374221218657822,-0.0792637300106297,0.1135686360337611
1770452526420,128,0,-1.2577779201257249,0.7418365613372215,0.5895471679893426
1770452526424,128,0,-1.1738201354201725,0.6153449831713947,0.6681756893686605
1770452526428,127,-1,-1.619282934011686,-0.0541070394660493,0.2171933409416144
1770452526432,126,-2,-2.452571226226647,-1.0337128996018123,-0.6191148617200832
1770452526436,125,-3,-3.378964319782188,-2.0901308675855432,-1.5450463983527598
1770452526440,125,-3,-4.11276282685133,-2.224450382899077,-2.2771413146058443
1770452526444,125,-3,-4.454424879302119,-2.423525659004175,-2.6194903778990017
1770452526448,124,-4,-4.294150604231874,-2.9924114271113966,-2.4641277271147537
1770452526452,125,-3,-3.6316037961819503,-2.136078868233074,-1.8095416564095363
1770452526456,126,-2,-2.633273795845728,-0.9730177643931774,-0.8194117515582001
1770452526460,127,-1,-1.6421003252783064,-0.3400871354252646,0.165724458570582
1770452526464,128,0,-1.0549232004887052,0.7014552863973186,0.7497741081533238
1770452526468,128,0,-1.1000871806062014,0.9049983260153552,0.7034072601925716
1770452526472,127,-1,-1.6683850550895798,-0.1078619804715657,0.13412069634049
1770452526476,126,-2,-2.354162156343562,-0.9459531112476152,-0.5536952376878923
1770452526480,126,-2,-2.7148777301729665,-1.418385352856469,-0.9180623744280092
1770452526484,126,-2,-2.5684281599504186,-1.150137000508349,-0.7771266153198098
1770452526488,127,-1,-2.0989851148416223,-0.2582591749451779,-0.3149594503684654
1770452526492,127,-1,-1.6936580116837987,0.0298618742172271,0.0823014111347195
1770452526496,127,-1,-1.648597748490492,-0.0592335582672717,0.1203491064335895
1770452526500,127,-1,-1.972594204394882,-0.3642371117541629,-0.2079132547118279
1770452526504,126,-2,-2.416072372741501,-1.1171755916057526,-0.6527352313410534
1770452526508,126,-2,-2.66809100908071,-1.367545329529403,-0.905127916882443
1770452526512,126,-2,-2.5518593916389425,-0.7906222545743613,-0.7914385564031852
1770452526516,127,-1,-2.090281800554628,-0.3087880875768716,-0.3365665689109058
1770452526520,127,-1,-1.4481930736362931,-0.0655790882913776,0.2956889240979373
1770452526524,128,0,-0.8443056605146056,0.5763548431516365,0.8899764226080512
1770452526528,128,0,-0.490374700838659,0.9290719887533562,1.2373073540983563
1770452526532,128,0,-0.53690139567521,0.9271665318560433,1.187198665427191
1770452526536,128,0,-1.0004070301606938,0.9256412032986648,0.7211143032545334
1770452526540,127,-1,-1.7153364874205237,-0.2373065141074303,0.0028728826779081
1770452526544,126,-2,-2.3849818045901485,-1.3105474584105534,-0.6712508921469652
1770452526548,126,-2,-2.7340627681379193,-1.112520320331432,-1.0259849016068885
1770452526552,126,-2,-2.6640034559277463,-1.1121613483343689,-0.96300125354697
1770452526556,126,-2,-2.300356719913241,-0.9682143808763256,-0.607684381728095
1770452526560,127,-1,-1.906458834230966,-0.3814803510246727,-0.2222562089620925
1770452526564,127,-1,-1.7256964725017634,-0.1320783859057998,-0.0486856880615607
1770452526568,127,-1,-1.848873091035693,-0.3189962833237383,-0.177001778670833
1770452526572,126,-2,-2.182824452746318,-0.9099503938745924,-0.5143646557820563
1770452526576,126,-2,-2.5314176305505187,-1.168374714399722,-0.8661142878528563
1770452526580,126,-2,-2.7254514350436896,-1.1771537150029543,-1.0651062452195768
1770452526584,126,-2,-2.7145135754941334,-1.3144042483603051,-1.0621641675152975
1770452526588,126,-2,-2.5763536529505937,-1.162490069597659,-0.9341879999491142
1770452526592,126,-2,-2.455888630153962,-1.0489845699843034,-0.8234684089706545
1770452526596,126,-2,-2.471875803553331,-1.0665266148424075,-0.846298986693419
1770452526600,126,-2,-2.631559321068261,-1.2304585160162511,-1.009633276727433
1770452526604,126,-2,-2.7935119677171523,-1.2970703459050816,-1.1742144547497342
1770452526608,126,-2,-2.713535204584447,-1.1439240289345476,-1.0986593812605778
1770452526612,126,-2,-2.176339975849224,-1.1106067121490046,-0.5689015152889088
1770452526616,127,-1,-1.1504778337066757,0.0164529280196367,0.4474045226550761
1770452526620,129,1,0.1478568849495589,1.6940680966707211,1.7358391319861788
1770452526624,130,2,1.3588359040776057,2.772759887831124,2.9380069373882995
1770452526628,131,3,2.1982268432537575,3.805741079683921,3.7705011244335696
1770452526632,131,3,2.6322480032934847,3.8967193602909567,4.199719792265368
1770452526636,131,3,2.8746263212883267,4.018896898953661,4.4385878963068786
1770452526640,132,4,3.21083530543873,4.698345014703193,4.770771395434643
1770452526644,132,4,3.781746425853825,4.7692328212522925,5.335160558634599
1770452526648,133,5,4.478063499910877,5.838542294899029,6.021631968559562
1770452526652,134,6,5.007384864878797,6.818133170579833,6.539148176797327
1770452526656,133,5,5.0711630165639825,6.126137883499087,6.592401114252123
1770452526660,133,5,4.526486955570704,5.552501108503055,6.0411978604768635
1770452526664,132,4,3.4513575354087624,4.963204175036511,4.962996520819148
1770452526668,131,3,2.1121255026641315,3.612804209021473,3.6206692456558
1770452526672,129,1,0.8582288535646776,2.04810763986958,2.3607395782547993
1770452526676,128,0,-0.0306007159261561,0.9152279690256812,1.4630912865056964
1770452526680,128,0,-0.4794300073510914,0.7104945252896239,1.004748114290213
1770452526684,128,0,-0.6388604306315677,0.9013686031190796,0.8366311660124077
1770452526688,128,0,-0.7625082960156868,0.5798997931740005,0.7052882907965339
1770452526692,127,-1,-1.0361140967183204,0.1663526687482143,0.4245600646561336
1770452526696,127,-1,-1.493273848560268,-0.286612281925954,-0.039568229157502
1770452526700,126,-2,-2.0636924819887468,-1.0505923227310456,-0.6171346750107887
1770452526704,126,-2,-2.681325144605747,-1.3405999005204194,-1.242119292253797
1770452526708,125,-3,-3.343898075031461,-2.1724998314989405,-1.9118903768914128
1770452526712,124,-4,-4.074880893392917,-3.075103555122821,-2.6497832532409213
1770452526716,124,-4,-4.830559999700632,-3.065429368574709,-3.4125689914113324
1770452526720,123,-5,-5.451663546142001,-4.27175618357419,-4.0412375846568285
1770452526724,122,-6,-5.734764863725812,-5.113796178149395,-4.331601485362409
1770452526728,123,-5,-5.588285098943135,-4.381613064029748,-4.191334458852715
1770452526732,123,-5,-5.132871196487988,-3.879879072765532,-3.741986278659171
1770452526736,124,-4,-4.636873146590885,-3.2571971527971084,-3.2540510813158714
1770452526740,124,-4,-4.331252787303901,-3.094296293677172,-2.95956466518127
1770452526744,124,-4,-4.253704263528441,-3.273513688893625,-2.8946470335347865
1770452526748,124,-4,-4.218702439128111,-3.2463411168375433,-2.870355252093598
1770452526752,124,-4,-3.8773404427518896,-2.977475649475869,-2.5349035296960487
1770452526756,126,-2,-2.7751421722726493,-1.2235116476612415,-1.4334505810729072
1770452526760,128,0,-0.3940996934617358,0.9632406678308144,0.9494964493802
1770452526764,132,4,3.728136417152154,4.57973443279863,5.0718710247335865
1770452526768,138,10,9.727399257529452,11.001253783026408,11.064966025233652
1770452526772,145,17,17.079593744042043,17.68915161932333,18.40245073413714
1770452526776,152,24,24.45209508999026,25.15353924617908,25.75394304593095
1770452526780,159,31,29.96999881854515,31.582516250527437,31.25119261437154
1770452526784,160,32,31.899474905778785,32.9185212815619,33.16796247937914
1770452526788,158,30,29.450113021371,30.695682732316488,30.71716459998053
1770452526792,152,24,23.245040723780207,24.906813232747048,24.51835327824991
1770452526796,143,15,15.13250501178973,15.987240446717244,16.41216218512847
1770452526800,135,7,7.369311645882536,7.714447154039139,8.649174696856312
1770452526804,129,1,1.607767676725326,1.872729119447664,2.879408545732111
1770452526808,127,-1,-1.7112721491965597,-0.2970742108828164,-0.4554090149931311
1770452526812,126,-2,-3.218163981777339,-1.0407966887272802,-1.9819440057348496
1770452526816,124,-4,-3.931611922531315,-3.111253031106775,-2.712390973649514
1770452526820,123,-5,-4.590042134088001,-4.176865158484973,-3.3792245105622145
1770452526824,123,-5,-5.405658178200634,-4.243234723774359,-4.194615086707143
1770452526828,122,-6,-6.226696500356696,-5.219881520721299,-5.0132588536331575
1770452526832,121,-7,-6.835630558022826,-6.063709922940916,-5.624701284524486
1770452526836,121,-7,-7.148719172084046,-6.121020192179837,-5.947074580290748
1770452526840,121,-7,-7.239759405814655,-6.14077464034223,-6.050687744824909
1770452526844,121,-7,-7.236335887640861,-6.309146423220121,-6.058332256636974
1770452526848,121,-7,-7.197113476118821,-6.155223690103137,-6.026271797666886
1770452526852,121,-7,-7.068005466337221,-6.105552564331892,-5.9013260472544
1770452526856,121,-7,-6.743120176619756,-6.098093845479872,-5.5804377119633
1770452526860,122,-6,-6.1739115775683935,-5.135096711971797,-5.017629854870311
1770452526864,123,-5,-5.438471748367244,-4.362402356486897,-4.291503938710972
1770452526868,123,-5,-4.721308747077666,-4.068190206838758,-3.5846868430880323
1770452526872,124,-4,-4.219343263784337,-3.2119517997552105,-3.091429692532248
1770452526876,124,-4,-4.029760463826112,-2.965745465440643,-2.907708958587095
1770452526880,124,-4,-4.0830656935703376,-3.294765588255396,-2.965071739262019
1770452526884,124,-4,-4.169114915632938,-3.201630311613227,-3.055497144226415
1770452526888,124,-4,-4.056603694248894,-3.2283968671267704,-2.9491780652611044
1770452526892,124,-4,-3.639854541794228,-3.0540266573733508,-2.540581951984662
1770452526896,125,-3,-3.011678934735534,-2.0877072901696847,-1.9217092989479736
1770452526900,126,-2,-2.401622262464281,-1.218767494561127,-1.320878613950462
1770452526904,126,-2,-2.019438222572427,-1.2408965875203073,-0.9464906852218168
1770452526908,126,-2,-1.919455591874034,-1.245469933413469,-0.8520917533950981
1770452526912,126,-2,-1.9778167914788112,-0.9771782949404046,-0.914520007226738
1770452526916,126,-2,-1.9822594117378691,-1.2137336664803795,-0.9233920980820768
1770452526920,126,-2,-1.7652846161344349,-1.0464021874228455,-0.7126668529559205
1770452526924,127,-1,-1.301637873340321,-0.4534922500655992,-0.2570378088977503
1770452526928,127,-1,-0.7175038903498179,-0.0144109164284192,0.318376286070398
1770452526932,128,0,-0.2074445712363251,0.7893697843650141,0.8200624938584109
1770452526936,128,0,0.0860335662484401,1.0210019841822449,1.1062356791568704
1770452526940,128,0,0.1469990441266435,0.7214249881081664,1.1614203264344796
1770452526944,128,0,0.069840095867012,0.7582010308335742,1.079742957135062
1770452526948,128,0,-0.0155059627095895,0.7855404823230134,0.989789011276121
1770452526952,128,0,-0.008780935076475,0.9776661046646724,0.99034442907032
1770452526956,128,0,0.1350836739493023,0.8659391197927602,1.126478526124215
1770452526960,128,0,0.4023532099971632,0.8483894157183484,1.385926064614457
1770452526964,129,1,0.7260053056849998,1.6394659230027,1.7028118365328286
1770452526968,129,1,1.013195911558891,1.8897949259159503,1.9839906080284109
1770452526972,129,1,1.1921718695145207,1.8780210355804727,2.1568584711055596
1770452526976,129,1,1.2416903486399635,1.9917875321604424,2.2000445742069834
1770452526980,129,1,1.1773686326892454,1.6910228098474198,2.1295891255870916
1770452526984,129,1,1.0190760008512083,1.8039289787599648,1.9653782389886705
1770452526988,129,1,0.781788394262682,1.7142534249632684,1.7219341927966276
1770452526992,128,0,0.4951747074674439,1.0585090008096656,1.4288082117579712
1770452526996,128,0,0.2187900358061606,0.8439380765628257,1.146017382958935
1770452527000,128,0,0.0298037901000428,0.7925956357134492,0.951114753508712
1770452527004,128,0,-0.0054239183032746,0.7348163311206654,0.9103355433069552
1770452527008,128,0,0.1452502532028122,0.7319413891997687,1.055460748223515
1770452527012,128,0,0.4697258619598274,1.1105984119096426,1.3740641112489995
1770452527016,129,1,0.91557958789167,1.7407298652581935,1.8134513744436584
1770452527020,129,1,1.4059321094056176,1.9438103004820757,2.2967418968765534
1770452527024,130,2,1.85971922987757,2.5117850732589964,2.743488003853191
1770452527028,130,2,2.2086939600387443,3.010139870805001,3.0864614431111432
1770452527032,130,2,2.411645781976432,2.791827008685996,3.2848408912888467
1770452527036,130,2,2.4706342834802797,3.1123119577646308,3.3395906565407563
1770452527040,131,3,2.4432101865411515,3.523802316991686,3.306543675283419
1770452527044,130,2,2.4242687982022724,2.949803250132565,3.280412671161112
1770452527048,130,2,2.479621460299167,2.548756918931387,3.328850428936772
1770452527052,130,2,2.5748143368639225,3.280356078675009,3.4188792711447897
1770452527056,131,3,2.583867772644914,3.627890332443594,3.4236062791572213
1770452527060,130,2,2.391333825948117,2.9832052210614983,3.2255772862612835
1770452527064,130,2,1.9842095135486597,2.5252811939925843,2.811363533362494
1770452527068,129,1,1.4309157846691398,1.8898094143126292,2.2509502194365343
1770452527072,128,0,0.7764704602096866,1.04993000005128,1.5908414533743729
1770452527076,128,0,-0.0158478297621523,0.7420382138121528,0.7940153732821492
1770452527080,127,-1,-0.9978389697147594,0.0101318130939525,-0.192754438474725
1770452527084,126,-2,-2.1129945684406093,-1.6527721862775355,-1.3135824586839835
1770452527088,124,-4,-3.1594023595605587,-2.817358488125695,-2.3657972016432405
1770452527092,124,-4,-3.896303486496203,-3.3357343621963502,-3.1078352748875453
1770452527096,123,-5,-4.202561722904322,-3.803641056314248,-3.4188966266818075
1770452527100,124,-4,-4.146887216019275,-3.4561278205795616,-3.368691793299093
1770452527104,124,-4,-3.9194285461494704,-3.198744246640342,-3.1477532676714635
1770452527108,124,-4,-3.696970548437854,-3.2652110285050586,-2.932139653788465
1770452527112,124,-4,-3.5556275296547484,-2.917357891239603,-2.796853064668545
1770452527116,124,-4,-3.4834247131675857,-3.190890324657232,-2.729554134550679
1770452527120,124,-4,-3.4492004563416128,-3.0850542795669,-2.699846400039424
1770452527124,125,-3,-3.444708160514298,-2.550426126481812,-2.7004539928354756
1770452527128,124,-4,-3.4655015626222627,-2.9461184541090533,-2.7267992445132903
1770452527132,124,-4,-3.4723421870311584,-3.2192633957978836,-2.7385968183235887
1770452527136,124,-4,-3.389276209174189,-2.9032873389807388,-2.6597002839662296
1770452527140,125,-3,-3.14465748799665,-2.3458210891417743,-2.419843611261353
1770452527144,125,-3,-2.724817350309076,-2.316159283735984,-2.006561579516869
1770452527148,125,-3,-2.212007733070295,-2.1546675217209224,-1.5013912570816772
1770452527152,126,-2,-1.7764787581994148,-1.057857357743031,-1.0727180884316605
1770452527156,126,-2,-1.5957817148145874,-1.0125648485868364,-0.8970665722034679
1770452527160,126,-2,-1.729797049998495,-1.2890724816148345,-1.034772820014197
1770452527164,126,-2,-2.0483440422240617,-1.3119923084832867,-1.3567347716100593
1770452527168,125,-3,-2.292829648366685,-2.2258100784521844,-1.605204033342882
1770452527172,125,-3,-2.2452930967993177,-1.95360473697477,-1.562691314638017
1770452527176,126,-2,-1.8791526037789856,-1.1251766895718582,-1.2027716714844194
1770452527180,126,-2,-1.3749036321211126,-1.1699991829128962,-0.7056151822073723
1770452527184,127,-1,-0.9929437365464336,-0.4110438968691766,-0.3307942358738373
1770452527188,127,-1,-0.9034703239965742,-0.1636448949316218,-0.24755573209334
1770452527192,126,-2,-1.0950215393662035,-1.011205029232751,-0.4438268454710503
1770452527196,126,-2,-1.4133043300167434,-1.082776840579932,-0.7654628145073659
1770452527200,126,-2,-1.6788765501330936,-1.1733521545872152,-1.0341046698242342
1770452527204,126,-2,-1.782653890859831,-1.439104299563844,-1.1420940515043787
1770452527208,126,-2,-1.7035807960706644,-1.1027072853824391,-1.069010766681593
1770452527212,126,-2,-1.4749039645084354,-1.1198675985904587,-0.8474229015823386
1770452527216,126,-2,-1.1558318412052704,-0.9535551504547284,-0.5352099441451541
1770452527220,127,-1,-0.8288211536983952,-0.2901883102765233,-0.2139573900428028
1770452527224,127,-1,-0.5971122338372454,-0.338589211200918,0.0130167475919273
1770452527228,127,-1,-0.5550038178191039,-0.1848345689070033,0.0507354850555797
1770452527232,127,-1,-0.7396324697259031,-0.0753295013322744,-0.1385618799647087
1770452527236,126,-2,-1.1038198983567908,-0.9818279340783592,-0.5078895442183269
1770452527240,126,-2,-1.5400488870801974,-1.260581269529542,-0.9495993045806772
1770452527244,126,-2,-1.9414405954255536,-1.3632574529563173,-1.3566337431085975
1770452527248,125,-3,-2.2514354200419406,-2.158414156021806,-1.672290274815659
1770452527252,125,-3,-2.4643982836634364,-2.1310023986647466,-1.8908396328573192
1770452527256,125,-3,-2.5813242146116444,-1.8919200869388144,-2.0132332411404628
1770452527260,125,-3,-2.564154665201734,-2.3858887502708,-2.001259689939248
1770452527264,125,-3,-2.3384712119356044,-2.1915542009788025,-1.7802643641522764
1770452527268,126,-2,-1.852250791104488,-1.3677959486804674,-1.2983519240399348
1770452527272,126,-2,-1.1433281431325732,-0.9230909555038712,-0.5940511253092997
1770452527276,127,-1,-0.3599640468242331,-0.0818526836683255,0.1836059530801893
1770452527280,128,0,0.2802403929332573,0.7753879865154818,0.8168104882974739
1770452527284,128,0,0.5667591359010795,0.704009252863324,1.0956060485896049
1770452527288,128,0,0.3708906310357166,0.6501044878236173,0.8924078555795716
1770452527292,127,-1,-0.3043409298630033,0.1358937100582723,0.2114186943837004
1770452527296,126,-2,-1.3060126616801573,-1.233709317145048,-0.7938498445796405
1770452527300,125,-3,-2.3479287797874164,-1.9748521258033187,-1.8378186690343592
1770452527304,125,-3,-3.0696060547697925,-2.604761452585495,-2.56177395943348
1770452527308,124,-4,-3.1440583584891924,-3.021412876097166,-2.640559651043221
1770452527312,125,-3,-2.418483500947701,-2.1867114957299933,-1.921990774876321
1770452527316,126,-2,-1.0266723601691743,-0.9539755159481792,-0.5390433490497372
1770452527320,128,0,0.6154259445556458,0.8268315856421276,1.0937862944782613
1770452527324,130,2,1.973369184892225,2.5115887823704144,2.443431525418179
1770452527328,130,2,2.649203922876146,2.932802025774181,3.113059010942145
1770452527332,130,2,2.576987343928213,2.7657230572933287,3.037287217397819
1770452527336,129,1,2.0375343610362093,2.1516518666456665,2.496221725439207
1770452527340,129,1,1.4930628800900796,1.6915537631248057,1.9500129622782825
1770452527344,129,1,1.350260921024919,1.6678917993580291,1.8032088698381616
1770452527348,129,1,1.7790071682002355,1.7956542115398224,2.224987426945322
1770452527352,130,2,2.661812278447434,2.845028842195375,3.0987622824278427
1770452527356,131,3,3.6780614788963857,4.1383241556505155,4.105527834419846
1770452527360,132,4,4.464344091191261,4.635529484615743,4.883492947250064
1770452527364,132,4,4.761307418658229,4.790611623569223,5.174461134566538
1770452527368,132,4,4.485517686601243,4.626504191090902,4.894937882692055
1770452527372,131,3,3.7268959508905057,4.000673370922784,4.133346662028367
1770452527376,130,2,2.7012879688060263,3.016771244086929,3.103805319770651
1770452527380,129,1,1.6711943176537127,1.7033072027534577,2.0683105267596034
1770452527384,128,0,0.843526422987948,0.8146839823235232,1.2343358154502595
1770452527388,128,0,0.2855878973885299,0.5048828853653372,0.6694918360185544
1770452527392,127,-1,-0.0861504100789057,0.1974426637177136,0.2899971432584991
1770452527396,127,-1,-0.4374883479735634,-0.2510998050218197,-0.0696295392853578
1770452527400,126,-2,-0.9208065455794155,-0.966358592876598,-0.5603778034173377
1770452527404,126,-2,-1.6064990471144558,-1.5476644159183597,-1.2514916957939928
1770452527408,125,-3,-2.4534374281680966,-2.1334382558592715,-2.1023478585592064
1770452527412,124,-4,-3.3125655754812726,-3.166272353270894,-2.9655404293156686
1770452527416,123,-5,-3.9744130844129697,-3.904757542483845,-3.632682223564851
1770452527420,123,-5,-4.265037742402527,-4.273033086326111,-3.929715742114872
1770452527424,123,-5,-4.145667313656598,-4.267402639452641,-3.8174594629178578
1770452527428,124,-4,-3.7413005238581887,-3.405982086201749,-3.4208007248842134
1770452527432,124,-4,-3.2705936621098397,-2.8986779718439672,-2.957822167071994
1770452527436,124,-4,-2.9336662001177207,-3.191397765485443,-2.627269177773768
1770452527440,124,-4,-2.835956298139063,-2.9473625835163437,-2.534180195968006
1770452527444,125,-3,-2.963956325695329,-2.636867983818009,-2.667339407472197
1770452527448,124,-4,-3.178337563717895,-3.0162106839195575,-2.8905366534892756
1770452527452,124,-4,-3.2137640776312937,-3.2996399567435564,-2.938061840661219
1770452527456,124,-4,-2.7062851404969717,-2.799086872880629,-2.4407427128241093
1770452527460,126,-2,-1.244748657382165,-1.29514833648829,-0.9817390922311238
1770452527464,129,1,1.5822986912989072,1.6454606772968572,1.8503142473827063
1770452527468,134,6,6.124126574303164,6.78459280551697,6.397431163574261
1770452527472,140,12,12.498065308050135,12.810413070758354,12.76809323113874
1770452527476,146,18,20.2720995597507,19.186866238356004,20.52701682161059
1770452527480,155,27,28.17955856504984,27.627945682411895,28.41189389662113
1770452527484,162,34,34.22439360061464,34.78306651092512,34.43514448403313
1770452527488,164,36,36.37637225736937,36.58531850897947,36.5742034414597
1770452527492,161,33,33.58516248311892,34.01737946859582,33.78191174389154
1770452527496,154,26,26.47821302930679,26.97583716549781,26.682771377667983
1770452527500,144,16,17.213372295049403,16.761095157348457,17.427240030666272
1770452527504,135,7,8.48496465310713,7.735693523546039,8.702137335720952
1770452527508,129,1,2.257385207294339,1.5894240291001958,2.467853677721776
1770452527512,126,-2,-0.9962718167345196,-0.8848233595855843,-0.8020548933201672
1770452527516,126,-2,-2.1263656661837644,-1.1372542367151288,-1.95346470201578
1770452527520,125,-3,-2.4524554369618596,-2.151086106120047,-2.2985805362241765
1770452527524,124,-4,-2.907068601837012,-3.3542133394034677,-2.7630358168078653
1770452527528,123,-5,-3.7221388023217656,-4.3724595764558725,-3.577352664754067
1770452527532,122,-6,-4.66962174666338,-4.881695501911157,-4.519497523688947
1770452527536,122,-6,-5.468016332684021,-5.141911622539275,-5.3168220652376075
1770452527540,121,-7,-6.002076907831863,-6.151036369772496,-5.858474332748534
1770452527544,121,-7,-6.2994229328017814,-6.3464816473110055,-6.169256074418667
1770452527548,121,-7,-6.41692871007276,-6.433612462018817,-6.299817809723275
1770452527552,120,-8,-6.3794822620116785,-6.768043315485917,-6.271020440084322
1770452527556,121,-7,-6.1951043546894775,-6.2821472526499615,-6.0913143232679925
1770452527560,121,-7,-5.888765168311307,-5.975867985077531,-5.788735497304989
1770452527564,122,-6,-5.504170559004409,-5.554541407105464,-5.409521892702854
1770452527568,122,-6,-5.078834225091018,-5.248999384719889,-4.991592069300981
1770452527572,122,-6,-4.630126560589449,-4.913707799405512,-4.551281743972995
1770452527576,123,-5,-4.169640403295743,-4.1782635338211636,-4.099107534611457
1770452527580,123,-5,-3.7268955147416465,-4.005474629296993,-3.66401554698021
1770452527584,124,-4,-3.353135304765485,-3.614374569177807,-3.297033246717901
1770452527588,124,-4,-3.093504361631392,-3.143480635072179,-3.0434310103224926
1770452527592,124,-4,-2.9447862791102626,-3.049840962061356,-2.9005163662638247
1770452527596,124,-4,-2.8385147657281715,-3.0271544555666527,-2.800532356337881
1770452527600,124,-4,-2.6784393927269012,-3.1171645426465715,-2.6478242740091766
1770452527604,125,-3,-2.411378741694936,-2.5855549357600367,-2.3893436029586166
1770452527608,125,-3,-2.0707699733661684,-2.1017196263965774,-2.0576668541763543
1770452527612,125,-3,-1.751894299586795,-2.170161094461532,-1.746334709682499
1770452527616,125,-3,-1.5341169330015147,-1.82027929156333,-1.5337069185639045
1770452527620,126,-2,-1.403489205071345,-1.370324490611233,-1.4071625630621305
1770452527624,126,-2,-1.2361432852975516,-1.3354262947534987,-1.2455151719833508
1770452527628,126,-2,-0.8809566203687326,-1.352491423505107,-0.8987892162518538
1770452527632,126,-2,-0.3079869298551504,-0.9421765165300278,-0.3355216573307061
1770452527636,127,-1,0.3021048822482274,0.0075409629060981,0.2658243916418047
1770452527640,128,0,0.6475527744516449,0.7600337988352057,0.6041379396569442
1770452527644,128,0,0.5405267476575191,0.5587118282806963,0.4909750139903984
1770452527648,127,-1,0.0894576848945764,-0.2971401404120161,0.0344386438904066
1770452527652,126,-2,-0.3512821538668526,-0.9704696614347914,-0.41105288188426
1770452527656,126,-2,-0.4359714339183765,-0.973169789390931,-0.5006502547737303
1770452527660,127,-1,-0.0701721262427325,-0.2353000350953876,-0.1417590033071454
1770452527664,128,0,0.551923668092926,0.5399998798060128,0.47067652200902
1770452527668,128,0,1.114737543581152,0.7218961547104354,1.0229879552696173
1770452527672,128,0,1.393347715356795,0.984815628619321,1.293366090574252
1770452527676,128,0,1.3590372036557816,1.0988439264993692,1.2542632418499795
1770452527680,128,0,1.145004872790401,0.6601120578928992,1.03693686049556
1770452527684,128,0,0.9339011173724356,0.6863727899704055,0.8210774419250165
1770452527688,128,0,0.8475612569581308,0.5290623399873047,0.7274012068366958
1770452527692,127,-1,0.8937354756979418,0.2049849004963698,0.7649564926679033
1770452527696,128,0,0.9909476720767638,0.8577357274012112,0.8541492144261759
1770452527700,128,0,1.0527308832876106,0.9200703916941084,0.9092100491219852
1770452527704,128,0,1.0695707572958029,0.4202627403102743,0.920105689945282
1770452527708,128,0,1.121401976070116,0.7802694408613673,0.9660217100917404
1770452527712,128,0,1.3108980671628216,0.968144852378358,1.149385676737423
1770452527716,128,0,1.6773878935891278,1.053304770447791,1.5097924433453818
1770452527720,129,1,2.1647574889492907,1.7951662029849418,1.9912690453105175
1770452527724,130,2,2.6678422085627167,2.4742908517881452,2.488165364297104
1770452527728,130,2,3.1120940151111665,2.787543236510885,2.9253708196187493
1770452527732,130,2,3.4876979413631513,2.88769932348181,3.293437813032545
1770452527736,130,2,3.804489774157031,3.1816773031670293,3.603402137007134
1770452527740,131,3,4.023735806195761,3.639833047891755,3.8172716989716258
1770452527744,131,3,4.0548975930730355,3.653929698735239,3.8439121500104982
1770452527748,131,3,3.8334377047565384,3.5908688936851543,3.617456028719989
1770452527752,130,2,3.3973978465090378,3.074302048013474,3.1752234090899085
1770452527756,129,1,2.869705186885832,2.0004445792756873,2.6405695222143164
1770452527760,129,1,2.3500737630722655,1.802295996814007,2.1140828594521572
1770452527764,129,1,1.823459982802162,1.5389063050677183,1.5812251812811366
1770452527768,128,0,1.1839105687356732,0.6465688845391622,0.9361779049255734
1770452527772,127,-1,0.3576766307486974,0.0758814134769226,0.1051978832658647
1770452527776,126,-2,-0.5897586905810903,-1.0693028755077123,-0.8465437809372869
1770452527780,125,-3,-1.4662389290097098,-2.087009308438124,-1.7276340919340756
1770452527784,125,-3,-2.08559280396013,-2.5792066821102777,-2.352582770967739
1770452527788,124,-4,-2.4161918155196704,-3.248633006375728,-2.689807309806534
1770452527792,124,-4,-2.6172720034204304,-2.9961698244814534,-2.8979265055811156
1770452527796,124,-4,-2.91845626128173,-3.0529149354952887,-3.2055675124810694
1770452527800,123,-5,-3.431592363166282,-4.052732144354149,-3.723565869371272
1770452527804,123,-5,-4.0499610409458615,-4.663108595776882,-4.344923417858297
1770452527808,122,-6,-4.517538440944379,-5.124669017658991,-4.8147974487705
1770452527812,122,-6,-4.608388825083771,-5.159326269745355,-4.909319049624006
1770452527816,122,-6,-4.278253953077149,-4.865513471853118,-4.585345527949633
1770452527820,123,-5,-3.687932124419403,-4.244928348451982,-4.0026622306325415
1770452527824,124,-4,-3.0954774510228185,-3.474613881933669,-3.4170191840975708
1770452527828,124,-4,-2.697036973311769,-3.306607911595242,-3.022956759793499
1770452527832,124,-4,-2.5217665783407615,-3.0085719127928683,-2.849966506043297
1770452527836,124,-4,-2.4456192285948553,-2.994981173855476,-2.7758134468764273
1770452527840,124,-4,-2.307425847147749,-3.134226921220701,-2.6410714723699975
1770452527844,125,-3,-2.040161345807679,-2.564323539824917,-2.379130135726985
1770452527848,125,-3,-1.720086769358312,-2.2318039127335925,-2.065176214959628
1770452527852,125,-3,-1.4993387993938525,-2.083999615438355,-1.8496556302165503
1770452527856,125,-3,-1.477959040172817,-1.9259176630003636,-1.8316276260767532
1770452527860,125,-3,-1.616299951909229,-2.1986940600347187,-1.9720203327956625
1770452527864,125,-3,-1.7545766679185804,-2.5075089111017643,-2.112725731671885
1770452527868,125,-3,-1.7239684992930298,-2.2854159562604246,-2.086096213333227
1770452527872,125,-3,-1.4663466279689097,-2.0341758006840145,-1.833387088221901
1770452527876,125,-3,-1.0735036395017632,-1.9849868728982851,-1.4446244806188568
1770452527880,126,-2,-0.7122056411623583,-1.117098553276873,-1.085756976561804
1770452527884,127,-1,-0.4872974884630392,-0.6186281222570558,-0.8626720718093859
1770452527888,126,-2,-0.3604169962794896,-1.154023884633209,-0.7384151194477103
1770452527892,126,-2,-0.2140586665141176,-1.1927256636704189,-0.5956469723720097
1770452527896,126,-2,-0.0130749859069299,-0.8152926631611067,-0.3985630763533344
1770452527900,127,-1,0.103993168858866,-0.2905573435125552,-0.2853299373335878
1770452527904,127,-1,-0.0812077205049588,-0.439436932924149,-0.4740243454753503
1770452527908,126,-2,-0.6598042831155899,-1.333664085615406,-1.054954812194138
1770452527912,125,-3,-1.466012357414297,-2.0316679564885907,-1.86162621201
1770452527916,124,-4,-2.1463552344130035,-2.977898525878119,-2.5412794589251053
1770452527920,124,-4,-2.377457034052502,-3.132473105021969,-2.7726534919527115
1770452527924,125,-3,-2.0690807655576,-2.5747651842989594,-2.4672600218718257
1770452527928,125,-3,-1.4125073959640004,-2.1993959404747208,-1.8160298572095883
1770452527932,126,-2,-0.7530451013407335,-1.1817351161430685,-1.161848233914959
1770452527936,126,-2,-0.3834407279335077,-0.8264205188376577,-0.7947543842609097
1770452527940,126,-2,-0.3955980636462383,-1.3163816126336658,-0.8058749743112739
1770452527944,126,-2,-0.6724081876270988,-1.345032849438316,-1.0802081809738036
1770452527948,126,-2,-0.998872050642048,-1.4691763923058163,-1.4061714022342933
1770452527952,125,-3,-1.2058046209949578,-1.878421655718026,-1.6160239094233295
1770452527956,125,-3,-1.2631608548870528,-2.175668592439565,-1.6775882792651995
1770452527960,125,-3,-1.2750090353392771,-1.9327855855257456,-1.6915165970315635
1770452527964,126,-2,-1.372927784378831,-1.7506814088030542,-1.7883990580970193
1770452527968,125,-3,-1.5754234755588914,-2.0422801050563404,-1.988939597842136
1770452527972,125,-3,-1.738740057587308,-2.321210338604732,-2.151962398241637
1770452527976,124,-4,-1.6756153091938142,-2.7514141410343074,-2.090458895050463
1770452527980,125,-3,-1.360571223290027,-2.3400722997007346,-1.7772552518888929
1770452527984,126,-2,-1.0237005354897315,-1.3628263997854102,-1.4411278577554805
1770452527988,126,-2,-1.01029436290241,-1.3864808331988088,-1.427609959686865
1770452527992,125,-3,-1.504511310136702,-2.023015673053549,-1.9217446955691584
1770452527996,124,-4,-2.3588509727826654,-3.033656794761166,-2.7761746863888423
1770452528000,123,-5,-3.1836765308532695,-4.099017806045613,-3.6003911177023347
1770452528004,123,-5,-3.617533771209843,-4.574769626179987,-4.032052899819467
1770452528008,123,-5,-3.5430226705451675,-4.163077411859623,-3.954190188086909
1770452528012,124,-4,-3.076269292574365,-3.244730611640841,-3.4848751529766497
1770452528016,124,-4,-2.379286445676617,-2.823589737819834,-2.787991362192662
1770452528020,125,-3,-1.510098963246748,-2.328257716690353,-1.9213333363765288
1770452528024,126,-2,-0.4661723351404796,-1.3514672677199384,-0.8797893315016349
1770452528028,127,-1,0.6494426571319487,-0.3571466580750869,0.2363818122850259
1770452528032,128,0,1.563143546473705,0.9260612993380688,1.1539675063215555
1770452528036,129,1,1.9984727049047903,2.0324594795749427,1.5941958912695695
1770452528040,129,1,1.9472256791946143,1.7579762247439632,1.5464445204369444
1770452528044,128,0,1.7559240493868518,0.5948771260222683,1.357141856694683
1770452528048,128,0,1.88387267497158,0.6700885175820879,1.4869784665095636
1770452528052,129,1,2.520007893434898,1.9304832870028708,2.1251697168676125
1770452528056,130,2,3.4096717028360812,3.0130982801313175,3.015929002867958
1770452528060,131,3,4.050906773995898,3.784376873356444,3.657052042776121
1770452528064,131,3,4.0782500903791234,3.5587167429567774,3.6849429525828503
1770452528068,130,2,3.505691176696655,2.6861772062688005,3.1158094151302143
1770452528072,129,1,2.6566752801589533,1.9215346165777052,2.2731341962319487
1770452528076,128,0,1.8830251953553905,1.01367902496441,1.5062723952206345
1770452528080,128,0,1.3209632392972122,0.7960616256296815,0.9485769177781708
1770452528084,128,0,0.8589023565388177,0.5599167945586178,0.4875803660525899
1770452528088,127,-1,0.2957042253206929,-0.3499003486994857,-0.0761104403506105
1770452528092,126,-2,-0.4734672097248544,-1.0158527249590097,-0.8444007105619584
1770452528096,125,-3,-1.38998196422673,-2.0923784631921563,-1.75672624855661
1770452528100,124,-4,-2.300760817230458,-3.059243573037185,-2.6603685938708495
1770452528104,124,-4,-3.070054696120217,-3.605063885377223,-3.421959253040291
1770452528108,123,-5,-3.6346587480619896,-4.174807673434927,-3.9810381875096104
1770452528112,123,-5,-3.986006266951307,-4.206604423559947,-4.329977607870008
1770452528116,122,-6,-4.141385426292063,-4.895944239768987,-4.484300012824208
1770452528120,122,-6,-4.154711302324978,-5.268182943375184,-4.495168472125488
1770452528124,123,-5,-4.132496981264214,-4.376184714203754,-4.468065995187775
1770452528128,123,-5,-4.186143240929642,-4.4280431211531885,-4.5154273150234525
1770452528132,122,-6,-4.334776017465961,-4.943552101242027,-4.657321464623301
1770452528136,122,-6,-4.463935485795316,-5.165589271644128,-4.7790862969398775
1770452528140,122,-6,-4.405674249121086,-5.015578400351828,-4.713099212634316
1770452528144,123,-5,-4.076686010686009,-4.602107108725702,-4.378390722333121
1770452528148,123,-5,-3.547916485561242,-4.236619371518474,-3.848514473181026
1770452528152,124,-4,-2.9795504207990096,-3.090360571462175,-3.2827560924669523
1770452528156,124,-4,-2.4620541884015856,-3.068296384860645,-2.765875783526062
1770452528160,124,-4,-1.8585425343971955,-3.0860326450755515,-2.154578922298407
1770452528164,127,-1,-0.7271767222341083,-0.56517171797098,-1.0061995565465502
1770452528168,129,1,1.6160369793691247,1.759571913562805,1.3569394752059791
1770452528172,132,4,5.826592740723946,4.893804305270081,5.581781235135159
1770452528176,138,10,12.065095957113067,10.982763724656532,11.82392697457335
1770452528180,146,18,19.56587142007158,18.817827021263025,19.318406780494904
1770452528184,154,26,26.610703176360342,26.552648037934723,26.352935344158933
1770452528188,158,30,31.093382465491253,30.62903432597586,30.830297231683613
1770452528192,158,30,31.453311291126777,31.018505831992577,31.197073194906363
1770452528196,155,27,27.46737182307909,27.823843155257357,27.230212244591904
1770452528200,147,19,20.423719474754748,19.94821377598981,20.210514318877543
1770452528204,139,11,12.526602610979335,11.405119547435987,12.332887904667214
1770452528208,132,4,5.83667989829536,4.852040874241987,5.652462045827498
1770452528212,128,0,1.3713054926638395,0.7718748496141399,1.1868377954934723
1770452528216,126,-2,-1.0998102663144524,-0.8607710209427257,-1.2893928084559725
1770452528220,125,-3,-2.5200049818339565,-2.436674561540564,-2.712519280618864
1770452528224,123,-5,-3.740415827706863,-4.1842123973173075,-3.9280133609258536
1770452528228,122,-6,-5.025969331064461,-5.583955251513177,-5.200090544124857
1770452528232,120,-8,-6.122548514739327,-6.795560329051611,-6.279480832007745
1770452528236,120,-8,-6.687245471947288,-7.273694575332256,-6.829965591930698
1770452528240,120,-8,-6.674784074654052,-7.069970241382292,-6.809756099542136
1770452528244,121,-7,-6.397370929022697,-6.481560085203201,-6.529351092605742
1770452528248,121,-7,-6.272570600935965,-6.383160133339942,-6.401642377122252
1770452528252,120,-8,-6.505070700694277,-6.8813174518135005,-6.6275830232458395
1770452528256,120,-8,-6.960569543865438,-7.337646397757792,-7.072380902775371
1770452528260,119,-9,-7.306326364062656,-7.869392838780183,-7.405520998925906
1770452528264,120,-8,-7.2780931901687245,-7.811358273627789,-7.365561904415593
1770452528268,120,-8,-6.854955857655048,-6.94284082761815,-6.933206022852666
1770452528272,121,-7,-6.2263457556854895,-6.3728645108267505,-6.297780293298025
1770452528276,121,-7,-5.618042899716086,-5.8614673398551504,-5.6836344104874
1770452528280,122,-6,-5.146858652653357,-5.294255992337184,-5.205661744250574
1770452528284,122,-6,-4.815694828265887,-5.500640448581029,-4.8654602366025905
1770452528288,122,-6,-4.609113188160627,-5.117869930765283,-4.647853029168671
1770452528292,123,-5,-4.556261165462043,-4.319796285829389,-4.583614809631517
1770452528296,122,-6,-4.686003033971675,-4.81867594104376,-4.70306338131505
1770452528300,122,-6,-4.937936608824889,-5.408951543172149,-4.94592631189708
1770452528304,122,-6,-5.147133589918645,-5.375353062418466,-5.146601621463502
1770452528308,122,-6,-5.135720355823268,-5.218684791359465,-5.12662550586626
1770452528312,122,-6,-4.834516481421394,-5.266663783475273,-4.816310836594555
1770452528316,122,-6,-4.331029340021278,-4.794859022240075,-4.302829469638283
1770452528320,124,-4,-3.796617956303733,-3.520878136604348,-3.757973610086633
1770452528324,124,-4,-3.344451915371082,-3.207619433869976,-3.2957754339153778
1770452528328,124,-4,-2.9465187343916845,-3.433087565902216,-2.8883186415891275
1770452528332,124,-4,-2.498084059551385,-3.0259446169370157,-2.4302513367747487
1770452528336,125,-3,-1.9662478931852796,-2.0400088626264115,-1.8886034303942083
1770452528340,126,-2,-1.4627542177021424,-1.2927940406629082,-1.3756788800015949
1770452528344,126,-2,-1.1626915126811883,-1.4258079366155605,-1.0664870236967712
1770452528348,126,-2,-1.1496096125133963,-1.2207686648991125,-1.0435973574617636
1770452528352,126,-2,-1.327885417100199,-1.2492188088776346,-1.2107686144262388
1770452528356,125,-3,-1.4735244796432716,-1.802599683301081,-1.3445767140097633
1770452528360,126,-2,-1.3843345800352416,-1.5639349038158736,-1.244050255095818
1770452528364,126,-2,-1.0190798538120331,-1.1186024015776623,-0.8688948958451838
1770452528368,127,-1,-0.5228500857687833,-0.5495794397821927,-0.3643027096998302
1770452528372,127,-1,-0.1226405512170155,0.0780186116881494,0.0436648973792226
1770452528376,127,-1,0.0221666464887587,-0.1029224625498787,0.1972189763264889
1770452528380,127,-1,-0.095169093571667,-0.3499135271660381,0.0907398801007043
1770452528384,127,-1,-0.3497955284103401,-0.2225824492562831,-0.1512872176214832
1770452528388,127,-1,-0.5702804764230195,-0.5737139462752944,-0.3590119048513007
1770452528392,126,-2,-0.622000599244399,-0.7684417624834132,-0.3993600972078542
1770452528396,127,-1,-0.4521016659147894,-0.3600938243493342,-0.2200928768651202
1770452528400,127,-1,-0.091610703615783,-0.0432496207535926,0.1482927251536394
1770452528404,128,0,0.3708927805152293,0.455822367725834,0.618765584154814
1770452528408,128,0,0.8242745364065804,0.7218698311815226,1.0819050172636224
1770452528412,128,0,1.1724885223511403,0.9953382840779654,1.4419028272937549
1770452528416,129,1,1.3815501080499653,1.7918744220608949,1.6629756347085771
1770452528420,129,1,1.517938114150469,1.876612477963573,1.8098072415216289
1770452528424,129,1,1.724381426987522,1.4635850434113329,2.0257081719774925
1770452528428,129,1,2.114084933233671,1.7676530485790265,2.4258919224999085
1770452528432,130,2,2.666379545325572,2.922996490580093,2.9898725056892426
1770452528436,131,3,3.2348373351984225,3.860882888088637,3.5689811086168635
1770452528440,131,3,3.6590122370760025,3.822033265653311,4.001308296424189
1770452528444,131,3,3.850564012575,3.4937281931632564,4.200072708483084
1770452528448,131,3,3.7750190922868327,3.741186561452312,4.133470526166667
1770452528452,131,3,3.399090089439448,3.948513963424378,3.768944605836275
1770452528456,130,2,2.7082661635027003,2.814853557929484,3.0905171612748905
1770452528460,129,1,1.7845847182257408,1.90865702349502,2.1784774849470314
1770452528464,129,1,0.8373411164849359,1.3603421897497503,1.2414691297335705
1770452528468,127,-1,0.1153039319580676,-0.0984278831066162,0.5287131074647972
1770452528472,127,-1,-0.2540771801750054,-0.2520507579010537,0.1684331206405798
1770452528476,127,-1,-0.3695765635065802,0.0620741565244412,0.0620769093223265
1770452528480,127,-1,-0.5037866020651534,-0.3697466760277024,-0.0633995662063267
1770452528484,127,-1,-0.9192307736978592,-0.3350470005204046,-0.4707703250673165
1770452528488,126,-2,-1.6943333900749509,-1.4426247209456242,-1.2376724610001728
1770452528492,124,-4,-2.69010224211368,-2.9126355557044037,-2.2237058325051535
1770452528496,124,-4,-3.6607585290600375,-3.26449538032302,-3.1825063218959935
1770452528500,123,-5,-4.395190605141929,-4.048434331424714,-3.904113232724282
1770452528504,123,-5,-4.782317373820459,-4.6333172961460525,-4.279722535019545
1770452528508,123,-5,-4.7956977391485385,-4.1866616199966655,-4.284657842809763
1770452528512,123,-5,-4.47076066219119,-4.132161207978189,-3.954099863940988
1770452528516,123,-5,-3.9273335377756657,-4.117397385392307,-3.4055180852252223
1770452528520,124,-4,-3.400436701103395,-3.089102580384639,-2.871327562104163
1770452528524,125,-3,-3.1856796981558486,-2.7040586670401403,-2.646578598436925
1770452528528,124,-4,-3.4695963572780224,-3.024710384101001,-2.919506987049982
1770452528532,124,-4,-4.157698770154321,-3.38857151764043,-3.5974297530937234
1770452528536,122,-6,-4.872910835088417,-4.814026456022277,-4.3032708749134585
1770452528540,122,-6,-5.174842774364301,-5.402363692392083,-4.59561796375063
1770452528544,123,-5,-4.843394997159551,-4.402223460902787,-4.254656584237703
1770452528548,124,-4,-3.9945721391945312,-3.283819459071206,-3.398202580374242
1770452528552,125,-3,-2.951872361629043,-2.203171843132944,-2.3503959129859666
1770452528556,125,-3,-2.022013958442817,-1.9137524353186497,-1.4157724868135972
1770452528560,126,-2,-1.3708065175638957,-1.4106097510072664,-0.7574369510934829
1770452528564,127,-1,-1.040424386156621,-0.3079083485606315,-0.4175575205827607
1770452528568,127,-1,-1.0084595055886632,-0.4516202625355581,-0.3759992153921655
1770452528572,126,-2,-1.2089773044940988,-0.994247352850012,-0.5682587620395024
1770452528576,126,-2,-1.5279161405086712,-1.1194261480511816,-0.8796421851283147
1770452528580,126,-2,-1.8135392824247747,-1.260785405145751,-1.1574447587854804
1770452528584,126,-2,-1.914370844020184,-1.3894149079262652,-1.2504274734567582
1770452528588,126,-2,-1.7375611489935516,-1.4555970645392038,-1.066693152065321
1770452528592,126,-2,-1.3082602643684138,-0.8908937857207654,-0.6318725268830824
1770452528596,127,-1,-0.7888789601501375,-0.3089461552607264,-0.1079875061291112
1770452528600,127,-1,-0.419381112991551,-0.0245632194139277,0.2659881504606162
1770452528604,128,0,-0.3911790282466968,0.3378885460110578,0.2998813654121344
1770452528608,127,-1,-0.7295069811570376,-0.1866744950533722,-0.030595777166966
1770452528612,126,-2,-1.2684693264744098,-1.1181794340907367,-0.5598912791046182
1770452528616,126,-2,-1.7407592903629854,-1.1561877077211449,-1.0228937098942028
1770452528620,126,-2,-1.925568734155463,-1.0990568679999773,-1.2015010887237645
1770452528624,126,-2,-1.7720462200985685,-1.6765897112769017,-1.045547874385086
1770452528628,126,-2,-1.437714678395254,-1.0968808859476047,-0.7103764889194754
1770452528632,127,-1,-1.2116428506371455,-0.2381402100735388,-0.4818807826781157
1770452528636,126,-2,-1.3414638752147303,-1.0603454274145097,-0.6059875435957937
1770452528640,126,-2,-1.858311940733892,-1.1562015753685702,-1.1145235082460598
1770452528644,126,-2,-2.526377052532743,-1.690991556838176,-1.773945257268322
1770452528648,124,-4,-2.975664490753326,-3.016907586378138,-2.2164868290875015
1770452528652,125,-3,-2.9447656993684515,-2.361086467821681,-2.181763755164825
1770452528656,125,-3,-2.464908462272983,-1.9114852872425436,-1.7005976320368226
1770452528660,126,-2,-1.845159888386744,-1.3212843261451734,-1.0805315287857993
1770452528664,127,-1,-1.465074884871702,-0.5343346331717395,-0.6991068858875407
1770452528668,126,-2,-1.5259956080432733,-1.1530551044219255,-0.7561878421969959
1770452528672,126,-2,-1.9352630338778711,-1.2779209085544785,-1.1591568977428963
1770452528676,125,-3,-2.390327843758857,-1.9351490673923089,-1.6071789650095991
1770452528680,125,-3,-2.585475229038842,-2.3798957483695804,-1.7969335128305302
1770452528684,126,-2,-2.391452167730521,-1.3935764865428384,-1.600573288577309
1770452528688,126,-2,-1.9021761094307903,-1.3488502295978602,-1.1113045172841634
1770452528692,126,-2,-1.3509703409588174,-1.0551056158634613,-0.560337709016762
1770452528696,127,-1,-0.9731377686704838,-0.1715042653857613,-0.1815336760908466
1770452528700,127,-1,-0.894009770831423,-0.1697581005295578,-0.1003832352753541
1770452528704,127,-1,-1.0913319272446156,-0.582287240992247,-0.2952114495744875
1770452528708,126,-2,-1.440080741138688,-1.1700396049313413,-0.6409841997389106
1770452528712,126,-2,-1.7916997714373013,-1.2352395250940365,-0.9892957064740407
1770452528716,126,-2,-2.016030943183301,-0.99690414473057,-1.2109844058632306
1770452528720,126,-2,-1.99346790852768,-1.350708848983696,-1.187283947598628
1770452528724,126,-2,-1.6202004228504714,-1.3976410681631244,-0.8140848704635412
1770452528728,127,-1,-0.86728195936183,-0.3477606146657461,-0.061784915434533
1770452528732,128,0,0.1604757226522775,0.9277902758649176,0.9648382491542526
1770452528736,129,1,1.2483869073618394,1.8355544536987909,2.051239586970792
1770452528740,130,2,2.181850454376643,2.8220577867249106,2.9840725127704713
1770452528744,131,3,2.863445893222584,3.415186561558796,3.667235952549991
1770452528748,131,3,3.3588267085580013,3.8500064920409978,4.165625793493961
1770452528752,132,4,3.8477536091191142,4.703819461866772,4.65616689268152
1770452528756,132,4,4.503544829677374,5.073495322996795,5.310118040630889
1770452528760,133,5,5.355552689243348,5.574606427394233,6.1578721741392295
1770452528764,134,6,6.220919175024821,6.671111960157069,7.0194171213206715
1770452528768,135,7,6.786550455382749,7.590067117186419,7.583142923054948
1770452528772,135,7,6.8218098784382315,7.935589562110237,7.617669997704884
1770452528776,134,6,6.361720100875188,6.880436604058014,7.156955604201437
1770452528780,133,5,5.68726086735969,5.696576862926424,6.481778890661681
1770452528784,133,5,5.106646121199403,5.6351951624584995,5.900000423972554
1770452528788,133,5,4.733469312395966,5.517569218382272,5.524100668688353
1770452528792,132,4,4.448815020522967,5.124718820766553,5.234749591298385
1770452528796,132,4,4.047427750155451,4.589200046520855,4.828159405484309
1770452528800,131,3,3.416142318241219,4.06550939238043,4.193196955614066
1770452528804,131,3,2.603179873265873,3.1907426979616456,3.378390226519188
1770452528808,129,1,1.7515035231946354,1.9840949459719832,2.5248638281306746
1770452528812,129,1,0.9733542483625652,1.6766542198210683,1.7428153900947363
1770452528816,128,0,0.2705440241931229,0.9967755948943549,1.0340379544725464
1770452528820,127,-1,-0.444741077975201,-0.2711412345316882,0.3127208222927559
1770452528824,127,-1,-1.2487717508812417,-0.5896434225702439,-0.4957826110113141
1770452528828,126,-2,-2.09529316024125,-1.1252530806739265,-1.3457408933184367
1770452528832,125,-3,-2.7827999891559574,-2.32676890741082,-2.0371349288235567
1770452528836,124,-4,-3.054912492309084,-2.8884751343869506,-2.313958554370564
1770452528840,125,-3,-2.7830686853369095,-2.466118168224344,-2.0470737987270327
1770452528844,126,-2,-2.0814682821707216,-1.3759657159465726,-1.350725874668763
1770452528848,127,-1,-1.244830729776813,-0.3320592449477519,-0.5204340464875771
1770452528852,127,-1,-0.5635351964021938,-0.1498901260440523,0.1530618918884005
1770452528856,127,-1,-0.1733380508646429,-0.0134478623905431,0.5343674692035867
1770452528860,128,0,-0.0273346403071406,0.588186604829699,0.6708918798549034
1770452528864,128,0,0.0575848681076601,0.5938529340351597,0.7467850965449068
1770452528868,128,0,0.3681563021007819,0.6822754769095827,1.0510678520961845
1770452528872,129,1,1.2978596888111322,1.8546560654399695,1.9792185838564007
1770452528876,131,3,3.329440861536842,3.9964444172371594,4.0125725299626405
1770452528880,135,7,6.912978909765408,7.539576222029013,7.595846481932441
1770452528884,140,12,12.198541397523227,12.659072095468847,12.873632050967467
1770452528888,146,18,18.70821909414946,18.606650121762232,19.366966839214125
1770452528892,152,24,25.18495306730061,24.943776454567377,25.82281677329579
1770452528896,158,30,29.8718498752819,30.916033612531127,30.49046562970197
1770452528900,160,32,31.229075567485925,32.55671533984854,31.8354385771031
1770452528904,156,28,28.720483152098694,28.664842295899575,29.32409745445819
1770452528908,151,23,23.154356493079728,23.52201140456352,23.76243171758492
1770452528912,144,16,16.325767458566425,17.106794274245512,16.938509363913838
1770452528916,137,9,10.160615216608573,9.687676371774096,10.770685671390416
1770452528920,133,5,5.85460418933872,5.867794686314508,6.451620766307803
1770452528924,132,4,3.4816091889369423,4.333384372042233,4.057966236457493
1770452528928,130,2,2.2486480431774183,2.8375932706061544,2.802975365531144
1770452528932,129,1,1.1656382430996417,1.8481741850383904,1.702806345586316
1770452528936,127,-1,-0.3396103597274837,-0.1559552171672196,0.1884081434246474
1770452528940,125,-3,-2.215901717373675,-2.2105560479614543,-1.690617332542625
1770452528944,124,-4,-4.006684283618814,-3.68283935760011,-3.4828376019143343
1770452528948,122,-6,-5.23609307738816,-5.07631012051862,-4.717495734000948
1770452528952,122,-6,-5.682478810586086,-5.265733776590165,-5.174985316971012
1770452528956,122,-6,-5.422142317900873,-5.02435662223095,-4.930215064566864
1770452528960,123,-5,-4.709010329041137,-4.3539199668412785,-4.234006575255137
1770452528964,124,-4,-3.832416240477645,-3.569596769789063,-3.3727582681577255
1770452528968,124,-4,-3.0439416305585314,-3.161985168591447,-2.5964558519617498
1770452528972,125,-3,-2.537939439354963,-2.2095429109209266,-2.0997413637771887
1770452528976,125,-3,-2.418347747765093,-2.0473150504096416,-1.988441613277017
1770452528980,125,-3,-2.636374580719936,-2.3771826268166523,-2.2159169683060194
1770452528984,125,-3,-2.970396143507456,-2.5318339589488454,-2.5613859873678058
1770452528988,124,-4,-3.1245244580405043,-3.2156466480055825,-2.7281764290947943
1770452528992,124,-4,-2.917525327873091,-3.1422190830016463,-2.534062262415434
1770452528996,125,-3,-2.4208594640137604,-2.11265420345637,-2.0507558612395083
1770452529000,126,-2,-1.918253001883358,-1.317162562462971,-1.5627878908229929
1770452529004,126,-2,-1.711295353751125,-1.608943739970072,-1.3711019516573355
1770452529008,125,-3,-1.9299989579991743,-2.130899687612936,-1.60356402738506
1770452529012,125,-3,-2.4785331220585993,-2.24842853389064,-2.1631700435768404
1770452529016,124,-4,-3.11026217630086,-2.9925554035734465,-2.8046579086104124
1770452529020,124,-4,-3.5469645252374606,-3.4485104446067867,-3.252215952028096
1770452529024,124,-4,-3.5802834937117884,-3.4726900398309937,-3.298517728075638
1770452529028,124,-4,-3.1362861563614293,-3.27119526837794,-2.8689144761065144
1770452529032,125,-3,-2.2937822738438136,-2.116998384242427,-2.0412107797172903
1770452529036,126,-2,-1.250550814617621,-1.1158492040833312,-1.012885363016932
1770452529040,127,-1,-0.2535684741582062,-0.3376856496971094,-0.03093326910713
1770452529044,128,0,0.4740502647909643,0.4210865697140814,0.681865354961831
1770452529048,128,0,0.7890216902170442,0.8177310787462513,0.9829069301150976
1770452529052,128,0,0.6650947203766062,0.7896553236910371,0.8464470322278888
1770452529056,127,-1,0.207047266912026,-0.0232383327507519,0.3769420896162331
1770452529060,127,-1,-0.3720644484831599,-0.4271922841489028,-0.2139925232823906
1770452529064,127,-1,-0.8169958330438463,-0.5014291345590642,-0.6727392709406778
1770452529068,126,-2,-0.9294655310567688,-1.2473433218819523,-0.8011106073178157
1770452529072,126,-2,-0.665007520028253,-1.1756974512182874,-0.5529468762027712
1770452529076,127,-1,-0.1613248480347782,-0.0232411893432252,-0.0643544071995129
1770452529080,128,0,0.3515874155567924,0.5429393619313029,0.4346799604022754
1770452529084,128,0,0.7116182395182369,0.5385125942377382,0.7811546892158887
1770452529088,128,0,0.9221087086211928,0.7125718582716755,0.9779338117763958
1770452529092,128,0,1.1009999972203406,0.8205476754305185,1.1429904564940545
1770452529096,128,0,1.3366222335778262,1.027846501008328,1.3645675741889212
1770452529100,129,1,1.5885377235478653,1.4436520307524283,1.601891889614683
1770452529104,129,1,1.7210488264653394,1.6877504352761117,1.7191420407903588
1770452529108,129,1,1.632406521366582,1.5223201572427345,1.6150257840680489
1770452529112,128,0,1.3605687833811635,1.0078848264092486,1.3283492363077145
1770452529116,128,0,1.0740984656440606,0.8438404300833058,1.0282905749110751
1770452529120,128,0,0.9609612352284016,0.6070584874316922,0.9025746569305744
1770452529124,128,0,1.1123811990072012,0.5680051177058854,1.0411396382691702
1770452529128,129,1,1.4938084120502595,1.5939687679731374,1.4078706616821346
1770452529132,129,1,2.008465123776314,1.9707007572464896,1.905801789518456
1770452529136,129,1,2.572636270161075,1.827721723349228,2.4531960371719173
1770452529140,130,2,3.1296523699249867,2.665139579375837,2.995783076084683
1770452529144,131,3,3.6213643422818063,3.479970913571815,3.4755666325367622
1770452529148,131,3,3.9862033031348503,3.695506940353406,3.828624024750447
1770452529152,131,3,4.19599167282381,3.8578119963882687,4.024402840164894
1770452529156,131,3,4.272759564362998,3.92532768146891,4.084848141465205
1770452529160,131,3,4.246599650324673,3.5803275261714016,4.042120052052973
1770452529164,131,3,4.097395069587539,3.540161818857585,3.878256781038764
1770452529168,131,3,3.759230912699945,3.671306469205604,3.527770682272742
1770452529172,130,2,3.2032633266081403,2.8312479456424144,2.960449187312459
1770452529176,129,1,2.516394106546189,1.996681798487898,2.261290649281774
1770452529180,129,1,1.8755770813341563,1.4478533929674344,1.6061505790068011
1770452529184,128,0,1.412716886701116,0.7228523214086922,1.1273560361261823
1770452529188,128,0,1.080167911163238,0.4463502686177424,0.7788906221476051
1770452529192,127,-1,0.6507275316848957,0.0923466843252658,0.3350160908833473
1770452529196,127,-1,-0.1121477039972418,-0.2939965338732282,-0.4406523138150131
1770452529200,126,-2,-1.2332762454684048,-1.2707466314595277,-1.5736325092177097
1770452529204,124,-4,-2.450617374256176,-3.534080354143547,-2.802385141768805
1770452529208,123,-5,-3.3773651195739545,-4.367103787514961,-3.740594522872049
1770452529212,123,-5,-3.775805336583496,-3.9870424945430663,-4.151652406309104
1770452529216,123,-5,-3.712143176910871,-4.344684002418983,-4.102582816703666
1770452529220,123,-5,-3.47886933562744,-4.0840010881003845,-3.885001008295854
1770452529224,124,-4,-3.3708327150154003,-3.8385353724945697,-3.7916916098274687
1770452529228,123,-5,-3.492875332873054,-4.014052815373163,-3.926081602745752
1770452529232,123,-5,-3.72637478331927,-4.35022127795042,-4.169675661070607
1770452529236,122,-6,-3.858484821892997,-5.034688817625264,-4.311005248150238
1770452529240,123,-5,-3.759532632488471,-4.290612204987722,-4.2224121437077
1770452529244,124,-4,-3.4662739156248397,-3.760160463751453,-3.942106849225951
1770452529248,123,-5,-3.1264198769738916,-3.970580566547319,-3.6171593994361775
1770452529252,124,-4,-2.8856060561513215,-3.515064579292124,-3.3906021436284104
1770452529256,123,-5,-2.8172598349839166,-3.785332788647945,-3.333790835841848
1770452529260,124,-4,-2.9148177467768277,-3.598802578243272,-3.440737401315587
1770452529264,124,-4,-3.107777252769908,-3.434889968813417,-3.6431538653104343
1770452529268,123,-5,-3.284853295490052,-4.277754657748318,-3.8308191502829168
1770452529272,123,-5,-3.3389210072767748,-4.2730392244251,-3.8957129654064175
1770452529276,123,-5,-3.223137456618738,-3.942596270009576,-3.7901042711310735
1770452529280,124,-4,-2.972130416550314,-3.551020630395916,-3.549283485810561
1770452529284,124,-4,-2.670541608508114,-3.372495781694213,-3.2590204594748613
1770452529288,124,-4,-2.409571178289209,-3.432323271816776,-3.01023512648936
1770452529292,124,-4,-2.2710832699193895,-3.069460105019613,-2.8831248490129657
1770452529296,124,-4,-2.3224581817015704,-3.1833390061430915,-2.9437461440785433
1770452529300,124,-4,-2.5829461044737605,-3.313678454457862,-3.211637246173971
1770452529304,124,-4,-2.970644595530967,-3.5806772176732755,-3.606386997036827
1770452529308,123,-5,-3.2946327832506332,-4.258706570696826,-3.9383696868038776
1770452529312,123,-5,-3.3414422008457296,-4.227706383423564,-3.994285438632541
1770452529316,123,-5,-3.019343185612771,-4.04676989032402,-3.681744791185857
1770452529320,124,-4,-2.449825260461922,-3.4528604817604776,-3.121697113502631
1770452529324,125,-3,-1.916848458390009,-2.409684466315618,-2.5980353589816114
1770452529328,125,-3,-1.697862681550584,-2.467925236205762,-2.388017345922153
1770452529332,124,-4,-1.9044559214808343,-2.995560806268984,-2.602498168704871
1770452529336,124,-4,-2.449012165626643,-3.3389429247972657,-3.153298867973046
1770452529340,123,-5,-3.1381906709268064,-4.114184046747155,-3.847655928323073
1770452529344,123,-5,-3.794930707987444,-4.7873613742325745,-4.5100104834498485
1770452529348,122,-6,-4.315861782887213,-5.031116967733789,-5.038039029882263
1770452529352,122,-6,-4.652056552228602,-5.495182527449092,-5.382253125666263
1770452529356,121,-7,-4.7696948151045655,-5.821372260373212,-5.507047969868435
1770452529360,122,-6,-4.6447631226678805,-5.643490258384052,-5.387239792370329
1770452529364,122,-6,-4.2899787105438385,-5.267094414522049,-5.0364188634111855
1770452529368,123,-5,-3.7747262805042032,-4.498544235687056,-4.526035820442495
1770452529372,123,-5,-3.2185870947322153,-4.111645635693799,-3.9765520837569666
1770452529376,123,-5,-2.7715739160920423,-4.134793822689603,-3.536645855605498
1770452529380,124,-4,-2.585915170810562,-3.435720023757256,-3.356500457875202
1770452529384,124,-4,-2.763578452483635,-3.363365742625407,-3.5373193309563487
1770452529388,123,-5,-3.2893286042301817,-4.495375783777954,-4.064813474801338
1770452529392,122,-6,-4.0037950150730595,-5.041389876310738,-4.781386469081417
1770452529396,122,-6,-4.659805762047724,-5.283854967793715,-5.441121437903157
1770452529400,121,-7,-5.041687099457965,-6.264735286420626,-5.827906660263401
1770452529404,121,-7,-5.073458159709615,-6.513979706144032,-5.863919505669108
1770452529408,122,-6,-4.834002350612317,-5.370619875297577,-5.626719357091841
1770452529412,122,-6,-4.455855791563856,-5.115867238450817,-5.249339604603595
1770452529416,122,-6,-3.9917678060997743,-5.309545239276486,-4.786059658949773
1770452529420,123,-5,-3.3818503134414137,-4.161777286260016,-4.177979630258619
1770452529424,124,-4,-2.56333491134656,-3.6849604287799664,-3.3620818038038136
1770452529428,124,-4,-1.6176085488750247,-3.142956702232229,-2.4187816664488393
1770452529432,126,-2,-0.7963569132852819,-1.3620584267436944,-1.5991439041402924
1770452529436,126,-2,-0.3669019912654847,-1.099125973040713,-1.1705665082517576
1770452529440,126,-2,-0.3897369203855341,-1.3477154778774012,-1.1934780460595338
1770452529444,126,-2,-0.6291484014557491,-1.5374732460875873,-1.431431976909787
1770452529448,125,-3,-0.6953165400197585,-2.245431497504798,-1.494306445393288
1770452529452,126,-2,-0.3090720690770772,-1.3063876053697432,-1.1044958810977858
1770452529456,127,-1,0.5248764053813475,-0.1139991909507064,-0.2694148412401009
1770452529460,128,0,1.5522296876561223,0.6128609503306934,0.755666717243554
1770452529464,129,1,2.4394104519146675,1.5557434137194568,1.6396616464135016
1770452529468,129,1,2.92785175088414,1.6172630889436412,2.1279145534286252
1770452529472,129,1,2.898957902120353,1.830803447212736,2.10327146533692
1770452529476,129,1,2.382809618280433,1.7513229806309971,1.5935517734317688
1770452529480,128,0,1.5492143080135767,0.7116343135479312,0.7654155182423027
1770452529484,127,-1,0.6592044871002869,-0.4795975741639389,-0.1209522003218173
1770452529488,126,-2,-0.0454913678708028,-1.4166491774420376,-0.8226023585235378
1770452529492,126,-2,-0.4596599918481434,-1.089242824850184,-1.2334588104023148
1770452529496,126,-2,-0.6473918256141795,-1.3771903207793668,-1.4179392666142634
1770452529500,125,-3,-0.7716283266806172,-2.128882065506292,-1.539223984139177
1770452529504,126,-2,-0.9887967757040506,-1.6342375767370931,-1.753011311140304
1770452529508,125,-3,-1.3804074600523242,-2.2975718009383614,-2.1396923790415614
1770452529512,124,-4,-1.9409531349009503,-3.1917271868462844,-2.693276091078358
1770452529516,124,-4,-2.60122368751064,-3.3209210557227578,-3.345286299579583
1770452529520,123,-5,-3.25873074703605,-4.123854211540317,-3.9948653306265287
1770452529524,123,-5,-3.806098159110813,-4.694208507350076,-4.535931942228353
1770452529528,122,-6,-4.167666653581074,-5.185247368252681,-4.892694452122022
1770452529532,122,-6,-4.339832528806354,-5.379538479143869,-5.0600773618684345
1770452529536,122,-6,-4.39945035129509,-5.09552226477148,-5.113119189509011
1770452529540,122,-6,-4.452922694122798,-5.350974940729473,-5.1572366716150695
1770452529544,122,-6,-4.5505115993048,-5.482423519777493,-5.243565561008249
1770452529548,122,-6,-4.628158323144692,-5.363346766523916,-5.310849660921649
1770452529552,122,-6,-4.524525254814535,-5.287839639719632,-5.200479792880051
1770452529556,122,-6,-4.068141530045105,-5.118833588151992,-4.740592023228997
1770452529560,123,-5,-3.168275395764596,-4.375452809970706,-3.836180935980488
1770452529564,125,-3,-1.8160042775762073,-2.4076071264855576,-2.4733558486131466
1770452529568,127,-1,0.0344599829422236,-0.4727444202925305,-0.6052309008739869
1770452529572,129,1,2.5938338449847773,1.80716528991188,1.9744294715323152
1770452529576,133,5,6.183951893716943,5.78915110724556,5.580403922797901
1770452529580,137,9,10.919922353273645,9.722334538008688,10.32361753555334
1770452529584,142,14,16.305090509703394,14.492919575591552,15.709252352561176
1770452529588,148,20,21.109069933572115,20.635256323985445,20.51309576118748
1770452529592,151,23,23.79303474714199,23.657773324591147,23.202642376376826
1770452529596,150,22,23.331591348138303,22.93599275306065,22.75580540004532
1770452529600,147,19,19.88647735476752,19.5760209135967,19.333336742879823
1770452529604,141,13,14.807910440774236,13.59610894671534,14.2804192655375
1770452529608,136,8,9.906107394405954,8.561675100918848,9.400381212058814
1770452529612,133,5,6.469860842850386,5.700148466478696,5.9771687331166135
1770452529616,131,3,4.682169493343068,3.964769845102662,4.194220303556217
1770452529620,131,3,3.775377162336147,3.5250409524210156,3.2894537068188403
1770452529624,130,2,2.7378775184753743,2.6723713438199344,2.258305804730512
1770452529628,128,0,1.0324125458382336,0.4101323803641078,0.5676913380792015
1770452529632,125,-3,-1.1522654103116583,-2.143681992814619,-1.5944928072423057
1770452529636,123,-5,-3.199420311650652,-4.187225770734551,-3.616586245602252
1770452529640,122,-6,-4.589458716417458,-5.318147145594219,-4.985205900164295
1770452529644,122,-6,-5.2270840969370855,-5.444581113181867,-5.608491987605802
1770452529648,122,-6,-5.38744818486952,-5.54158461267902,-5.759882905119483
1770452529652,121,-7,-5.430219416712862,-6.156190974199547,-5.793494948307748
1770452529656,121,-7,-5.559236125914897,-6.228135222652536,-5.908180258525112
1770452529660,121,-7,-5.775589701747073,-6.219939765682198,-6.104320230360236
1770452529664,121,-7,-5.972794289936913,-6.584480949775287,-6.27878403714576
1770452529668,121,-7,-6.044724595302256,-6.386527573617837,-6.329597216114841
1770452529672,121,-7,-5.932669147266461,-6.338006570482585,-6.200004128428499
1770452529676,121,-7,-5.623455214575582,-6.0520301755145525,-5.875809013434774
1770452529680,122,-6,-5.145504344973444,-5.365030145112475,-5.38263898715056
1770452529684,122,-6,-4.5811977475278995,-5.467800903573075,-4.800619607676817
1770452529688,123,-5,-4.062236143281146,-4.493773926935028,-4.261619845164368
1770452529692,124,-4,-3.7095267536041048,-3.260494055074787,-3.888554156117142
1770452529696,123,-5,-3.5492304061191335,-4.121545189715523,-3.7087346387162854
1770452529700,123,-5,-3.495172648267207,-4.29650400385438,-3.635119927682276
1770452529704,124,-4,-3.4285822022515178,-3.520100799520042,-3.5480499792739746
1770452529708,124,-4,-3.2918939494741104,-3.4918874357492773,-3.390780212088833
1770452529712,124,-4,-3.1054073080334232,-3.228217365479452,-3.184786158168476
1770452529716,124,-4,-2.9160919481943584,-3.1845826973242777,-2.9765098361327804
1770452529720,124,-4,-2.7486998917633265,-3.203136716787323,-2.7890215777695446
1770452529724,125,-3,-2.5921472561525816,-2.637983893483142,-2.6106021348823893
1770452529728,125,-3,-2.404978322472588,-2.3842967401202704,-2.400798176367232
1770452529732,125,-3,-2.1300723424096417,-2.3386897606915085,-2.103617599034668
1770452529736,125,-3,-1.7291573491448786,-2.07119756308746,-1.6809578835399206
1770452529740,126,-2,-1.2260587726792258,-1.3071492423262612,-1.1564444624580918
1770452529744,127,-1,-0.7166879910012927,-0.5574622132718973,-0.6260465092255107
1770452529748,127,-1,-0.3256261035613609,-0.4598258518961247,-0.2141262951849836
1770452529752,127,-1,-0.1413455157732005,-0.2872697616661835,-0.0082120305254009
1770452529756,127,-1,-0.174301920624495,-0.0987045002039427,-0.0178741557030308
1770452529760,127,-1,-0.351422530294656,-0.3005858436811036,-0.1702584189553839
1770452529764,127,-1,-0.539344946962367,-0.557644675624275,-0.3332710447946333
1770452529768,127,-1,-0.5908353480992851,-0.4780632603042966,-0.3609420152192528
1770452529772,127,-1,-0.4065864444059993,-0.267066935047179,-0.154205175697529
1770452529776,127,-1,0.0114843057564015,-0.1146676722513676,0.2858958885210238
1770452529780,128,0,0.551421178398378,0.7096950325972868,0.8485062691560444
1770452529784,129,1,1.0481962641245255,1.435722616413253,1.3690323713460022
1770452529788,129,1,1.3807192539234328,1.4970701113856797,1.7261471824881351
1770452529792,129,1,1.5406476941763536,1.7801754489059776,1.911124305279348
1770452529796,129,1,1.619623677535316,1.8079307370195752,2.015293086100237
1770452529800,129,1,1.7293645465930427,1.8138257495541783,2.150038486708356
1770452529804,130,2,1.9234485193390372,2.303591867253674,2.3687152832294927
1770452529808,130,2,2.1795140865550686,2.6362734841065665,2.6491790925001975
1770452529812,130,2,2.442151523435964,2.634844494009152,2.936540522786657
1770452529816,130,2,2.6802624710706993,2.94516106605112,3.1998272919849797
1770452529820,131,3,2.913361318659686,3.685463612862195,3.458140031609332
1770452529824,131,3,3.1896885663869754,3.413718252946302,3.759609402859104
1770452529828,131,3,3.532168004341834,3.5204167428885373,4.127703498888662
1770452529832,132,4,3.900707275674243,4.767090339396035,4.522587063670462
1770452529836,132,4,4.2163196684092386,4.773327542592574,4.8646356058851365
1770452529840,132,4,4.428232379814118,4.903674095190581,5.102360247464518
1770452529844,133,5,4.548248616753264,5.140847852096547,5.247638066508808
1770452529848,132,4,4.611065964300788,4.822495881295506,5.335752989657203
1770452529852,133,5,4.606670304798886,5.431543967206574,5.357148731189042
1770452529856,132,4,4.46262654247878,5.130558917572468,5.2396037105509174
1770452529860,132,4,4.099544611738022,4.538276717935753,4.9036757256322385
1770452529864,132,4,3.51036016395963,4.491888717958408,4.341739576709727
1770452529868,131,3,2.7908832334498967,3.4874228317396803,3.648850893305059
1770452529872,130,2,2.0838944866726345,2.70081367282227,2.9677823585280976
1770452529876,129,1,1.4693893077971627,1.9610628966650323,2.379349066314655
1770452529880,129,1,0.8958621300878351,1.5854183656327818,1.8324865676425792
1770452529884,129,1,0.2315027331869605,1.5805867166991812,1.194831653045351
1770452529888,128,0,-0.5973571840095349,0.2434871592467579,0.3922175572359906
1770452529892,126,-2,-1.5115356412020478,-0.9322182821647328,-0.4956780044727024
1770452529896,126,-2,-2.319815227805723,-1.5111122744695271,-1.276868383427222
1770452529900,125,-3,-2.848962792397749,-1.87394749472188,-1.7781250869764582
1770452529904,126,-2,-3.0413310545235426,-1.9905512128772895,-1.9423802123341172
1770452529908,125,-3,-2.9532842614862207,-2.1966259877765175,-1.8265579813648525
1770452529912,126,-2,-2.6851541702330888,-1.458102050329537,-1.5315669997589323
1770452529916,126,-2,-2.3194289883896597,-1.0617461926694047,-1.1402957624296066
1770452529920,126,-2,-1.9233337966548152,-1.237994472672216,-0.7193954814659029
1770452529924,127,-1,-1.6029313587037348,-0.7235847921159455,-0.3735024572561157
1770452529928,127,-1,-1.5238056229532797,-0.3781825803801611,-0.2673819139125053
1770452529932,127,-1,-1.8251793693049232,-0.3614215199903072,-0.5407785480130758
1770452529936,126,-2,-2.4737320969413563,-1.10871077071434,-1.1611303062160574
1770452529940,125,-3,-3.205769176518976,-2.2212671528418615,-1.8647076371228355
1770452529944,125,-3,-3.652047483758736,-2.7423980297835144,-2.2822497276550244
1770452529948,125,-3,-3.5679126379830564,-2.3533118018324286,-2.1702905324424355
1770452529952,126,-2,-2.9883835886529253,-1.397841292289118,-1.5654005239370954
1770452529956,126,-2,-2.1984786157976153,-1.0636058819167582,-0.752390904906409
1770452529960,127,-1,-1.5607712122365702,-0.2616507583998829,-0.0914860484540724
1770452529964,128,0,-1.324083575654354,0.261205141629917,0.170939545435348
1770452529968,127,-1,-1.5157802770565236,-0.3437846466858777,0.0080520218332547
1770452529972,127,-1,-1.9565018753482877,-0.4361947032160682,-0.4022805958034533
1770452529976,126,-2,-2.3743828547253196,-0.9948914642621282,-0.7905089337243844
1770452529980,126,-2,-2.550005063512186,-1.3474138967924327,-0.93913104241955
1770452529984,127,-1,-2.413355774863448,-0.6594092761122223,-0.7786508266124919
1770452529988,127,-1,-2.0520075357790972,-0.4204557870036502,-0.3950459198846025
1770452529992,127,-1,-1.6479564309257386,-0.3836829700517716,0.0326901512632303
1770452529996,127,-1,-1.385865455847098,-0.0130441611814864,0.321691551000375
1770452530000,128,0,-1.3617860182801629,0.6343473309261984,0.3745488355105326
1770452530004,128,0,-1.5245481289989455,0.3644280005609543,0.2395218008900065
1770452530008,127,-1,-1.7053389276251436,-0.4551403312218859,0.0843073441500035
1770452530012,127,-1,-1.7495023301646322,-0.3595100097776267,0.0648099743216817
1770452530016,127,-1,-1.6512862283006486,-0.0141262766612017,0.1878820447029141
1770452530020,128,0,-1.55388276286579,0.6037349132063532,0.3099135435843314
1770452530024,128,0,-1.6044045319780498,0.4224735166735513,0.283458202214317
1770452530028,127,-1,-1.8100046026325405,-0.5514812574672365,0.1024749466130336
1770452530032,127,-1,-2.0335516308407646,-0.2534765573878777,-0.0948019672744079
1770452530036,127,-1,-2.1127387570220058,-0.1282944599967928,-0.1469438531061375
1770452530040,127,-1,-1.9784982496081531,-0.2895789602236491,0.0129383137739589
1770452530044,128,0,-1.6857613376022789,0.3398097246367653,0.3288519056235329
1770452530048,128,0,-1.3647409697410673,0.5039353577933676,0.6716882196970964
1770452530052,128,0,-1.14734817897153,0.6819432775355422,0.91157655191978
1770452530056,128,0,-1.1118753628380462,0.941462608125608,0.9713259179596108
1770452530060,128,0,-1.2609112332711918,0.6161155718121547,0.8477465772110695
1770452530064,128,0,-1.5300367653372906,0.4738489515773452,0.603715738714611
1770452530068,128,0,-1.820483210908916,0.3210809347780369,0.3369756981198741
1770452530072,127,-1,-2.046469710699175,-0.1077557996570783,0.1335786725266355
1770452530076,127,-1,-2.1774222633367017,-0.3152657500332603,0.0249714717751038
1770452530080,127,-1,-2.244267645201839,-0.0797689206734199,-0.0195492227831304
1770452530084,128,0,-2.295790372740768,0.1299541466779439,-0.0491627065116249
1770452530088,127,-1,-2.3400995116946133,-0.3029465730221127,-0.0717692874018038
1770452530092,127,-1,-2.3298344029379416,-0.5298766735591252,-0.0390144571939349
1770452530096,127,-1,-2.202077012515069,0.1148879737353101,0.1123211756570776
1770452530100,128,0,-1.923633938941605,0.4960214306326886,0.4142073801401742
1770452530104,128,0,-1.503527614314343,0.540446229023698,0.8560968006985566
1770452530108,129,1,-0.9890952895199951,1.3191286284200996,1.3904136790774948
1770452530112,129,1,-0.4713406335171057,1.781319841498194,1.9271980140500653
1770452530116,129,1,-0.0836995717729069,1.8448524044314196,2.3341127886483224
1770452530120,130,2,0.04274843429369,2.713022801171612,2.480468700142184
1770452530124,130,2,-0.1342175111424064,2.3976790761654,2.3241138488179978
1770452530128,129,1,-0.500873669136197,1.3789520325691045,1.978954630102184
1770452530132,129,1,-0.806196550497029,1.7834084488878583,1.69580273866889
1770452530136,129,1,-0.7700462134653276,1.7550761449472445,1.7537031796485394
1770452530140,129,1,-0.2233483318732558,1.8682737022413365,2.3203757062169963
1770452530144,131,3,0.7908654761844511,3.23115225111799,3.3521298888837654
1770452530148,132,4,2.009063965609565,4.536858798418272,4.585831801462388
1770452530152,133,5,3.0445926873349265,5.626739882226128,5.636265423059115
1770452530156,133,5,3.5454136231659774,5.859787573518055,6.153395238362651
1770452530160,133,5,3.334484482549966,5.805172535262901,5.96143827959842
1770452530164,133,5,2.4752135052308675,5.268896988495432,5.123117851178531
1770452530168,131,3,1.2432043475371095,3.5156474692368778,3.9117403362241863
1770452530172,130,2,0.0147588736373559,2.618852204345846,2.7014706162099857
1770452530176,129,1,-0.8882813880076161,1.85567129915978,1.813873514994763
1770452530180,128,0,-1.3302137816970163,0.8364749376267981,1.386290022627401
1770452530184,129,1,-1.399780380285542,1.2155994025102754,1.3316938384045731
1770452530188,129,1,-1.3255285526648957,1.616633953466622,1.4215604203460703
1770452530192,129,1,-1.3197263030349693,1.432022073092985,1.4424629855550304
1770452530196,128,0,-1.46834909180166,1.0904750410123811,1.3080460061982335
1770452530200,128,0,-1.748542015128113,0.5602899408021589,1.0421026621112812
1770452530204,128,0,-2.126453591280527,0.5088536828225447,0.6792769466408377
1770452530208,128,0,-2.6080244671738217,0.35224418200269,0.2131417308325559
1770452530212,127,-1,-3.1833654817902857,-0.3862814067056916,-0.3474876773748285
1770452530216,126,-2,-3.741522184199813,-1.0091649878119076,-0.8920476604264997
1770452530220,126,-2,-4.076093060751341,-1.443941891297714,-1.213641886299988
1770452530224,126,-2,-4.009153364421618,-1.3858240715033805,-1.1337094327021573
1770452530228,127,-1,-3.537550034656733,-0.8292043817335746,-0.649045562708574
1770452530232,127,-1,-2.8727415469856075,-0.160216381931614,0.0280799153759942
1770452530236,128,0,-2.3257765292925807,0.7237223611839042,0.5853258809323925
1770452530240,128,0,-2.1110442185918696,0.8275308091559832,0.8077623446167352
1770452530244,128,0,-2.2041139712465236,0.3473165863715142,0.7213395452256616
1770452530248,128,0,-2.3355855486526784,0.4141445043154491,0.598794588883849
1770452530252,128,0,-2.0857767240254947,0.6197195701242616,0.8625892136369956
1770452530256,129,1,-0.9858565277349448,1.894052192505056,1.9809437882079328
1770452530260,132,4,1.40868319836054,4.719409261266094,4.393841622405553
1770452530264,136,8,5.402921310525767,8.397702465591975,8.400815881615527
1770452530268,141,13,10.934028911224,13.423936471739662,13.936457610376872
1770452530272,147,19,17.31192814376309,19.541422664781187,20.312559169818
1770452530276,153,25,23.18437601427544,26.0050213010645,26.181600915030305
1770452530280,158,30,26.936539612823992,30.576309112212957,29.934093716932136
1770452530284,158,30,27.4181594009102,30.549218532653818,30.423932367857656
1770452530288,155,27,24.56929376007916,27.248722235288447,27.591729442346207
1770452530292,150,22,19.512591209596184,22.66978996153388,22.55535889879228
1770452530296,144,16,14.013361974546136,16.899316349515775,17.072329775710756
1770452530300,139,11,9.607882279152248,11.66339392542734,12.673548030398166
1770452530304,137,9,6.907412265397505,9.55228869879182,9.970634464452267
1770452530308,137,9,5.488034090442138,9.193268693892556,8.54461225503156
1770452530312,135,7,4.399459761453283,7.744082783465224,7.451647088316784
1770452530316,133,5,2.900133562569617,5.781055725232889,5.955079508011238
1770452530320,131,3,0.8992873507686672,3.7748069661508192,3.964635815822152
1770452530324,129,1,-1.1332257900426148,1.4746743013681889,1.9454493056772488
1770452530328,128,0,-2.614800350594548,0.2086057828928497,0.4733603509706133
1770452530332,127,-1,-3.277662861259088,-0.1919635353461286,-0.1875035190750505
1770452530336,127,-1,-3.2986275199826656,-0.3902323776067651,-0.2120415250823999
1770452530340,127,-1,-3.1089572779777295,0.0527724907663565,-0.0264282063023824
1770452530344,128,0,-3.071921848200216,0.1073297492821341,0.0099086276003566
1770452530348,127,-1,-3.266917170495055,-0.378651601486392,-0.1820574794471229
1770452530352,127,-1,-3.5115773335632565,-0.6419916447612255,-0.4220494982795175
1770452530356,126,-2,-3.5685330302782856,-0.9568191601269044,-0.4751997739390201
1770452530360,127,-1,-3.350602325875282,-0.3429798686970771,-0.2560368184034642
1770452530364,128,0,-2.962640191287537,0.4666597790518209,0.1301918839642535
1770452530368,128,0,-2.579089980332842,0.3036549074067307,0.5101978033187445
1770452530372,128,0,-2.298631036364071,0.6097956693279164,0.787333965591271
1770452530376,128,0,-2.105844554358673,0.8266196324462819,0.9783835799603348
1770452530380,128,0,-1.939895617240412,0.82580722617478,1.143911519592746
1770452530384,129,1,-1.7720735272693986,1.3517139168023071,1.3112811090076697
1770452530388,129,1,-1.6126596227949352,1.3839034073196383,1.4690542134692106
1770452530392,129,1,-1.4573630087602898,1.533709688379853,1.6212695655561435
1770452530396,129,1,-1.2475656975382643,1.878796407102472,1.8270401349385264
1770452530400,129,1,-0.9017840546629968,1.7755508758929692,2.1684755579994945
1770452530404,130,2,-0.3989805586261883,2.4085198647485724,2.666793821102198
1770452530408,131,3,0.167726909292583,3.3352805031826325,3.228581016314901
1770452530412,131,3,0.6297918390068973,3.559168021937302,3.685146195815816
1770452530416,131,3,0.8511005188694636,3.839455988383961,3.900849633948963
1770452530420,131,3,0.8167518273326286,3.824529882633018,3.861373434831135
1770452530424,131,3,0.6344204925953749,3.3329738099738155,3.6741604242484094
1770452530428,131,3,0.4555098401005542,3.4560905223539744,3.489552452299188
1770452530432,131,3,0.3806054975722304,3.379396066185749,3.407373784932486
1770452530436,130,2,0.41351068296519,3.0502633255060827,3.4319018158678576
1770452530440,131,3,0.4868652556239273,3.5810268813906765,3.497010696452603
1770452530444,131,3,0.5349897266446053,3.5986907623331885,3.537658352930169
1770452530448,131,3,0.5588007917746053,3.183702927557384,3.554067202862354
1770452530452,131,3,0.6323146624118797,3.630247693816413,3.618903681415667
1770452530456,131,3,0.8446471956318005,3.813709114629937,3.8208819681570025
1770452530460,131,3,1.22236847784511,3.769758374325313,4.187970903202207
1770452530464,132,4,1.696863528549084,4.4776544198540424,4.653359163581237
1770452530468,133,5,2.1559031655598213,5.238221507185587,5.10461275446574
1770452530472,133,5,2.5476092612258356,5.6222295526081405,5.487430527019649
1770452530476,133,5,2.9332753569361687,5.7637798548795,5.861151724337723
1770452530480,133,5,3.4077603912691377,5.841648245602698,6.321457127520025
1770452530484,134,6,3.9437929308214894,6.4012793682556435,6.843713285323975
1770452530488,135,7,4.33250154445218,7.307105033356544,7.220629270351506
1770452530492,135,7,4.327628977783638,7.567913781846014,7.205238445293568
1770452530496,134,6,3.8883134114114415,6.7754441657926,6.755085578683048
1770452530500,133,5,3.2808556867209084,5.85638359812554,6.135687407651012
1770452530504,133,5,2.9102166611564866,5.343886325030899,5.752010478726008
1770452530508,133,5,3.0097155836725715,5.404980816132967,5.837241790682451
1770452530512,134,6,3.4612815071363316,6.434887708364321,6.2730470407636645
1770452530516,134,6,3.9043867122742104,6.950846783128495,6.69948860306322
1770452530520,134,6,4.034185595916171,6.620995798535154,6.81336265115696
1770452530524,134,6,3.8338977133084287,6.614879701725108,6.5991460302258025
1770452530528,134,6,3.5614920341507648,6.0786552477479745,6.314193050362792
1770452530532,133,5,3.523191986326486,5.796449951692344,6.262584854420032
1770452530536,134,6,3.826806330151032,6.582103655355161,6.550316576292065
1770452530540,134,6,4.302877528482465,6.9809202983003855,7.007933277185105
1770452530544,135,7,4.635459121207395,7.2690843891049965,7.321143626779167
1770452530548,135,7,4.582346607760585,7.3669930634794545,7.249593846060603
1770452530552,134,6,4.112393241147198,6.569101961044177,6.762859791106177
1770452530556,133,5,3.372099560892525,5.720664081614979,6.006799235511692
1770452530560,132,4,2.536138834595049,4.947930466345994,5.154695793568546
1770452530564,132,4,1.6814320940803058,4.1770956871357185,4.2822443171402655
1770452530568,131,3,0.7844447661081702,3.565073921610592,3.365702041404256
1770452530572,130,2,-0.1822428120966082,2.2799918782427633,2.378681003739975
1770452530576,128,0,-1.1644017344558533,1.0638930072199877,1.3767879135948478
1770452530580,128,0,-2.0332010460838865,0.5778397220716747,0.4892743516957984
1770452530584,127,-1,-2.6684859563437837,-0.4691343441683848,-0.1645522187131499
1770452530588,127,-1,-3.0381321066897966,-0.7693961602291071,-0.5537201251225614
1770452530592,127,-1,-3.209500396060473,-0.4075976148903966,-0.7459186519507849
1770452530596,126,-2,-3.293441194779975,-1.2305335771704762,-0.8513429962807852
1770452530600,126,-2,-3.372725155098124,-1.1559270960227332,-0.9519908374206844
1770452530604,127,-1,-3.4664872850316555,-0.7246880008350893,-1.0668290011566333
1770452530608,126,-2,-3.5466395591870294,-1.5469332862759226,-1.1679296828023258
1770452530612,126,-2,-3.5867373417102617,-1.5950909272786924,-1.2289422360060231
1770452530616,126,-2,-3.599673597492645,-1.0786999364635252,-1.2630993753659634
1770452530620,126,-2,-3.6266238747968593,-1.2793810613456031,-1.3122309033586324
1770452530624,126,-2,-3.690592653905553,-1.6559756374898014,-1.399526818382852
1770452530628,126,-2,-3.770144014394164,-1.5634746418166328,-1.5027872820354855
1770452530632,126,-2,-3.822620205670649,-1.645417800931172,-1.5782926029402788
1770452530636,125,-3,-3.826131620391042,-1.961403109290448,-1.6038693231935215
1770452530640,126,-2,-3.790826115487801,-1.4670124236455837,-1.5905509404178189
1770452530644,126,-2,-3.728881964676417,-1.4226911289390594,-1.551797801161084
1770452530648,126,-2,-3.6243435138868496,-1.838837659796248,-1.4720400431299827
1770452530652,126,-2,-3.448654611137984,-1.3567814062542856,-1.3217754516487457
1770452530656,126,-2,-3.2125394089433765,-1.2429440011070465,-1.1104049793757351
1770452530660,126,-2,-2.9920798365218357,-1.230523222249977,-0.91368283440914
1770452530664,127,-1,-2.8833196774185654,-0.6001865588223578,-0.8286614231365652
1770452530668,127,-1,-2.915282132733207,-0.7465427340591553,-0.8854990382548262
1770452530672,126,-2,-3.008932840733201,-1.3668343415343929,-1.0049715294800523
1770452530676,126,-2,-3.036909782598991,-1.3254487771262191,-1.0584656416108813
1770452530680,126,-2,-2.933440530446948,-1.0715633794402386,-0.9796593807505156
1770452530684,127,-1,-2.7432411386625306,-0.8376246318253601,-0.8142522758770833
1770452530688,127,-1,-2.5629053581866907,-0.443756158652949,-0.6600658671907029
1770452530692,127,-1,-2.4458330924711236,-0.7174324629480331,-0.570334585304191
1770452530696,126,-2,-2.3734823293587106,-0.9721412403201994,-0.5251638275519332
1770452530700,127,-1,-2.3103888634146155,-0.4186845722106771,-0.4882023924119377
1770452530704,127,-1,-2.266445494433355,-0.5351766462119385,-0.4697969012309888
1770452530708,127,-1,-2.294262462200486,-0.6812768557382076,-0.5236089167214292
1770452530712,127,-1,-2.4305562581361224,-0.5453916808222068,-0.6868939646720171
1770452530716,126,-2,-2.6487966311695548,-1.1006036326697792,-0.9328189645117156
1770452530720,126,-2,-2.874327153318794,-1.3532413866931636,-1.1860164360551038
1770452530724,126,-2,-3.049101659090375,-1.5618846904298305,-1.3880384287001994
1770452530728,126,-2,-3.181909081528763,-1.673826510983798,-1.5479792287970544
1770452530732,126,-2,-3.331876057949062,-1.5415229265243564,-1.7255833622837642
1770452530736,125,-3,-3.540505046422784,-2.1123080139351833,-1.9624821616928176
1770452530740,125,-3,-3.780166374547928,-2.3803751615534123,-2.2304960410429056
1770452530744,125,-3,-3.9674755048088866,-2.500121740215977,-2.445692000913952
1770452530748,125,-3,-4.023625379203665,-2.7737962673942347,-2.529357490451199
1770452530752,125,-3,-3.9241312377512783,-2.397852732449525,-2.457572814643386
1770452530756,125,-3,-3.701336017566377,-2.2952070074090027,-2.2630672571019184
1770452530760,125,-3,-3.411869415733866,-2.2019905965030953,-2.0023942529227066
1770452530764,126,-2,-3.106793825319544,-1.6773527035324354,-1.7263742808433935
1770452530768,126,-2,-2.8273175946052245,-1.6107299526490575,-1.476145916904205
1770452530772,126,-2,-2.616874784363035,-1.5348334696031565,-1.295209166863226
1770452530776,126,-2,-2.5216946936591915,-1.1956288935987456,-1.2297018833126725
1770452530780,126,-2,-2.562465696164294,-1.288538122108478,-1.2998200050627835
1770452530784,126,-2,-2.693000386511885,-1.6256981566240216,-1.4586791541023971
1770452530788,126,-2,-2.785586224766959,-1.6282335464050235,-1.5784555149140551
1770452530792,126,-2,-2.6694272707257127,-1.5400676046173396,-1.4894375409275316
1770452530796,126,-2,-2.2122377103389232,-1.1864890240070092,-1.0610030708615954
1770452530800,127,-1,-1.4068313300458395,-0.3074653293483895,-0.2867139148732016
1770452530804,128,0,-0.4135035422612707,0.3729255800923159,0.6740465687147047
1770452530808,129,1,0.4842670118883252,1.4046361206309408,1.5395921250737483
1770452530812,130,2,1.0143506790160766,2.389750551359331,2.039229958350276
1770452530816,129,1,1.074947066007644,1.9125713096496464,2.071686759224199
1770452530820,129,1,0.8088433445074283,1.5318259621550614,1.779213827885412
1770452530824,129,1,0.5286382979937296,1.5759173705766911,1.4727106705902642
1770452530828,129,1,0.5349409904019602,1.1606952097409309,1.4505713769055706
1770452530832,129,1,0.942216109544292,1.6744907666069182,1.8261092624515525
1770452530836,130,2,1.6156472645887088,2.6073485621743826,2.465598515549064
1770452530840,130,2,2.251557238778808,2.819321544910405,3.0681015006903323
1770452530844,131,3,2.5527000873792387,3.295366523055776,3.338659259052158
1770452530848,131,3,2.3987711160374845,3.415541958796862,3.15707365979933
1770452530852,130,2,1.911749736694741,2.447582331204197,2.6434843074850325
1770452530856,129,1,1.3698168466284302,1.796035714617914,2.073942416709616
1770452530860,129,1,1.0193478851574471,1.6578686178705506,1.6937588684781264
1770452530864,129,1,0.9124280801178972,1.4018282904861028,1.5552573815958253
1770452530868,129,1,0.8844822827356855,1.3719514953621332,1.4948383253295972
1770452530872,129,1,0.6842961501898985,1.43563873011405,1.262366429964115
1770452530876,128,0,0.1566383760793175,0.8527914537634296,0.7036468755804453
1770452530880,127,-1,-0.6588364168032823,-0.4631941927908332,-0.1407974606169215
1770452530884,126,-2,-1.5756131880757074,-1.4573676815128378,-1.0846208228339345
1770452530888,126,-2,-2.3933452518311,-1.774271796051221,-1.929329731433855
1770452530892,125,-3,-2.9998531016896126,-2.4214219233227876,-2.565046692891117
1770452530896,124,-4,-3.3902555881520016,-3.256761127350755,-2.987464887681054
1770452530900,124,-4,-3.6357517961726433,-3.428908684911248,-3.2661839057944535
1770452530904,124,-4,-3.841792153303451,-3.4311299926167944,-3.5044349755979187
1770452530908,124,-4,-4.100716675251763,-3.885063604212208,-3.793128128502716
1770452530912,123,-5,-4.442270523418928,-4.213358812607523,-4.161756020252392
1770452530916,123,-5,-4.807441749107287,-4.545224339168344,-4.552537474496928
1770452530920,122,-6,-5.0680810050011935,-5.103178917312746,-4.840231883078938
1770452530924,123,-5,-5.084845714440752,-4.805958787235453,-4.88861821193164
1770452530928,123,-5,-4.7710906203273,-4.494786659578379,-4.611181596234579
1770452530932,123,-5,-4.122306474922314,-4.575583207871148,-3.998872793092896
1770452530936,124,-4,-3.170685236835362,-3.2267946258368316,-3.0776946018107885
1770452530940,126,-2,-1.8528448153859165,-1.3776399230750114,-1.782112029434563
1770452530944,128,0,0.1274333525570439,0.3684048734150538,0.1797637458856846
1770452530948,131,3,3.2613654721285883,3.4321352190797016,3.291816929301836
1770452530952,135,7,7.900748110944534,7.426487346512109,7.901281193906816
1770452530956,140,12,13.76713205491262,12.82468720415157,13.730547129622726
1770452530960,147,19,19.696386026229792,19.52705092877636,19.61988520809052
1770452530964,152,24,23.95509319453648,24.441425816155036,23.840706380548728
1770452530968,153,25,25.05647258103657,25.397910536923483,24.909888750625
1770452530972,150,22,22.568088022039767,22.38954112750202,22.396809789682095
1770452530976,144,16,17.352811478480515,16.899117649370048,17.163195062953548
1770452530980,138,10,11.085600636330698,10.358716099110516,10.879354682920097
1770452530984,132,4,5.396876740242162,4.673472015077202,5.1693481081517545
1770452530988,129,1,1.2018053177445107,1.1854060901711168,0.9440312931199636
1770452530992,126,-2,-1.4373425663622452,-1.3816536995263196,-1.7333195779483308
1770452530996,124,-4,-2.9837933069496927,-3.311174343106801,-3.3196564708897585
1770452531000,123,-5,-3.9750351774346577,-4.533278840488217,-4.345048173966614
1770452531004,122,-6,-4.745752564658253,-5.374883464198969,-5.140977693390311
1770452531008,122,-6,-5.38978930970284,-5.814827885018565,-5.8044001074451055
1770452531012,121,-7,-5.852788301886353,-6.3086560624395025,-6.287483552688262
1770452531016,121,-7,-6.041506604524032,-6.432165214740097,-6.50177516864044
1770452531020,121,-7,-5.912521046289944,-6.4530141121396065,-6.403838450581234
1770452531024,121,-7,-5.538599073227134,-6.4349731463852775,-6.06270288996261
1770452531028,122,-6,-5.122897858621792,-5.783663094899255,-5.677662822179818
1770452531032,122,-6,-4.917097200563696,-5.258005116962917,-5.49901296361731
1770452531036,122,-6,-5.063936363753216,-5.557025134800988,-5.670403196911916
1770452531040,121,-7,-5.4755930706645355,-6.330920965959168,-6.105693592822379
1770452531044,121,-7,-5.860031885285493,-6.587440989159542,-6.514392275663585
1770452531048,121,-7,-5.895597256768934,-6.615623530428807,-6.575862278585479
1770452531052,121,-7,-5.436545440516138,-6.380459821228825,-6.144377493128148
1770452531056,122,-6,-4.608436041478222,-5.462457775277684,-5.344586864967021
1770452531060,123,-5,-3.726385242237723,-4.454177181231787,-4.4906303917620995
1770452531064,124,-4,-3.09043146128771,-3.480838763818449,-3.881897422449301
1770452531068,124,-4,-2.807437575899722,-3.7169857190615,-3.6245124168721903
1770452531072,123,-5,-2.771477271806152,-4.247640256883132,-3.612073672662932
1770452531076,124,-4,-2.7940170702398364,-3.611330823349468,-3.657110819244855
1770452531080,124,-4,-2.7468690747055176,-3.357370752170069,-3.633752233442437
1770452531084,124,-4,-2.605957060176078,-3.5491217648776163,-3.5190352543761927
1770452531088,124,-4,-2.410019461235607,-3.683679368724556,-3.350293649875121
1770452531092,124,-4,-2.2081920310889496,-3.1929225273606368,-3.1745562004703354
1770452531096,125,-3,-2.029403153142185,-2.7604253175115816,-3.0201922205696055
1770452531100,124,-4,-1.868102273713069,-3.179477252951542,-2.882474960545448
1770452531104,125,-3,-1.6872277720846944,-2.7723030932371904,-2.725044190389666
1770452531108,125,-3,-1.4401542043976563,-2.435402094303689,-2.501320682521426
1770452531112,125,-3,-1.0950925808969745,-2.394287508788188,-2.179461782725215
1770452531116,126,-2,-0.644599831500315,-1.6449470617384647,-1.752286317489284
1770452531120,126,-2,-0.1036832394222473,-1.229968574413291,-1.2351170741655857
1770452531124,127,-1,0.4882085568329957,-0.8417562892225793,-0.6673296672630578
1770452531128,127,-1,1.0597655853259031,-0.2389142779627577,-0.1198032620877658
1770452531132,128,0,1.5158735868689497,0.3378728905576719,0.3127842219459907
1770452531136,128,0,1.7781486914806066,0.651202030618714,0.552403557423184
1770452531140,128,0,1.8387198505125777,0.4409472208091177,0.5914667687105745
1770452531144,128,0,1.782774950080177,0.4374368256602554,0.5149796552361271
1770452531148,128,0,1.7543783914593465,0.5714389373578196,0.4660586890103894
1770452531152,128,0,1.880282469683466,0.4533684757917989,0.5703345424484378
1770452531156,128,0,2.192925782127098,0.6148084771688552,0.8599654403674961
1770452531160,129,1,2.5999264910348,1.3599039308133454,1.2434543072609985
1770452531164,129,1,2.9292813578455017,1.586974209519594,1.5502041942182283
1770452531168,129,1,3.033874776238548,1.370654771577335,1.633936773161282
1770452531172,129,1,2.894283799662423,1.7221424797759255,1.4748403740805451
1770452531176,129,1,2.65149212641416,1.2884011338696526,1.2128469489390632
1770452531180,128,0,2.5370994996379803,0.6759917767140677,1.079059649096345
1770452531184,129,1,2.734857122954893,1.2647103483129194,1.2575009878942094
1770452531188,129,1,3.2669814465008606,1.6939820795678673,1.7703726906346948
1770452531192,130,2,3.989452271314649,2.4466470948565897,2.472776253677996
1770452531196,131,3,4.690376953565908,3.507315774186768,3.1521674229444847
1770452531200,131,3,5.197704805117454,3.4750655879828773,3.6375447287918226
1770452531204,131,3,5.411777221314214,3.388363245861153,3.831511243331338
1770452531208,131,3,5.277612963572739,3.65661330708319,3.680116440911231
1770452531212,131,3,4.782730137448622,3.4271434047639673,3.1693613700891943
1770452531216,130,2,4.011552638077426,2.5796414172059814,2.3813923597006985
1770452531220,129,1,3.175760532297114,1.3302361230685409,1.5274153151980512
1770452531224,128,0,2.532566280944329,0.5337648941973756,0.8659542546982062
1770452531228,128,0,2.226046481085219,0.5323935604459318,0.5419982308766096
1770452531232,128,0,2.1872234760007583,0.5468303459240442,0.4859022389878862
1770452531236,128,0,2.182431334089641,0.4937727129629888,0.4628875869622364
1770452531240,128,0,1.964347040838318,0.3454373575673706,0.2257628962573801
1770452531244,127,-1,1.4022175044082053,-0.4693876787381059,-0.354653923556997
1770452531248,126,-2,0.5103428492531836,-1.4896522074265055,-1.26250989629589
1770452531252,125,-3,-0.6045260352874928,-2.389475312671523,-2.391148734017759
1770452531256,124,-4,-1.7994776960439256,-3.5789564176195094,-3.599520994389925
1770452531260,123,-5,-2.912526686019186,-4.6134028988936135,-4.727562167273913
1770452531264,122,-6,-3.77096721968479,-5.511602982570287,-5.602648139303889
1770452531268,121,-7,-4.240299923955972,-6.470645595003684,-6.088586157314255
1770452531272,121,-7,-4.300775292021763,-6.357651032514681,-6.1642545071658965
1770452531276,122,-6,-4.075006991088245,-5.634240043258816,-5.952768528044111
1770452531280,122,-6,-3.7597778391247503,-5.569217688297708,-5.652283098032437
1770452531284,122,-6,-3.5146037146826727,-5.57894556729333,-5.422493810327492
1770452531288,122,-6,-3.4033472813364396,-5.410951140051333,-5.325979441062372
1770452531292,122,-6,-3.4191109486773588,-5.39295833053556,-5.3547852580412
1770452531296,122,-6,-3.536112188575927,-5.610154338892346,-5.483658998335316
1770452531300,122,-6,-3.7246764333304383,-5.601421571476603,-5.68448339690377
1770452531304,122,-6,-3.929357352367608,-5.574122019106032,-5.902572041985677
1770452531308,121,-7,-4.064206355376118,-6.407687821585916,-6.05102954701255
1770452531312,121,-7,-4.058172170581023,-6.396342212756335,-6.057506169338387
1770452531316,122,-6,-3.9098362114827094,-5.5868454609580604,-5.920839818368565
1770452531320,122,-6,-3.684967786793316,-5.664747886542663,-5.7081998430378755
1770452531324,122,-6,-3.457157823852444,-5.506584253599598,-5.49347786496774
1770452531328,122,-6,-3.2577524039749854,-5.482514448248886,-5.30655142857056
1770452531332,122,-6,-3.074567974052786,-5.333904070434769,-5.133936542501385
1770452531336,123,-5,-2.8711908353661273,-4.606666938014215,-4.939796180438913
1770452531340,123,-5,-2.5925057416500934,-4.720846020983734,-4.670670643868977
1770452531344,123,-5,-2.1708176340214496,-4.388359571309067,-4.259670600208768
1770452531348,124,-4,-1.5613232551558838,-3.679588153845407,-3.6614200018492222
1770452531352,124,-4,-0.79034359846067,-3.0666350805315057,-2.9013185502653265
1770452531356,126,-2,0.0353517820840663,-1.924651380773772,-2.085764033955909
1770452531360,126,-2,0.7808698810308514,-1.379674393712398,-1.3497240436681728
1770452531364,127,-1,1.3597264320713616,-0.755224063552484,-0.7797414358614025
1770452531368,127,-1,1.7724543839021245,-0.3331145273229617,-0.3753167592810694
1770452531372,127,-1,2.079505361710339,-0.3740018315707565,-0.0763587055270531
1770452531376,128,0,2.338141987779622,0.3224104944494357,0.1737574759937486
1770452531380,128,0,2.558553274951814,0.4471996098444213,0.3850459626386613
1770452531384,128,0,2.7088607155551636,0.317088936688191,0.5264356534270462
1770452531388,128,0,2.756104659999684,0.6706248171249066,0.5660675522413048
1770452531392,128,0,2.7096105361318275,0.5597740952390425,0.5134034060784409
1770452531396,128,0,2.634602007410863,0.4196702275589486,0.4325640842649151
1770452531400,128,0,2.618183349505117,0.3471343718763303,0.4093400649501687
1770452531404,128,0,2.7017947523863404,0.3765521745693735,0.4848776147407271
1770452531408,128,0,2.829746967142098,0.6457504297972605,0.6045409441333757
1770452531412,128,0,2.8647983666309527,0.5464945299095553,0.6326112675233292
1770452531416,128,0,2.6762680617839933,0.45881106538571,0.4390137091554775
1770452531420,128,0,2.2444937725156207,0.2946244443961641,0.0032750336732864
1770452531424,127,-1,1.6949187072338174,-0.5982889909071321,-0.5504305473767768
1770452531428,126,-2,1.2136440754363595,-1.3613837140119842,-1.03659433998599
1770452531432,126,-2,0.8965254619509659,-1.4763996877629315,-1.3593199212860063
1770452531436,126,-2,0.6613160926356348,-1.4833909733588315,-1.6007387521647884
1770452531440,126,-2,0.3115641556948898,-1.7925337091680928,-1.956896828250073
1770452531444,125,-3,-0.2948969392378882,-2.504721188466262,-2.568789153450809
1770452531448,124,-4,-1.1135662425800568,-3.4787160617681785,-3.3906463203743717
1770452531452,123,-5,-1.9183193336887507,-4.362128137946553,-4.196434836903972
1770452531456,123,-5,-2.4275069193127887,-4.591225971458841,-4.706255031238021
1770452531460,123,-5,-2.4561584584355156,-4.685425377470519,-4.737055718437483
1770452531464,123,-5,-2.006129647648748,-4.616468908635374,-4.291267164757036
1770452531468,124,-4,-1.25636636557548,-3.375732469572728,-3.5470459654294477
1770452531472,125,-3,-0.4669372004385808,-2.4798715274424135,-2.7630732527005595
1770452531476,125,-3,0.146471355227628,-2.462812838455573,-2.1535709325684462
1770452531480,126,-2,0.499074906544483,-1.8308333935301189,-1.802362408968915
1770452531484,126,-2,0.6533644331097721,-1.4592074251876743,-1.6471839105936017
1770452531488,126,-2,0.778751730303368,-1.5762376055100884,-1.519984545378306
1770452531492,126,-2,1.0757095558326526,-1.2514762946086178,-1.221991183465457
1770452531496,127,-1,1.6809478625519103,-0.7077761260914477,-0.6177589711520947
1770452531500,128,0,2.583401797383777,0.4158196005169044,0.2814792707952991
1770452531504,129,1,3.5913349019093928,1.3086123188606211,1.285317870667798
1770452531508,129,1,4.379422243221529,1.5992928702369964,2.0704703417735
1770452531512,130,2,4.619284306289609,2.6196975999999697,2.309631321540177
1770452531516,130,2,4.151257279103088,2.3697103494848033,1.842781139381655
1770452531520,128,0,3.0962431479757964,0.3717216733535506,0.7901832533683889
1770452531524,127,-1,1.810234096622047,-0.6762048443197362,-0.4925355135461384
1770452531528,126,-2,0.6954752254608759,-1.4231799164951804,-1.6039570372273042
1770452531532,125,-3,-0.0026153618567934,-2.3577279650791287,-2.300078909999644
1770452531536,125,-3,-0.2889863371308985,-2.645378148088117,-2.5867566882879083
1770452531540,125,-3,-0.3752698189666301,-2.6051116952398714,-2.675184706702267
1770452531544,125,-3,-0.5515664129467877,-2.7195612361410397,-2.853778818856769
1770452531548,124,-4,-1.0511600429415235,-3.3982845805318767,-3.353521410469437
1770452531552,123,-5,-1.9659672831322492,-4.385048362546397,-4.264702907843423
1770452531556,122,-6,-3.2240343164045973,-5.620625659917485,-5.516063058685074
1770452531560,121,-7,-4.608411850930392,-6.616940902087948,-6.893706558759016
1770452531564,120,-8,-5.814826909152357,-7.728230610570073,-8.096172692255724
1770452531568,118,-10,-6.571114391597262,-9.3975232500917,-8.851265687632095
1770452531572,118,-10,-6.793812869763872,-9.394405250114016,-9.073374190741877
1770452531576,119,-9,-6.666175941371403,-8.595196436389086,-8.944318389244405
1770452531580,119,-9,-6.533001865842388,-8.654630520088729,-8.808979661230632
1770452531584,119,-9,-6.664915671649686,-8.674319579782852,-8.937779866645759
1770452531588,118,-10,-7.079347484460969,-9.505333966453016,-9.346930716386424
1770452531592,117,-11,-7.551266952851587,-10.265735684143538,-9.81126835679157
1770452531596,118,-10,-7.766435361060037,-9.760678946699455,-10.019193345782623
1770452531600,118,-10,-7.467208503810845,-9.431649760068645,-9.7162949811531
1770452531604,119,-9,-6.501433353635511,-8.933999501029463,-8.750262807876414
1770452531608,120,-8,-4.793386546719151,-7.244169111970077,-7.041336981825602
1770452531612,123,-5,-2.285150522613536,-4.527193809224514,-4.527572110426368
1770452531616,127,-1,1.1181570741055342,-0.5738561272193735,-1.1135369751224744
1770452531620,131,3,5.541732739327029,3.5391032265359943,3.323181515015893
1770452531624,136,8,11.00565775577996,7.904337160806164,8.798306644406527
1770452531628,142,14,17.1951035085962,15.11157476188602,14.992719550348347
1770452531632,150,22,23.304679458147533,21.884430385701258,21.09976046972243
1770452531636,152,24,28.11942593212379,25.18321456121656,25.909070390423953
1770452531640,156,28,30.358697037043004,27.691938677101582,28.147966196683793
1770452531644,155,27,29.18316697928332,27.76431397105867,26.9813256532415
1770452531648,151,23,24.66272602721704,23.250184398738213,22.476305453036773
1770452531652,143,15,17.910666567222062,15.62195840466525,15.74077414877732
1770452531656,135,7,10.678903289363475,7.614472122640872,8.523334393985241
1770452531660,130,2,4.573575555471921,2.096502707248895,2.428677844541049
1770452531664,126,-2,0.3882943747557568,-1.4291289580606217,-1.7510250364336677
1770452531668,124,-4,-2.024271787948143,-3.742692380513935,-4.163267694547101
1770452531672,122,-6,-3.359866567651868,-5.2448061801501344,-5.5003370535145075
1770452531676,121,-7,-4.327470828381206,-6.621344267246915,-6.465484219715869
1770452531680,120,-8,-5.332780593470291,-7.639477013698247,-7.461085880851366
1770452531684,119,-9,-6.460958614505582,-8.693041220714681,-8.57430361308859
1770452531688,118,-10,-7.608208295905023,-9.536350963457158,-9.706516268189716
1770452531692,117,-11,-8.598988146255556,-10.378561358651831,-10.685735708335947
1770452531696,116,-12,-9.249065643799888,-11.57035200143438,-11.327355971100598
1770452531700,116,-12,-9.416835396230278,-11.621619028404742,-11.487554397845454
1770452531704,117,-11,-9.06224216634734,-10.784556927959237,-11.125262072244182
1770452531708,117,-11,-8.284979584237519,-10.392911692735575,-10.340507856196044
1770452531712,118,-10,-7.313342129696138,-9.566223469275126,-9.36136901148953
1770452531716,119,-9,-6.437124583710691,-8.345780791023746,-8.476351245054072
1770452531720,120,-8,-5.893168561984849,-7.894977924281323,-7.921391907138165
1770452531724,120,-8,-5.744080440808342,-7.50578490416751,-7.759665282825638
1770452531728,120,-8,-5.831314933959768,-7.66645132207449,-7.834111121805387
1770452531732,119,-9,-5.865197272077485,-8.326518469272784,-7.85636110008055
1770452531736,120,-8,-5.613616962289919,-7.532359676779822,-7.594893630956109
1770452531740,121,-7,-5.056171188764556,-6.782588528053045,-7.028923755297564
1770452531744,121,-7,-4.387570795145216,-6.5628410914072886,-6.351782770583122
1770452531748,122,-6,-3.871128748696941,-5.652886178770682,-5.82531406908954
1770452531752,122,-6,-3.650603202736781,-5.3198972959975395,-5.592995825687735
1770452531756,122,-6,-3.6529013615943353,-5.555724552847891,-5.58263137696992
1770452531760,122,-6,-3.652017320443837,-5.783872918424041,-5.569096090320518
1770452531764,122,-6,-3.446399264224664,-5.535710420669397,-5.351118093941045
1770452531768,123,-5,-3.0067226502392277,-4.717602374846834,-4.899513102552159
1770452531772,123,-5,-2.475218868578798,-4.206635634359538,-4.356797317045283
1770452531776,124,-4,-2.033560090810606,-3.7197140319456063,-3.904634197401144
1770452531780,124,-4,-1.770674088488211,-3.602282419239016,-3.631302125842795
1770452531784,124,-4,-1.6621625107162528,-3.7459947205530457,-3.511522160679789
1770452531788,124,-4,-1.6497684179953365,-3.5065814532626347,-3.4866539920619615
1770452531792,124,-4,-1.7139477366133369,-3.4002114090307187,-3.537475164631358
1770452531796,124,-4,-1.857068979232428,-3.549648238017847,-3.666973574978118
1770452531800,124,-4,-2.0228597316480235,-3.762409128103172,-3.8193562835379966
1770452531804,124,-4,-2.054034336907807,-3.6182348807601343,-3.837478200035776
1770452531808,124,-4,-1.762301480879421,-3.620545968683782,-3.532864699921359
1770452531812,124,-4,-1.078689126737134,-3.294385688359675,-2.836490497755185
1770452531816,126,-2,-0.1583244416549791,-1.6405820625035907,-1.9040758669469
1770452531820,127,-1,0.6718786275861235,-0.6997949095192986,-1.0631489572713304
1770452531824,127,-1,1.102470458208349,-0.6720539786350248,-0.6222896668117098
1770452531828,127,-1,1.0234603094498356,-0.6016640971416735,-0.689071622846385
1770452531832,126,-2,0.5704989962147446,-1.280880007050256,-1.126192159233725
1770452531836,126,-2,0.0327610335926229,-1.702156088209115,-1.6458166495889943
1770452531840,126,-2,-0.2874506977944466,-1.594461131672726,-1.949214686645952
1770452531844,126,-2,-0.1878401794960846,-1.8207702066840337,-1.836613562885956
1770452531848,126,-2,0.3641194450585552,-1.4339583079149734,-1.274679573413267
1770452531852,127,-1,1.2074542369136996,-0.4476260603141468,-0.4213989114471738
1770452531856,128,0,2.0397775309048938,0.4295000564171565,0.4230191299356981
1770452531860,129,1,2.559792975210624,1.310069184760017,0.9572391742643332
1770452531864,129,1,2.634890932859361,1.2276429247399785,1.047541694627873
1770452531868,128,0,2.374497023109063,0.5372167598935363,0.802728202302374
1770452531872,128,0,2.047043159198637,0.5627861502439395,0.4911478983710619
1770452531876,128,0,1.903798240490013,0.4061004262735096,0.3636270413371825
1770452531880,128,0,2.041444663568873,0.3559462371097466,0.5157320018833016
1770452531884,129,1,2.388844636622867,1.1587319656953232,0.8753960832258321
1770452531888,129,1,2.796801209768344,1.6252926551626397,1.294089115704718
1770452531892,129,1,3.1370151223382012,1.4400554998168993,1.6460708717696864
1770452531896,129,1,3.338363997713413,1.531254740365833,1.8625740103690092
1770452531900,130,2,3.376914946902809,2.2296276435664324,1.919104240001463
1770452531904,130,2,3.277083109335409,2.2709713971575707,1.8368655110636705
1770452531908,129,1,3.1202842678764475,1.539990533669373,1.694758839632036
1770452531912,129,1,3.000663516011843,1.4770483050952328,1.587440782404642
1770452531916,129,1,2.9248785385389096,1.517308526940515,1.523869009942754
1770452531920,129,1,2.7538826602891784,1.2125748162489214,1.366379047369374
1770452531924,129,1,2.2788076796351895,1.308562139138544,0.9057492700972796
1770452531928,128,0,1.3940623141944448,0.5100222076356417,0.0358086907660935
1770452531932,126,-2,0.21708481762186,-1.5358155651701244,-1.125597017692916
1770452531936,125,-3,-0.9601614859338032,-2.456728237239731,-2.286144459367767
1770452531940,125,-3,-1.8461643566028825,-2.840674805036146,-3.155504475983251
1770452531944,124,-4,-2.3040433024410247,-3.6197509527705662,-3.5986456471207937
1770452531948,124,-4,-2.3861434666513706,-3.5312188565208538,-3.668109904884576
1770452531952,124,-4,-2.2645013196816968,-3.547910601297735,-3.534102020306452
1770452531956,124,-4,-2.1259765235573327,-3.4258298939489555,-3.381704633623129
1770452531960,125,-3,-2.087431908705751,-2.9245053278054964,-3.3277228995080272
1770452531964,124,-4,-2.163477707959423,-3.483898030645974,-3.3878637540938024
1770452531968,124,-4,-2.2970478796226925,-3.689557735074426,-3.5058951955186424
1770452531972,124,-4,-2.4243778732784227,-3.384515827119408,-3.618174612341708
1770452531976,124,-4,-2.518496170539719,-3.6251164761872143,-3.697518157809133
1770452531980,124,-4,-2.5808692762407706,-3.7324148572927953,-3.745198130597872
