timestamp_ms,ecg_u8_raw,ecg_counts_raw_int,ecg_counts_filt_monitor,ecg_counts_filt_diagnostic,ecg_counts_filt_st
1769180653608,126,-2,-1.402480624202247,-1.789068765158806,-1.794736849343457
1769180653612,126,-2,-1.1556947660107113,-1.435860224784704,-1.5440361738161863
1769180653616,126,-2,-1.1517815122238906,-1.61217585567552,-1.5338396175425988
1769180653620,126,-2,-1.2638939405495098,-1.4239247315381376,-1.6387755234238075
1769180653624,126,-2,-1.2397997342965823,-1.606420704600792,-1.6088808229836888
1769180653628,126,-2,-0.8579064893700967,-1.5469912132249588,-1.223682995898428
1769180653632,127,-1,-0.0990911829556568,-0.633140748994184,-0.4633677951455595
1769180653636,128,0,0.8058889634314932,0.5557192933522752,0.4429140825079305
1769180653640,129,1,1.5185346120401155,1.4621068196898273,1.1581537160935398
1769180653644,129,1,1.8325029241015929,1.4836370916779755,1.4768713269489528
1769180653648,129,1,1.8252317174005832,1.3990659471151774,1.4762635887853133
1769180653652,129,1,1.8027346106619768,1.4105969598251962,1.460759212422639
1769180653656,129,1,2.084631223915583,1.5326395389624952,1.7479491930107187
1769180653660,130,2,2.7916196270327527,2.4998131494746394,2.4577605717601436
1769180653664,131,3,3.780724613085938,3.473494917033433,3.4484395248755595
1769180653668,132,4,4.757881496796159,4.412241489157655,4.427932337156095
1769180653672,133,5,5.474122431078832,5.409775793612266,5.14821031213022
1769180653676,133,5,5.860234587659502,5.532376471732488,5.539451550134885
1769180653680,133,5,6.005595916914756,5.510934201754262,5.689973245110382
1769180653684,133,5,6.010652099143972,5.49676113190006,5.699654423475759
1769180653688,133,5,5.851204067062212,5.378000633561505,5.544062779409447
1769180653692,133,5,5.385377722193475,5.47992807837546,5.081197597238379
1769180653696,132,4,4.499058121194313,4.448672764149974,4.197454863215174
1769180653700,130,2,3.247959443088741,2.6193821628524274,2.9498131050758887
1769180653704,129,1,1.8610932406494032,1.40337807658783,1.5680151182157962
1769180653708,128,0,0.6111363966947557,0.4698153681573422,0.3238527904313011
1769180653712,127,-1,-0.3293143068167706,-0.5803501351394484,-0.6116678570137062
1769180653716,126,-2,-0.9441926697807216,-1.4902146242360117,-1.2231167781500063
1769180653720,126,-2,-1.3308201870049272,-1.4152191684098092,-1.6072223261869714
1769180653724,126,-2,-1.6113444539230413,-1.5545878200264682,-1.8851309992054333
1769180653728,125,-3,-1.8703149885825263,-2.5742030823116844,-2.1406824834507505
1769180653732,125,-3,-2.155372397566784,-2.5083000052313724,-2.4216278704136913
1769180653736,125,-3,-2.508966561440495,-2.565661780112173,-2.7714429100738367
1769180653740,124,-4,-2.968345666979756,-3.3124554209103856,-3.228198111728529
1769180653744,124,-4,-3.5203350178736494,-3.653044252307433,-3.777896161622728
1769180653748,123,-5,-4.060487379277127,-4.459864940466674,-4.313881835193302
1769180653752,123,-5,-4.408297026373901,-4.627692881804258,-4.654158017762997
1769180653756,123,-5,-4.386551139531378,-4.408020900969195,-4.622724244543502
1769180653760,123,-5,-3.9330678875736935,-4.47931348944628,-4.1615481621885575
1769180653764,124,-4,-3.1870062061765174,-3.4459939128029107,-3.41491648285862
1769180653768,125,-3,-2.47753578596114,-2.673579375330665,-2.7141424729369996
1769180653772,125,-3,-2.166002622013732,-2.412365143108865,-2.415690306717705
1769180653776,125,-3,-2.3657782632159106,-2.5898443603613055,-2.6214649526344207
1769180653780,124,-4,-2.646234202674562,-3.315033394168867,-2.890538096642722
1769180653784,126,-2,-1.882817335531726,-1.567736826808182,-2.0991543228987566
1769180653788,130,2,1.5532818632423329,2.441927130083658,1.3677720255138546
1769180653792,136,8,9.118613117536306,8.503013637036222,8.94971100522757
1769180653796,147,19,21.047090475909876,19.53115298277236,20.87224097058489
1769180653800,162,34,35.47871436642437,34.56448101891975,35.27998593181551
1769180653804,176,48,48.53490878324048,48.58963082107849,48.307509158751685
1769180653808,184,56,55.68227750073833,56.23912136459553,55.43588861810533
1769180653812,182,54,53.82817996772752,54.73422342437409,53.58246641435737
1769180653816,171,43,42.93986081592815,43.20471341733497,42.71619488721337
1769180653820,152,24,26.164232290692297,24.91183988593626,25.975985126640904
1769180653824,135,7,8.360861239910601,7.228374251761856,8.20600710396945
1769180653828,121,-7,-6.047469739011795,-6.306207645988694,-6.186537965283781
1769180653832,113,-15,-14.685081802329048,-14.630045196341689,-14.832234434312426
1769180653836,110,-18,-17.587303460444147,-17.408574993985688,-17.758699737652037
1769180653840,111,-17,-16.45293554484843,-16.444239370866185,-16.648281184196435
1769180653844,114,-14,-13.459062680931904,-13.488289155830673,-13.664133885735174
1769180653848,117,-11,-10.314921268259296,-10.536118807572407,-10.51212615537583
1769180653852,119,-9,-7.882405322017976,-8.411676101259314,-8.061063750156466
1769180653856,121,-7,-6.29823133400475,-6.602374933377847,-6.458652180932884
1769180653860,122,-6,-5.31799388897724,-5.264398872741619,-5.468653247793431
1769180653864,123,-5,-4.625743554480216,-4.698292143048249,-4.7765329337717235
1769180653868,123,-5,-4.009128964919822,-4.271714434677057,-4.165188822214529
1769180653872,124,-4,-3.418661549749281,-3.6565678706900586,-3.578664460500328
1769180653876,124,-4,-2.9410793753907285,-3.3261668578817827,-3.100480036483485
1769180653880,125,-3,-2.6976731105882115,-2.560531611910459,-2.853294640634974
1769180653884,125,-3,-2.7139773396705156,-2.4084606265115514,-2.8655064956994725
1769180653888,124,-4,-2.859797338973584,-3.5365721477716248,-3.007811410979158
1769180653892,124,-4,-2.9206789990396675,-3.357957315066396,-3.064996094656263
1769180653896,125,-3,-2.736170031440842,-2.6019499874009577,-2.876888014202926
1769180653900,125,-3,-2.2770721420860713,-2.3105297461146126,-2.415932751352331
1769180653904,126,-2,-1.6187475368430568,-1.6348039907412883,-1.7579055893995983
1769180653908,126,-2,-0.8795176490319228,-1.3097053654786484,-1.0190704008956348
1769180653912,127,-1,-0.1879201727738797,-0.5345628912895357,-0.3257202713287281
1769180653916,128,0,0.338018395875777,0.5613313435579144,0.2038878741624921
1769180653920,128,0,0.6347662272621406,0.5468735742631219,0.5040292518050573
1769180653924,128,0,0.7346406849801086,0.4721471635694325,0.6055985748614878
1769180653928,128,0,0.7482509221491929,0.6556005453366787,0.6199476749589912
1769180653932,128,0,0.7893908652987278,0.4669185806591325,0.6624763888587841
1769180653936,128,0,0.9146007879355909,0.6295398298925756,0.7901146784691344
1769180653940,129,1,1.139709444609605,1.4283409116674617,1.0176025035826737
1769180653944,129,1,1.5073505250465888,1.6336627697186188,1.386812083292427
1769180653948,129,1,2.1109334676826204,1.4890391234468785,1.991885358531804
1769180653952,130,2,3.0263230023592573,2.6675819400843306,2.9094635042455765
1769180653956,132,4,4.220691850098862,4.440144938291711,4.1058028487856175
1769180653960,133,5,5.543060336048057,5.60108911714423,5.428506465039561
1769180653964,134,6,6.804483709940396,6.5092478030382654,6.689219409720242
1769180653968,135,7,7.866984080509705,7.5712686307773165,7.75226337031215
1769180653972,136,8,8.685652822963839,8.673681447501226,8.573818991481893
1769180653976,137,9,9.312610317149268,9.350495065689442,9.204528619376031
1769180653980,137,9,9.874478974091195,9.799769455273946,9.768884038043367
1769180653984,138,10,10.510339477094004,10.220643945753071,10.405511906994995
1769180653988,138,10,11.2826657431043,10.968541876119655,11.178012473367884
1769180653992,140,12,12.12574420237577,12.2139344865222,12.021655317729142
1769180653996,140,12,12.88642205902726,12.871008820661556,12.783257932265013
1769180654000,141,13,13.430105594559231,13.273013947445758,13.327803155875694
1769180654004,141,13,13.72167178110989,13.732687807924448,13.620178889668509
1769180654008,141,13,13.817435087060389,13.5309171025572,13.71718424952549
1769180654012,141,13,13.788470995275349,13.55365856891604,13.69023373292945
1769180654016,141,13,13.652726073223016,13.695597178130033,13.556887197398376
1769180654020,141,13,13.373740955636135,13.284217743644556,13.279693723978754
1769180654024,140,12,12.9108904285608,12.918346291240102,12.8172982694012
1769180654028,140,12,12.254403767045677,12.176373172719671,12.160283874517743
1769180654032,138,10,11.402193395550864,11.06476912343828,11.30781167045762
1769180654036,138,10,10.310282182714644,10.093061510449978,10.216824252101311
1769180654040,136,8,8.891900617997951,8.955586199528941,8.800199874136977
1769180654044,135,7,7.094418831370845,7.255887206388852,7.004256434578483
1769180654048,132,4,4.988803755724307,4.800794448483952,4.8995772430454645
1769180654052,130,2,2.7741559249870833,2.53345989297429,2.6858430081949316
1769180654056,128,0,0.6783443949590819,0.5209657781389625,0.5913938409613797
1769180654060,126,-2,-1.160578896811563,-1.326458343843638,-1.2461411775081703
1769180654064,125,-3,-2.7337074295505595,-2.5752589048083436,-2.8185887284491837
1769180654068,123,-5,-4.105251904910896,-4.230793697412206,-4.19019231785513
1769180654072,122,-6,-5.3281775630078245,-5.545304759852846,-5.4132021853875845
1769180654076,121,-7,-6.404907263302145,-6.295734688506251,-6.489370241171251
1769180654080,120,-8,-7.310583647910413,-7.575130232705238,-7.393743729127372
1769180654084,119,-9,-8.041659887264693,-8.252037338310515,-8.123208205645343
1769180654088,119,-9,-8.637998670414856,-8.572939877627338,-8.718316104770736
1769180654092,118,-10,-9.155906271590013,-9.189883096478226,-9.23582424152626
1769180654096,118,-10,-9.620601282186277,-9.637523597668858,-9.70060310056594
1769180654100,117,-11,-10.009827650794,-10.240958456045096,-10.089465591867857
1769180654104,117,-11,-10.28394255091003,-10.537180164247657,-10.362371965772118
1769180654108,117,-11,-10.423074641581156,-10.322705616819084,-10.500177940759526
1769180654112,117,-11,-10.42958377363187,-10.367735491558369,-10.506101528481924
1769180654116,117,-11,-10.304993545116078,-10.536683704403243,-10.381363359943316
1769180654120,117,-11,-10.041307620234106,-10.229715937308614,-10.116880549610284
1769180654124,118,-10,-9.638194977136704,-9.640643485376431,-9.71204290489571
1769180654128,118,-10,-9.121220082678612,-9.10896023445876,-9.193465297475669
1769180654132,119,-9,-8.544329360837477,-8.649927807516825,-8.616266164690249
1769180654136,119,-9,-7.984957807611526,-8.197009315920162,-8.057890844034883
1769180654140,120,-8,-7.536093154942527,-7.578907715109041,-7.610155450755179
1769180654144,120,-8,-7.28154285957387,-7.291616463098763,-7.355432550236639
1769180654148,120,-8,-7.249198983696997,-7.408151264676426,-7.32097761081728
1769180654152,120,-8,-7.367625081288972,-7.394717035808995,-7.436154275194761
1769180654156,120,-8,-7.467548089091784,-7.382111533039161,-7.533478722312648
1769180654160,120,-8,-7.353698876143238,-7.449724512285276,-7.418953206540321
1769180654164,120,-8,-6.925853551883548,-7.344586570826045,-6.9920401786128945
1769180654168,121,-7,-6.270958256679881,-6.393014247307198,-6.338365221310526
1769180654172,122,-6,-5.63780602890875,-5.3571927844701905,-5.705696093333746
1769180654176,122,-6,-5.28591755666594,-5.439943931131351,-5.353323631407748
1769180654180,122,-6,-5.313030388314164,-5.374987105848515,-5.379188633083724
1769180654184,122,-6,-5.594479889594851,-5.4040308409922,-5.658795472927248
1769180654188,121,-7,-5.880185198662748,-6.346847332156697,-5.942158588332015
1769180654192,121,-7,-5.969073615380647,-6.354705635425575,-6.028763267769115
1769180654196,122,-6,-5.820143597064304,-5.4670910321304715,-5.878812755039018
1769180654200,122,-6,-5.522879283158957,-5.297173036467916,-5.582384898522476
1769180654204,122,-6,-5.186971385592155,-5.508866140498978,-5.247874357640652
1769180654208,122,-6,-4.872803841794636,-5.201166384669564,-4.933636806974368
1769180654212,123,-5,-4.603358418802915,-4.5221199789209,-4.662345670192144
1769180654216,123,-5,-4.39795251264869,-4.273790866798153,-4.454882830441837
1769180654220,123,-5,-4.275192720971946,-4.466331275039866,-4.3309783273453215
1769180654224,123,-5,-4.238251460454551,-4.359347297458678,-4.293241890656066
1769180654228,123,-5,-4.271631782376373,-4.294618461491005,-4.325323192634179
1769180654232,123,-5,-4.3478581022389005,-4.493621552249816,-4.400167804056754
1769180654236,123,-5,-4.433204183936439,-4.214615204590791,-4.4850485692396225
1769180654240,123,-5,-4.500954904816244,-4.564539758484852,-4.553046204943667
1769180654244,122,-6,-4.557787149106655,-5.217320863121888,-4.60950017587406
1769180654248,123,-5,-4.6512984485901985,-4.441992192060471,-4.701490774720717
1769180654252,123,-5,-4.821369371860026,-4.3596291079901,-4.869832377268222
1769180654256,122,-6,-5.02872768299514,-5.297164384395943,-5.075909855035374
1769180654260,122,-6,-5.150758910950184,-5.501482854034414,-5.1965565152078845
1769180654264,122,-6,-5.069899271851053,-5.235118802797618,-5.113939440505846
1769180654268,123,-5,-4.767191025821345,-4.464195782014619,-4.810073224640455
1769180654272,123,-5,-4.331697367397125,-4.292305588202909,-4.374664323569791
1769180654276,123,-5,-3.896507338128332,-4.361286729429407,-3.939743947558107
1769180654280,124,-4,-3.5681129948936663,-3.4257309792581885,-3.6103663318184287
1769180654284,124,-4,-3.3850436189283672,-3.283912969216306,-3.42514910822288
1769180654288,124,-4,-3.3099056999454075,-3.4730482980186026,-3.347896407316083
1769180654292,124,-4,-3.2616059596174685,-3.1903808986459024,-3.298060090064615
1769180654296,124,-4,-3.180023836423399,-3.523581749126945,-3.215092168027647
1769180654300,124,-4,-3.075195744307313,-3.18214260370679,-3.108889371680404
1769180654304,125,-3,-3.011058808141268,-2.5697731027820643,-3.0440112773351515
1769180654308,124,-4,-3.0376266372264573,-3.1706365687487548,-3.070625420242079
1769180654312,124,-4,-3.1441124673643004,-3.467616546191163,-3.176792635592645
1769180654316,124,-4,-3.2768948788899586,-3.257183306928964,-3.307654864507514
1769180654320,124,-4,-3.385219615442481,-3.3987761740764837,-3.4127922456812674
1769180654324,124,-4,-3.4356101773522885,-3.3980876887704623,-3.4603603333450237
1769180654328,124,-4,-3.3949821323375833,-3.277025085030632,-3.4184047407492097
1769180654332,124,-4,-3.230895080355448,-3.411961430170741,-3.2540902251180928
1769180654336,124,-4,-2.9493539976358027,-3.2355447943300795,-2.9723109756296804
1769180654340,125,-3,-2.6267960132770374,-2.4686848041810063,-2.648992173946206
1769180654344,125,-3,-2.3808282856733793,-2.272257263429186,-2.4019045796887863
1769180654348,125,-3,-2.286758691056916,-2.43536316774383,-2.3063141711555275
1769180654352,125,-3,-2.309809099783569,-2.2129289508020884,-2.3270121369510144
1769180654356,125,-3,-2.312738849091539,-2.4423483553887335,-2.3267770900720457
1769180654360,125,-3,-2.13438998829944,-2.2505252198398296,-2.1454016723999216
1769180654364,126,-2,-1.6853498098586397,-1.466224383055887,-1.694612891246711
1769180654368,126,-2,-1.0048526030584433,-1.25364158515762,-1.0138810074602165
1769180654372,127,-1,-0.2504827269557013,-0.3573263115739183,-0.2599747546573721
1769180654376,128,0,0.3756213348221719,0.6884588870416835,0.3661251897316333
1769180654380,128,0,0.7281138727142462,0.640042429418053,0.7199623753494514
1769180654384,128,0,0.7898346965893679,0.6384204325043692,0.7845938363570285
1769180654388,128,0,0.6738054739951624,0.6676750157234035,0.672216838785548
1769180654392,128,0,0.5651666580116497,0.7047780621196063,0.5665428933146397
1769180654396,128,0,0.6396141037362577,0.6737404466972083,0.6426175173862712
1769180654400,128,0,0.9894434835593748,0.6261726922779118,0.9934652955459216
1769180654404,129,1,1.58591254771208,1.7005501435875146,1.5912889297752053
1769180654408,130,2,2.3027666908193583,2.582949958515249,2.309781365944531
1769180654412,130,2,2.9866504768472173,2.8190298415420085,2.9949638289714833
1769180654416,131,3,3.516065706304232,3.561743605816572,3.5252823187662057
1769180654420,131,3,3.807357490363619,3.74294298200364,3.817736441652839
1769180654424,131,3,3.791028864336494,3.5974995654284925,3.803365458634801
1769180654428,131,3,3.413568322119352,3.677744395333308,3.428503472324218
1769180654432,130,2,2.681208508706934,2.7679071893641227,2.6988481226468917
1769180654436,129,1,1.6995310220304027,1.5787006843695974,1.719675234469122
1769180654440,128,0,0.6503924677263744,0.7842348676655424,0.6728244938325172
1769180654444,127,-1,-0.2962111961589575,-0.4855552088036552,-0.2718764217454112
1769180654448,126,-2,-1.07082658500464,-1.2007767468601789,-1.0454047857933442
1769180654452,126,-2,-1.7212391649267351,-1.329101954921741,-1.6955360597753637
1769180654456,125,-3,-2.3459579499015297,-2.354428756950515,-2.3196053663752942
1769180654460,124,-4,-3.0037146432429385,-3.210719836905442,-2.9747782093908066
1769180654464,124,-4,-3.666484375365861,-3.5711745957658447,-3.6331171857195494
1769180654468,123,-5,-4.234967811957739,-4.025637233872415,-4.197690637866835
1769180654472,123,-5,-4.59783463933039,-4.555803340624151,-4.559552903215117
1769180654476,122,-6,-4.7069857899593615,-5.0572552259062125,-4.670291369591945
1769180654480,123,-5,-4.62446803816044,-4.544514613370893,-4.588862443920044
1769180654484,123,-5,-4.489725253247174,-4.210578789936236,-4.451272895523207
1769180654488,123,-5,-4.412420680126691,-4.394519636587054,-4.366225255239775
1769180654492,123,-5,-4.381474305285657,-4.1550769731330455,-4.325828611998418
1769180654496,123,-5,-4.287904218209827,-4.455411042050313,-4.227650792005292
1769180654500,123,-5,-4.056758328439068,-4.146112870171219,-4.002262039863959
1769180654504,124,-4,-3.762931256076359,-3.599897590527968,-3.722927808423964
1769180654508,123,-5,-3.5759319211104352,-4.002871167379928,-3.5484572816568334
1769180654512,124,-4,-3.4743504696562195,-3.5117684449893094,-3.444465255400276
1769180654516,125,-3,-2.858305613103834,-2.1059819381961944,-2.8071113832141985
1769180654520,128,0,-0.3859930180947852,0.5219965918281613,-0.3046297478613544
1769180654524,133,5,5.599454132499142,5.7180102298556115,5.702608814059452
1769180654528,142,14,15.996626516275292,14.740716198682565,16.10092404892653
1769180654532,156,28,29.76182118698567,28.72174632610068,29.84643407168216
1769180654536,171,43,43.540006553570635,43.74083027030462,43.59464617884787
1769180654540,181,53,52.71278642171803,53.59648782734723,52.74228203648829
1769180654544,182,54,53.50757766637401,54.68941461553696,53.529667405206624
1769180654548,173,45,44.955352070138574,45.653122038861845,44.99284109054818
1769180654552,156,28,29.46422574673672,28.84484424575538,29.534183395824545
1769180654556,138,10,11.65363886977541,10.552215963915376,11.758322660689874
1769180654560,123,-5,-3.7918102507301583,-4.0682739510305534,-3.6668814132919394
1769180654564,114,-14,-13.96404064262273,-13.66384272977812,-13.842294438049125
1769180654568,109,-19,-18.36644540350037,-17.835990514605562,-18.266602722513728
1769180654572,110,-18,-18.32532680435303,-17.765233120491494,-18.25092905890773
1769180654576,111,-17,-15.842802133048808,-15.772512440837891,-15.782114974819086
1769180654580,115,-13,-12.640349782616468,-12.814013824140186,-12.575843862988927
1769180654584,117,-11,-9.757618767954812,-9.875009066777558,-9.677352681781528
1769180654588,120,-8,-7.61953698039546,-7.603306362934946,-7.522612787861339
1769180654592,121,-7,-6.277119254305556,-6.05927687813419,-6.170979865074884
1769180654596,122,-6,-5.5987308922117816,-5.404463156115772,-5.492093428609652
1769180654600,122,-6,-5.3661551357938295,-5.292711701184244,-5.263313324665267
1769180654604,122,-6,-5.334377971661993,-5.236923573112148,-5.234127099920133
1769180654608,122,-6,-5.298363496100103,-5.345225330997651,-5.196916535982423
1769180654612,122,-6,-5.1461886095100065,-5.204084806677184,-5.041025613705454
1769180654616,123,-5,-4.857304364859093,-4.3623324499201965,-4.748822094124359
1769180654620,123,-5,-4.451999800995326,-4.251689811956873,-4.341999908081437
1769180654624,123,-5,-3.949500995665271,-4.315422697695968,-3.838695641352953
1769180654628,124,-4,-3.3711696929725865,-3.1900094822352543,-3.2586928320717115
1769180654632,125,-3,-2.758093982910861,-2.418253220309097,-2.643079391306168
1769180654636,125,-3,-2.159499872511742,-2.1064064617568174,-2.042153913091213
1769180654640,126,-2,-1.6028619032800542,-1.539448475550583,-1.483785358972607
1769180654644,126,-2,-1.0864421137090392,-0.973741494008963,-0.9656210505685172
1769180654648,127,-1,-0.6010113143229097,-0.5317229002846426,-0.477961125301469
1769180654652,127,-1,-0.1496006170137369,-0.0856677120153776,-0.0242784033870808
1769180654656,128,0,0.2581594383916995,0.5883993874413443,0.3850580641799712
1769180654660,128,0,0.6256828536018608,0.7171691370452531,0.7535644146230203
1769180654664,128,0,0.9757421804498748,0.8725425259728581,1.1050273121492762
1769180654668,129,1,1.3386425923473249,1.541500195917988,1.4704255931618202
1769180654672,129,1,1.7453292904612834,1.935901424427601,1.8801120101368085
1769180654676,130,2,2.2367330092470556,2.472851299955996,2.373869477253961
1769180654680,130,2,2.8650428765111244,2.921362104853615,3.0035606784478377
1769180654684,131,3,3.66279413547254,3.631884399433445,3.802453479330052
1769180654688,132,4,4.600469628301841,4.82739601753151,4.7417666982888855
1769180654692,133,5,5.582434618736035,5.639387528747826,5.725708105638224
1769180654696,134,6,6.500411263881223,6.755452332439076,6.645315211779718
1769180654700,135,7,7.303412413932899,7.676096760945555,7.449536689873478
1769180654704,135,7,8.020003431766906,7.862948959503374,8.167828989917012
1769180654708,136,8,8.71462360689409,8.630714242849185,8.865240894063248
1769180654712,137,9,9.42967923548932,9.824285585587631,9.58332359257775
1769180654716,138,10,10.173080740018884,10.565868239969085,10.328580923230062
1769180654720,138,10,10.943258681187007,10.900006164518278,11.09942235355214
1769180654724,139,11,11.73789880771445,11.629071701827565,11.89493457402062
1769180654728,140,12,12.533210323164074,12.894492486751716,12.692255973713486
1769180654732,141,13,13.273979203100136,13.54083910089717,13.435625764229036
1769180654736,141,13,13.896992306517284,13.86170352473488,14.060765606350436
1769180654740,142,14,14.36070384924892,14.623393163273484,14.525790552501574
1769180654744,142,14,14.64833897548494,14.902488652873334,14.81451556515368
1769180654748,142,14,14.7455956951441,14.646520364631732,14.913461258663068
1769180654752,142,14,14.621966522641202,14.761592735108488,14.792236292137412
1769180654756,142,14,14.242737327160985,14.679025922786105,14.415337507017046
1769180654760,141,13,13.603894531481648,13.785943162256038,13.77808715052403
1769180654764,140,12,12.746043240552217,12.785638793617071,12.921498434269678
1769180654768,139,11,11.720741383637948,11.737775150469886,11.897946155424156
1769180654772,138,10,10.54456331224199,10.688540840313856,10.723902850232832
1769180654776,137,9,9.197853812514358,9.74714243936828,9.378871581510948
1769180654780,135,7,7.669645044688673,7.749342315386115,7.851756581147044
1769180654784,133,5,5.994003984619968,5.81388960926005,6.177541180250174
1769180654788,132,4,4.24266104706105,4.7350406460643635,4.42855568008147
1769180654792,130,2,2.495096981572817,2.6574235501049026,2.683669519855066
1769180654796,128,0,0.8184883063612158,0.8182449291732485,1.009045410244619
1769180654800,127,-1,-0.7393066458163915,-0.3184886989586939,-0.5476690695334421
1769180654804,125,-3,-2.15393600836663,-2.102588795554561,-1.9613868071066431
1769180654808,124,-4,-3.4250386554807566,-3.352833645387812,-3.2309364801704152
1769180654812,123,-5,-4.56394156448518,-4.25448381621766,-4.367599294515263
1769180654816,122,-6,-5.569720506268319,-5.263382993355945,-5.371012451325409
1769180654820,121,-7,-6.416115576173968,-6.208612081820151,-6.215268469909651
1769180654824,120,-8,-7.071967761212779,-7.211798638180173,-6.869214392912522
1769180654828,120,-8,-7.539976519003371,-7.24614337680608,-7.33578658125349
1769180654832,120,-8,-7.869225484597537,-7.357883780623014,-7.664345168349826
1769180654836,119,-9,-8.125038504476782,-8.157725328772715,-7.91956386867073
1769180654840,119,-9,-8.346820331844876,-8.276047234900656,-8.139488858926004
1769180654844,119,-9,-8.524974884597132,-8.163397554416495,-8.314135714345863
1769180654848,119,-9,-8.60103113508001,-8.272935912282966,-8.38637917048416
1769180654852,119,-9,-8.493523951471758,-8.36650229421233,-8.27649152762111
1769180654856,119,-9,-8.155767162354147,-8.084183575175336,-7.9382215571338
1769180654860,120,-8,-7.63956535359244,-7.39147480384247,-7.422319393895037
1769180654864,120,-8,-7.104972171023262,-6.976398711123741,-6.88742466811692
1769180654868,121,-7,-6.740413567384471,-6.532815178600751,-6.5212862175244695
1769180654872,121,-7,-6.633498930199219,-6.048506263823029,-6.411628170122544
1769180654876,121,-7,-6.693634846519163,-6.427651399957871,-6.468116661447448
1769180654880,120,-8,-6.705535507326712,-7.020093032310235,-6.475931273952759
1769180654884,121,-7,-6.483730906306864,-6.32967682831501,-6.251020914006731
1769180654888,122,-6,-6.00272582595861,-5.218690164486038,-5.769529611330932
1769180654892,122,-6,-5.40754600060748,-5.301058629949675,-5.176000247374509
1769180654896,122,-6,-4.922292173808844,-5.221451025330024,-4.69158866585042
1769180654900,123,-5,-4.7282250532678765,-4.155322361113289,-4.495227553426207
1769180654904,123,-5,-4.862044574537586,-4.253174425151909,-4.624374352912939
1769180654908,122,-6,-5.18029221879839,-5.257566668735894,-4.938120292651429
1769180654912,122,-6,-5.435274488254449,-5.271628869042561,-5.190404890465482
1769180654916,122,-6,-5.435918703118846,-5.232309157795341,-5.190040145472205
1769180654920,122,-6,-5.175454639679651,-5.129120771198142,-4.929280011163087
1769180654924,123,-5,-4.818785040807404,-4.288338177145941,-4.572086331529416
1769180654928,123,-5,-4.559893994776136,-4.198755215785054,-4.311847553528907
1769180654932,123,-5,-4.469402519296746,-4.357989715196102,-4.218987881268313
1769180654936,123,-5,-4.4558677705053995,-4.096742013896591,-4.2022782033654895
1769180654940,123,-5,-4.3646407274252566,-4.303108889162359,-4.107616338158904
1769180654944,123,-5,-4.124652318424966,-4.072250925214934,-3.8647109175584062
1769180654948,124,-4,-3.818606955195933,-3.4266433799534264,-3.557082625340519
1769180654952,124,-4,-3.621373902938727,-3.1244863383143993,-3.359777898735927
1769180654956,124,-4,-3.668169136986159,-3.302694540908549,-3.4068104980330585
1769180654960,123,-5,-3.9702527840312776,-4.126658541190704,-3.7075083827802953
1769180654964,123,-5,-4.432485056976647,-4.215076483395554,-4.166063335137327
1769180654968,123,-5,-4.921816379955637,-4.305881650236373,-4.650882070691123
1769180654972,122,-6,-5.314494083861455,-5.212652542584552,-5.040168636522157
1769180654976,122,-6,-5.513780993098617,-5.214505846846457,-5.237666671200617
1769180654980,122,-6,-5.470694601397268,-5.20251899511761,-5.193500366635852
1769180654984,122,-6,-5.211904944964184,-5.155383466228017,-4.9335754191608485
1769180654988,123,-5,-4.843431464908089,-4.342037806712402,-4.563899005321757
1769180654992,123,-5,-4.511321251341208,-4.177793011945453,-4.23046648564267
1769180654996,123,-5,-4.340275696520149,-4.228764238011227,-4.057362697377795
1769180655000,123,-5,-4.385259750024945,-4.194718231987751,-4.099256913985719
1769180655004,123,-5,-4.610630045859716,-4.171809736737889,-4.32135500594434
1769180655008,123,-5,-4.89937780155959,-4.311581928184919,-4.607632327524525
1769180655012,122,-6,-5.103314675847775,-5.197571217263189,-4.809580104377317
1769180655016,122,-6,-5.124260173433621,-5.189909884805162,-4.828101946433503
1769180655020,123,-5,-4.965312353771491,-4.246952913903276,-4.6665642560436025
1769180655024,123,-5,-4.699720596890035,-4.107824223163755,-4.3992836734586485
1769180655028,123,-5,-4.396200049875104,-4.384636085022091,-4.094836618765033
1769180655032,123,-5,-4.088476533550956,-4.084162252400915,-3.785559953637476
1769180655036,124,-4,-3.8044488093292106,-3.3261616179179345,-3.4987711035027265
1769180655040,124,-4,-3.5882648064981426,-3.096348396335645,-3.279517876888393
1769180655044,124,-4,-3.4761201027444515,-3.2624922050663145,-3.1647764682318726
1769180655048,124,-4,-3.4629645997799607,-3.222834055156159,-3.1491742756300716
1769180655052,124,-4,-3.5048059430663003,-3.2202960570647465,-3.1883635516401867
1769180655056,124,-4,-3.549119359777277,-3.211498706665162,-3.230449994819351
1769180655060,124,-4,-3.559501452538318,-3.188096710218439,-3.2397306540152515
1769180655064,124,-4,-3.521214154636031,-3.1822203953947996,-3.2006877207671227
1769180655068,124,-4,-3.4346148105852623,-3.284285008614351,-3.111811900168901
1769180655072,124,-4,-3.297000671672473,-3.1455684439344616,-2.9697876976091533
1769180655076,125,-3,-3.070810808682687,-2.3046933095875506,-2.738850123479059
1769180655080,125,-3,-2.668672309599315,-2.062684742614129,-2.3338440978505854
1769180655084,125,-3,-2.008034554371469,-2.33743623608896,-1.672375105081176
1769180655088,126,-2,-1.1235118752574786,-1.0857443278957768,-0.7875979039542733
1769180655092,128,0,-0.221986042310081,0.6377372087687629,0.1146569925661104
1769180655096,128,0,0.4166231765063624,0.9213147202317103,0.7548803228622791
1769180655100,128,0,0.6326461428400543,0.7301872947999237,0.9740017464210922
1769180655104,128,0,0.508562357341499,0.8379642617852435,0.8545685977264545
1769180655108,128,0,0.3232194476730223,0.784823815747417,0.6739139090881714
1769180655112,128,0,0.3799489234600728,0.7142018004990167,0.7335650027259375
1769180655116,128,0,0.8216574657333466,0.9305136768232076,1.176494952098338
1769180655120,129,1,1.5444894650098893,1.6560593816410312,1.900401835603264
1769180655124,130,2,2.2725636425504327,2.982039938872067,2.630185016356634
1769180655128,131,3,2.749814394927621,3.581588648921445,3.1092864443038275
1769180655132,130,2,2.895277140771814,2.9595320815635997,3.2566101592222907
1769180655136,130,2,2.7878659117000217,2.675552622536792,3.1518210385132277
1769180655140,130,2,2.517269174457778,2.9131267543571586,2.884754504278641
1769180655144,130,2,2.0743700129497755,2.738288615462934,2.4452294213671015
1769180655148,129,1,1.3915625206481126,1.8188697587753644,1.7648565321262617
1769180655152,128,0,0.466756062943068,0.7440499194227383,0.8420958832636865
1769180655156,127,-1,-0.573386003402959,-0.1152394738921054,-0.1955394095049114
1769180655160,126,-2,-1.5355572045368413,-1.298460484029866,-1.1549042599816377
1769180655164,125,-3,-2.289076208267707,-2.0400703827086533,-1.9061568360070384
1769180655168,125,-3,-2.8514672804612236,-2.392568419149932,-2.4670823297856517
1769180655172,124,-4,-3.3590321527406433,-3.034929171017283,-2.9731992669185305
1769180655176,124,-4,-3.943292730681907,-3.3288087254135954,-3.554932318355002
1769180655180,123,-5,-4.611840849857683,-4.107430805981501,-4.219583383568637
1769180655184,122,-6,-5.2319076857294196,-5.202443677671309,-4.835529753340028
1769180655188,122,-6,-5.629137330445086,-5.257343323934085,-5.230408848268673
1769180655192,122,-6,-5.716424920472464,-5.107313969980279,-5.317926974797899
1769180655196,122,-6,-5.550186182059703,-5.312808267758023,-5.152333189306139
1769180655200,122,-6,-5.278632233487798,-5.061250923633991,-4.877917596050597
1769180655204,123,-5,-5.025148724575829,-4.310364162179946,-4.616431862822478
1769180655208,123,-5,-4.795054148196545,-4.089796326187656,-4.376556277225342
1769180655212,123,-5,-4.495014897129265,-4.309096419932734,-4.07156518883318
1769180655216,123,-5,-4.076790922192865,-4.067541817961774,-3.6581333257389295
1769180655220,124,-4,-3.675355420200968,-3.3492862988482983,-3.269726469353877
1769180655224,124,-4,-3.544402924400708,-2.983508338766025,-3.1508500134194084
1769180655228,124,-4,-3.7202382696528384,-3.4397737074023644,-3.3257315078309384
1769180655232,124,-4,-3.5968058205623317,-2.922745960751134,-3.182863836921092
1769180655236,127,-1,-1.7754237716970307,-0.4649123060691673,-1.3312536664582426
1769180655240,131,3,3.4873010665122006,4.03859845488293,3.9556462253691578
1769180655244,140,12,13.227224248435768,12.67565834334154,13.699659748147663
1769180655248,153,25,26.613494808916208,25.88019366986202,27.06808589177775
1769180655252,168,40,40.523717156138304,40.83363699632071,40.948842034761974
1769180655256,179,51,50.451348458333285,51.70417762405992,50.85092701908231
1769180655260,181,53,52.49782757054,53.897002169395904,52.8887549534148
1769180655264,174,46,45.35049373171726,46.709438239511535,45.75486211456234
1769180655268,158,30,31.016104670261,30.86363374870601,31.451315261557383
1769180655272,140,12,13.846102684264006,12.803898789730331,14.316185290218982
1769180655276,126,-2,-1.5064470819608555,-1.177546122857665,-1.013865106513638
1769180655280,116,-12,-11.958038240911293,-11.182300041924954,-11.46544578999838
1769180655284,111,-17,-16.75744781999737,-16.149047024354076,-16.284227303932756
1769180655288,111,-17,-17.043913401174876,-16.260108754509872,-16.595428979722683
1769180655292,113,-15,-14.777590495505224,-14.12241012282652,-14.344417688888855
1769180655296,116,-12,-11.75090368152522,-11.236898687769592,-11.31700638446368
1769180655300,118,-10,-9.09238513874014,-9.147742362180727,-8.644934209908644
1769180655304,120,-8,-7.259018964188972,-7.151654714421283,-6.794099573897363
1769180655308,122,-6,-6.252885896637569,-5.29071213279157,-5.775414335104006
1769180655312,122,-6,-5.820528471450581,-5.087773699956918,-5.339343703981283
1769180655316,122,-6,-5.5911717362635365,-5.29862151396093,-5.1126409633597625
1769180655320,122,-6,-5.227267509228177,-5.0281889960471755,-4.752124494752135
1769180655324,123,-5,-4.58592240945927,-4.294706510625249,-4.111340883848762
1769180655328,124,-4,-3.7786491330546905,-3.111614956598535,-3.302402980779214
1769180655332,125,-3,-3.056818978199319,-2.302536054264658,-2.578781887068642
1769180655336,125,-3,-2.6070332027109275,-2.07043298210308,-2.127208031657954
1769180655340,125,-3,-2.4240036573239547,-2.244305538315589,-1.9407666283621887
1769180655344,125,-3,-2.3429599211873247,-2.0859642728242545,-1.8545223457371085
1769180655348,126,-2,-2.1670881152042387,-1.301281390802203,-1.6742294553823691
1769180655352,126,-2,-1.7799545761462432,-1.1385497962012137,-1.285838726373271
1769180655356,126,-2,-1.196510027866018,-1.2004859210514625,-0.7033956362530198
1769180655360,127,-1,-0.5549263775824178,-0.1326670306504199,-0.0620119708397487
1769180655364,128,0,-0.0426448537647112,0.832747221743691,0.4524657322811097
1769180655368,128,0,0.2293918134693597,0.7491433898781996,0.7280258879952816
1769180655372,128,0,0.3195104442444358,0.8329997392503823,0.8213118459694473
1769180655376,128,0,0.4211717010095907,0.8245184628743341,0.925417118735634
1769180655380,128,0,0.715299277290556,0.8327485870349776,1.221847231593555
1769180655384,129,1,1.2374855592395575,1.90498265451976,1.746306660327451
1769180655388,130,2,1.8786146663376024,2.640513379210945,2.389056629869437
1769180655392,130,2,2.5073637740461487,2.98439073737,3.0185275631300312
1769180655396,131,3,3.0887078660963723,3.6463606681637586,3.6005843897785796
1769180655400,131,3,3.69089763124956,4.0153541285321435,4.204736629192874
1769180655404,132,4,4.395071181542768,4.737098644268094,4.91227651871876
1769180655408,133,5,5.214159063413327,5.784373446665993,5.734762024520461
1769180655412,134,6,6.1018246545416925,6.898655406898105,6.624348484870565
1769180655416,135,7,7.024381012150729,7.668674594991963,7.547527966516906
1769180655420,135,7,8.000738623029891,8.062369852479657,8.52495841975257
1769180655424,137,9,9.06415695972333,9.607926203922055,9.591010216234205
1769180655428,138,10,10.198176232972624,10.998799391399892,10.728244153471088
1769180655432,139,11,11.32108303514023,11.628306557571737,11.853104844557636
1769180655436,140,12,12.326471963658022,12.990526945027865,12.858715560225134
1769180655440,141,13,13.13214519473525,13.71319603280996,13.664355620523631
1769180655444,141,13,13.701654798006674,13.936118028205032,14.235503016574656
1769180655448,142,14,14.04364422631216,14.717083182630992,14.58123629657241
1769180655452,142,14,14.209130341380726,14.872834930109176,14.75103498621788
1769180655456,142,14,14.283884011731905,14.79747031417972,14.82860875421772
1769180655460,142,14,14.350736286466567,14.868641311609863,14.896082106676555
1769180655464,142,14,14.420872960099056,14.782644584947908,14.96575194869005
1769180655468,142,14,14.386474019129214,14.88606344272974,14.93155986993627
1769180655472,142,14,14.057941752956436,14.698445413907969,14.604834708174543
1769180655476,141,13,13.284509924810468,14.002520527781453,13.83437703240386
1769180655480,140,12,12.072051050287524,12.630236380961517,12.624892777031135
1769180655484,138,10,10.595482055029674,11.02351522715974,11.150476762654655
1769180655488,137,9,9.083245318446089,9.648402196077274,9.639748791110488
1769180655492,135,7,7.660897960747605,7.942380590911838,8.219064551593021
1769180655496,134,6,6.282494642848391,6.793334159414878,6.8427276976321645
1769180655500,133,5,4.8099772229720354,5.8021815945127395,5.371879554515742
1769180655504,131,3,3.168979541424636,3.872976511485207,3.731491278598087
1769180655508,129,1,1.4313550331541096,1.7661096901308058,1.9942296204457897
1769180655512,127,-1,-0.2541925815613872,-0.1310704480983102,0.3103179635671753
1769180655516,126,-2,-1.7985409218518784,-1.1537868187920326,-1.230921600938312
1769180655520,125,-3,-3.2206292621470345,-2.227920503578509,-2.649848313944979
1769180655524,123,-5,-4.5636252823511505,-4.120055320360513,-3.9908623481967185
1769180655528,122,-6,-5.788444714068813,-5.228815409701074,-5.214666936240191
1769180655532,121,-7,-6.77086026994051,-6.136545245321324,-6.196052912846757
1769180655536,120,-8,-7.408719818123502,-7.140970446196513,-6.832367125605026
1769180655540,120,-8,-7.732066897670336,-7.245240550134276,-7.154014374491497
1769180655544,120,-8,-7.904923596558898,-7.08531624549417,-7.325622722527622
1769180655548,120,-8,-8.107781848856293,-7.296174966182113,-7.5275741421367215
1769180655552,119,-9,-8.403193494439048,-8.021623733062887,-7.821455297808281
1769180655556,119,-9,-8.702048022688793,-8.308322741794203,-8.117510034699306
1769180655560,119,-9,-8.85043945457825,-8.031999325012396,-8.262540028222443
1769180655564,119,-9,-8.75535046394403,-8.328342977768845,-8.164970448779188
1769180655568,119,-9,-8.454060072000935,-8.040817967477832,-7.862854196448717
1769180655572,120,-8,-8.087596701935315,-7.24627111088526,-7.496775500012489
1769180655576,120,-8,-7.805194243303422,-7.144084388963049,-7.214635740730461
1769180655580,120,-8,-7.67177432798814,-7.121344135735359,-7.0798626477805175
1769180655584,120,-8,-7.64272812484881,-7.326301963640471,-7.047384219151735
1769180655588,120,-8,-7.607722340966647,-6.958024990077195,-7.008198498193581
1769180655592,121,-7,-7.455684119941168,-6.390457239086108,-6.853231552201841
1769180655596,120,-8,-7.127839540830653,-6.94995224483411,-6.524355729697532
1769180655600,121,-7,-6.654014130712384,-6.34666862780293,-6.050490362530616
1769180655604,122,-6,-6.1540285366836756,-5.091702596912617,-5.550513979346827
1769180655608,122,-6,-5.780518219718132,-5.184535952267509,-5.1766334248962345
1769180655612,122,-6,-5.630175033262918,-5.184032048362741,-5.024931238486882
1769180655616,122,-6,-5.68924922172503,-5.108013433513571,-5.081105305767281
1769180655620,122,-6,-5.843240133235593,-5.261213610225583,-5.231294179173069
1769180655624,122,-6,-5.928219262192877,-5.112505076348545,-5.313169817088498
1769180655628,122,-6,-5.79821952759334,-5.2100084867829946,-5.181604291609174
1769180655632,122,-6,-5.396129695238678,-5.117590845483781,-4.778842273461552
1769180655636,123,-5,-4.797093600563969,-4.179126063221418,-4.179136653934542
1769180655640,124,-4,-4.180717663869378,-3.2205132787370596,-3.562004117137916
1769180655644,124,-4,-3.7367962974563618,-3.1141995606765707,-3.117287777326468
1769180655648,124,-4,-3.57546222045758,-3.253598823823046,-2.954547854798812
1769180655652,124,-4,-3.704080600572047,-3.015550278335102,-3.080696692798185
1769180655656,124,-4,-4.059906676010379,-3.3393644561437794,-3.4335836746144084
1769180655660,123,-5,-4.548749267935705,-4.021794724683664,-3.9200874619414385
1769180655664,123,-5,-5.067218968828326,-4.3414757036786735,-4.43714285748904
1769180655668,122,-6,-5.517946661410947,-4.996316042916489,-4.886813862789153
1769180655672,122,-6,-5.824155720542462,-5.28749380436665,-5.191735028822029
1769180655676,122,-6,-5.937253894350796,-5.057155609987998,-5.303214043735149
1769180655680,122,-6,-5.836570350386342,-5.318579252362872,-5.200635379704437
1769180655684,122,-6,-5.531880252919972,-5.035474888987951,-4.893732575412107
1769180655688,123,-5,-5.0719494637161535,-4.29661660743825,-4.431527604478118
1769180655692,123,-5,-4.545405763622449,-3.9922499954313313,-3.903391836397342
1769180655696,124,-4,-4.063550074733711,-3.3511052072378824,-3.4210997804101537
1769180655700,124,-4,-3.733882803553255,-3.0315478870981276,-3.0914903624638046
1769180655704,124,-4,-3.636426239148312,-3.3199863713571434,-2.993159886770238
1769180655708,124,-4,-3.7989422636122994,-3.0180141275325267,-3.1530904009215712
1769180655712,124,-4,-4.165839287829876,-3.2461690750529164,-3.5163207152514655
1769180655716,123,-5,-4.585051468761681,-4.143061376115033,-3.9321030952765215
1769180655720,123,-5,-4.8544463637773925,-4.183206331836602,-4.199192963215728
1769180655724,123,-5,-4.827974196347904,-4.229655366454434,-4.171653034878545
1769180655728,123,-5,-4.514983993983943,-4.0521767967293485,-3.8584292814118184
1769180655732,124,-4,-4.0914980503404905,-3.2395961126507684,-3.4349150739473058
1769180655736,124,-4,-3.801694896989938,-3.141788323709212,-3.144660463545526
1769180655740,124,-4,-3.809986946634377,-3.1802163532785888,-3.151661080365611
1769180655744,124,-4,-4.10182188892534,-3.2651355805153104,-3.4412156121369386
1769180655748,123,-5,-4.497056960958526,-3.976589489728475,-3.8332425460421593
1769180655752,123,-5,-4.759787147135622,-4.358465711710766,-4.0923133737942194
1769180655756,123,-5,-4.720886828291933,-3.970701725327907,-4.0504498567627
1769180655760,124,-4,-4.330783018260322,-3.3954713828576972,-3.659224302109984
1769180655764,124,-4,-3.634235700904008,-3.0235419793751226,-2.963129198398233
1769180655768,125,-3,-2.7274961553890025,-2.223549265432635,-2.056552178469847
1769180655772,126,-2,-1.7426182818566858,-1.1286057627076396,-1.069966376829873
1769180655776,127,-1,-0.837947625272284,-0.1677426227090681,-0.1622395959689148
1769180655780,128,0,-0.1573960457316898,0.7507712612746815,0.5207030334914149
1769180655784,128,0,0.2270432758122593,0.8880161131422932,0.9057451631693756
1769180655788,128,0,0.3369887009227326,0.7999741068146574,1.0155603179755142
1769180655792,128,0,0.2561190823385595,0.9037079325945866,0.935827794748469
1769180655796,128,0,0.0895413563209359,0.7493187524935307,0.7724525639364671
1769180655800,128,0,-0.0405289123291059,0.868280755759287,0.6465834310134657
1769180655804,128,0,0.0179447098745426,0.7690021755750955,0.7084923305708646
1769180655808,128,0,0.4138262981033138,0.8943430048739986,1.105968902232584
1769180655812,129,1,1.195400364244667,1.8508899658925544,1.887289689363754
1769180655816,130,2,2.218804766519959,2.736845703419654,2.9093648547337825
1769180655820,131,3,3.16255210069241,3.955049501438318,3.852076989886913
1769180655824,132,4,3.674723288876363,4.622817219405078,4.365171301949302
1769180655828,131,3,3.5667866149982608,4.080384308689169,4.26097085668295
1769180655832,131,3,2.9209220827973223,3.624351956997555,3.620441265987548
1769180655836,130,2,2.0337250391193726,2.9626428020273776,2.7373993262486778
1769180655840,129,1,1.224896442542084,1.7549222177443315,1.9296773277933024
1769180655844,128,0,0.6277002004694032,0.7976819295478226,1.3312142076723226
1769180655848,128,0,0.1096375664953155,0.9523183274538068,0.8116115342843557
1769180655852,128,0,-0.5962540693583835,0.6916134745589888,0.1055070681357654
1769180655856,126,-2,-1.6347960165367257,-1.0697362748218198,-0.9312723143737492
1769180655860,125,-3,-2.858804756849464,-2.23060690463986,-2.151594282412213
1769180655864,124,-4,-3.8950879583189697,-3.215847840831882,-3.183262514362975
1769180655868,123,-5,-4.392613515055764,-4.015979892254154,-3.677074627974799
1769180655872,124,-4,-4.256681250440046,-3.3869023712537003,-3.539778782325806
1769180655876,124,-4,-3.704201274388752,-2.9196400846260326,-2.9881981919473537
1769180655880,125,-3,-3.1225033467480934,-2.458536385814998,-2.4083069311251504
1769180655884,125,-3,-2.847335202393178,-1.9065196541650231,-2.134478754326033
1769180655888,125,-3,-3.0068273146095175,-2.414343192255536,-2.294075991470023
1769180655892,124,-4,-3.508176574032001,-2.949969747492589,-2.793589467932473
1769180655896,124,-4,-4.138511732436145,-3.362291574063704,-3.419121596190923
1769180655900,123,-5,-4.688140472899732,-4.03618292854227,-3.960847639302159
1769180655904,123,-5,-5.021258380673192,-4.26802850370451,-4.28583211259338
1769180655908,123,-5,-5.087331909561017,-4.1414081321774425,-4.349435625207425
1769180655912,123,-5,-4.9164447349601,-4.1398673798670504,-4.186452072787668
1769180655916,123,-5,-4.621554975141347,-4.262063488622752,-3.9074798887100943
1769180655920,123,-5,-4.350482175182643,-4.044689164135216,-3.6496506248905214
1769180655924,124,-4,-4.0876965876183,-3.336997103327392,-3.3851504158874346
1769180655928,125,-3,-3.321061243395544,-2.023410861705338,-2.5981525267777292
1769180655932,128,0,-0.837255577888234,0.7044214495677856,-0.0848317354103533
1769180655936,133,5,4.956236686588891,5.913271880815119,5.730419066194514
1769180655940,142,14,15.038154459387762,14.800144684682426,15.813530138508266
1769180655944,155,27,28.563043466330537,27.801615840879908,29.318151226185677
1769180655948,170,42,42.35523218038023,42.86538176758086,43.078965450371875
1769180655952,181,53,51.81346916443161,53.78752892193062,52.510168527072786
1769180655956,182,54,52.998269882452405,54.80957979428186,53.68582760654628
1769180655960,173,45,44.71270034050225,45.86187896123339,45.41456083908499
1769180655964,157,29,29.243403457874773,29.65165964338252,29.976933787803
1769180655968,138,10,11.275856731029204,11.039788498796522,12.042914707562758
1769180655972,123,-5,-4.3216372438334005,-4.374186550699838,-3.535627104790839
1769180655976,113,-15,-14.507062979025804,-13.902562251552595,-13.724597072083412
1769180655980,110,-18,-18.81369028736532,-17.41476980519633,-18.052817010321917
1769180655984,110,-18,-18.705511362964632,-17.068697622510804,-17.970922498902294
1769180655988,112,-16,-16.26351385965761,-15.28721833591377,-15.545447642841468
1769180655992,114,-14,-13.141621847070464,-13.067285225272348,-12.42271615259317
1769180655996,117,-11,-10.257402070293724,-10.192431950707736,-9.52367452097871
1769180656000,120,-8,-8.01692066297393,-7.12786449909293,-7.265991619847973
1769180656004,122,-6,-6.589734106440408,-5.387302118913611,-5.830281962164883
1769180656008,122,-6,-5.974653180877655,-4.971357300683732,-5.2177104125802
1769180656012,122,-6,-5.958577311453025,-5.4185970760420465,-5.208547075725303
1769180656016,121,-7,-6.1693966003083025,-5.7969731628474515,-5.422626580300985
1769180656020,122,-6,-6.247157471661999,-5.532224187173331,-5.497995607180544
1769180656024,122,-6,-5.991600621870257,-4.994444873368615,-5.238597336524705
1769180656028,123,-5,-5.38138475829252,-4.3400757879538645,-4.627470960522656
1769180656032,123,-5,-4.506065758709889,-4.11615167086711,-3.7541052182605217
1769180656036,124,-4,-3.505228270995801,-3.010371054442017,-2.755028586972558
1769180656040,126,-2,-2.5361754962492107,-1.411965839915597,-1.7857939239885234
1769180656044,126,-2,-1.7328055960252315,-1.033165214795029,-0.9811961408550554
1769180656048,127,-1,-1.1548202245693728,-0.3851481826051396,-0.4022674276520347
1769180656052,127,-1,-0.7741061529865996,-0.0250181026556416,-0.0208772836661084
1769180656056,127,-1,-0.5160160707290241,-0.1244533566837249,0.2381486439016071
1769180656060,128,0,-0.3111462045003454,0.6902857213213872,0.4438127972407549
1769180656064,128,0,-0.1098745476791457,0.9120818939858496,0.6448871307595165
1769180656068,128,0,0.1302162292597469,0.5859933893499547,0.8840693651414082
1769180656072,128,0,0.441344338121856,1.0887859227104515,1.1949305138032116
1769180656076,129,1,0.823320644889252,1.6723486532891003,1.5778218600486364
1769180656080,129,1,1.2421688037130028,1.9575393388416575,1.9975596501034891
1769180656084,130,2,1.6651333969893485,2.6126027804942225,2.4199526582114093
1769180656088,130,2,2.0926404620873216,2.885194858083763,2.845765611828545
1769180656092,130,2,2.547840772981998,2.796292282320672,3.300017848943013
1769180656096,131,3,3.044745451933691,3.922251148316909,3.797853547638538
1769180656100,132,4,3.590510822617344,4.7613719607281615,4.345513780092138
1769180656104,132,4,4.226386638900507,4.752497011014106,4.982474856777329
1769180656108,133,5,5.041587411886801,5.802170967355131,5.797139009600211
1769180656112,134,6,6.112764250657545,6.815092626281752,6.866659598781517
1769180656116,135,7,7.413473777853399,7.922882495533317,8.165628057518205
1769180656120,137,9,8.787196172349518,9.76160123903803,9.538361982244274
1769180656124,138,10,10.027427429221332,10.749713795478335,10.778614540075978
1769180656128,139,11,11.011731984126902,11.810240515595032,11.76354895588721
1769180656132,140,12,11.781144820024071,12.780210497745475,12.533550402546927
1769180656136,140,12,12.490270319525395,12.944997619400104,13.242922880835216
1769180656140,141,13,13.257402687154173,13.750080832359004,14.009922053890012
1769180656144,142,14,14.0388738817639,14.77306058030884,14.790490590103598
1769180656148,143,15,14.64295539029312,15.768763195434346,15.392479721828542
1769180656152,143,15,14.872100137172657,15.836879900210532,15.61911519804991
1769180656156,142,14,14.66207912683494,14.825843624562085,15.407962690784409
1769180656160,142,14,14.10713129725934,14.926255708839888,14.853984053020325
1769180656164,142,14,13.38204078605301,14.540624393169995,14.130596103783365
1769180656168,140,12,12.64088555938246,13.063962840747577,13.390072561792795
1769180656172,140,12,11.947706804414295,12.47799279936725,12.695902537228314
1769180656176,139,11,11.260848287768365,12.21583876500317,12.006840628545367
1769180656180,139,11,10.475035704380222,11.499141204714649,11.21833649272556
1769180656184,137,9,9.48867949433436,9.988078930324193,10.229902866438213
1769180656188,136,8,8.245000535563737,8.635532237931034,8.985644856586934
1769180656192,135,7,6.738547608868357,7.835444110232616,7.479641416134197
1769180656196,133,5,5.017763138150072,5.935807668863623,5.75896888354433
1769180656200,131,3,3.186027018031527,3.651640630098873,3.9264620907647014
1769180656204,129,1,1.3731876078976346,1.9949245087556216,2.1125036059007707
1769180656208,128,0,-0.3155591067215209,0.4737608778200706,0.4225732131136754
1769180656212,126,-2,-1.827992352722973,-0.8807747519537004,-1.091403984369013
1769180656216,125,-3,-3.1537898820135437,-2.4615707500891206,-2.4189111089393025
1769180656220,123,-5,-4.303603813303314,-3.8912137037606103,-3.569817039966269
1769180656224,123,-5,-5.298400148784955,-4.471121833495675,-4.56507254384583
1769180656228,122,-6,-6.157551179515936,-5.092169123852533,-5.42511786989666
1769180656232,121,-7,-6.885762747689053,-6.267422461234957,-6.155234502935519
1769180656236,120,-8,-7.482221549050415,-7.165360055175319,-6.753815432680529
1769180656240,120,-8,-7.966163323344549,-7.104390229394452,-7.239186045201422
1769180656244,120,-8,-8.373587633753777,-7.334311849790126,-7.647486661833305
1769180656248,119,-9,-8.712318752398534,-8.169753504088051,-7.987101714449226
1769180656252,119,-9,-8.928567355878373,-8.233509642895156,-8.20431324218779
1769180656256,119,-9,-8.934950939717579,-8.20742542944209,-8.211628143578796
1769180656260,119,-9,-8.681970468852047,-8.05305246245683,-7.959838277058082
1769180656264,120,-8,-8.212475003440446,-7.4087780887382255,-7.492234901070541
1769180656268,120,-8,-7.6577095632255405,-7.054503180216795,-6.940080170599264
1769180656272,121,-7,-7.178269717418432,-6.4017167347493,-6.463449423131508
1769180656276,121,-7,-6.887510156547709,-6.02214146527936,-6.174905341508209
1769180656280,121,-7,-6.804683078629399,-6.2680545692425715,-6.093047943730196
1769180656284,121,-7,-6.863676444504838,-6.188692668871837,-6.151882947374696
1769180656288,121,-7,-6.961621698779439,-6.2457178189012215,-6.249811520245166
1769180656292,121,-7,-7.007697071505743,-6.273640266553299,-6.297616087389641
1769180656296,121,-7,-6.949744468778455,-6.093841018770742,-6.243348084378537
1769180656300,121,-7,-6.785011658253039,-6.27909437354392,-6.082455768012917
1769180656304,121,-7,-6.558322904074442,-6.103630132118709,-5.85772764226107
1769180656308,122,-6,-6.330078309643611,-5.384545871056658,-5.629594613951616
1769180656312,122,-6,-6.114654697136946,-5.111611760803777,-5.414357412004019
1769180656316,122,-6,-5.846205328551886,-5.282196982627515,-5.147581616864877
1769180656320,122,-6,-5.433222172053037,-5.1062796818762415,-4.737372148989298
1769180656324,123,-5,-4.870175801236613,-4.249478924217918,-4.177197178099414
1769180656328,124,-4,-4.290018861695863,-3.2830044562480696,-3.5996843515099375
1769180656332,124,-4,-3.888605901574936,-3.1557738434671947,-3.200710098762484
1769180656336,124,-4,-3.7829587911957576,-3.3246297789436117,-3.097068784022016
1769180656340,124,-4,-3.9261182700908583,-3.0028844320437686,-3.2416682132802563
1769180656344,124,-4,-4.143122952273885,-3.426614041662252,-3.4598287407700954
1769180656348,123,-5,-4.254993213782621,-4.051414458932805,-3.572974069841853
1769180656352,124,-4,-4.195770247572688,-3.414891146922732,-3.515542755616979
1769180656356,124,-4,-4.03361735273136,-3.068297169387459,-3.3561017488791904
1769180656360,124,-4,-3.887704913903833,-3.2649818998191846,-3.213740346616611
1769180656364,124,-4,-3.825932729608596,-3.188447234253573,-3.155465486021175
1769180656368,124,-4,-3.834164912875458,-3.2640668730195572,-3.1661495783603963
1769180656372,124,-4,-3.8627771887219966,-3.242380658607729,-3.1960629318864004
1769180656376,124,-4,-3.883910249203917,-3.2059350045813573,-3.2181779133856834
1769180656380,124,-4,-3.9021166699443017,-3.187250649995823,-3.238031220461965
1769180656384,124,-4,-3.92193626689688,-3.2163217014605965,-3.2605579970118677
1769180656388,124,-4,-3.919874898920322,-3.2957791689516953,-3.2618431685007807
1769180656392,124,-4,-3.8589070836086674,-3.1605657727799157,-3.2039531407710364
1769180656396,124,-4,-3.734998350658812,-3.3484365949028803,-3.082285898156944
1769180656400,124,-4,-3.6036301834584727,-3.010900113192694,-2.9528154673211575
1769180656404,125,-3,-3.5459931121621096,-2.427855394581651,-2.89779061585389
1769180656408,124,-4,-3.5996573350762464,-3.068753464557903,-2.954896603886393
1769180656412,124,-4,-3.726163536104981,-3.4012782379103794,-3.084422244490857
1769180656416,124,-4,-3.849122371164865,-3.1242248712322307,-3.208964533722495
1769180656420,124,-4,-3.915525873998511,-3.2316183044565676,-3.2762327958188857
1769180656424,124,-4,-3.9180504054129313,-3.2318857762615254,-3.280653886031894
1769180656428,124,-4,-3.876394790677322,-3.2276316844816924,-3.2428123244298632
1769180656432,124,-4,-3.818708554917994,-3.293824488055021,-3.1900372114467017
1769180656436,124,-4,-3.781649517481017,-3.208149989729284,-3.1572902151032105
1769180656440,124,-4,-3.8056565753441576,-3.189511167246288,-3.183872435823309
1769180656444,124,-4,-3.900229357643733,-3.254024334730139,-3.279502198618509
1769180656448,124,-4,-3.9960825913538214,-3.211206348837245,-3.37613161830283
1769180656452,124,-4,-3.939046343914889,-3.319800322023958,-3.320799795918786
1769180656456,124,-4,-3.5638058044133696,-3.1991322934964206,-2.948594352719441
1769180656460,125,-3,-2.8144397549499223,-2.207201141563861,-2.2032443374520345
1769180656464,126,-2,-1.8183180546225792,-1.2336730275943064,-1.211524290013985
1769180656468,127,-1,-0.8396668094353266,-0.2306807098329476,-0.2371467583457067
1769180656472,128,0,-0.1318220896579423,0.6972543819796061,0.466971329001792
1769180656476,128,0,0.2085712842406653,0.7474941516029086,0.8045761962660944
1769180656480,128,0,0.2804782546494477,0.842205219354375,0.8748318416595385
1769180656484,128,0,0.2893271138736679,0.715519945088851,0.8826895515757047
1769180656488,128,0,0.4084533812358866,0.8137055184373498,1.000130280151348
1769180656492,129,1,0.6977865263683862,1.6771460218322831,1.2857980222559888
1769180656496,129,1,1.1181261363880126,1.7077237485761405,1.7008483483571508
1769180656500,129,1,1.5901337819257075,1.916218021454791,2.1680120223410264
1769180656504,130,2,2.033691624744465,2.5897486250453077,2.6087532721200746
1769180656508,130,2,2.379845307641411,2.98516033135231,2.9533240809725
1769180656512,131,3,2.5791172108786435,3.461673596955528,3.1501600369984217
1769180656516,130,2,2.6027979813157085,2.9402322419366897,3.1698078577711595
1769180656520,130,2,2.4203374331387097,2.642435688322885,2.9829293858108725
1769180656524,130,2,1.976353304681069,2.8680633478269755,2.535410404852509
1769180656528,129,1,1.214815774365684,1.7177007066925505,1.7710442060020053
1769180656532,128,0,0.1468671794480731,0.6952336236646781,0.7000357277752927
1769180656536,127,-1,-1.1069175807447629,-0.2543345504178136,-0.557244780695191
1769180656540,125,-3,-2.3578199638162456,-2.247974327087787,-1.8114041844647168
1769180656544,124,-4,-3.44783680298642,-3.1890392053947485,-2.9042313272280156
1769180656548,124,-4,-4.315370599560622,-3.2593916383298622,-3.775055753787541
1769180656552,123,-5,-4.972595977478509,-4.30688480480532,-4.436665531530366
1769180656556,122,-6,-5.440755797076844,-5.265631255322899,-4.909199582252811
1769180656560,122,-6,-5.7255663992574926,-5.268478700945317,-5.196915106605748
1769180656564,122,-6,-5.842676972406427,-5.175244328253086,-5.316101649420941
1769180656568,122,-6,-5.8384572752073165,-5.269569978129111,-5.315561561593832
1769180656572,122,-6,-5.777753357354686,-5.291284751111862,-5.261278800154066
1769180656576,122,-6,-5.721296704631575,-5.289861993890622,-5.211760803863138
1769180656580,122,-6,-5.712739840348965,-5.281844811685812,-5.206602333022984
1769180656584,122,-6,-5.765707802198032,-5.171043169144509,-5.257490030622959
1769180656588,122,-6,-5.8451262725679225,-5.261758873009719,-5.3325213404005565
1769180656592,122,-6,-5.8694506903850066,-5.307820541367931,-5.357432627995103
1769180656596,122,-6,-5.763632057250819,-5.253999357779343,-5.263120615859292
1769180656600,122,-6,-5.534139441992549,-5.396714961146714,-5.054267388884924
1769180656604,122,-6,-5.259411111772,-5.0160966204431015,-4.798416280122212
1769180656608,123,-5,-4.889801603447216,-4.454409013180597,-4.432852788848303
1769180656612,124,-4,-3.9013383719880608,-3.0748484415272603,-3.429333832636874
1769180656616,128,0,-1.0878901725273802,0.4950269149773429,-0.5914714675281676
1769180656620,133,5,5.1129536750515285,5.8096177457637665,5.625698425915282
1769180656624,142,14,15.623110900206598,14.809644964388298,16.131437714907694
1769180656628,156,28,29.51656855815663,28.686340330645734,29.99956665482581
1769180656632,171,43,43.53478306780642,43.854943318379135,43.98211609026587
1769180656636,182,54,53.03127987783292,54.49908326083366,53.447163126424336
1769180656640,183,55,54.091872953448686,55.77913117029409,54.49286761890493
1769180656644,174,46,45.60872979424427,46.75732761787031,46.01716998055531
1769180656648,157,29,29.966857753689116,29.673768889920932,30.401147556243952
1769180656652,138,10,11.895280871252016,10.908618723874262,12.359963324467747
1769180656656,124,-4,-3.752945022811105,-3.5586705170005617,-3.2713531534660074
1769180656660,114,-14,-13.93754161476658,-13.05516693182056,-13.463822296157524
1769180656664,110,-18,-18.130331244372627,-17.425842148481113,-17.68561110387478
1769180656668,110,-18,-17.748161838038133,-17.122636546897475,-17.337522200036283
1769180656672,113,-15,-14.97716326691475,-14.33321699248912,-14.588978924862944
1769180656676,116,-12,-11.732414840202289,-11.35869199252226,-11.34824127655434
1769180656680,118,-10,-9.152304386642918,-9.22989878440326,-8.75856690460007
1769180656684,120,-8,-7.604930715906004,-7.313182887092479,-7.1989541049247086
1769180656688,121,-7,-6.945040419486531,-6.2180047148229995,-6.533523595612112
1769180656692,121,-7,-6.782444197515359,-6.291649169274881,-6.374983753644381
1769180656696,121,-7,-6.685480855847779,-6.393232059538303,-6.288068478787897
1769180656700,121,-7,-6.341624471781114,-6.174469808551732,-5.954479452853196
1769180656704,122,-6,-5.664257589962867,-5.403241318533897,-5.284444000162872
1769180656708,123,-5,-4.787706070806774,-4.104026678245084,-4.412852243691459
1769180656712,124,-4,-3.9421124444460407,-3.4590146437225733,-3.5715693569254015
1769180656716,124,-4,-3.2960520926483996,-3.211476431131012,-2.9296323870581285
1769180656720,125,-3,-2.8754101296381003,-2.363776254672313,-2.512421932734471
1769180656724,125,-3,-2.5910309890547674,-2.2342477033125454,-2.230925677464579
1769180656728,125,-3,-2.3253180197231567,-2.2713512612639786,-1.9687290145713547
1769180656732,126,-2,-2.0075826930034824,-1.3258715078059389,-1.6561538315460291
1769180656736,126,-2,-1.6389309922098445,-1.3224701457952488,-1.2938973081564784
1769180656740,126,-2,-1.2687649710375255,-1.290586656850921,-0.929794766518463
1769180656744,127,-1,-0.9459254026724508,-0.2744039908799831,-0.6115587014536654
1769180656748,127,-1,-0.669776257702909,-0.2966218156995402,-0.3389169855996277
1769180656752,127,-1,-0.3705440856413268,-0.2682849680100198,-0.0433109846698825
1769180656756,128,0,0.0571585225085354,0.5747301476025988,0.3799117133844847
1769180656760,128,0,0.6806002856300378,0.8468746775367739,0.9982656019668924
1769180656764,129,1,1.4697991309555885,1.5363868219608323,1.7823449151049702
1769180656768,130,2,2.3070249509590783,2.9225862257375788,2.6144729006156138
1769180656772,131,3,3.065819210971418,3.4580446893926595,3.3678514853439516
1769180656776,131,3,3.695529945686158,3.8671663322338095,3.99201150795612
1769180656780,132,4,4.238037726582451,4.547520888733386,4.529700883118946
1769180656784,132,4,4.771009649791337,4.794103228977158,5.059018073440728
1769180656788,133,5,5.345266673353942,5.699170467964697,5.629889097086032
1769180656792,134,6,5.9775153088742075,6.615207595500674,6.257606923509582
1769180656796,134,6,6.684515004391944,6.76283095553611,6.958671604742422
1769180656800,135,7,7.49655592235301,7.594357468631424,7.764607022057005
1769180656804,136,8,8.425908583892236,8.768491258723238,8.688962075841339
1769180656808,137,9,9.432591293420396,9.683997643443014,9.691713279458323
1769180656812,138,10,10.435407676987005,10.636259732351066,10.690477336963474
1769180656816,139,11,11.36188059742751,11.741538550353644,11.611739049099034
1769180656820,140,12,12.186734058666786,12.588663575555977,12.430485979867573
1769180656824,140,12,12.919412166012249,12.77692686591697,13.157560483843426
1769180656828,141,13,13.55690625885406,13.635245613147006,13.790885993791097
1769180656832,142,14,14.06232938799839,14.701468504990526,14.292850875536104
1769180656836,142,14,14.399475153387815,14.66214881614778,14.625802160005906
1769180656840,142,14,14.574870698873273,14.658726689044489,14.79585757934341
1769180656844,142,14,14.62129823547015,14.698448663777109,14.836547803130776
1769180656848,142,14,14.533167283789073,14.66922763685439,14.742941174254748
1769180656852,142,14,14.230192348469624,14.690131681260686,14.43481508213578
1769180656856,141,13,13.5962846054874,13.662121764182247,13.796054386708557
1769180656860,140,12,12.562945402851993,12.642368817261849,12.75817516436988
1769180656864,139,11,11.170065709897669,11.716964594120608,11.36080008669065
1769180656868,137,9,9.55780650115952,9.582620648324994,9.74381282070854
1769180656872,135,7,7.890139832131135,7.825558677608678,8.071407011499282
1769180656876,134,6,6.263190314021987,6.493177290061565,6.44000113142693
1769180656880,132,4,4.674767065430795,4.821766422155614,4.846997567483688
1769180656884,131,3,3.08235609007485,3.5166323416575977,3.249196092542017
1769180656888,129,1,1.4872839703033511,1.7379476812713197,1.648197531757519
1769180656892,127,-1,-0.0454247392477666,-0.2926039487793663,0.110266181565819
1769180656896,126,-2,-1.4457901915841922,-1.4442969762127729,-1.2940570160402698
1769180656900,125,-3,-2.698251086320342,-2.1829073622392197,-2.550249367997283
1769180656904,124,-4,-3.8322913014605984,-3.570120811141992,-3.6890609066926903
1769180656908,122,-6,-4.867568182268177,-5.125687550167784,-4.729978940060347
1769180656912,122,-6,-5.784140675979287,-5.493914459473707,-5.651849298084165
1769180656916,121,-7,-6.54280864048327,-6.206945760507247,-6.4147541845205565
1769180656920,120,-8,-7.124531858873713,-7.450365929712063,-7.0001177139042285
1769180656924,120,-8,-7.550693998018531,-7.315517634865994,-7.430533682846268
1769180656928,120,-8,-7.868923922505889,-7.384142279825495,-7.7544593310283005
1769180656932,119,-9,-8.121015833167538,-8.276204114432485,-8.012982911722302
1769180656936,119,-9,-8.326582628279564,-8.391372747691733,-8.223836309716805
1769180656940,119,-9,-8.488779270707798,-8.310025099751247,-8.389224676174402
1769180656944,119,-9,-8.59270435380185,-8.44947464520749,-8.495541833866744
1769180656948,119,-9,-8.588333286951343,-8.28254084347266,-8.494885732200816
1769180656952,119,-9,-8.399593515858577,-8.370735643617452,-8.311728493004235
1769180656956,119,-9,-7.98877510115865,-8.32548260849038,-7.907028860169124
1769180656960,120,-8,-7.426031760009304,-7.35511574057668,-7.349664718977627
1769180656964,121,-7,-6.874366470290335,-6.4612619134403095,-6.802653660828579
1769180656968,121,-7,-6.47729966073286,-6.243314449388803,-6.409864033604978
1769180656972,121,-7,-6.250015786258014,-6.45136625291631,-6.186186880996775
1769180656976,121,-7,-6.07911430752207,-6.241809422775773,-6.0181842277518625
1769180656980,122,-6,-5.824593211432552,-5.452213676621865,-5.766986650577269
1769180656984,122,-6,-5.431174936635395,-5.396973436351541,-5.378426505108004
1769180656988,122,-6,-4.973277535105483,-5.277377113405129,-4.9264652748146
1769180656992,123,-5,-4.615044154427146,-4.471545038198033,-4.5738781960035935
1769180656996,123,-5,-4.506398258893199,-4.191499069862737,-4.46993176685763
1769180657000,123,-5,-4.675976877186183,-4.5669997123678,-4.6433740241989145
1769180657004,122,-6,-5.005155053222984,-5.253132919567902,-4.975603529020836
1769180657008,122,-6,-5.31242848621502,-5.46008174802864,-5.285296294953549
1769180657012,122,-6,-5.474937956995034,-5.2840468898920285,-5.450655148925448
1769180657016,122,-6,-5.484165101358798,-5.390078102884887,-5.464423830739212
1769180657020,122,-6,-5.4107596371103925,-5.396796418591505,-5.397148721306052
1769180657024,122,-6,-5.336957086208492,-5.405392810724745,-5.329385439837223
1769180657028,122,-6,-5.315001309905486,-5.364928031336939,-5.311738444466471
1769180657032,122,-6,-5.356579368979408,-5.34307291412278,-5.355863366344613
1769180657036,122,-6,-5.430379905760271,-5.3962760755244,-5.431860882989287
1769180657040,122,-6,-5.463626350878699,-5.345319824447523,-5.468268102460374
1769180657044,122,-6,-5.366083334938598,-5.524168578761829,-5.374890859829417
1769180657048,122,-6,-5.081124444772335,-5.213339361715469,-5.094221169934761
1769180657052,123,-5,-4.631176466546472,-4.546029651992855,-4.648112608378561
1769180657056,123,-5,-4.115314854299731,-4.177105704003287,-4.135948099200139
1769180657060,124,-4,-3.6561802526169815,-3.584786681043587,-3.680917675936562
1769180657064,124,-4,-3.3405519968680384,-3.3054764468559887,-3.369678059973748
1769180657068,124,-4,-3.199804172513442,-3.4298346820722387,-3.2328363176572292
1769180657072,124,-4,-3.230709377723377,-3.383110640159288,-3.2667580872379456
1769180657076,124,-4,-3.4150862757538283,-3.2959014629509316,-3.453812342325055
1769180657080,124,-4,-3.7101923065690574,-3.5368927959646643,-3.751962291222263
1769180657084,123,-5,-4.034421009228362,-4.299266163576803,-4.079448983671592
1769180657088,123,-5,-4.288999556531249,-4.518136969676261,-4.33697510062231
1769180657092,123,-5,-4.409198845880894,-4.263883671473684,-4.460116247457056
1769180657096,123,-5,-4.398159596881171,-4.4470167958079845,-4.452894855212371
1769180657100,123,-5,-4.318733496935403,-4.395641291379586,-4.378135119421318
1769180657104,123,-5,-4.259896032720038,-4.413138412455476,-4.323558090678235
1769180657108,123,-5,-4.296343433268664,-4.503182728560386,-4.362876664670481
1769180657112,123,-5,-4.444810332297294,-4.20116700060581,-4.513249249926528
1769180657116,123,-5,-4.634439174113574,-4.6210995817073846,-4.70487113536119
1769180657120,122,-6,-4.728369612426137,-5.127771753174859,-4.801302453610251
1769180657124,123,-5,-4.602085459175687,-4.769904126724617,-4.677933742917668
1769180657128,123,-5,-4.2200083673973685,-4.130006021233995,-4.299280266224798
1769180657132,124,-4,-3.6445284532795625,-3.593932039830088,-3.727666982692426
1769180657136,124,-4,-2.9800705275023915,-3.26423548495501,-3.066688799220837
1769180657140,125,-3,-2.310123559613752,-2.423919377368567,-2.398996315134222
1769180657144,126,-2,-1.6700526698848512,-1.5874538497519917,-1.7603663061227393
1769180657148,126,-2,-1.0584933851182745,-1.2318381070133382,-1.150822727920044
1769180657152,127,-1,-0.4730116696729134,-0.6151435991037626,-0.5687162205077836
1769180657156,127,-1,0.0529913780269069,-0.1446209421071916,-0.0467713088068119
1769180657160,128,0,0.4462071099738263,0.3658495061657166,0.3431032251444573
1769180657164,128,0,0.6415895345539415,0.6602188477803701,0.5366259818687065
1769180657168,128,0,0.6549069155897023,0.4677778406709455,0.5490268883533543
1769180657172,128,0,0.615451882772472,0.6662448601925477,0.5083338360693669
1769180657176,128,0,0.7118266340285675,0.6041754664309151,0.6024335881786982
1769180657180,128,0,1.0703191197554256,0.5535424221415313,0.9580198753803476
1769180657184,129,1,1.6540057261220755,1.5245140995352582,1.538895817855804
1769180657188,130,2,2.2743139834120623,2.509244244975018,2.156627729565229
1769180657192,130,2,2.7163446292548277,2.675910627388839,2.5961360631780765
1769180657196,130,2,2.8712574324636235,2.533846933807587,2.7487137034573177
1769180657200,130,2,2.7650018798688474,2.653350750990427,2.640559333867982
1769180657204,130,2,2.4785664250557664,2.3674627884313324,2.3525666668991763
1769180657208,129,1,2.050720538806578,1.6729153919630273,1.923203937351794
1769180657212,129,1,1.4530976186899391,1.4830780005115844,1.323931757804035
1769180657216,128,0,0.65121742172545,0.7404900306751234,0.5202735616985815
1769180657220,127,-1,-0.3155982349638797,-0.5835560221220426,-0.448326710207521
1769180657224,126,-2,-1.3216501208026823,-1.4116400841201049,-1.456052969101803
1769180657228,125,-3,-2.2311780369265257,-2.563398097406551,-2.367303005238945
1769180657232,124,-4,-2.9941568478881435,-3.3147424274413613,-3.1324770717652073
1769180657236,124,-4,-3.668287972132669,-3.413961161364693,-3.809295492949308
1769180657240,123,-5,-4.344637610778875,-4.506939873401764,-4.487836731076527
1769180657244,122,-6,-5.04599160254259,-5.442112471080195,-5.18968525921928
1769180657248,122,-6,-5.685414235765249,-5.629113071055101,-5.828240112049928
1769180657252,121,-7,-6.113603616718482,-6.197252572588875,-6.256370219907817
1769180657256,121,-7,-6.219743231137112,-6.583216226908751,-6.36520750071218
1769180657260,121,-7,-6.0206305794266575,-6.3043328926374045,-6.1710552309784354
1769180657264,122,-6,-5.672115065732173,-5.6987933168027665,-5.826724033623304
1769180657268,122,-6,-5.378954646462422,-5.38957882283592,-5.5334760625608626
1769180657272,122,-6,-5.260702954931318,-5.4377305451627445,-5.409996169534462
1769180657276,122,-6,-5.2814970979075895,-5.375199511257545,-5.424364190864946
1769180657280,122,-6,-5.30820595026061,-5.480150278213169,-5.450858134173557
1769180657284,122,-6,-5.252992819199401,-5.605323820384466,-5.406735035723531
1769180657288,122,-6,-5.166580657612757,-5.447154101781605,-5.3390893071647305
1769180657292,122,-6,-5.144530702430304,-5.4426576428432085,-5.3308990140610355
1769180657296,122,-6,-5.01703276759435,-5.326137324142477,-5.199674733323524
1769180657300,124,-4,-3.988282136915348,-3.577389768369207,-4.148407467600646
1769180657304,128,0,-0.5753604354569957,0.4900391468953806,-0.7073712069289959
1769180657308,134,6,6.8154011016830385,6.432723784646331,6.69902018850477
1769180657312,144,16,18.712947737087504,16.679385488099516,18.589545160493422
1769180657316,160,32,33.462214841983815,32.56543365776847,33.31199711155653
1769180657320,175,47,47.12718126582797,47.50967703156201,46.94274059530763
1769180657324,183,55,54.88796693810445,55.37593604381304,54.67737768954918
1769180657328,182,54,53.33357697162131,54.47603380925604,53.117234573745634
1769180657332,170,42,42.28338531224348,42.58389871534192,42.08526782340382
1769180657336,151,23,24.979350385570623,23.569362107423963,24.815345042046935
1769180657340,133,5,6.537950801621228,5.5620356128569775,6.406835002953015
1769180657344,119,-9,-8.357560535096052,-8.687014394596682,-8.474340833630617
1769180657348,110,-18,-17.19526805919512,-17.356245997298657,-17.323302067017153
1769180657352,108,-20,-20.025381819592685,-19.59552208938324,-20.18238962879575
1769180657356,109,-19,-18.646748465572188,-18.274817516125815,-18.833000756854883
1769180657360,112,-16,-15.340605642497309,-15.625628767806363,-15.540785538061629
1769180657364,115,-13,-11.899846666894272,-12.556733463099892,-12.094328795633556
1769180657368,118,-10,-9.268599715658418,-9.453113633555205,-9.445876758130352
1769180657372,120,-8,-7.66191696851862,-7.579556970249787,-7.823635209925142
1769180657376,120,-8,-6.872143303026627,-7.259803968555981,-7.028410226029351
1769180657380,121,-7,-6.554051312443307,-6.740609205585912,-6.714363475684639
1769180657384,121,-7,-6.41083943091935,-6.388029578466733,-6.578144279402857
1769180657388,121,-7,-6.270716034128538,-6.666905384640213,-6.441918518569053
1769180657392,121,-7,-6.071676429190486,-6.339099924335535,-6.242445198361967
1769180657396,122,-6,-5.795218614495666,-5.5392954062448245,-5.964223612104774
1769180657400,122,-6,-5.411561528252536,-5.501995384288109,-5.580534061267436
1769180657404,122,-6,-4.890852512520146,-5.617590675743116,-5.061367220783626
1769180657408,123,-5,-4.265230277269524,-4.4632945956761905,-4.436467262306035
1769180657412,124,-4,-3.649701925776282,-3.5259481534754413,-3.819585478600837
1769180657416,124,-4,-3.159024235293342,-3.3994396564836395,-3.326782016434791
1769180657420,125,-3,-2.78582071591327,-2.662497820246954,-2.952736625165819
1769180657424,125,-3,-2.378222208922863,-2.466950530684594,-2.545902332173344
1769180657428,125,-3,-1.7716210066248088,-2.643397798402096,-1.940114947383226
1769180657432,126,-2,-0.9627407683107564,-1.315082387974174,-1.1309774974371027
1769180657436,128,0,-0.1427160904438345,0.3257689450496035,-0.3104064386120631
1769180657440,128,0,0.4648217500399929,0.6232452494974208,0.2969216003579751
1769180657444,128,0,0.804298246578008,0.2103857635528447,0.6361350645076642
1769180657448,128,0,1.028230749077065,0.6633854771071701,0.8611371285347871
1769180657452,129,1,1.3542557248810967,1.3874845011006842,1.189272260307265
1769180657456,129,1,1.8915798194917304,1.5568168002058729,1.7279673914363114
1769180657460,130,2,2.582844040448548,2.448581346718496,2.41886994086048
1769180657464,131,3,3.2810912412855076,3.2922855834623936,3.115842416411179
1769180657468,131,3,3.879677835264226,3.638484634363554,3.713761260298006
1769180657472,132,4,4.393213559501411,4.323446383163355,4.2280374202835445
1769180657476,132,4,4.936930250804817,4.657850338064048,4.773630891703122
1769180657480,133,5,5.631820778524609,5.294265532512652,5.470630326904554
1769180657484,134,6,6.517329445856801,6.457877131321133,6.357489974168869
1769180657488,135,7,7.538821204207231,7.447706473909369,7.3790175242644
1769180657492,136,8,8.60592698902526,8.489280854929152,8.445189839050734
1769180657496,137,9,9.657238601914154,9.488417091863743,9.49582107705348
1769180657500,138,10,10.67419081066333,10.427146098605728,10.51357576653178
1769180657504,139,11,11.648026419291414,11.326497456635748,11.489757833728692
1769180657508,140,12,12.549801190875623,12.550580039273814,12.3940465198954
1769180657512,141,13,13.336709516028838,13.3766841114205,13.182035585268627
1769180657516,141,13,13.974410710235324,13.578826554248009,13.81913444616352
1769180657520,142,14,14.43599317501687,14.31622025141923,14.279727075153604
1769180657524,142,14,14.67902388201264,14.430713377802205,14.522884652650864
1769180657528,142,14,14.643709135332484,14.404170574145205,14.48922635618222
1769180657532,142,14,14.295567626701535,14.550929969999268,14.143561247860571
1769180657536,141,13,13.675382383896194,13.331336490384135,13.525670460625996
1769180657540,140,12,12.89399245515767,12.602345450868311,12.745660800274765
1769180657544,140,12,12.057797297985127,12.069709534487629,11.909581410287874
1769180657548,138,10,11.182673621576251,10.797492855345604,11.033609524209824
1769180657552,138,10,10.172367724467136,10.10798636146152,10.022647835959535
1769180657556,136,8,8.888993983845666,8.78907350078073,8.74012058252029
1769180657560,135,7,7.273252947411487,7.098376867265904,7.126941947969874
1769180657564,133,5,5.427365339888009,5.55853883180795,5.284159705705617
1769180657568,131,3,3.5851524789117093,3.307720399362959,3.444193437882618
1769180657572,129,1,1.969007647730622,1.5438006712738774,1.828979311402018
1769180657576,128,0,0.6326859074318563,0.4080961822968569,0.4926062433818203
1769180657580,127,-1,-0.575791344975078,-0.6251949223576685,-0.7165124149936528
1769180657584,126,-2,-1.884883722312039,-1.6519939061229856,-2.0262708528991156
1769180657588,124,-4,-3.406053630308019,-3.571275935174045,-3.546946743118334
1769180657592,122,-6,-5.037303162454545,-5.544828758657058,-5.175538470004861
1769180657596,121,-7,-6.530511963190003,-6.553858071871738,-6.664598242851064
1769180657600,120,-8,-7.648235885642281,-7.668064225397664,-7.778887344416584
1769180657604,119,-9,-8.28940989972971,-8.627370037752222,-8.419038446220899
1769180657608,119,-9,-8.5197575006059,-8.602346523123071,-8.650483130495633
1769180657612,119,-9,-8.513803000289185,-8.535546531704579,-8.645998230494673
1769180657616,119,-9,-8.454867366626788,-8.592939872515993,-8.587175532277067
1769180657620,119,-9,-8.450856348996107,-8.636326745915392,-8.581274296321537
1769180657624,119,-9,-8.505123993777497,-8.697970189379847,-8.632355327395027
1769180657628,119,-9,-8.542751814724916,-8.51671613705183,-8.666943925322416
1769180657632,119,-9,-8.466540872516623,-8.669368485482073,-8.588853936753456
1769180657636,119,-9,-8.21500098593834,-8.457667452886437,-8.336524743815904
1769180657640,120,-8,-7.797979482583799,-7.806486474107031,-7.919105822479264
1769180657644,120,-8,-7.291356185839047,-7.533654647345789,-7.411935853119338
1769180657648,121,-7,-6.794732303903211,-6.702301365466444,-6.914394640970616
1769180657652,121,-7,-6.384232254414233,-6.491481519798317,-6.502508837327225
1769180657656,121,-7,-6.092459460340168,-6.678519811753375,-6.209057648610383
1769180657660,122,-6,-5.915491514370043,-5.589866481208118,-6.030625771476345
1769180657664,122,-6,-5.82591702535925,-5.773258920652258,-5.9398946154596235
1769180657668,121,-7,-5.78510781803524,-6.482979307749587,-5.8974965295481665
1769180657672,122,-6,-5.757013933155793,-5.70231122224918,-5.8670057602315255
1769180657676,122,-6,-5.7105471290750405,-5.533138736884976,-5.818384834017805
1769180657680,122,-6,-5.6079140337388225,-5.716638183001864,-5.715036759056793
1769180657684,122,-6,-5.412265030823359,-5.6912873996304345,-5.519566062414859
1769180657688,122,-6,-5.130660580887034,-5.548500258794993,-5.237325371232498
1769180657692,123,-5,-4.840602138415225,-4.6922121033142,-4.945185756758667
1769180657696,123,-5,-4.642206855226176,-4.527825174159135,-4.744346009238627
1769180657700,123,-5,-4.566369581451719,-4.788261354590933,-4.666907705164683
1769180657704,123,-5,-4.536786950664133,-4.581511963183988,-4.636487403267309
1769180657708,123,-5,-4.435138956398378,-4.723706270838675,-4.533788800667651
1769180657712,123,-5,-4.209223874212005,-4.508411993174894,-4.306085464023414
1769180657716,124,-4,-3.917719605263198,-3.7437284355370544,-4.012567069559985
1769180657720,124,-4,-3.6705440691116142,-3.5921099915468653,-3.763933002112914
1769180657724,124,-4,-3.5307097337613285,-3.770983438248785,-3.6232283854803153
1769180657728,124,-4,-3.478266588025738,-3.5937802369398173,-3.5698540874792366
1769180657732,124,-4,-3.464520034258104,-3.6146216908363256,-3.5547002010303688
1769180657736,124,-4,-3.4895685101273557,-3.723928956481858,-3.5781668839946934
1769180657740,124,-4,-3.6175821673807422,-3.541353515408533,-3.704992445076929
1769180657744,124,-4,-3.910514073349496,-3.919421853429784,-3.9971699186704663
1769180657748,123,-5,-4.3423974677676025,-4.394861451336942,-4.427967681051164
1769180657752,123,-5,-4.777805397727376,-4.897757024242481,-4.861109625860152
1769180657756,122,-6,-5.039885299420577,-5.4346837413055065,-5.119989553012454
1769180657760,123,-5,-5.013178452684228,-4.8382435584234695,-5.090660439641416
1769180657764,123,-5,-4.705052280518444,-4.6523615204963695,-4.781808298019252
1769180657768,123,-5,-4.238077143577803,-4.65202523379415,-4.315644713877039
1769180657772,124,-4,-3.7957125639029874,-3.7084482938376113,-3.873973549400908
1769180657776,124,-4,-3.54948659988764,-3.6130316284878607,-3.6270207682343982
1769180657780,124,-4,-3.5883380262915487,-3.706993836696874,-3.663651561599897
1769180657784,124,-4,-3.8788932620942864,-3.7618712656608992,-3.951232883304938
1769180657788,123,-5,-4.283177323262009,-4.588018535413947,-4.352735368249014
1769180657792,123,-5,-4.626266931145111,-4.795568521408461,-4.694123549201965
1769180657796,123,-5,-4.7705251125425505,-4.5464090715890535,-4.838096518712099
1769180657800,123,-5,-4.65594661294924,-4.785676651398963,-4.723770585113332
1769180657804,123,-5,-4.298585215330531,-4.692352872312989,-4.365621361935881
1769180657808,124,-4,-3.75782680002136,-3.6631570913431544,-3.822527472253329
1769180657812,125,-3,-3.0882822325164474,-2.792090024042431,-3.1503418833178944
1769180657816,125,-3,-2.312247406087766,-2.526771482573108,-2.3728108677165274
1769180657820,126,-2,-1.4513714645345628,-1.8569020128715112,-1.511737962719503
1769180657824,127,-1,-0.5943072581261855,-0.6026609960715867,-0.6550133304872225
1769180657828,128,0,0.0864680164206883,0.215305011530739,0.0256038115536007
1769180657832,128,0,0.4193605960017006,0.2742283517330847,0.3591092531114165
1769180657836,128,0,0.3640582044343052,0.43449764269178,0.3057268199005672
1769180657840,128,0,0.0774686500232915,0.1017580244140663,0.02228106577318
1769180657844,127,-1,-0.1470509302544349,-0.5008114756004758,-0.1990069991093376
1769180657848,128,0,-0.0342013187810605,0.0184813701314161,-0.0843574715135223
1769180657852,128,0,0.5226289682368788,0.5099317392732021,0.4723281290654029
1769180657856,129,1,1.405611048168363,1.1282175283746954,1.3542909882891945
1769180657860,130,2,2.340118146783556,2.4362511210446325,2.2884465918697456
1769180657864,131,3,3.041508623004061,3.123939150030321,2.9906389690313455
1769180657868,131,3,3.348723192968534,3.36924197365435,3.2991890791647887
1769180657872,131,3,3.2575253315983055,3.139489457312396,3.209311737096219
1769180657876,130,2,2.84163075612951,2.4586103937796366,2.794742900813412
1769180657880,130,2,2.148601280249571,2.1116343543612244,2.102973801676318
1769180657884,129,1,1.178633984052238,1.426721066620011,1.133774197795649
1769180657888,128,0,-0.0395225297245815,0.0405575700017228,-0.0840429313640971
1769180657892,126,-2,-1.3730688122248114,-1.548553287822608,-1.416762484361631
1769180657896,125,-3,-2.607070605936478,-2.8932344208103107,-2.6489782206425665
1769180657900,124,-4,-3.5515751418140953,-3.538190188960518,-3.5918490071515485
1769180657904,124,-4,-4.138285925093829,-3.9367776752956094,-4.178545066696314
1769180657908,123,-5,-4.438213562418455,-4.617233109206618,-4.4796938945699285
1769180657912,123,-5,-4.606777553155407,-4.907559932213009,-4.648679424793264
1769180657916,123,-5,-4.795631486348123,-4.584997707194199,-4.836064694264554
1769180657920,123,-5,-5.070607682395443,-4.838754672982986,-5.108915703607506
1769180657924,122,-6,-5.38361478661006,-5.676669359774655,-5.421155258611214
1769180657928,122,-6,-5.629543178972468,-5.86023563215006,-5.668268733524632
1769180657932,122,-6,-5.746816756098089,-5.731489559945658,-5.787250777969157
1769180657936,122,-6,-5.767373385410741,-5.758723293528208,-5.807480020830204
1769180657940,122,-6,-5.769673799280586,-5.7048827101038935,-5.805579261300294
1769180657944,122,-6,-5.789549106478967,-5.792052217040849,-5.818637887906205
1769180657948,122,-6,-5.785828991250089,-5.795614299463298,-5.810730695840288
1769180657952,122,-6,-5.701869032341555,-5.798152322629382,-5.731298295975858
1769180657956,122,-6,-5.562999551453151,-5.759715715981363,-5.606377253112401
1769180657960,122,-6,-5.481520238495451,-5.672991777696751,-5.5400848758568975
1769180657964,122,-6,-5.464484552421149,-5.866551262626526,-5.5269913847582615
1769180657968,123,-5,-5.060809193514297,-4.723709794723007,-5.109579648153085
1769180657972,126,-2,-3.1032298501075997,-1.8986348866215073,-3.12658994619403
1769180657976,130,2,2.0645383811774582,2.2821874194594134,2.0638906598116913
1769180657980,138,10,11.677020237102692,10.352820902068904,11.68350623137822
1769180657984,152,24,25.316912975098443,24.01259757222574,25.310193791984226
1769180657988,168,40,40.243106116590646,40.49513485947717,40.207423126777606
1769180657992,181,53,52.02054142967266,52.73410149630168,51.95271614850046
1769180657996,184,56,56.353503916273816,56.70279457688819,56.26658366929644
1769180658000,180,52,51.13837591692584,51.78735219548081,51.05649760260384
1769180658004,165,37,37.544703306769904,37.54695937433189,37.48988675766259
1769180658008,147,19,19.515943980840188,18.915400891229535,19.495432305638772
1769180658012,129,1,2.0023025055542965,1.3125178052879534,2.005379989695907
1769180658016,116,-12,-11.08007285884943,-11.792116678775471,-11.074703565293603
1769180658020,110,-18,-18.10687019216991,-17.7410254869786,-18.11914312453513
1769180658024,109,-19,-19.728953025174174,-18.875616204177685,-19.76783784131134
1769180658028,110,-18,-17.886369098359026,-17.748963641413653,-17.94683544715353
1769180658032,113,-15,-14.62917331337394,-15.013679295674374,-14.69678066002096
1769180658036,116,-12,-11.39165310316722,-11.533014330970229,-11.451922442707351
1769180658040,119,-9,-8.868459758089985,-9.007925159205698,-8.914875446084327
1769180658044,120,-8,-7.237171575567621,-7.665886882205353,-7.272830981833665
1769180658048,122,-6,-6.404590241800441,-5.956780685357504,-6.437674292332981
1769180658052,122,-6,-6.132963805795885,-5.865988970674154,-6.170274150706838
1769180658056,121,-7,-6.098938670080983,-6.65685577846359,-6.142152244746531
1769180658060,122,-6,-5.9836873680623714,-5.945606911433969,-6.030424728184531
1769180658064,122,-6,-5.593641417288376,-5.704807890766885,-5.64137489947978
1769180658068,123,-5,-4.924673055716652,-4.985071563124715,-4.973174974762461
1769180658072,124,-4,-4.117523277391069,-3.808822585095738,-4.167815094159007
1769180658076,124,-4,-3.346054063321973,-3.7672632256987137,-3.398158650101222
1769180658080,125,-3,-2.7172458902170344,-2.853267103040802,-2.770005738061146
1769180658084,126,-2,-2.228555441083609,-1.806986744881956,-2.281345573830255
1769180658088,126,-2,-1.7910185351089782,-1.9454231003742573,-1.8445234435005609
1769180658092,126,-2,-1.3074706484624736,-1.8116544901569904,-1.362647601969825
1769180658096,127,-1,-0.7582130439302903,-0.8289731046264222,-0.8153787254382555
1769180658100,128,0,-0.217089168110218,0.2069528814211592,-0.2761172163145119
1769180658104,128,0,0.2247602883697778,0.1028872326443297,0.1641416079156681
1769180658108,128,0,0.5516140618920939,0.1153060010249882,0.4897444599454659
1769180658112,129,1,0.8420394549280339,1.125943999188003,0.7789430134028426
1769180658116,129,1,1.2035741920494771,1.1947539080389018,1.1388130260381994
1769180658120,129,1,1.682429736587258,1.1565155181574394,1.6156904723323184
1769180658124,130,2,2.2208743529230346,2.1585706089495313,2.1522052193046255
1769180658128,131,3,2.706677091861776,2.99409201637897,2.6359076328865716
1769180658132,131,3,3.0842143368899526,3.284125640263597,3.0109894096479612
1769180658136,131,3,3.421405926333387,2.9536929613484357,3.346158833125614
1769180658140,131,3,3.858362830023626,3.418572660289464,3.782255790114389
1769180658144,133,5,4.492508554621574,4.839125568827074,4.415781565133906
1769180658148,133,5,5.318124566735051,5.313667461778483,5.239290754324894
1769180658152,134,6,6.259414700687429,5.953981470746546,6.176763382598098
1769180658156,135,7,7.237819672674505,7.2402046962416815,7.151268095567405
1769180658160,136,8,8.212351055520935,8.12769535045825,8.123404897763994
1769180658164,137,9,9.18345513777965,9.061482225404664,9.093689234054557
1769180658168,138,10,10.175017634165345,10.126262452148202,10.084809172325272
1769180658172,139,11,11.205009548078449,11.087089369097782,11.113354040654768
1769180658176,140,12,12.254298285246907,12.10465429159633,12.159506638076978
1769180658180,141,13,13.248101025979134,13.228512168955165,13.148901108288554
1769180658184,142,14,14.064062680148783,13.906309767603394,13.96050058293713
1769180658188,142,14,14.572146334918028,14.322135629276255,14.465578458458054
1769180658192,143,15,14.696385152160854,14.805804912485304,14.588433659737577
1769180658196,142,14,14.46732064942795,14.437438704382243,14.358694811293752
1769180658200,142,14,14.020022922418631,13.778911188996377,13.910198333266546
1769180658204,141,13,13.516402387014516,13.404568652924633,13.404125843398804
1769180658208,141,13,13.032704876555096,12.75531109236677,12.916659987621596
1769180658212,140,12,12.496671194553487,12.393275879560308,12.376000587115623
1769180658216,140,12,11.73043416923251,11.821332766097951,11.60516312300377
1769180658220,138,10,10.573871766661997,10.334861873358186,10.445008105751048
1769180658224,137,9,9.001739428104331,8.86482016661407,8.87070748189456
1769180658228,135,7,7.155627223232679,7.218112423019437,7.0233672736315125
1769180658232,133,5,5.272042827820527,4.9882451288924745,5.1385399366136335
1769180658236,131,3,3.5548539628780893,3.1257261824806872,3.4191799558192773
1769180658240,130,2,2.0783463908648057,2.085761267630348,1.9389070918272855
1769180658244,129,1,0.7850403164065751,0.9916829083854684,0.6403434142148723
1769180658248,127,-1,-0.4365701051472967,-0.8197123574412479,-0.5866651848857212
1769180658252,126,-2,-1.6677991629329725,-2.0963477210369645,-1.821772331230142
1769180658256,125,-3,-2.918955757700882,-2.711513185568107,-3.0749986424627225
1769180658260,124,-4,-4.129852982664616,-4.2106193631857876,-4.287321766801297
1769180658264,122,-6,-5.200950072092174,-5.655568155521757,-5.360407329151438
1769180658268,122,-6,-6.048949210379173,-6.237407083055281,-6.211532692514073
1769180658272,121,-7,-6.657146851072038,-6.675562752092389,-6.824207865745164
1769180658276,121,-7,-7.0830420003969214,-7.147741983804649,-7.25555000014847
1769180658280,120,-8,-7.423141045068384,-7.844807347907306,-7.600746295214139
1769180658284,120,-8,-7.764350346492607,-7.987395285610199,-7.945366502887918
1769180658288,120,-8,-8.141793769156852,-7.997405390254864,-8.324596000883652
1769180658292,119,-9,-8.51521199377549,-8.849980984622949,-8.699702055460092
1769180658296,119,-9,-8.785113925360617,-9.086288288239148,-8.972851546566
1769180658300,119,-9,-8.855399971659505,-8.85106700494014,-9.048332438994912
1769180658304,119,-9,-8.706999455150964,-9.087826191584998,-8.90577916783405
1769180658308,119,-9,-8.42420221512915,-8.843968540274192,-8.627565105812296
1769180658312,120,-8,-8.139634675401691,-8.070451587231595,-8.345604747170317
1769180658316,120,-8,-7.927025298765845,-7.857524452853959,-8.134791205251211
1769180658320,120,-8,-7.733013853351673,-8.137943077590402,-7.943580553848281
1769180658324,120,-8,-7.427522456044543,-7.811137413719805,-7.642751219088939
1769180658328,121,-7,-6.945519029534447,-7.153242927379994,-7.166646614801549
1769180658332,121,-7,-6.39130969106052,-6.762535564943972,-6.618090684402357
1769180658336,122,-6,-5.993600972963508,-6.195987383661377,-6.224673504416268
1769180658340,122,-6,-5.92647605796817,-5.82861816585818,-6.160599003394789
1769180658344,122,-6,-6.139395621412595,-6.149669073164742,-6.376207153656963
1769180658348,121,-7,-6.357308044917525,-6.852015873654197,-6.596932061627835
1769180658352,121,-7,-6.280173839385315,-7.0492514104073125,-6.522838399654542
1769180658356,122,-6,-5.8242214078808745,-5.974739569077677,-6.0708429628853775
1769180658360,123,-5,-5.192930494952904,-5.013971424501521,-5.445415568791906
1769180658364,123,-5,-4.71991695909479,-5.0596791297907915,-4.979796254460842
1769180658368,123,-5,-4.63022677551562,-4.898876408734334,-4.896823900796125
1769180658372,123,-5,-4.91238541562508,-5.086855380214504,-5.182824926577616
1769180658376,122,-6,-5.368038514019233,-5.927409913397345,-5.639396832410801
1769180658380,122,-6,-5.76030390235058,-6.099524758356204,-6.032048345235567
1769180658384,122,-6,-5.936520998373952,-5.992554479328909,-6.211104832325457
1769180658388,122,-6,-5.863463512273214,-5.975995236652572,-6.144338868313879
1769180658392,122,-6,-5.604310840473342,-6.0494774858649745,-5.893050879164788
1769180658396,122,-6,-5.289155686922993,-5.97851346169902,-5.584623406804416
1769180658400,123,-5,-5.077970527817784,-5.090038986347549,-5.378165901101209
1769180658404,123,-5,-5.089184809351338,-5.0101506607560715,-5.3930668667698685
1769180658408,122,-6,-5.321813832791978,-5.9826250316001754,-5.629046200498065
1769180658412,122,-6,-5.642571809482174,-6.078206264766911,-5.95266233630933
1769180658416,122,-6,-5.8583478706137075,-5.95750740721898,-6.171151797876891
1769180658420,122,-6,-5.817767672694173,-6.182816416190523,-6.134448624340045
1769180658424,122,-6,-5.48036322570035,-5.864736268585751,-5.802918542704478
1769180658428,123,-5,-4.933487783833465,-5.216581638513471,-5.263129465695549
1769180658432,123,-5,-4.358064215433689,-4.80383072639067,-4.69431623572947
1769180658436,124,-4,-3.947917820066288,-4.330708046573221,-4.289253447045983
1769180658440,124,-4,-3.808923435881554,-3.792125164488732,-4.153940537075456
1769180658444,124,-4,-3.8960078425361577,-4.288171346359214,-4.243956866181287
1769180658448,123,-5,-4.040420142966251,-4.82383870334099,-4.391296984545847
1769180658452,124,-4,-4.054631977512837,-4.183707313928565,-4.409444478677022
1769180658456,124,-4,-3.837236330377944,-4.057163535436208,-4.19776148372317
1769180658460,124,-4,-3.410874379637533,-3.9949912129621152,-3.778222014772307
1769180658464,125,-3,-2.8891309076893075,-3.195271185311426,-3.2625106379578614
1769180658468,125,-3,-2.4050053187785325,-2.8378300278284447,-2.782552621475736
1769180658472,126,-2,-2.035813263439676,-2.3035431107490005,-2.4167182716027105
1769180658476,126,-2,-1.7648926171749288,-1.8854042760156888,-2.150175168081364
1769180658480,126,-2,-1.5158720023262964,-2.2533537164330735,-1.9069140944223408
1769180658484,126,-2,-1.2419953514187438,-1.9144419735636584,-1.6389132837161369
1769180658488,127,-1,-0.9843531749206832,-1.1399108779342466,-1.3862233527146537
1769180658492,127,-1,-0.8241763941287727,-1.0682414760694907,-1.2303684934910906
1769180658496,127,-1,-0.764975019249416,-1.0961491689157687,-1.1756360855442396
1769180658500,127,-1,-0.6703711495841982,-1.1268029829354207,-1.085772184091916
1769180658504,127,-1,-0.3385388763438883,-1.0040040788795308,-0.7585466216517718
1769180658508,128,0,0.3416199905068575,-0.1143521388524999,-0.0827961459449111
1769180658512,129,1,1.2893315728363817,0.9043429394190228,0.860105162324043
1769180658516,130,2,2.2725749245633944,1.8947284821288088,1.8374680617913544
1769180658520,131,3,3.0509810951170606,2.855655613310821,2.609098631523548
1769180658524,131,3,3.498233230501464,3.0034928486069754,3.0499558204812462
1769180658528,131,3,3.613207108252213,2.82580606423937,3.160282731984388
1769180658532,131,3,3.4417940360575177,2.9607107225853895,2.985877766407293
1769180658536,131,3,3.0099543711318457,2.79092414253937,2.5509306789250816
1769180658540,130,2,2.331104860525159,1.9551556173970697,1.8671511695194205
1769180658544,129,1,1.4502217553005918,0.8822818366328427,0.9796139908671382
1769180658548,128,0,0.450057554925986,-0.0963400115697312,-0.0273205522862112
1769180658552,127,-1,-0.5933558720928245,-1.1285114901109827,-1.076280379920901
1769180658556,126,-2,-1.6488487981595152,-2.166190724699174,-2.1362006399328273
1769180658560,125,-3,-2.7112966982535314,-3.081857002165945,-3.2030500802620168
1769180658564,124,-4,-3.742975981827656,-4.108917436368692,-4.239783884936993
1769180658568,123,-5,-4.643839408984905,-5.150650241665205,-5.145819158977674
1769180658572,122,-6,-5.297149605373089,-6.073034021316923,-5.803529576727596
1769180658576,122,-6,-5.657035252551724,-6.302958719112536,-6.167442118049601
1769180658580,122,-6,-5.793029664749139,-5.883714782386946,-6.30886352024085
1769180658584,122,-6,-5.848339410196445,-6.400443068851407,-6.372073059325599
1769180658588,121,-7,-5.953686826669064,-6.831333531885604,-6.486395627735468
1769180658592,122,-6,-6.162879666450443,-6.468027042564468,-6.702472179425338
1769180658596,121,-7,-6.432915388720743,-6.933177565597718,-6.974679335892087
1769180658600,121,-7,-6.642214896544228,-7.235227856106005,-7.181551433369956
1769180658604,121,-7,-6.647990623771737,-7.1177190080161195,-7.184441092075969
1769180658608,121,-7,-6.376077516060982,-7.072937902438538,-6.916372019987669
1769180658612,122,-6,-5.89970682049173,-6.354912801797898,-6.4558978705017305
1769180658616,122,-6,-5.437544828882144,-5.977886372432599,-6.018517999592093
1769180658620,122,-6,-5.210249998553754,-6.289373570478699,-5.811980984670785
1769180658624,122,-6,-5.142423257356877,-6.011661821516256,-5.746891404188023
1769180658628,124,-4,-4.511517979999469,-4.258500687530024,-5.0980910624966915
1769180658632,127,-1,-1.8292802706711289,-1.19507281575678,-2.3899720402455356
1769180658636,132,4,4.6755150712240425,3.868453806859375,4.129814871492368
1769180658640,142,14,15.900442102510365,13.823145586922717,15.346671539011712
1769180658644,157,29,30.613864176746553,28.917818603579686,30.029662162876456
1769180658648,173,45,45.10969922825434,44.728330230724055,44.48432745745566
1769180658652,183,55,54.405413324240264,54.81834035329192,53.74494897948317
1769180658656,183,55,54.55266444412334,54.78106154759936,53.87798152410844
1769180658660,173,45,44.726398078974135,44.8215907789992,44.06372071398824
1769180658664,155,27,27.779265235268948,26.883493891050342,27.14688738984949
1769180658668,135,7,8.900122551883673,6.6647810445456965,8.29839528480696
1769180658672,120,-8,-6.795190824159292,-8.004282011790178,-7.384433058827165
1769180658676,112,-16,-16.322428251122417,-16.407072065374138,-16.925766917976283
1769180658680,108,-20,-19.5019247995575,-19.916188361160938,-20.139024917661512
1769180658684,110,-18,-18.196862327466015,-18.438092290754657,-18.869899741178376
1769180658688,113,-15,-14.882022915491534,-15.089027419628463,-15.576869607927314
1769180658692,116,-12,-11.462252084879804,-12.271789320972092,-12.159207110265124
1769180658696,118,-10,-8.839350142336627,-10.193287150978517,-9.525009469724386
1769180658700,120,-8,-7.139524339526389,-8.10357005855951,-7.812778994675249
1769180658704,122,-6,-6.162393259908464,-6.345412050978035,-6.83233296098456
1769180658708,122,-6,-5.673268427563811,-6.19097257398123,-6.351261557364517
1769180658712,122,-6,-5.469207280572319,-6.226422419165003,-6.160973685413155
1769180658716,122,-6,-5.365159088355305,-6.209046409457316,-6.068693297989671
1769180658720,122,-6,-5.215174088093895,-6.126694316321463,-5.925136050097812
1769180658724,123,-5,-4.951644442589893,-5.338778428727359,-5.664931451063153
1769180658728,123,-5,-4.584825389372296,-5.266692426151209,-5.302005419077101
1769180658732,123,-5,-4.161704019438355,-5.142255606676185,-4.884438399529893
1769180658736,124,-4,-3.7239396456433385,-4.3367961929458865,-4.452545558716422
1769180658740,124,-4,-3.2854119750833735,-3.970610817476574,-4.019113139288214
1769180658744,125,-3,-2.8265362453645992,-3.592573354974591,-3.5650724033488332
1769180658748,125,-3,-2.3078877753314364,-2.9969323608366327,-3.05203560858209
1769180658752,126,-2,-1.70707747024702,-2.4781591343573535,-2.4576076492220205
1769180658756,126,-2,-1.0583563604817758,-1.9943166202270484,-1.8150324334424073
1769180658760,127,-1,-0.4520311925226736,-1.3036226528186603,-1.2140786908017571
1769180658764,128,0,0.0286988306021426,-0.3745668949061156,-0.7385623770702324
1769180658768,128,0,0.3900378315022454,-0.1405603614107047,-0.3827987574326483
1769180658772,128,0,0.7416101682193841,-0.4997050039836899,-0.0364981895032454
1769180658776,128,0,1.2108304365750355,0.1631983964609236,0.4283487691026537
1769180658780,130,2,1.8396458577016213,1.3911696001504017,1.0525604574592755
1769180658784,130,2,2.568454418925904,1.9856665608407071,1.774881964593237
1769180658788,131,3,3.3053829431920834,2.42313843261355,2.503969417077906
1769180658792,131,3,3.9903721845182303,2.9001988001281527,3.182365312450031
1769180658796,132,4,4.604330233161192,3.8000224101886992,3.7924117280063383
1769180658800,133,5,5.157756876746388,4.641072922793603,4.34291892658199
1769180658804,133,5,5.6929650592356955,4.821803169550759,4.873351126808951
1769180658808,134,6,6.275902241684103,5.42727085252039,5.448929986282596
1769180658812,134,6,6.949856113553008,5.9912179532934555,6.114998399470142
1769180658816,135,7,7.68734182736391,6.58029088293339,6.846496077479106
1769180658820,136,8,8.40954272223808,7.917893360683848,7.564904720488016
1769180658824,137,9,9.079037259165933,8.487159169572173,8.231040572171853
1769180658828,137,9,9.77325442337219,8.709303469129532,8.920587469744756
1769180658832,138,10,10.638581661133768,9.741344674260208,9.77972648499708
1769180658836,139,11,11.740189855665502,10.706505990282295,10.874627768172868
1769180658840,140,12,12.94271066976412,11.891590905409208,12.070847484955372
1769180658844,142,14,13.94840999416212,13.375859904613984,13.070755407073252
1769180658848,142,14,14.481717872189602,13.89181297482917,13.598449986132689
1769180658852,142,14,14.469731464777842,13.436847767223592,13.581063665115702
1769180658856,141,13,14.063920283152116,13.034363977772143,13.170500944423766
1769180658860,141,13,13.490600726586244,12.521647956064074,12.593107980822634
1769180658864,140,12,12.869862977169284,11.719597145253282,11.968111535506967
1769180658868,140,12,12.15828168052794,11.556477775862746,11.250999251457923
1769180658872,139,11,11.243531697627915,10.696964489691808,10.329410929540288
1769180658876,137,9,10.078473040368932,8.778933125140302,9.157526419001243
1769180658880,136,8,8.725006946664568,7.727098930573516,7.7985416963015775
1769180658884,135,7,7.288962333379793,6.500628399574144,6.358114756901944
1769180658888,133,5,5.833701321073772,4.759288085022389,4.898376030822824
1769180658892,132,4,4.3571986113687435,3.448503489051797,3.4165552409839672
1769180658896,130,2,2.840218761701446,2.0211318201009023,1.8938266972537128
1769180658900,129,1,1.3100996927099997,0.4311693677701891,0.3584302126185523
1769180658904,127,-1,-0.1434090583491292,-1.2119417068414184,-1.099548002840358
1769180658908,126,-2,-1.418813010643757,-2.543982099416102,-2.3793704357393826
1769180658912,125,-3,-2.4765170114880712,-3.3116654600669997,-3.4426402352645935
1769180658916,124,-4,-3.3722274415760776,-4.183458456848173,-4.345192556524349
1769180658920,123,-5,-4.225854787345968,-5.477206617292486,-5.205486584242144
1769180658924,122,-6,-5.147356909774215,-6.234655201310153,-6.132026822800883
1769180658928,122,-6,-6.1574729072744345,-6.635113665220897,-7.145782630295329
1769180658932,120,-8,-7.1503805641483,-8.181312581375353,-8.142318526542924
1769180658936,119,-9,-7.9428517774150915,-9.38517340158562,-8.939306495280324
1769180658940,119,-9,-8.396076076440849,-9.286073706772228,-9.397942735439363
1769180658944,119,-9,-8.51663798129974,-9.439970604183758,-9.524496277485364
1769180658948,119,-9,-8.448231765115946,-9.48763459560215,-9.462199107226304
1769180658952,119,-9,-8.363685833969297,-9.29863021053017,-9.383302890847569
1769180658956,119,-9,-8.34849689524505,-9.365196439956518,-9.373032467366514
1769180658960,119,-9,-8.362182699075646,-9.280746522483946,-9.39110779998771
1769180658964,119,-9,-8.297693618987633,-9.513904301615469,-9.33080566963191
1769180658968,119,-9,-8.084393146882102,-9.4130967098275,-9.121797490549008
1769180658972,120,-8,-7.745747387521585,-8.398398425139344,-8.787956741749877
1769180658976,120,-8,-7.365794149856856,-8.303414723620307,-8.413514493837535
1769180658980,120,-8,-7.008246251150933,-8.366116312711155,-8.061724762786863
1769180658984,121,-7,-6.673080968049873,-7.462390852270242,-7.731769207933615
1769180658988,121,-7,-6.325760270271779,-7.484914779600209,-7.388767077802959
1769180658992,121,-7,-5.959038932498129,-7.358929644907561,-7.0259666308538975
1769180658996,122,-6,-5.621679315561336,-6.354450613467341,-6.6931083232228525
1769180659000,122,-6,-5.385393425098306,-6.361539407872376,-6.4624017767728645
1769180659004,122,-6,-5.284852511801,-6.492625127318788,-6.367790223422566
1769180659008,122,-6,-5.291166403750314,-6.4620625187566985,-6.379051507076347
1769180659012,122,-6,-5.3363805798576545,-6.451764390699102,-6.4278037403102335
1769180659016,122,-6,-5.353178447932078,-6.224162187640938,-6.447716099247364
1769180659020,122,-6,-5.2961355570330175,-6.590371236740402,-6.3947270434607475
1769180659024,122,-6,-5.146975575979734,-6.227295786007379,-6.251038126789893
1769180659028,123,-5,-4.919644805871718,-5.797924550798275,-6.0298164684281055
1769180659032,122,-6,-4.665987891428306,-6.1289970478024705,-5.781542639999223
1769180659036,123,-5,-4.466330923527711,-5.5571800971437035,-5.585913805611544
1769180659040,123,-5,-4.3903769901213145,-5.3260528663567195,-5.513463172811524
1769180659044,123,-5,-4.44354449855825,-5.461940405386431,-5.570860476615985
1769180659048,123,-5,-4.5501476096502245,-5.660910552653798,-5.682410955623911
1769180659052,122,-6,-4.607477435495374,-6.216595340927831,-5.744243901235386
1769180659056,123,-5,-4.56794523712839,-5.578339812248496,-5.708287670278748
1769180659060,123,-5,-4.4647473897400864,-5.2502711858122835,-5.6087111339872235
1769180659064,123,-5,-4.359328680280536,-5.632227063061692,-5.507963280762054
1769180659068,123,-5,-4.280516198017134,-5.465777946337301,-5.4345182172139355
1769180659072,123,-5,-4.2244153696468185,-5.470222991998917,-5.383336328546467
1769180659076,123,-5,-4.200114989511755,-5.363193002499033,-5.363035655329467
1769180659080,123,-5,-4.252144804574179,-5.451475639678855,-5.4187947407916335
1769180659084,123,-5,-4.422486144802841,-5.508825335559739,-5.593448888155163
1769180659088,123,-5,-4.685854695577824,-5.551550149829108,-5.861601421037595
1769180659092,122,-6,-4.926497289390781,-6.481496081210703,-6.106403506734722
1769180659096,122,-6,-4.986709573166724,-6.33855845382787,-6.1694764308388335
1769180659100,123,-5,-4.745764820957289,-5.521602655575468,-5.930926154365647
1769180659104,123,-5,-4.16753056821781,-5.452065061790172,-5.356122936895193
1769180659108,124,-4,-3.303417004584195,-4.622144228347283,-4.497042861859131
1769180659112,125,-3,-2.276013386958192,-3.4638372114425113,-3.47557098693448
1769180659116,126,-2,-1.2541314338284066,-2.378123183262671,-2.459291876744863
1769180659120,127,-1,-0.4115085933081968,-1.5215746791621552,-1.6208721169297773
1769180659124,127,-1,0.1270600697158035,-1.4475988714527137,-1.0848818383747316
1769180659128,128,0,0.3344521280391508,-0.6847274461736339,-0.8795730900781167
1769180659132,128,0,0.3015578640270535,-0.4020588416704376,-0.915597721522873
1769180659136,127,-1,0.1997558782218755,-1.514567467287482,-1.0217329073130927
1769180659140,127,-1,0.1827712424234957,-1.3781410438128054,-1.0430649551297737
1769180659144,128,0,0.2962064917847256,-0.6094610619324725,-0.9334057816384692
1769180659148,128,0,0.4831159265642457,-0.5762955700803635,-0.750328774391702
1769180659152,128,0,0.6775909506658544,-0.489549273389365,-0.5599797371951695
1769180659156,128,0,0.8773489810082327,-0.5316363267796149,-0.3637178317290335
1769180659160,128,0,1.1184997431627528,-0.3214134174611505,-0.1249526252634269
1769180659164,129,1,1.394148891684211,0.2562193385377896,0.1481209053031824
1769180659168,129,1,1.610402673590844,0.5781297630673808,0.3599437140072602
1769180659172,129,1,1.6151568461502377,0.3053516067364848,0.3587867258486799
1769180659176,128,0,1.264616640060803,-0.3626292026579624,0.0031287904562051
1769180659180,128,0,0.489246224195615,-0.5148426156893167,-0.7750054598010832
1769180659184,127,-1,-0.6565129595064609,-1.5868604604433574,-1.9218610791136692
1769180659188,125,-3,-1.9879335938319307,-3.583881794053725,-3.2545407807905744
1769180659192,124,-4,-3.25944326676296,-4.563797867917694,-4.528807257496096
1769180659196,123,-5,-4.2858833362634865,-5.537589822669337,-5.559820907887521
1769180659200,122,-6,-5.030041724876732,-6.361426157992159,-6.309633102142283
1769180659204,122,-6,-5.589429996587408,-6.767867876563467,-6.874062469458539
1769180659208,121,-7,-6.095875909637486,-7.4056276529052045,-7.383298910047233
1769180659212,121,-7,-6.603625695234969,-7.7868080469616014,-7.891681250943636
1769180659216,120,-8,-7.044451562274133,-8.351225898508222,-8.333321595764811
1769180659220,120,-8,-7.281870042954712,-8.581104130779892,-8.574484876306332
1769180659224,120,-8,-7.22934841231743,-8.575096643251516,-8.528919582371449
1769180659228,120,-8,-6.94437897103599,-8.582876121533433,-8.250923875336877
1769180659232,121,-7,-6.6114580032827535,-7.689656255823908,-7.920638946846063
1769180659236,121,-7,-6.405468640407577,-7.422937144406744,-7.711368734487515
1769180659240,121,-7,-6.343040678376514,-7.629776418393104,-7.643267289979044
1769180659244,121,-7,-6.273520176014269,-7.450986098018344,-7.572927917106994
1769180659248,121,-7,-6.053407893454886,-7.813941143723226,-7.362932056697125
1769180659252,121,-7,-5.753929076651037,-7.416838853968256,-7.083658041382103
1769180659256,122,-6,-5.650747346875428,-6.783267272990937,-7.0008436510883225
1769180659260,121,-7,-5.86909533482078,-7.273275893641115,-7.225805111407163
1769180659264,122,-6,-5.855966088457507,-6.8337687053856655,-7.198250325017273
1769180659268,124,-4,-4.112817402516315,-4.457885977684945,-5.426742535804812
1769180659272,129,1,1.378138731091692,0.2161990792295554,0.0882093564488442
1769180659276,138,10,11.970799741629117,9.528016044504495,10.683436195403829
1769180659280,153,25,26.966731052040167,24.450437979194852,25.655889205924744
1769180659284,170,42,43.00561395045154,41.37758577733633,41.65516425994366
1769180659288,183,55,54.97611038092613,54.36463023388626,53.58806613792345
1769180659292,187,59,58.243481080059425,58.2674619266807,56.83693215811076
1769180659296,179,51,50.99050742360947,50.42802822331627,49.59266130340623
1769180659300,162,34,35.23605704081711,33.42427013670098,33.869221395062326
1769180659304,142,14,15.885759602041798,13.40712762101911,14.555834597386928
1769180659308,125,-3,-1.582446203380096,-3.6608737082562968,-2.889711281531433
1769180659312,114,-14,-13.41009763854645,-14.633930489318686,-14.72162171259047
1769180659316,109,-19,-18.634063749929332,-19.675519416994767,-19.974134081352673
1769180659320,109,-19,-18.659833701995986,-19.4765320724267,-20.03650196365884
1769180659324,112,-16,-15.935320433112476,-16.768242076014474,-17.337266669967654
1769180659328,114,-14,-12.642964118143112,-14.49918737543178,-14.048344501999113
1769180659332,117,-11,-10.022854561268831,-11.863485910394036,-11.413771250346256
1769180659336,119,-9,-8.382285951629168,-9.442364925384307,-9.755000143606509
1769180659340,120,-8,-7.475260320931396,-8.798521036685168,-8.839403328802016
1769180659344,120,-8,-6.9144562087345385,-8.44796456585193,-8.28313171441952
1769180659348,121,-7,-6.440212794176762,-7.862015729314995,-7.820114449438903
1769180659352,121,-7,-5.999900988478511,-7.510111131309758,-7.389148026403266
1769180659356,122,-6,-5.659269115395888,-6.81089188412607,-7.052410801915416
1769180659360,122,-6,-5.439602278332844,-6.478620981168541,-6.833200047809555
1769180659364,122,-6,-5.226504638524341,-6.789059561775445,-6.620365267210882
1769180659368,122,-6,-4.840349822421245,-6.569183772558009,-6.235456115002112
1769180659372,123,-5,-4.202109457409279,-5.79163165386748,-5.599174719767226
1769180659376,124,-4,-3.4213318179487526,-4.596653092834973,-4.821198144855904
1769180659380,125,-3,-2.7076630453757167,-3.6566370742091134,-4.1114168455651
1769180659384,125,-3,-2.193712855358444,-3.728256913122854,-3.601369303397576
1769180659388,125,-3,-1.8440087000353813,-3.5746550590097472,-3.253766493632882
1769180659392,126,-2,-1.51908368461741,-2.9071664178739143,-2.9289483353258623
1769180659396,126,-2,-1.104527379608322,-2.4132214169164934,-2.5145958897989935
1769180659400,127,-1,-0.5819465088668004,-1.936638903171455,-1.994356770426097
1769180659404,127,-1,-0.0106324211162932,-1.4187255319768148,-1.4271850520952842
1769180659408,128,0,0.5300179751089779,-0.9623328023335508,-0.8903856577182039
1769180659412,128,0,0.9884554676100852,-0.5349050255478083,-0.4341894857056734
1769180659416,129,1,1.3666288603592058,0.1982837315010459,-0.0572361055648122
1769180659420,129,1,1.720778817213437,0.4116856191579092,0.2955357788301413
1769180659424,129,1,2.129847906569134,0.2360036436965611,0.7027490624043877
1769180659428,130,2,2.646344515296785,1.3019236227631097,1.2171437034539592
1769180659432,131,3,3.2739251509273775,2.2155593852899695,1.8423652590781692
1769180659436,131,3,3.9920773244918086,2.3800318008994115,2.557952978386809
1769180659440,132,4,4.7914914380532725,3.2630919688854023,3.355095649575512
1769180659444,133,5,5.678036375692764,4.308539751614055,4.239913798832063
1769180659448,134,6,6.651263128429934,5.215745220375953,5.211376634502277
1769180659452,135,7,7.688887487793805,6.256276587613522,6.24652963023412
1769180659456,136,8,8.749184702330744,7.326022139446151,7.303970911250886
1769180659460,137,9,9.782652875570058,8.309499519869238,8.335310545136874
1769180659464,138,10,10.745999357153488,9.203861572861964,9.297749488376503
1769180659468,139,11,11.617011299884757,10.311016528556348,10.168087619773466
1769180659472,140,12,12.40024860772982,11.087647575223448,10.949409543819591
1769180659476,140,12,13.104037838501064,11.530361345292915,11.649882380613692
1769180659480,141,13,13.690832702306528,12.034510789637242,12.233331768077877
1769180659484,141,13,14.05016080296071,12.490120359731128,12.590427182053586
1769180659488,142,14,14.049857747341964,12.942429643760075,12.588672906525778
1769180659492,141,13,13.64501253081081,12.456206715339055,12.18234816463688
1769180659496,140,12,12.939887380563157,11.134064303226296,11.47582192863527
1769180659500,139,11,12.12569604561298,10.404864920434049,10.660740283504088
1769180659504,139,11,11.34424867837369,10.098501382068855,9.878275278886443
1769180659508,138,10,10.601273765708369,9.269653572602207,9.132936878206284
1769180659512,137,9,9.79029907903893,8.141779159202674,8.3182624513843
1769180659516,136,8,8.783106898611276,7.400838249891124,7.307566123675589
1769180659520,135,7,7.511541178755948,6.137169389733296,6.034070353634943
1769180659524,133,5,6.000476991595281,4.298438858668222,4.522470759070158
1769180659528,132,4,4.350320837453102,3.0552017141286836,2.8718469059029763
1769180659532,130,2,2.6867492258608534,1.3217707703959196,1.206898185979092
1769180659536,128,0,1.1038572500755066,-0.7830305775698794,-0.3781360885238018
1769180659540,127,-1,-0.3680497199107009,-1.715051411251859,-1.8523431740680425
1769180659544,126,-2,-1.7474492898693912,-2.8817609566509543,-3.2339597603843746
1769180659548,124,-4,-3.053473664289319,-4.808183889183381,-4.542136843559057
1769180659552,123,-5,-4.271958470772049,-5.829435097135201,-5.762626058157526
1769180659556,122,-6,-5.364167511086204,-6.6405017259108226,-6.856576846963381
1769180659560,121,-7,-6.299104785406855,-7.91691208194806,-7.792946490204071
1769180659564,120,-8,-7.073813705211876,-8.670450696998703,-8.56885459150378
1769180659568,120,-8,-7.704245293404229,-9.110703656144564,-9.200665762533808
1769180659572,119,-9,-8.195880695206538,-9.491176507563248,-9.694358114193951
1769180659576,119,-9,-8.526915272287388,-10.03968340571094,-10.02789379236157
1769180659580,118,-10,-8.672275696992052,-10.526361365671244,-10.17526836090691
1769180659584,119,-9,-8.648128916529641,-10.096934393208286,-10.152301873728574
1769180659588,119,-9,-8.519635810394972,-9.747976029021755,-10.024977859797298
1769180659592,119,-9,-8.354331060479577,-9.817284078311484,-9.861591060337826
1769180659596,119,-9,-8.17518648611604,-9.80492600878585,-9.684693007715316
1769180659600,119,-9,-7.967441484491972,-9.706096056903393,-9.478740570005645
1769180659604,120,-8,-7.721100630923271,-9.059024275848763,-9.233873243864824
1769180659608,120,-8,-7.452369075758048,-8.71707358958011,-8.96687782718765
1769180659612,120,-8,-7.188394102158247,-8.951859265069231,-8.70469077443029
1769180659616,120,-8,-6.945322709259938,-8.615516639680044,-8.462848696874097
1769180659620,121,-7,-6.718856249685105,-7.982341129135026,-8.237398425978089
1769180659624,121,-7,-6.484115273006886,-7.803535876202498,-8.004448929554902
1769180659628,121,-7,-6.211887272716173,-7.999327626016125,-7.734787821213595
1769180659632,121,-7,-5.9059568354252665,-7.697819256307686,-7.431112814376358
1769180659636,122,-6,-5.624549069250746,-6.868694505879123,-7.151109158594049
1769180659640,122,-6,-5.441339003057895,-6.7881196920314775,-6.969099119965615
1769180659644,122,-6,-5.370460703951188,-7.0217592355598235,-6.899844426740208
1769180659648,122,-6,-5.337068036033112,-6.817438007962981,-6.868155189147223
1769180659652,122,-6,-5.233508710361393,-6.893725062297022,-6.765725116075782
1769180659656,122,-6,-5.009679824779843,-6.698344434175064,-6.5426486944611
1769180659660,123,-5,-4.712115400925408,-5.9824349106649235,-6.246526792619408
1769180659664,123,-5,-4.4412592308732215,-5.877040929145469,-5.978487592355158
1769180659668,123,-5,-4.275850842812861,-5.974990556835597,-5.816543228026308
1769180659672,123,-5,-4.233148510957989,-5.776702595793865,-5.776327126081565
1769180659676,123,-5,-4.281922618621825,-5.818055790324826,-5.825615605566659
1769180659680,123,-5,-4.37233471530068,-5.921133312913629,-5.915177921330601
1769180659684,123,-5,-4.449689269670385,-5.940172529879904,-5.992182988894505
1769180659688,123,-5,-4.456784292977002,-5.972235384726756,-6.001153564563768
1769180659692,123,-5,-4.351056052742672,-5.773362174641297,-5.899505219077277
1769180659696,123,-5,-4.144547146098855,-5.864856095324161,-5.697207215147596
1769180659700,123,-5,-3.9300202684311785,-5.897133987732786,-5.484816122858549
1769180659704,124,-4,-3.834783829278245,-5.000608365227752,-5.389625059744975
1769180659708,124,-4,-3.9013986204356144,-4.935517885250375,-5.456045547849278
1769180659712,123,-5,-3.9996557562003137,-5.8437257676007235,-5.555056677000447
1769180659716,123,-5,-3.887567690734161,-5.799335112841963,-5.444234323019789
1769180659720,124,-4,-3.397406842906146,-5.026252497537777,-4.955440895807531
1769180659724,125,-3,-2.5795899506443556,-3.875763808998113,-4.139733647823434
1769180659728,126,-2,-1.6739351726972145,-3.0951720520925816,-3.237309386917074
1769180659732,126,-2,-0.9462646584608536,-2.6987933665932253,-2.512981199725605
1769180659736,127,-1,-0.531871873230005,-1.972242389568314,-2.100698984211006
1769180659740,127,-1,-0.3877145961511361,-1.91547250088047,-1.957202699380911
1769180659744,127,-1,-0.357669436672313,-1.9981315539567772,-1.9270986343439611
1769180659748,127,-1,-0.2874497965795251,-2.0008853346359894,-1.8568963370515197
1769180659752,127,-1,-0.1056432606943607,-1.8014304663293883,-1.6759619287847414
1769180659756,128,0,0.1804541285580274,-0.9040901409752328,-1.3922976427489486
1769180659760,128,0,0.5466408266446212,-1.026029011606017,-1.0297554108121387
1769180659764,128,0,0.987048320728277,-0.9224814711757808,-0.5923802412360588
1769180659768,129,1,1.480682619235365,-0.0791953592460623,-0.0996040762201713
1769180659772,129,1,1.9450768858344871,0.2319220193377646,0.3652822270891227
