timestamp_ms,ecg_u8_raw,ecg_counts_raw_int,ecg_counts_filt_monitor,ecg_counts_filt_diagnostic,ecg_counts_filt_st
1768731769928,126,-2,-6.086826321487545,0.1569772008526819,0.4341705303421936
1768731769932,127,-1,-5.627665394461888,0.7583505141889502,0.8971978852546649
1768731769936,127,-1,-5.010601731165622,1.1025969469882757,1.5159567763783932
1768731769940,128,0,-4.490496936969761,1.7090845802057475,2.037965614427185
1768731769944,128,0,-4.2622028383294195,1.847143580622029,2.2707567776268887
1768731769948,128,0,-4.362103608463723,1.9109683215384925,2.1776044846513685
1768731769952,128,0,-4.653011580873037,1.9221710863737111,1.893269643560919
1768731769956,127,-1,-4.9079917808461015,0.9649195962564132,1.643069095777379
1768731769960,127,-1,-4.956788369909469,0.8142269463920107,1.597672194877811
1768731769964,128,0,-4.790736484145239,1.761605949899871,1.7668245702000456
1768731769968,128,0,-4.531395905377567,1.973403946157211,2.029510808694135
1768731769972,128,0,-4.290133609081573,1.8131031198640724,2.2746620016669175
1768731769976,128,0,-4.054417973478353,2.0908909103934663,2.515067558087008
1768731769980,129,1,-3.702507892597651,2.629309286351886,2.872162565625862
1768731769984,129,1,-3.121020312942375,2.9961633252194018,3.458455428336061
1768731769988,130,2,-2.317107938724088,3.6791102090606977,4.266123128023919
1768731769992,131,3,-1.4327906841881557,5.108096311623189,5.153221569974805
1768731769996,132,4,-0.6517312805434858,5.773137196855113,5.936855946456948
1768731770000,132,4,-0.0769439165503349,5.912197318030665,6.515013966984979
1768731770004,133,5,0.320409819704833,6.748764080062791,6.917030659776785
1768731770008,133,5,0.6473953788936784,6.856879816584981,7.249449683637116
1768731770012,133,5,0.9849068336741482,6.950998503053711,7.591867176326282
1768731770016,134,6,1.3185856156805655,7.87859729253743,7.928702705163948
1768731770020,134,6,1.5529555466202776,7.824242334122919,8.164329204441565
1768731770024,134,6,1.5863608819451764,7.804380879236695,8.198503132145593
1768731770028,134,6,1.3815781679628405,7.809659787005642,7.9961781429598595
1768731770032,133,5,0.9867666554823428,6.934457119108677,7.60653777298555
1768731770036,133,5,0.5124419450487288,6.911000651516131,7.138693909930612
1768731770040,133,5,0.0909984089952522,6.759460844977184,6.722285487817468
1768731770044,132,4,-0.176071572432737,5.877537862348594,6.457278207818384
1768731770048,132,4,-0.2860797560995713,5.715731788531661,6.3472392352787725
1768731770052,132,4,-0.3790879129754307,5.989303645673937,6.254086513300825
1768731770056,132,4,-0.6907429766916104,5.850432133207483,5.943556337187136
1768731770060,131,3,-1.408305721154859,4.796952699044327,5.228802361392822
1768731770064,130,2,-2.5240442956316462,3.852487419231962,4.117277948041853
1768731770068,129,1,-3.801826184870322,2.694148802524012,2.8442146009700093
1768731770072,127,-1,-4.891909487369659,0.9957739850659744,1.7579956900246754
1768731770076,127,-1,-5.519911229348165,0.8121098074223081,1.1317795094607028
1768731770080,127,-1,-5.621848059929983,0.8554146336021655,1.0293206797427392
1768731770084,127,-1,-5.33906823875648,0.7717046818982025,1.310681714104189
1768731770088,128,0,-4.89418830265282,1.765828069432127,1.755896582314715
1768731770092,128,0,-4.453031900989858,1.8774995423815817,2.2011530771597014
1768731770096,128,0,-4.072132902808801,1.902425792666198,2.5888610741564664
1768731770100,129,1,-3.748671644454736,2.778626434166398,2.917037005026614
1768731770104,129,1,-3.5024283041906927,2.824291726463972,3.160376888013771
1768731770108,129,1,-3.3959893683232267,2.705530345600184,3.255490167609969
1768731770112,129,1,-3.441208969606465,2.8926786636042476,3.197452115777476
1768731770116,129,1,-3.406552014358856,2.869747027720794,3.2289663936718234
1768731770120,130,2,-2.6181310935760465,3.796689820557172,4.03060914390128
1768731770124,133,5,0.0719111512444619,6.829163549897483,6.7453193045806366
1768731770128,139,11,5.956394775291635,12.655296692322782,12.651078758483417
1768731770132,148,20,15.72580346646134,21.945576027199717,22.42425885967593
1768731770136,160,32,28.55976114044887,33.787253512798614,35.24163035861508
1768731770140,173,45,41.64824083172178,46.86683172897285,48.30235431905801
1768731770144,184,56,50.746124291721785,57.77688123046888,57.37435693138169
1768731770148,186,58,51.819397361209454,59.60812654373369,58.43296964536419
1768731770152,176,48,43.00260273194627,49.97413135201375,49.61704087052077
1768731770156,158,30,25.67325833518015,31.63831555279662,32.30422629519283
1768731770160,135,7,3.943730846174136,9.020383991264248,10.601294974952864
1768731770164,115,-13,-17.07366391990886,-11.368631423465189,-10.391716830427352
1768731770168,100,-28,-33.14780360423704,-26.2003717246005,-26.457241406542323
1768731770172,91,-37,-42.02297072098895,-35.14676707401003,-35.34465326699749
1768731770176,89,-39,-43.519422176742346,-37.308162626500575,-36.86645460925425
1768731770180,93,-35,-39.019325211607395,-32.98748944955653,-32.39062747693728
1768731770184,102,-26,-30.78361182350467,-24.48624890579004,-24.168339912664216
1768731770188,111,-17,-21.30580931295227,-14.996439346849314,-14.692660801204648
1768731770192,120,-8,-12.741165307631643,-6.451220025819927,-6.124209572586789
1768731770196,126,-2,-6.461393226972286,-0.0003858479773706,0.1600204507875711
1768731770200,130,2,-2.845655048244147,3.6061204140152943,3.778555779045112
1768731770204,131,3,-1.3981539925291706,4.881183050938912,5.227096156968283
1768731770208,131,3,-1.1583981261825254,4.6777144107212685,5.46597392322653
1768731770212,131,3,-1.2113985454029976,4.831276845959044,5.408652187617086
1768731770216,132,4,-1.0416217993122363,5.765315283706988,5.56924506653675
1768731770220,132,4,-0.588833339389687,5.727135052690976,6.009666104217457
1768731770224,132,4,-0.0666973736847853,5.796056273570345,6.521208454892555
1768731770228,133,5,0.2871881347685903,6.719238794978856,6.870209530319049
1768731770232,133,5,0.3960917650169062,6.816332761038039,6.97870915621377
1768731770236,133,5,0.3975930695010667,6.728401785259516,6.979103919423426
1768731770240,133,5,0.5425377176675317,6.740847038653723,7.118304178156647
1768731770244,133,5,0.9890864915030764,6.73186298670089,7.555079982502731
1768731770248,134,6,1.6412433737515584,7.805124764069069,8.196977016493488
1768731770252,135,7,2.189694403542472,8.716948881242095,8.737296277498732
1768731770256,135,7,2.358634871572793,8.807738060412767,8.900100720706016
1768731770260,135,7,2.1606498383183395,8.616227690636357,8.696391434610284
1768731770264,134,6,1.9213649417778504,7.811907957038201,8.450783646998715
1768731770268,134,6,2.0269883193799547,7.726956207443914,8.549375637244152
1768731770272,135,7,2.6045575276231157,8.791942891700703,9.118862505030188
1768731770276,136,8,3.4173862376210353,9.731419348281548,9.921584203145995
1768731770280,137,9,4.0659993821807685,10.63289653740276,10.557892571688605
1768731770284,137,9,4.30754272076743,10.779140265966369,10.787035976353838
1768731770288,136,8,4.212699070518383,9.71756686179203,10.682864455733904
1768731770292,136,8,4.054759859977614,9.804018704876077,10.51936706156015
1768731770296,137,9,4.079654410445045,10.72073439594818,10.539085030355068
1768731770300,137,9,4.371927411618582,10.576001803507546,10.822174129388117
1768731770304,137,9,4.875786325227551,10.858025797592685,11.311948433878962
1768731770308,138,10,5.473924314965095,11.568619561529362,11.89434688504342
1768731770312,138,10,6.034855777619908,11.967567136559618,12.441793938014952
1768731770316,139,11,6.43523921350202,12.53912382259374,12.832086566675518
1768731770320,139,11,6.599704997256766,12.699406042559051,12.987849093707268
1768731770324,139,11,6.553359617762411,12.765145294181686,12.931338623147903
1768731770328,139,11,6.429954350796398,12.551593960435586,12.79521346165942
1768731770332,138,10,6.394957494940343,12.06843331712068,12.74612630918834
1768731770336,139,11,6.52692650235621,12.320360265717463,12.864206911637677
1768731770340,139,11,6.765413944414712,12.982749495585216,13.089157003167193
1768731770344,140,12,6.984494690978465,13.394892354928428,13.294397761456166
1768731770348,139,11,7.119711703669258,12.918652230882694,13.415667258858305
1768731770352,139,11,7.218270598643959,12.705175067528106,13.500850198599371
1768731770356,140,12,7.374097674261827,13.589762109544642,13.643300692153096
1768731770360,140,12,7.629078352743771,13.794665405374552,13.883352092421434
1768731770364,140,12,7.929159769743045,13.437501831388143,14.166627701585291
1768731770368,140,12,8.154599203076703,13.982820808621796,14.374910064803212
1768731770372,141,13,8.199543514679906,14.502088261382278,14.40392916641962
1768731770376,140,12,8.057211297813769,13.847776486952954,14.247028792807225
1768731770380,140,12,7.848433917143676,13.464959561546978,14.0238712635259
1768731770384,140,12,7.7556861917408275,13.767724367269947,13.915452871411537
1768731770388,140,12,7.899750024197515,13.628367091868766,14.041829792651011
1768731770392,140,12,8.247449505089138,13.822063730224444,14.370426349069351
1768731770396,141,13,8.619901729060757,14.519763902460182,14.723713784918624
1768731770400,141,13,8.802719423156574,14.757331597943326,14.888243350860096
1768731770404,141,13,8.68318543182926,14.452572554007372,14.7513202211106
1768731770408,140,12,8.308750207859548,13.927599593386036,14.359806732683182
1768731770412,140,12,7.818607892722795,13.471514389883284,13.852096155645684
1768731770416,139,11,7.306799823795018,12.877183532199966,13.321477658897448
1768731770420,139,11,6.732954907194729,12.34958318169479,12.72720739055166
1768731770424,138,10,5.953504026365343,11.863246857649315,11.92610400675507
1768731770428,137,9,4.84367401706268,10.481883328017766,10.794581400493108
1768731770432,135,7,3.409115197867179,8.874102632329086,9.339565275521498
1768731770436,134,6,1.8047446443392725,7.476868350986962,7.716222764078898
1768731770440,132,4,0.2600569295060539,5.685080494152287,6.152902067723363
1768731770444,131,3,-1.026383287099589,4.558093149481578,4.846558057935521
1768731770448,130,2,-1.9597808572623872,3.723236943171217,3.891211000355247
1768731770452,129,1,-2.56351096315416,2.6361807167913462,3.2638752699792155
1768731770456,129,1,-2.942254963292146,2.658352784742999,2.8607785000452277
1768731770460,129,1,-3.2172803105397376,2.507250715877435,2.561620179359559
1768731770464,128,0,-3.4671804488616953,1.6835047929445897,2.2888085292954248
1768731770468,128,0,-3.702832884837396,1.610911168160106,2.031923462031125
1768731770472,128,0,-3.876878337873866,1.6758422540728253,1.8373134908137407
1768731770476,128,0,-3.9098543315625625,1.624392469949738,1.7823957994418185
1768731770480,128,0,-3.7323487962486954,1.4917341894516285,1.935333194073264
1768731770484,128,0,-3.3486063489341027,1.702267055228544,2.292478696481407
1768731770488,129,1,-2.8864032767307712,2.5501940864086134,2.727701054299303
1768731770492,129,1,-2.5697011096394236,2.7114160988709317,3.0183270345021422
1768731770496,129,1,-2.598685230143368,2.557466859717637,2.9644373428122495
1768731770500,129,1,-3.0089150889265808,2.5310531657429176,2.53000344107118
1768731770504,128,0,-3.61949066689439,1.6511115584985956,1.8954451863386876
1768731770508,127,-1,-4.127433592796468,0.5542819503567138,1.3633913111563485
1768731770512,127,-1,-4.290920941877318,0.6952163994997438,1.1747591618632556
1768731770516,128,0,-4.062857960505539,1.5364742374667832,1.3753112887761327
1768731770520,128,0,-3.5819938394429816,1.5378990870683291,1.826289857218649
1768731770524,128,0,-3.0591347971779546,1.632838484617225,2.319089954723062
1768731770528,129,1,-2.6612388793420867,2.5172382798468416,2.689183907760073
1768731770532,129,1,-2.4512015264631457,2.714103160453212,2.87381110183797
1768731770536,129,1,-2.385874367769209,2.471387669205791,2.9140446164904192
1768731770540,129,1,-2.364999863805388,2.5999809233601714,2.9079797062696433
1768731770544,129,1,-2.3131391294911348,2.555991838642032,2.930385831110825
1768731770548,129,1,-2.24649808280267,2.526263229638755,2.9659257100937726
1768731770552,129,1,-2.2717214302618154,2.7210987855079773,2.9095308038395884
1768731770556,129,1,-2.5076422407568235,2.3720759843653942,2.643653660954147
1768731770560,128,0,-2.9801244939544684,1.7540320754422116,2.14262995967505
1768731770564,128,0,-3.564991119196457,1.316939330656988,1.5296624456018575
1768731770568,127,-1,-4.026492062818754,0.7647349841322546,1.039316318351243
1768731770572,127,-1,-4.139555687742449,0.4332132668848611,0.8964019101230454
1768731770576,127,-1,-3.825099562660436,0.6278044648011631,1.1804347754388362
1768731770580,128,0,-3.2036652020415164,1.5175782181015665,1.7706989420579302
1768731770584,129,1,-2.5206553037734833,2.482475215250599,2.4208969122164468
1768731770588,129,1,-2.001499939334359,2.60933474221678,2.905711196127716
1768731770592,129,1,-1.7560320656681432,2.5020404520196817,3.117394883010145
1768731770596,129,1,-1.7873108177765298,2.5586990431439,3.055102102702801
1768731770600,129,1,-2.0418729584980784,2.56446581250999,2.772002397491827
1768731770604,129,1,-2.4172073336492184,2.3924585125148243,2.3678377788794265
1768731770608,128,0,-2.741114914731828,1.7158231636847052,2.012268009582386
1768731770612,128,0,-2.8119932501176383,1.2853169494676275,1.906737703138493
1768731770616,128,0,-2.526514779159201,1.815285335928487,2.1563734116907938
1768731770620,129,1,-1.9953252462290223,2.2350172148898557,2.652398673654646
1768731770624,129,1,-1.517115989828988,2.7308315207430542,3.096729985826239
1768731770628,130,2,-1.39358966560796,3.3613802870264693,3.1870683194376768
1768731770632,129,1,-1.7169347030051023,2.5342295137788344,2.830446453606102
1768731770636,128,0,-2.304084703868968,1.6134180383524377,2.2097929250076787
1768731770640,128,0,-2.836110935886443,1.311270091630814,1.64429694118057
1768731770644,127,-1,-3.0838259071893677,0.7514632408485205,1.3629815855624492
1768731770648,128,0,-3.030228288232947,1.2102190686879268,1.38208089627453
1768731770652,128,0,-2.8049517037048033,1.7394071351497864,1.5714203629596477
1768731770656,128,0,-2.5208995548752853,1.2953180033743386,1.818592108234934
1768731770660,128,0,-2.1779974072533443,1.6432577554496062,2.124859054268386
1768731770664,129,1,-1.709181941060955,2.391070025153169,2.5580651865965818
1768731770668,129,1,-1.0957907908005091,2.52301553435426,3.1366846882623607
1768731770672,130,2,-0.4232882069621255,3.425955238233634,3.7743898433826266
1768731770676,131,3,0.1799372709539963,4.537477336828831,4.341919888703654
1768731770680,131,3,0.6573642984880927,4.3926612361928665,4.782550521010407
1768731770684,131,3,1.0715435708660737,4.607961602807237,5.159420609186023
1768731770688,132,4,1.5288791062841351,5.2804629224451585,5.579614599643632
1768731770692,132,4,2.0549005383309917,5.624500073631234,6.068798156924181
1768731770696,133,5,2.5442509563626,6.320127204660043,6.521349257223619
1768731770700,133,5,2.834787394330433,6.55966137057548,6.774828114534513
1768731770704,133,5,2.83938648176893,6.45005639938325,6.741863481806683
1768731770708,133,5,2.619048181875125,6.354060660020426,6.4834183864654085
1768731770712,132,4,2.3316320428903747,5.573833473189003,6.15781992780064
1768731770716,132,4,2.099583687652977,5.263283010707081,5.888204951931263
1768731770720,132,4,1.9168801535451885,5.670101501140698,5.668634149966795
1768731770724,132,4,1.680775651071302,5.251980405063791,5.395538781430613
1768731770728,131,3,1.3091727698531577,4.557624156869323,4.985751711240603
1768731770732,131,3,0.8181028366560784,4.32235934409861,4.454917617947612
1768731770736,130,2,0.2792519473916938,3.4447164000749093,3.8754995393398346
1768731770740,129,1,-0.2950662394392822,2.520647894473186,3.26125885741905
1768731770744,129,1,-1.0076638464698344,2.30786087460708,2.5101275212710337
1768731770748,128,0,-1.984520752722628,1.5522368337232284,1.4954590985664806
1768731770752,127,-1,-3.198172000171286,0.2024627831021641,0.2437913840458181
1768731770756,125,-3,-4.38796289403931,-1.4031842474814802,-0.984085459975026
1768731770760,124,-4,-5.193876823283131,-2.7178411974339047,-1.8278369619920736
1768731770764,124,-4,-5.409482620065228,-2.446193277266287,-2.082349861963253
1768731770768,125,-3,-5.128861193647657,-1.7120415811795209,-1.8437533816112053
1768731770772,125,-3,-4.665143881320347,-1.6057145044686671,-1.4244200307371746
1768731770776,125,-3,-4.3346325553617095,-1.5752787222656597,-1.1360285247916837
1768731770780,125,-3,-4.290058777223106,-1.6601399543807602,-1.127269924972918
1768731770784,125,-3,-4.492454207474373,-1.4750136074969733,-1.3612194421665382
1768731770788,125,-3,-4.788918690162007,-1.7461562196115077,-1.6927712886876685
1768731770792,124,-4,-5.029062361562269,-2.5902890116510173,-1.9783109379916597
1768731770796,124,-4,-5.155636961199119,-2.6095531964767575,-2.159504206383363
1768731770800,124,-4,-5.184010438822268,-2.7128474357448233,-2.242163123697197
1768731770804,124,-4,-5.004633767909878,-2.402324093830449,-2.1051200086851134
1768731770808,126,-2,-4.08296477010434,-0.8878738763628116,-1.209016296763326
1768731770812,128,0,-1.322932851726804,1.5654300754339392,1.5354478414312815
1768731770816,134,6,4.597355310412716,7.173977040524212,7.435290063992669
1768731770820,143,15,14.359682783344551,16.466868030790515,17.159302897447866
1768731770824,155,27,27.0049226029912,28.41449039108415,29.746275914814845
1768731770828,168,40,39.51960926435121,41.2382627454857,42.19226646713398
1768731770832,177,49,47.582899921327176,50.462539417061635,50.19006695346323
1768731770836,178,50,47.362972368833226,51.13120647903333,49.91758548909994
1768731770840,167,39,37.44183448149908,40.48248830687025,39.96028100226876
1768731770844,148,20,19.681117925855123,21.266329615203457,22.178285452322797
1768731770848,126,-2,-1.5389626070893314,-0.6074392640342454,0.9454633095364668
1768731770852,107,-21,-21.19569140897105,-19.69968515728481,-18.7270778157256
1768731770856,94,-34,-35.451395359658775,-32.6772575986298,-33.014439625068974
1768731770860,87,-41,-42.541510369838925,-39.685245891305875,-40.15741284683829
1768731770864,86,-42,-42.65898464531864,-40.60275747672386,-40.341574267924095
1768731770868,91,-37,-37.353705231641456,-35.77655678154976,-35.101342198575274
1768731770872,99,-29,-28.912572551513144,-27.58225144425324,-26.711360845740472
1768731770876,109,-19,-19.804586843312592,-17.844877156137617,-17.639438939370258
1768731770880,117,-11,-12.096055531988483,-9.527966035972732,-9.959901565184662
1768731770884,122,-6,-6.911805078920956,-4.849606563676971,-4.806581378473347
1768731770888,124,-4,-4.227576457277591,-2.587203273160815,-2.158848580738681
1768731770892,125,-3,-3.1861885325240955,-1.8305635361151096,-1.157778515022177
1768731770896,125,-3,-2.7684523289572978,-1.643375734561205,-0.7812542835980509
1768731770900,126,-2,-2.3712762900264552,-0.6715111974939161,-0.4255158866721844
1768731770904,127,-1,-1.9320632784209024,0.2036557327923254,-0.0293985100479261
1768731770908,127,-1,-1.62368339614416,0.3809084789831178,0.2335611717335104
1768731770912,127,-1,-1.4824098895512394,0.0602963952859414,0.3292718033734076
1768731770916,126,-2,-1.3186681302649532,-0.4991224436888242,0.4508437469206807
1768731770920,127,-1,-0.9287383750272388,0.1130720317145166,0.8030513585484003
1768731770924,128,0,-0.3203200536436665,1.4456752242118038,1.375092401092446
1768731770928,129,1,0.3074663170351663,2.06524448105906,1.9635313321930377
1768731770932,129,1,0.7889127429162,2.3163642104466526,2.401618236520802
1768731770936,129,1,1.1570875993620398,2.228710047108718,2.7255363909192147
1768731770940,129,1,1.572923852757357,2.3064824372119803,3.099834825195844
1768731770944,130,2,2.1127483452512075,3.302285947655452,3.6010347905052313
1768731770948,131,3,2.653782071435979,4.0927250014486365,4.103277490371568
1768731770952,131,3,2.974650014237697,4.307407973942691,4.382585369729107
1768731770956,131,3,2.956125713936791,4.135877911712966,4.3205513724620825
1768731770960,130,2,2.679764128070072,3.4050990911784536,4.001935924694324
1768731770964,130,2,2.348682613975019,3.1476835564469585,3.631847893246315
1768731770968,130,2,2.1346688493315455,3.2279027332163412,3.380740479426079
1768731770972,130,2,2.099156907826603,3.1180330828242293,3.3068823593317735
1768731770976,130,2,2.225052561384573,3.2902736305909044,3.3914128899330858
1768731770980,130,2,2.4778190376614138,3.2153262313060167,3.600917028060662
1768731770984,130,2,2.8153010788903785,3.297067117808576,3.895755916090144
1768731770988,131,3,3.1603009102463813,4.044853006357332,4.200186328176171
1768731770992,131,3,3.409247864823598,4.252456873597319,4.410229063572556
1768731770996,131,3,3.503883842665336,4.120620241203195,4.466449967089963
1768731771000,131,3,3.5049917430152435,4.341785435416819,4.428917840859675
1768731771004,131,3,3.584412260067843,4.146281827809986,4.469368221630903
1768731771008,131,3,3.91855293446812,4.1219621106873925,4.764108639038608
1768731771012,132,4,4.557643618821092,5.186779547078782,5.362982297794952
1768731771016,133,5,5.3740322092989485,6.0847347090573365,6.138280677098896
1768731771020,133,5,6.129278064097104,6.414826676188335,6.852487235463887
1768731771024,134,6,6.607088334992678,6.961752047580062,7.290540834527151
1768731771028,134,6,6.723636532897498,7.314248582106142,7.368810001459043
1768731771032,134,6,6.555067591262699,6.912861548418382,7.162559537252534
1768731771036,133,5,6.2713930202414785,6.332745217078183,6.841020513301557
1768731771040,133,5,6.021647963295483,6.156224606128929,6.552986979755586
1768731771044,133,5,5.856640459627251,6.1247888972856295,6.349005112055084
1768731771048,133,5,5.749197973423517,6.1879311780494834,6.20169866050513
1768731771052,133,5,5.678777702365768,5.896819536343143,6.091282214216932
1768731771056,132,4,5.685852508314439,5.422340097946343,6.0597869094156795
1768731771060,133,5,5.846660802173424,5.912883628634839,6.184062799942675
1768731771064,133,5,6.210457241807778,6.43732355597653,6.511998639177827
1768731771068,134,6,6.763986000104172,6.729297856655171,7.0283631941181905
1768731771072,134,6,7.433310004742008,7.404463192142378,7.658696466841503
1768731771076,135,7,8.095467357477506,7.812509046305005,8.28118156543879
1768731771080,135,7,8.595060890411263,8.502499275915362,8.741802083895577
1768731771084,136,8,8.786148927824012,8.82175681773782,8.895225795268832
1768731771088,135,7,8.59712869724105,8.243372400672573,8.669858050415876
1768731771092,135,7,8.077138729780273,7.942309865429626,8.114574384537587
1768731771096,134,6,7.382220358178187,7.119301659032713,7.384753237583695
1768731771100,133,5,6.699475065918469,6.2672450627622105,6.66644336648712
1768731771104,133,5,6.148647005447156,5.908932723715562,6.0785753285174176
1768731771108,132,4,5.715901166274049,5.20967646067189,5.6074830984811435
1768731771112,132,4,5.2599408196498985,4.865420463396822,5.113048587094962
1768731771116,131,3,4.593522859620597,4.198241647075262,4.409396946436988
1768731771120,130,2,3.599494565266717,3.1196012565969204,3.380022666520727
1768731771124,129,1,2.312365008225587,2.004502865679666,2.0590920938374806
1768731771128,127,-1,0.9088099447169198,0.1089271130269873,0.6222236468782807
1768731771132,126,-2,-0.3911130555151896,-1.1348295180551051,-0.7118445551785437
1768731771136,125,-3,-1.4450058682860227,-1.7691261693789668,-1.8015361852393976
1768731771140,124,-4,-2.2519300931047397,-3.0319768086358536,-2.6454021377172428
1768731771144,123,-5,-2.927304197353534,-3.823745777926814,-3.35729995907895
1768731771148,123,-5,-3.612041894502672,-4.142323518651783,-4.07706704954216
1768731771152,122,-6,-4.369247484169452,-4.920784094468491,-4.868058755987916
1768731771156,121,-7,-5.134668059073878,-6.015333683700786,-5.6667283012689875
1768731771160,120,-8,-5.763688008835442,-6.856376437751506,-6.32872722351814
1768731771164,120,-8,-6.141438727493187,-7.014258502859767,-6.739449308265695
1768731771168,120,-8,-6.260036232916176,-7.017841028495593,-6.8917653031738375
1768731771172,120,-8,-6.200305716147467,-7.071092060747461,-6.866923517871968
1768731771176,120,-8,-6.052933108944621,-6.913714777351507,-6.7546144410999815
1768731771180,120,-8,-5.863236213712141,-7.011275975431865,-6.598342228992102
1768731771184,120,-8,-5.637476627744415,-6.898775315567283,-6.403821371262611
1768731771188,121,-7,-5.374888593574299,-6.1908246731349905,-6.171991449059055
1768731771192,121,-7,-5.079313843503259,-5.920052963232877,-5.908847466036822
1768731771196,121,-7,-4.756262684951197,-6.124652394868172,-5.619917220715979
1768731771200,121,-7,-4.425627037692575,-5.835180612360716,-5.323014105574395
1768731771204,122,-6,-4.136997170049108,-5.13963672716019,-5.066105210688438
1768731771208,122,-6,-3.944214382663639,-4.989505527247317,-4.903490361878998
1768731771212,122,-6,-3.8459063201394943,-5.151253071877862,-4.83533121862551
1768731771216,122,-6,-3.7621372716655825,-4.950580928499846,-4.782509094255507
1768731771220,122,-6,-3.5950264273507893,-5.042497021291603,-4.646857265067146
1768731771224,122,-6,-3.329781343019546,-5.016222371859065,-4.4131467331440195
1768731771228,123,-5,-3.0763673373515306,-4.120863533037953,-4.191374595712017
1768731771232,123,-5,-2.999145271508528,-4.082221098546786,-4.145783607251941
1768731771236,122,-6,-3.189477378255229,-5.039928890575403,-4.366874685895153
1768731771240,122,-6,-3.588182283915557,-5.032125371351676,-4.79464649870585
1768731771244,122,-6,-4.01200723815395,-5.071453369829895,-5.246097332308405
1768731771248,121,-7,-4.257519150570099,-6.120487880780723,-5.518905075099933
1768731771252,121,-7,-4.217147340910055,-6.092384198871557,-5.506860778145261
1768731771256,122,-6,-3.937091598234905,-5.088268130716114,-5.257435749801754
1768731771260,122,-6,-3.578450938293022,-5.028887698253131,-4.931734562524712
1768731771264,122,-6,-3.3173678455758693,-5.1554146453327245,-4.703318646472855
1768731771268,122,-6,-3.2619698964958905,-5.050206406345462,-4.67657509121223
1768731771272,122,-6,-3.4167736966680784,-5.232143141497531,-4.855025268335376
1768731771276,122,-6,-3.6710875781649097,-4.961896537943288,-5.131476065740235
1768731771280,122,-6,-3.81734348255523,-5.230922976409953,-5.303239124719865
1768731771284,121,-7,-3.651246198904689,-6.010576807684516,-5.167691751112496
1768731771288,122,-6,-3.1436007467670533,-5.21848227551776,-4.6930475754205006
1768731771292,123,-5,-2.543883831348812,-4.136866443470645,-4.124698490277256
1768731771296,123,-5,-2.266766326729811,-4.052456872272376,-3.8748290505246623
1768731771300,123,-5,-2.5929095728931806,-4.2465842614592715,-4.224396308823313
1768731771304,122,-6,-3.411430122964376,-5.0047791503802985,-5.064948537673391
1768731771308,121,-7,-4.237449068165341,-6.334056191827574,-5.914348213722435
1768731771312,120,-8,-4.5331355811542355,-7.01236208219977,-6.236012837316038
1768731771316,121,-7,-4.104981165288891,-6.245727891093438,-5.835849280457245
1768731771320,122,-6,-3.259141066390162,-5.073846200805085,-5.01862350283194
1768731771324,123,-5,-2.5753872265741657,-4.245220511372346,-4.362853101147577
1768731771328,123,-5,-2.4765068988224277,-4.150773745721514,-4.290360493361803
1768731771332,122,-6,-2.942159954949916,-5.245817339837319,-4.780161538669832
1768731771336,121,-7,-3.583093597924558,-6.0709723503511235,-5.443188655714323
1768731771340,121,-7,-3.976488919941033,-6.277426628020493,-5.858066590779
1768731771344,121,-7,-3.955966116418703,-6.1113126444375965,-5.86043452912882
1768731771348,122,-6,-3.629932662732533,-5.301633864574817,-5.559612509705478
1768731771352,122,-6,-3.172914861180589,-5.170243776247496,-5.128929600158367
1768731771356,122,-6,-2.628347433654019,-5.17895902859098,-4.609621624392027
1768731771360,123,-5,-1.9067857008780456,-4.243430830064945,-3.91126394021762
1768731771364,124,-4,-0.9470440210990336,-3.186576252822558,-2.9736307034367484
1768731771368,125,-3,0.141585216429892,-2.272175837865318,-1.9074718640149704
1768731771372,126,-2,1.09982936683275,-1.2438129278018035,-0.9725268655527376
1768731771376,127,-1,1.690487782907631,-0.1547667289540086,-0.405405907590477
1768731771380,127,-1,1.877014140810514,-0.3448082960100032,-0.2416559875016686
1768731771384,126,-2,1.851344770553468,-1.1231688753439593,-0.2886353234436796
1768731771388,127,-1,1.881896916578492,-0.4003545627831513,-0.2782142514720691
1768731771392,127,-1,2.112973850432856,-0.1340056772379636,-0.0673744193368133
1768731771396,127,-1,2.4805754925954115,-0.3331404897646308,0.2786037608792329
1768731771400,128,0,2.793541677403101,0.7840106051748865,0.5683317896310243
1768731771404,128,0,2.8896375629523594,0.7043918947797856,0.6407180576527121
1768731771408,127,-1,2.7314683312033927,-0.3261373894864952,0.4602601570045901
1768731771412,127,-1,2.3821681791989957,-0.1801168118944924,0.0911845255815428
1768731771416,127,-1,1.923180735203589,-0.4245124311035986,-0.3859242477414244
1768731771420,126,-2,1.4162010798526137,-1.1011715689947974,-0.9112980999136572
1768731771424,126,-2,0.9283985757496124,-1.518392743422841,-1.41877142514857
1768731771428,125,-3,0.55099497145864,-2.132918219323182,-1.8166080818536512
1768731771432,125,-3,0.3567639490673349,-2.410621285757714,-2.031230559657203
1768731771436,125,-3,0.3269204641659323,-2.29265933693518,-2.0814042984544474
1768731771440,125,-3,0.3242604945948124,-2.2089911430615197,-2.1046161720014687
1768731771444,125,-3,0.1519461055179343,-2.5638064812034567,-2.297224703402071
1768731771448,124,-4,-0.3352937405952706,-3.0286366434617715,-2.8034098228400177
1768731771452,124,-4,-1.1385246091426229,-3.685800095548073,-3.6239170174048487
1768731771456,122,-6,-2.0959352524761834,-4.9693081824844825,-4.598163690248385
1768731771460,122,-6,-2.950050304521363,-5.668209557240809,-5.470315219363441
1768731771464,121,-7,-3.4683235772486047,-6.09475534143013,-6.007767552601142
1768731771468,121,-7,-3.5568857374303726,-6.582909250581003,-6.114379496261209
1768731771472,121,-7,-3.305897238003902,-6.176170272626989,-5.878364358634736
1768731771476,122,-6,-2.9352505687836974,-5.519234276586662,-5.521300004340364
1768731771480,122,-6,-2.672558015209627,-5.208221019446677,-5.275835390213691
1768731771484,122,-6,-2.6527853197933604,-5.558708335983998,-5.280553169454502
1768731771488,121,-7,-2.900494548614041,-6.23705629985632,-5.557530357689913
1768731771492,121,-7,-3.33504328690858,-6.514791502882074,-6.018003884158041
1768731771496,121,-7,-3.670374902517854,-6.307521631159546,-6.367751568196435
1768731771500,122,-6,-3.20920623350531,-5.390535195754165,-5.90752284255956
1768731771504,124,-4,-0.7730330612387191,-3.498230406298477,-3.4655913071489284
1768731771508,129,1,4.922060198472369,1.722419762405326,2.229422722721232
1768731771512,139,11,14.41261985323878,11.404117491081092,11.703424631632988
1768731771516,150,22,26.583425693185,22.779625204123292,23.840136817426988
1768731771520,162,34,38.394386158226354,34.4478907820679,35.60902577095025
1768731771524,171,43,45.708025811256746,43.610439943594955,42.88579548542005
1768731771528,171,43,45.02722399471918,43.54111459100017,42.18203539702841
1768731771532,160,32,35.23666659244527,32.41885598782084,32.38404902004851
1768731771536,142,14,18.26750572601282,14.750975831141146,15.419166518637958
1768731771540,122,-6,-1.7502524422830916,-5.658863730681158,-4.590064298983194
1768731771544,103,-25,-20.27702731975658,-24.23077566730279,-23.11351996314341
1768731771548,91,-37,-33.982758896470614,-36.64498636095649,-36.829150453080736
1768731771552,84,-44,-41.40363330636886,-43.41384223493917,-44.27490921350844
1768731771556,82,-46,-42.660480692714074,-45.42832308452734,-45.56496357520116
1768731771560,85,-43,-38.84020948933991,-42.60759372183957,-41.775181645923475
1768731771564,92,-36,-31.55858692232284,-35.283944942616074,-34.51395129328694
1768731771568,102,-26,-22.734613567552906,-25.710565459124425,-25.701070034068472
1768731771572,110,-18,-14.306385672418031,-17.351362050469618,-17.28050246555341
1768731771576,117,-11,-7.767442746417914,-10.594823993954837,-10.750370725920558
1768731771580,121,-7,-3.7318026766478423,-6.533129279945289,-6.725123106879633
1768731771584,122,-6,-1.850214281731926,-5.423558744711291,-4.853781845367818
1768731771588,123,-5,-1.1883528164109145,-4.667884806400966,-4.2014756219047324
1768731771592,123,-5,-0.8397069788790448,-4.351224006324365,-3.8635842883643505
1768731771596,124,-4,-0.3752561325199521,-3.7177103533403417,-3.413762754182957
1768731771600,125,-3,0.1257252831651361,-2.398895070650713,-2.931630188100574
1768731771604,125,-3,0.3861522470738419,-2.688242828266372,-2.6906334559627503
1768731771608,124,-4,0.2711278118386255,-3.447755527382539,-2.820434467110632
1768731771612,124,-4,-0.0958122508998737,-3.5804808011595117,-3.195800733414836
1768731771616,124,-4,-0.4426301372036263,-3.6204119723669774,-3.5487919896843594
1768731771620,124,-4,-0.521641952169903,-3.455178088569607,-3.6375247089619687
1768731771624,124,-4,-0.2216491519209413,-3.810164470785651,-3.352243910418796
1768731771628,124,-4,0.4005312200628363,-3.286461685127772,-2.7460400500205493
1768731771632,126,-2,1.1626053882779623,-1.8595201038667644,-1.9971811217246136
1768731771636,126,-2,1.8684170262594448,-1.3642956297548672,-1.3016210391150485
1768731771640,127,-1,2.4287618503265263,-0.7758755550828593,-0.7512315679042443
1768731771644,127,-1,2.8854872552811237,-0.5834493995770713,-0.3061143782336666
1768731771648,127,-1,3.303242682332173,-0.5392676689751177,0.0987708097319406
1768731771652,128,0,3.634333819381794,0.2914871202780069,0.4171303363720327
1768731771656,128,0,3.7106397121835832,0.488444420209271,0.4815518524006634
1768731771660,128,0,3.3965011637329443,0.2567976235139069,0.1563371256778918
1768731771664,127,-1,2.7641447063428557,-0.6342383895169306,-0.4863052167421489
1768731771668,126,-2,2.1141929905848915,-1.6076370141924277,-1.1458021798988502
1768731771672,126,-2,1.8030945618610188,-1.6615319788713232,-1.466458433602163
1768731771676,126,-2,2.0145544136961098,-1.625446472445604,-1.2658643539484498
1768731771680,127,-1,2.6561691357758677,-0.6732526327669928,-0.6369981310180681
1768731771684,128,0,3.4496064250843115,0.2361462523370843,0.1428894433618173
1768731771688,128,0,4.127767725073475,0.4282462804744074,0.8087584923658337
1768731771692,129,1,4.586158403582912,1.256166413749854,1.2573589265681775
1768731771696,129,1,4.893401676490907,1.3845174557211612,1.5566179319678428
1768731771700,129,1,5.180286448896976,1.2813076213624828,1.8352425065307072
1768731771704,130,2,5.507744390648488,2.196649244639406,2.1523371084116087
1768731771708,130,2,5.813263806571069,2.424226528701457,2.4452778161448023
1768731771712,130,2,5.96314944834817,2.1558195321170683,2.5821152402742285
1768731771716,130,2,5.859146033225813,2.4737543267192765,2.4667403923319404
1768731771720,130,2,5.522400117469098,2.1043043860028696,2.121080244802007
1768731771724,129,1,5.102963546043598,1.309760404730384,1.694132397993113
1768731771728,129,1,4.808716606202896,1.268130007754863,1.3918024002617018
1768731771732,129,1,4.796104938685967,1.1923507482785598,1.36902700466892
1768731771736,129,1,5.0903537661031795,1.4534573230151318,1.651067424932736
1768731771740,130,2,5.58255302011388,2.008396820975611,2.1306406480087263
1768731771744,130,2,6.102997883461438,2.378356238072875,2.6400049826785543
1768731771748,131,3,6.527538978103353,3.1107524724619977,3.055750797513982
1768731771752,131,3,6.851838866287012,3.264864714486275,3.3726191080499195
1768731771756,131,3,7.179044087206223,3.367310254121666,3.692053289326944
1768731771760,132,4,7.619637258355579,3.982387775831964,4.12324156004915
1768731771764,132,4,8.17209430343521,4.396352317760392,4.664437742657389
1768731771768,133,5,8.6790104612015,4.967241006648845,5.159108948275898
1768731771772,133,5,8.903176398863934,5.374989385280797,5.371586717540767
1768731771776,133,5,8.676224406335821,5.194353163348497,5.134953028970509
1768731771780,132,4,8.012661378320454,4.071950908448974,4.464025153395637
1768731771784,131,3,7.107222642114685,3.280208355834014,3.5520461585356387
1768731771788,131,3,6.220664891403676,2.9465300354458765,2.6574278216178526
1768731771792,129,1,5.529056682332534,1.4048006334038723,1.9552322953342611
1768731771796,129,1,5.02458292640557,1.0386249033292347,1.4388720833458348
1768731771800,129,1,4.530693886998086,1.243714745380858,0.9337213380226688
1768731771804,128,0,3.834317013249789,-0.0365182279549523,0.2274828014463668
1768731771808,127,-1,2.849556196357521,-0.7597460137198548,-0.7661903100436414
1768731771812,126,-2,1.6861502161128672,-1.9846505366510243,-1.938116003797281
1768731771816,124,-4,0.5659109837532765,-3.627187465860577,-3.0665496225406113
1768731771820,124,-4,-0.34067089080892,-4.133044509995164,-3.981138595701781
1768731771824,123,-5,-1.0174595686357009,-4.75427982272666,-4.6666039514289634
1768731771828,123,-5,-1.566363729094335,-5.092584912741357,-5.225799923123866
1768731771832,122,-6,-2.0881049410017796,-5.730699262069496,-5.759121092621761
1768731771836,121,-7,-2.606034938188442,-6.934277142123586,-6.288274513336078
1768731771840,121,-7,-3.088924734336784,-6.907286738223627,-6.7806866419804175
1768731771844,121,-7,-3.5109002914241243,-7.0289676313471405,-7.210571830129507
1768731771848,120,-8,-3.8646632378158294,-7.917559865183219,-7.571581657292153
1768731771852,120,-8,-4.12424397568315,-7.937137213579493,-7.838666915202225
1768731771856,120,-8,-4.220547459308431,-7.811360623088938,-7.9434915471416305
1768731771860,120,-8,-4.080596675811737,-8.104807828765827,-7.813584932654211
1768731771864,120,-8,-3.717437572210368,-7.878646967327328,-7.461862507665894
1768731771868,121,-7,-3.293352382399564,-7.171592619541329,-7.049754998585165
1768731771872,121,-7,-3.071835367851108,-6.709382924529447,-6.8394242644284855
1768731771876,121,-7,-3.2573195204160497,-7.1338934353276535,-7.033930462626637
1768731771880,120,-8,-3.8312643998139047,-7.8444459365572765,-7.614303334717684
1768731771884,120,-8,-4.516106877140203,-8.21127292965821,-8.304388427717944
1768731771888,119,-9,-4.912944503082668,-8.928213573735373,-8.707854809302535
1768731771892,119,-9,-4.74026835458736,-8.982510726380834,-8.544936034307513
1768731771896,120,-8,-4.0248200159473875,-7.952173850866995,-7.842057228147326
1768731771900,121,-7,-3.1070165645862264,-7.063444429199167,-6.937751938834032
1768731771904,122,-6,-2.437285358558117,-6.106719884556102,-6.2802060559026325
1768731771908,122,-6,-2.293296587590527,-6.068265639183874,-6.1455017924206405
1768731771912,121,-7,-2.6140123835160063,-6.953071710644293,-6.472521731511814
1768731771916,121,-7,-3.0573673716072536,-7.011893626462716,-6.9209811096962826
1768731771920,121,-7,-3.2230976651990852,-7.103582736509177,-7.093181133029527
1768731771924,121,-7,-2.88399594295642,-7.119641084350882,-6.763295078716863
1768731771928,122,-6,-2.092582473691197,-6.126129218984603,-5.983295732987935
1768731771932,123,-5,-1.122704470337967,-4.95951648201323,-5.025622167369116
1768731771936,124,-4,-0.3038994023199786,-4.08470039966827,-4.218637878079548
1768731771940,124,-4,0.134505148766733,-4.091631292362815,-3.790854118409655
1768731771944,124,-4,0.1193811281635342,-4.23346296343197,-3.8149971565426872
1768731771948,124,-4,-0.3011595995468169,-4.0584819864749075,-4.243287629821503
1768731771952,123,-5,-1.0065250965442325,-5.112371295611905,-4.9559862369236924
1768731771956,122,-6,-1.8200881628658832,-5.997333875288843,-5.777188498210883
1768731771960,122,-6,-2.519008093207496,-6.231034540468143,-6.484455103313138
1768731771964,121,-7,-2.884795712193343,-7.211502970043195,-6.859641016284485
1768731771968,121,-7,-2.7985653066537415,-7.101323771894832,-6.784179175562937
1768731771972,122,-6,-2.3240187256115643,-6.185172540226446,-6.321598903182577
1768731771976,122,-6,-1.7033778054088882,-5.94289880095593,-5.712984840853055
1768731771980,123,-5,-1.2426950897433595,-5.407651821765341,-5.262743786376296
1768731771984,123,-5,-1.1426465013293858,-5.06901224707311,-5.170794873696295
1768731771988,123,-5,-1.377802680484847,-5.374345492434727,-5.41261608984614
1768731771992,122,-6,-1.713038329346856,-5.929736544989418,-5.754821653463328
1768731771996,122,-6,-1.8657809245257992,-6.308685667202172,-5.916126678909598
1768731773000,123,-5,-1.5012149088810822,-3.546466229942039,-2.8212353468245484
1768731773004,123,-5,-1.51554976930936,-3.549106456793054,-2.835541741216677
1768731773008,123,-5,-1.5171099851698977,-3.47261880728361,-2.836732724653628
1768731773012,123,-5,-1.4164565968457865,-3.5787211927152804,-2.736037043987894
1768731773016,123,-5,-1.1485706538487566,-3.2903145187580636,-2.4686491271268487
1768731773020,124,-4,-0.7307006411795129,-2.7213301690714387,-2.051506147732792
1768731773024,124,-4,-0.2550450313380711,-2.3849590078074354,-1.5765087887757407
1768731773028,125,-3,0.1818993544552363,-1.6322886128248006,-1.1401593729986628
1768731773032,125,-3,0.5534207130527976,-1.4528417699180285,-0.769149303324759
1768731773036,125,-3,0.9117515884064264,-1.3774543280305709,-0.4109092238079131
1768731773040,126,-2,1.3221344088592295,-0.691687654363053,2.1427160137088563e-05
1768731773044,126,-2,1.7848571617202893,-0.3625499473437024,0.4633540053128109
1768731773048,127,-1,2.220264399207969,0.2771637209790012,0.8982722859402692
1768731773052,127,-1,2.5277364491200363,0.6902900680370385,1.2036507088193038
1768731773056,127,-1,2.6583104332389684,0.4358161388655608,1.3316347403613575
1768731773060,127,-1,2.6370913221084975,0.5001814008518655,1.3093748533982228
1768731773064,127,-1,2.533613905615129,0.4526045777124304,1.2074409389695897
1768731773068,127,-1,2.429030777722385,0.4118835349168688,1.1057773383112923
1768731773072,127,-1,2.4089724435875652,0.6201331241080625,1.0874524211168153
1768731773076,127,-1,2.553849760925667,0.436463642523003,1.2311465039185492
1768731773080,127,-1,2.889059018733144,0.5490178183882692,1.5627436714214755
1768731773084,128,0,3.319467037318497,1.34905869965796,1.989338057679458
1768731773088,128,0,3.6289619789302,1.5370211103798406,2.297116057061738
1768731773092,128,0,3.5930705748302394,1.4848098909820096,2.26239132056969
1768731773096,128,0,3.1467889245532588,1.5679755345519304,1.818978318552573
1768731773100,127,-1,2.4702283801285096,0.4188080691643676,1.1448672504110418
1768731773104,126,-2,1.888539060920828,-0.5703036117671374,0.5636917817643486
1768731773108,126,-2,1.6291796576934976,-0.4905464563230817,0.3026339577859419
1768731773112,126,-2,1.6229624429337997,-0.5520675118612757,0.2931725431450317
1768731773116,126,-2,1.5262864501657538,-0.3152676328122952,0.1930136207518278
1768731773120,126,-2,0.9653435639928014,-0.7749842871516086,-0.3699548688369495
1768731773124,124,-4,-0.183937816586682,-2.352408785261451,-1.5185421214311767
1768731773128,123,-5,-1.6952717414416745,-3.741651726346032,-3.0267916993043653
1768731773132,121,-7,-3.1390744948205684,-5.307599307499044,-4.467344517837033
1768731773136,120,-8,-4.155302945320005,-6.5148174751680905,-5.48303417401847
1768731773140,120,-8,-4.6472844486445535,-6.6365675906527075,-5.978493640355212
1768731773144,120,-8,-4.77037212512228,-6.422881468719461,-6.1069986613860765
1768731773148,120,-8,-4.759446984482064,-6.774319479950243,-6.098530695888818
1768731773152,119,-9,-4.754981938462445,-7.190883879454383,-6.089945488152783
1768731773156,120,-8,-4.751562038730755,-6.700684267519603,-6.078383830414691
1768731773160,120,-8,-4.668014150489972,-6.4191265682236285,-5.991147471292368
1768731773164,120,-8,-4.46063863136467,-6.650460684684127,-5.791629973345794
1768731773168,120,-8,-4.194209199616225,-6.590347731514513,-5.542324506307955
1768731773172,120,-8,-3.9852309324682302,-6.31333541121043,-5.347799661771954
1768731773176,121,-7,-3.7619063194681064,-5.664566489009873,-5.123407050815032
1768731773180,122,-6,-2.9337993567043257,-4.3737974027562005,-4.275659480434356
1768731773184,125,-3,-0.2763814110567901,-1.765861964829084,-1.590562596550531
1768731773188,130,2,5.627895349013404,3.555346636762385,4.331868657741563
1768731773192,139,11,15.373209236620772,12.548327740225952,14.073308512207372
1768731773196,151,23,27.666398114407556,24.43644436289749,26.341486050621462
1768731773200,163,35,39.068523175831174,36.601243825812055,37.7104485674919
1768731773204,171,43,45.08610516235662,44.156754685705934,43.70324212310253
1768731773208,168,40,42.26366526919117,41.67280797249951,40.87572367263065
1768731773212,155,27,30.082972731880297,28.303691255930566,28.71131948049075
1768731773216,135,7,11.426119610150272,8.6738302272032,10.08394403013008
1768731773220,115,-13,-8.73914668529336,-11.642288700975366,-10.05305722601224
1768731773224,98,-30,-25.61731751310242,-28.56939665794135,-26.917959001851756
1768731773228,88,-40,-36.41064871929161,-38.48660201998896,-37.71891440006273
1768731773232,85,-43,-40.78580454533768,-41.55225188036854,-42.117108921462545
1768731773236,85,-43,-40.068250765753376,-41.436675751359736,-41.42401783057747
1768731773240,88,-40,-36.02432970492201,-38.60522269658741,-37.392101966585905
1768731773244,94,-34,-30.089446500014727,-32.60678133224252,-31.45243212131701
1768731773248,101,-27,-23.283390051848173,-25.45117815254887,-24.63257099583044
1768731773252,108,-20,-16.465032858695672,-18.60252183211957,-17.80398850041439
1768731773256,114,-14,-10.475724621090263,-12.373168913941788,-11.814870075445183
1768731773260,119,-9,-6.0113075226272095,-7.739738561469711,-7.357789838151007
1768731773264,121,-7,-3.375240351174518,-5.465789092715836,-4.7275286248169035
1768731773268,122,-6,-2.3551515667573693,-4.607389234732352,-3.706047955505369
1768731773272,122,-6,-2.3380514169035163,-4.430994334072738,-3.6823104815283134
1768731773276,122,-6,-2.5964760925335644,-4.536727672574873,-3.9356687824863736
1768731773280,122,-6,-2.5892136034758444,-4.612816905914295,-3.929668872404795
1768731773284,122,-6,-2.142961814580062,-4.571871343626428,-3.489598922255152
1768731773288,123,-5,-1.4432241705525104,-3.5276914200630416,-2.795685487456274
1768731773292,124,-4,-0.8368467154263004,-2.4635095362688864,-2.190969791134759
1768731773296,124,-4,-0.5525206846785142,-2.5472418328431727,-1.90449967917554
1768731773300,124,-4,-0.5254170139671079,-2.598277859897798,-1.874390968226196
1768731773304,124,-4,-0.4598522566656438,-2.621204979665051,-1.807350276051262
1768731773308,124,-4,-0.0816002300132636,-2.471973888626903,-1.429344124742448
1768731773312,125,-3,0.6283717869720187,-1.4978921507856136,-0.7201823343004787
1768731773316,126,-2,1.4164266771052656,-0.5169461274217528,0.06706100544418
1768731773320,127,-1,1.9698489046903995,0.3515252654676994,0.619120897516928
1768731773324,127,-1,2.16938900239158,0.415732428394109,0.8166847170284749
1768731773328,126,-2,2.1487808388356986,-0.5323258712878856,0.7950252174924655
1768731773332,126,-2,2.1178896323588985,-0.4085960006247915,0.7654275399854895
1768731773336,127,-1,2.1486598371051757,0.3782782809346505,0.7986915588025354
1768731773340,127,-1,2.1527031682990643,0.4615445705610725,0.8035559160594761
1768731773344,127,-1,2.053227477036791,0.2792493975880008,0.702221309495058
1768731773348,126,-2,1.9356861457126224,-0.3871916374291744,0.5824385730555603
1768731773352,126,-2,2.002837606209583,-0.5787530423650196,0.6496688604395087
1768731773356,127,-1,2.3911291315349916,0.5715727388716176,1.04009062507428
1768731773360,128,0,3.0448040718201472,1.247926355990742,1.695241423890863
1768731773364,128,0,3.756504367948669,1.4981645174442637,2.4059279696625726
1768731773368,129,1,4.310396017470954,2.385484606463059,2.9570650313401745
1768731773372,129,1,4.598386482923588,2.627155320427907,3.2427138318182385
1768731773376,129,1,4.6411019057139224,2.3687953072345795,3.285183846055386
1768731773380,129,1,4.535059819497094,2.440764048675984,3.1812180982755884
1768731773384,129,1,4.393594295810163,2.320410203924884,3.042824459501092
1768731773388,129,1,4.328454367758526,2.5250932608987977,2.9797116157567127
1768731773392,129,1,4.452976852066249,2.528357743522089,3.1039863489569868
1768731773396,129,1,4.850712511862593,2.394553808547437,3.4996675743829755
1768731773400,130,2,5.501281014819059,3.4906201999054307,4.147895742814086
1768731773404,131,3,6.235658982165401,4.198833202137607,4.880954589506955
1768731773408,131,3,6.797216611674868,4.6881945700141125,5.442723597911495
1768731773412,132,4,6.992001236503319,5.337241138294177,5.639046144479591
1768731773416,131,3,6.81835843359856,4.566482234961096,5.467469752873138
1768731773420,131,3,6.46871910652554,4.340912689147562,5.119241655605526
1768731773424,131,3,6.194813545277233,4.3058712982505,4.8452442729709
1768731773428,130,2,6.136234709360983,3.626391774629764,4.785385369928192
1768731773432,131,3,6.24338616975476,4.341831755546615,4.891394450095058
1768731773436,131,3,6.355667674597885,4.620504305194727,5.0037908653488214
1768731773440,131,3,6.371333499802847,4.208572146929374,5.02074664389228
1768731773444,131,3,6.361692362676436,4.497278339140924,5.012555953344908
1768731773448,131,3,6.519653574050057,4.3847847283921135,5.171385063099719
1768731773452,131,3,6.971740564588778,4.584795973400734,5.623999916794924
1768731773456,132,4,7.609613081647849,5.414560373570363,6.262482891453245
1768731773460,133,5,8.099201026675598,6.328655679289154,6.752182721231961
1768731773464,133,5,8.080668357504532,6.48928132998897,6.732305452362444
1768731773468,132,4,7.39444333786649,5.245158580109277,6.043964196899748
1768731773472,130,2,6.138799235725287,3.8512096650831023,4.787958375852359
1768731773476,129,1,4.534793950654868,2.0140159861221143,3.186870078209611
1768731773480,127,-1,2.76756450558137,0.8227519040280518,1.42397606203862
1768731773484,127,-1,0.9661218356462546,-0.0524108329751973,-0.3751243755643482
1768731773488,123,-5,-0.7127402872171684,-3.196036625241719,-2.0545869209720102
1768731773492,122,-6,-2.0635895235214012,-4.711327004847994,-3.4068023222835584
1768731773496,122,-6,-2.940914683091544,-4.4696729170043135,-4.284242342261322
1768731773500,121,-7,-3.380343155590413,-5.650955403189041,-4.72285375070572
1768731773504,121,-7,-3.59371191293359,-5.622381540419947,-4.935745704576329
1768731773508,121,-7,-3.834027968990071,-5.547769571673983,-5.176134552635867
1768731773512,120,-8,-4.240035127733127,-6.468830658118887,-5.5818584897315
1768731773516,120,-8,-4.771998070233332,-6.665193773411417,-6.112361331316946
1768731773520,119,-9,-5.27155914311192,-7.495429664253179,-6.609421211008307
1768731773524,119,-9,-5.586513149391547,-7.769280919237853,-6.921873831349691
1768731773528,119,-9,-5.663023340919283,-7.340179086962306,-6.997024572333804
1768731773532,119,-9,-5.550359656772536,-7.777773240915755,-6.884460523843851
1768731773536,119,-9,-5.341610202963628,-7.299183886983038,-6.676483793413521
1768731773540,120,-8,-5.11434071948289,-6.920144831589557,-6.449356679719232
1768731773544,119,-9,-4.912589637783768,-7.315611389990418,-6.246313138116074
1768731773548,120,-8,-4.760244412513017,-6.76319933079993,-6.091693132774075
1768731773552,120,-8,-4.666791225086095,-6.432290882503779,-5.996345062855997
1768731773556,120,-8,-4.609258319379442,-6.59191163782556,-5.938058065137432
1768731773560,120,-8,-4.520094719723835,-6.711146901595847,-5.848461192134294
1768731773564,120,-8,-4.312210747161618,-6.433314177473353,-5.639076340798382
1768731773568,121,-7,-3.924685621696701,-5.708045059211588,-5.248806609813215
1768731773572,121,-7,-3.3489207374235717,-5.456257656720625,-4.670386123719851
1768731773576,122,-6,-2.626604103934649,-4.614187972187077,-3.946944557432535
1768731773580,123,-5,-1.8437235607450508,-3.68700276914946,-3.164551521967511
1768731773584,123,-5,-1.1336354895752443,-3.433651869327762,-2.455178986565864
1768731773588,124,-4,-0.6664259383311092,-2.734805643632047,-1.9874118851691496
1768731773592,124,-4,-0.5906902683829125,-2.409983316563049,-1.9095853442689663
1768731773596,124,-4,-0.937607556006901,-2.718242825486549,-2.253630003311223
1768731773600,123,-5,-1.5628913452029836,-3.557930336143899,-2.875779866909633
1768731773604,122,-6,-2.2022861592744167,-4.565034879891128,-3.5119009308895706
1768731773608,122,-6,-2.6204966083895247,-4.610976023410986,-3.9274558706828127
1768731773612,122,-6,-2.7399951411662427,-4.51950890383337,-4.046285427144712
1768731773616,122,-6,-2.655365362742305,-4.658832025336773,-3.963130306680816
1768731773620,122,-6,-2.5421061105599914,-4.579923029452516,-3.851343868577648
1768731773624,122,-6,-2.5367404690884734,-4.568431537976654,-3.844688450687503
1768731773628,122,-6,-2.653296883990476,-4.599116172365024,-3.9565666020719306
1768731773632,122,-6,-2.7670273692977947,-4.546922077991285,-4.064333524495861
1768731773636,122,-6,-2.680231793311642,-4.648454519670466,-3.973096245221042
1768731773640,122,-6,-2.2576441184581593,-4.582132007484754,-3.5489836687795244
1768731773644,123,-5,-1.5591350844158365,-3.5649956274571393,-2.8515067815527084
1768731773648,124,-4,-0.8628793266141797,-2.6098532961525516,-2.157372021806646
1768731773652,124,-4,-0.5322654739386546,-2.536985379484367,-1.8278399496734208
1768731773656,124,-4,-0.8007075596818529,-2.6920082687890137,-2.094243349404814
1768731773660,123,-5,-1.6165638739334298,-3.5128009724370495,-2.904351997798377
1768731773664,122,-6,-2.649908549969218,-4.682604131935356,-3.930131403803607
1768731773668,121,-7,-3.459967068659596,-5.435549482410549,-4.734274145571324
1768731773672,121,-7,-3.729267643668551,-5.780019827418879,-5.0019074344813825
1768731773676,121,-7,-3.4330302533433343,-5.390195138850689,-4.7079536801739295
1768731773680,122,-6,-2.844342445064237,-4.870174310668325,-4.122480339292202
1768731773684,122,-6,-2.3624319376442235,-4.290603077715167,-3.6412482075208503
1768731773688,123,-5,-2.254652430021699,-3.850602703509451,-3.5300207714211407
1768731773692,122,-6,-2.4702983116788557,-4.384377379550212,-3.738920873332042
1768731773696,122,-6,-2.6600063392475595,-4.76800285558933,-3.920919951042495
1768731773700,122,-6,-2.403553849441024,-4.542115601465321,-3.658601964861668
1768731773704,123,-5,-1.4936269251636611,-3.5545399088353533,-2.746857166460724
1768731773708,125,-3,-0.0788719910654323,-1.6556698236278398,-1.334332022281378
1768731773712,126,-2,1.4193584461816524,-0.5064708399687365,0.1606654499493287
1768731773716,127,-1,2.5431072688776006,0.2660985114599119,1.2843316191633674
1768731773720,128,0,3.039242818595986,1.4688357369197194,1.7852343816764928
1768731773724,128,0,2.9823785053305483,1.3949791539517404,1.7359885670384352
1768731773728,127,-1,2.715608756659293,0.3933727899986108,1.4762618352982175
1768731773732,127,-1,2.6323141673504957,0.4824802189408403,1.3972465117689996
1768731773736,128,0,2.9307445308502436,1.202034355137184,1.696943752894426
1768731773740,128,0,3.509237920277566,1.6050980716711738,2.2749467716074983
1768731773744,129,1,4.065992385035513,2.182980400157998,2.831575111810393
1768731773748,129,1,4.312088289770664,2.6703133074075747,3.0797648791568566
1768731773752,129,1,4.1393128541622755,2.1543749345452934,2.9115889059064557
1768731773756,128,0,3.641116759642136,1.519210356734498,2.4189603836007585
1768731773760,128,0,3.0011297005388133,1.309393264495102,1.7835051082710551
1768731773764,127,-1,2.348809198572852,0.4218217163329796,1.1340536167023827
1768731773768,126,-2,1.685444576456351,-0.4778193198139606,0.4729030248111556
1768731773772,126,-2,0.9243422153184732,-0.7981783835672949,-0.285644867237713
1768731773776,125,-3,0.0086344112057174,-1.4560392057701323,-1.1985326425863008
1768731773780,124,-4,-0.9968209091303252,-2.803256069512298,-2.2010122565636023
1768731773784,122,-6,-1.9356345205893908,-4.398731965321918,-3.1359906045847485
1768731773788,122,-6,-2.692006977274372,-4.700123897525092,-3.8874411445818193
1768731773792,122,-6,-3.286997804808195,-4.5538564616353865,-4.477847049338392
1768731773796,121,-7,-3.837426171075416,-5.7269789736007715,-5.025723074490797
1768731773800,120,-8,-4.429563857102264,-6.5318471167480805,-5.617217485646492
1768731773804,120,-8,-5.036091248165767,-6.6733849202305535,-6.222990419599983
1768731773808,119,-9,-5.534362444599077,-7.428006285977294,-6.717917050788085
1768731773812,119,-9,-5.784896974567795,-7.843895136450628,-6.961078544440243
1768731773816,119,-9,-5.700879267874888,-7.415271920924045,-6.866676470894534
1768731773820,120,-8,-5.274563091426913,-6.882540140237015,-6.431001588513574
1768731773824,120,-8,-4.5802872029257875,-6.292125711798115,-5.733557181005629
1768731773828,121,-7,-3.790161105650085,-5.832502157925415,-4.948905164316402
1768731773832,121,-7,-3.176264913836131,-5.455560716685795,-4.346033137640097
1768731773836,122,-6,-2.9934384918396013,-4.777268259089541,-4.171626825024832
1768731773840,122,-6,-3.179983597491855,-4.5864173842145535,-4.354642269647762
1768731773844,122,-6,-3.015884092471193,-4.50800452960159,-4.170494237855334
1768731773848,124,-4,-1.065695737120394,-2.710534021104074,-2.189197000204221
1768731773852,129,1,4.320847378232791,2.5112326082194993,3.2244235662779275
1768731773856,139,11,14.007281038360889,12.170945953955693,12.918198208143105
1768731773860,151,23,27.033088230294343,24.55952870927429,25.927494127193313
1768731773864,164,36,40.227552813611155,37.29239748703765,39.09296359029711
1768731773868,174,46,48.99536049167438,47.50944862244469,47.8372478026303
1768731773872,176,48,49.18341257375239,49.22027923012735,48.019344871486766
1768731773876,165,37,39.141867780860345,38.408867831550474,37.991155279303555
1768731773880,145,17,20.72707855069821,18.29833813909061,19.603741430471302
1768731773884,122,-6,-1.453279354357706,-4.477757265524306,-2.544155309841962
1768731773888,102,-26,-22.08282748318654,-24.676771113104003,-23.147411068413422
1768731773892,88,-40,-37.17801460507682,-38.56066286668189,-38.23243022303768
1768731773896,81,-47,-45.04700851593143,-45.71654750676802,-46.109625651612234
1768731773900,79,-49,-46.02305419014554,-47.57636969723139,-47.10408405037357
1768731773904,83,-45,-41.612787418857714,-43.61449828689989,-42.70940105411823
1768731773908,91,-37,-33.763583790303464,-35.58881581179151,-34.86410215185218
1768731773912,100,-28,-24.48751561255188,-26.67513202513284,-25.579951247427793
1768731773916,109,-19,-15.649875533291167,-17.551601863946527,-16.72799108690252
1768731773920,117,-11,-8.681854821884432,-9.792787092497292,-9.746142333359614
1768731773924,121,-7,-4.234579475579072,-5.395449289634399,-5.289480512843341
1768731773928,123,-5,-2.039346617507703,-3.914305216326455,-3.0891887425318574
1768731773932,123,-5,-1.1956954238483406,-3.3050836521522973,-2.2419592669943555
1768731773936,124,-4,-0.7770693630153005,-2.9151904918832496,-1.818825282446764
1768731773940,124,-4,-0.3394250527192974,-2.3970544679819175,-1.3762555028548775
1768731773944,126,-2,0.0314395642004639,-0.7834735945644953,-1.0024752464386943
1768731773948,126,-2,0.1011674598949858,-0.6139680856417458,-0.9321661137623634
1768731773952,124,-4,-0.1113168935912263,-2.538143984141377,-1.1427031065213171
1768731773956,124,-4,-0.2900941345724157,-2.7597901592348766,-1.3144443416489096
1768731773960,125,-3,-0.1125761649386249,-1.436382282855882,-1.1264505121125417
1768731773964,126,-2,0.4715883150088744,-0.8599857031963536,-0.5342956645997898
1768731773968,126,-2,1.2295158194352551,-0.4658333743397229,0.2257410808836051
1768731773972,127,-1,1.8474383887348496,0.2480365835284625,0.8428121697718594
1768731773976,127,-1,2.135494031159542,0.4780974062409122,1.1328150453278494
1768731773980,127,-1,2.1042184112875657,0.3341975146175995,1.108935751517466
1768731773984,127,-1,1.9204292667080347,0.3274139862837066,0.9354799367134006
1768731773988,127,-1,1.808737800499162,0.3795744276263901,0.8324234408156068
1768731773992,127,-1,1.9471309796274996,0.3513153630140617,0.9754258176427704
1768731773996,127,-1,2.3810459310748535,0.4230205899578205,1.4113377101189402
1768731774000,128,0,2.9916614509364106,1.3518502474961394,2.0241685404680516
1768731774004,129,1,3.5601297043967484,2.3313491087369416,2.5965865172546696
1768731774008,129,1,3.91004789556367,2.3410573053406702,2.952157868440535
1768731774012,129,1,4.026636922450376,2.3982387008580828,3.0757231912887657
1768731774016,129,1,4.054092753772391,2.3671491862832093,3.110933408883114
1768731774020,129,1,4.178042014700658,2.4041811315172987,3.2421288735308877
1768731774024,130,2,4.49344141881356,3.2758939894951937,3.5628493401391994
1768731774028,130,2,4.948272282901782,3.3954988698258193,4.021098156398521
1768731774032,130,2,5.379218190790136,3.3320539779910296,4.455138129279707
1768731774036,131,3,5.606652551673546,4.435607540224577,4.686734030086839
1768731774040,131,3,5.543484018457688,4.328748572817222,4.628999835987675
1768731774044,130,2,5.258138846363416,3.3267829156193405,4.350216941456372
1768731774048,130,2,4.942330164336438,3.3788247664414475,4.0420875515487005
1768731774052,130,2,4.8050444264604115,3.2954480021555472,3.9128438585658154
1768731774056,130,2,4.975800391507143,3.5110719507363894,4.090335587560211
1768731774060,131,3,5.47056621066663,4.2274890954496085,4.589562539699332
1768731774064,131,3,6.200491400038372,4.430919857554142,5.322688320068958
1768731774068,132,4,6.9891081128592045,5.281656078567928,6.115196803714293
1768731774072,133,5,7.608856598804763,6.349254812918376,6.740363769099705
1768731774076,133,5,7.862116636613063,6.500112831916776,6.999912629431263
1768731774080,133,5,7.678670460073582,6.175499110945673,6.822855989172689
1768731774084,132,4,7.157722092350076,5.553280334283484,6.308386378261353
1768731774088,132,4,6.519111984705129,5.066200492961064,5.676565530820953
1768731774092,131,3,6.0022264245355235,4.632190133526197,5.166603232954563
1768731774096,131,3,5.7787673515961595,4.1620176550916685,4.949757981044313
1768731774100,131,3,5.916088650564494,4.548445043558636,5.093065128804832
1768731774104,132,4,6.385424898012145,5.18023527617835,5.567754944543543
1768731774108,132,4,7.086004543443702,5.392480949197875,6.273337987585267
1768731774112,133,5,7.863535885760489,6.347575831217023,7.055857139510339
1768731774116,134,6,8.530378866873296,7.388937983470006,7.727939129494839
1768731774120,134,6,8.906425357370718,7.372564031388725,8.109869587147895
1768731774124,134,6,8.876881988581772,7.316865744393784,8.087247482526738
1768731774128,134,6,8.439286422975538,7.258374928943422,7.657372669238215
1768731774132,133,5,7.710139170766631,6.465879188563311,6.935838452028053
1768731774136,132,4,6.872630730726671,5.265046268799446,6.10509224723716
1768731774140,131,3,6.078257269170583,4.514178698954915,5.316526892897458
1768731774144,131,3,5.362819412957455,4.164187472172678,4.6062319149550035
1768731774148,130,2,4.643476284141169,3.3946158341907373,3.891958129391249
1768731774152,129,1,3.7990042985069903,2.3424286468690267,3.053342901001482
1768731774156,128,0,2.767702942478693,1.3467617741635602,2.029098460189861
1768731774160,127,-1,1.5948415316886906,0.4897968875210516,0.8638638931618807
1768731774164,126,-2,0.4045164398031211,-0.8846452706265686,-0.3192443594404146
1768731774168,124,-4,-0.6835598208147302,-2.4943870536593744,-1.4008278248125388
1768731774172,124,-4,-1.631954562655829,-2.847186113629589,-2.343204629887647
1768731774176,123,-5,-2.490159380674072,-3.396256245678768,-3.195569500323677
1768731774180,122,-6,-3.319461382279358,-4.824670367224909,-4.0187838597374395
1768731774184,121,-7,-4.1111434309792365,-5.525591159779276,-4.803662958749061
1768731774188,121,-7,-4.772425291278306,-5.9004910261123795,-5.457519255126963
1768731774192,120,-8,-5.18496950215019,-6.4408411874631675,-5.86259943937265
1768731774196,120,-8,-5.287177749967294,-6.7868209320310875,-5.957620924142369
1768731774200,120,-8,-5.123575830636182,-6.462026350579541,-5.78713636113356
1768731774204,121,-7,-4.824307445816918,-5.838905205688793,-5.4815848796088344
1768731774208,121,-7,-4.5267408822182515,-5.67562103747268,-5.1785074996303955
1768731774212,121,-7,-4.306263988574355,-5.591145676929912,-4.9524076716408
1768731774216,121,-7,-4.1755030287676815,-5.726726042221024,-4.814517766140241
1768731774220,121,-7,-4.131141918555991,-5.435270151678753,-4.7614926115568466
1768731774224,122,-6,-4.173994049689724,-4.939316107923236,-4.795918622060568
1768731774228,121,-7,-4.2775565387396375,-5.538226891166914,-4.892790410482336
1768731774232,121,-7,-4.364404300202254,-5.7594348254813275,-4.97401751136984
1768731774236,121,-7,-4.345253926062457,-5.565238398271945,-4.948417403990883
1768731774240,121,-7,-4.187325418611993,-5.567522700996074,-4.7825296330750895
1768731774244,122,-6,-3.9324098311502578,-4.860028393990788,-4.519398010417779
1768731774248,122,-6,-3.6448482328355167,-4.551631888775567,-4.224756379180025
1768731774252,122,-6,-3.355363186520238,-4.83652245243281,-3.9291160181103417
1768731774256,122,-6,-3.0659152006958657,-4.422610694157525,-3.633206323265384
1768731774260,123,-5,-2.7961302101605603,-3.765543029002911,-3.3561521734039395
1768731774264,123,-5,-2.5989502065862924,-3.639642267739754,-3.1514215569721555
1768731774268,123,-5,-2.518918910040743,-3.7610213244564097,-3.063965198327184
1768731774272,123,-5,-2.5390566552862013,-3.677435954354768,-3.0765610396029626
1768731774276,123,-5,-2.5718293011630236,-3.5375391061280346,-3.1013583794758093
1768731774280,123,-5,-2.5065375159363894,-3.7173009240792463,-3.0277816425063313
1768731774284,123,-5,-2.282756416811155,-3.620445534291517,-2.7959652765713345
1768731774288,124,-4,-1.9393503576320716,-2.8361107326056203,-2.4454623900375685
1768731774292,124,-4,-1.6022518114753974,-2.562726090060466,-2.1023697558534353
1768731774296,124,-4,-1.4207689814073503,-2.7102170997850075,-1.9151139401437989
1768731774300,124,-4,-1.4979404910156386,-2.5076354103362606,-1.98537230271782
1768731774304,124,-4,-1.8491915803639547,-2.8674548551818,-2.3280600008565884
1768731774308,123,-5,-2.39366825899292,-3.557964570364929,-2.863215136852075
1768731774312,123,-5,-2.974423187627842,-3.8744904813735985,-3.4352456958060333
1768731774316,122,-6,-3.4093031719126454,-4.389778773580986,-3.862386017753475
1768731774320,122,-6,-3.565761842022978,-4.842647567721039,-4.011253423899727
1768731774324,122,-6,-3.4258658245837292,-4.528414134527113,-3.863213974337836
1768731774328,123,-5,-3.093909725717839,-3.88251019980392,-3.523220634381967
1768731774332,123,-5,-2.7351560729182145,-3.590829363490904,-3.1577753943393416
1768731774336,123,-5,-2.4963936689020705,-3.6309208377155664,-2.9136345385647675
1768731774340,123,-5,-2.467634737214095,-3.680844254274656,-2.879141298234995
1768731774344,123,-5,-2.6809844418413813,-3.6120913314769463,-3.0846598537603813
1768731774348,123,-5,-3.0964680558611053,-3.8808590239967455,-3.4898918775315417
1768731774352,122,-6,-3.5644055724690906,-4.519376540368898,-3.9463484056079943
1768731774356,122,-6,-3.823507837061927,-4.774420957346564,-4.194668572533867
1768731774360,122,-6,-3.593721411512292,-4.498461843761106,-3.956467273130291
1768731774364,123,-5,-2.7421687194718847,-3.827447379680241,-3.0992673542232434
1768731774368,124,-4,-1.415198604232018,-2.641382037355368,-1.7681546199420062
1768731774372,126,-2,-0.0176421029962754,-0.7689224030670292,-0.3657634350566732
1768731774376,127,-1,0.9891582479121042,0.4669351065735438,0.6483856793633503
1768731774380,127,-1,1.3563208404301088,0.2489435137133848,1.0258008363436395
1768731774384,127,-1,1.1954627278542,0.4011656196017568,0.8767164517294685
1768731774388,127,-1,0.8933764647615037,0.1599127403120146,0.5856089871402819
1768731774392,126,-2,0.8483493122236054,-0.619506928555426,0.5492203834832763
1768731774396,127,-1,1.211892261374147,0.3826248728220009,0.9192973944125749
1768731774400,128,0,1.8183626809796056,1.257466315810813,1.5316593626510344
1768731774404,128,0,2.3455127837392675,1.454225071814454,2.0654939772406995
1768731774408,129,1,2.5684881067745926,2.045265320396641,2.2965040941438706
1768731774412,128,0,2.5019307109384052,1.5379135481638306,2.238937201789025
1768731774416,128,0,2.3311709150342903,1.1709335009313229,2.0773797947677837
1768731774420,128,0,2.21575224523901,1.4982887932243762,1.9709957493379529
1768731774424,128,0,2.1480248591794773,1.1981726830368338,1.9121936372623365
1768731774428,128,0,1.9873394562676503,1.293199284460592,1.760244374700557
1768731774432,128,0,1.6258951152433825,1.3276389951349945,1.4069430820893474
1768731774436,127,-1,1.1177907941166167,0.2990572900806703,0.9064379550474932
1768731774440,126,-2,0.6325091052129995,-0.55973299302637,0.4291193528831079
1768731774444,126,-2,0.2684910996093411,-0.8224742528329992,0.0739948743157252
1768731774448,126,-2,-0.0800194316591104,-0.6162648882955399,-0.2656211216479192
1768731774452,126,-2,-0.6504246598817227,-0.8125181649235156,-0.8284020032584405
1768731774456,124,-4,-1.5944766071707674,-2.524439318609711,-1.765622390903716
1768731774460,123,-5,-2.825245529948333,-3.805032144298494,-2.988350646876209
1768731774464,122,-6,-4.061177886448913,-4.523211533700538,-4.2138785378469485
1768731774468,121,-7,-5.010043229882894,-5.98982811532641,-5.151052053484062
1768731774472,120,-8,-5.534996568380399,-6.341250631526164,-5.665491902048541
1768731774476,121,-7,-5.690593604214951,-6.075153108398265,-5.813798221143424
1768731774480,120,-8,-5.632829349741515,-6.213456396416841,-5.7518450331517395
1768731774484,121,-7,-5.5006675590105125,-6.161483530192495,-5.615529102507236
1768731774488,120,-8,-5.366238699725358,-6.345935867303144,-5.472625385320716
1768731774492,121,-7,-5.259437913630599,-5.95783640630668,-5.3512563151491355
1768731774496,121,-7,-5.195285324607613,-5.505071355862889,-5.2700565133722925
1768731774500,121,-7,-5.160794734517799,-5.735666761381866,-5.2234471552229165
1768731774504,121,-7,-5.100059167765303,-5.723685356338702,-5.161049422562864
1768731774508,121,-7,-4.942568075042919,-5.711735461807339,-5.010366201380991
1768731774512,121,-7,-4.625968680442118,-5.649985003741957,-4.698979459389079
1768731774516,122,-6,-3.9956868317259575,-4.773273681548119,-4.060642186245481
1768731774520,124,-4,-2.5564675615280947,-2.4873938380459597,-2.596191091855822
1768731774524,128,0,0.7116765816002539,1.0071921927571394,0.706258401991041
1768731774528,133,5,7.102060703784872,6.591732282803505,7.125015945991727
1768731774532,143,15,17.318749766261977,16.020278390165984,17.352393162229774
1768731774536,155,27,30.374728480139368,28.585041344562892,30.399761479022715
1768731774540,169,41,43.08985943427184,42.142521031171725,43.09505930089976
1768731774544,178,50,50.8806228636347,51.34728597472304,50.86730149438234
1768731774548,177,49,49.70788539249831,50.266185820070135,49.688840486526026
1768731774552,165,37,38.138290040416585,38.22081817307052,38.13278105463191
1768731774556,144,16,18.254053101752863,17.41866197245439,18.280132077252425
1768731774560,120,-8,-5.149449730661109,-6.811634639715223,-5.08315141677086
1768731774564,99,-29,-26.548831316304785,-27.55710514365647,-26.44798339846175
1768731774568,85,-43,-41.68999465490465,-41.82244377193405,-41.57233717421827
1768731774572,78,-50,-48.64732321796392,-48.587235290778715,-48.53339921158845
1768731774576,79,-49,-47.76592913168082,-47.79289158609407,-47.66820306816639
1768731774580,85,-43,-40.9496928811714,-41.63091205388939,-40.86716558278535
1768731774584,95,-33,-30.852832823665167,-31.7489531392429,-30.774045558404012
1768731774588,106,-22,-20.221763701726164,-20.630829505251572,-20.1328810524272
1768731774592,115,-13,-11.347326223056108,-11.779720882885876,-11.23942247632311
1768731774596,121,-7,-5.583721663579102,-5.650404524733343,-5.455468931238816
1768731774600,124,-4,-3.0696195954415,-2.8176931298999293,-2.9250695955400965
1768731774604,123,-5,-2.8691365115524277,-3.5966741462348755,-2.7130465986130057
1768731774608,122,-6,-3.567912356267189,-4.742296959814537,-3.402617131708441
1768731774612,122,-6,-4.024222744432999,-4.647060838691729,-3.850549402007904
1768731774616,123,-5,-3.8125947747934936,-3.7774299210341473,-3.632602778366216
1768731774620,124,-4,-3.126855012587214,-2.7174224926806296,-2.9437384404047497
1768731774624,124,-4,-2.347975449859757,-2.690875713875566,-2.162576127785502
1768731774628,124,-4,-1.6965592117245047,-2.670902502235384,-1.5054112412657803
1768731774632,125,-3,-1.1917403596411695,-1.6703498440215756,-0.990073012977596
1768731774636,126,-2,-0.7955032943458897,-0.8213100708282464,-0.581717982913873
1768731774640,126,-2,-0.5072223509546432,-0.6293646527635484,-0.2831864836344757
1768731774644,126,-2,-0.327427380844471,-0.8328066588403129,-0.0948772072218728
1768731774648,126,-2,-0.1793478997521989,-0.4882156968031474,0.0621724004218402
1768731774652,127,-1,0.1056025987218443,0.126229718893758,0.3568460801506281
1768731774656,127,-1,0.7056034794688442,0.3707296985472776,0.9652405737373448
1768731774660,128,0,1.6657325419221736,1.19543361129011,1.9310681142764348
1768731774664,129,1,2.7871190412551776,2.3019101615627946,3.0567624448158197
1768731774668,130,2,3.663833877944421,3.4258011121287657,3.938922194802613
1768731774672,131,3,3.9062641202470374,4.156751456621586,4.189324992504773
1768731774676,130,2,3.424526275016367,3.378590866064595,3.7178308332027448
1768731774680,129,1,2.5450537552023915,2.1344914425950035,2.8498471560199805
1768731774684,128,0,1.834536186016094,1.3814369452625757,2.150697620129502
1768731774688,128,0,1.7435926393516463,1.342385247619498,2.0692317252646077
1768731774692,129,1,2.3356856249316573,2.23581153382292,2.6674523340725225
1768731774696,130,2,3.291467531001019,3.3350003541237543,3.6263534569007208
1768731774700,131,3,4.154580564031606,4.125093022098563,4.492290180664226
1768731774704,131,3,4.616020938305736,4.412177616643992,4.959704707020892
1768731774708,131,3,4.6480436604866044,4.277457490175343,5.002169117286725
1768731774712,131,3,4.447158370812854,4.300800139985914,4.814001891559014
1768731774716,131,3,4.2784318361625235,4.306116920950042,4.656344000849374
1768731774720,131,3,4.334047961036167,4.0963741751469,4.719108008355714
1768731774724,131,3,4.661965889612085,4.4963272457817105,5.0513151441879565
1768731774728,132,4,5.1699473742100075,5.121280337763925,5.563669297400476
1768731774732,132,4,5.6909635246046015,5.505041494210866,6.091156303035071
1768731774736,133,5,6.080309933189056,6.0852600270648285,6.488712374599057
1768731774740,133,5,6.294452476909193,6.305410148517741,6.711070288686743
1768731774744,133,5,6.401389892203446,6.300937853928004,6.825301963040863
1768731774748,133,5,6.512482312310779,6.261990113574929,6.943543767990907
1768731774752,133,5,6.689920382389213,6.417723710520818,7.129022105895931
1768731774756,134,6,6.913098313765441,7.130208593212519,7.360569096459205
1768731774760,134,6,7.131719780213814,7.301464421477404,7.586134369907517
1768731774764,134,6,7.336189214082539,7.259102156844123,7.795505949734332
1768731774768,134,6,7.553085112244722,7.310430072653544,8.016879470954207
1768731774772,134,6,7.769564430108523,7.358821864069395,8.239523814400261
1768731774776,135,7,7.893788748182956,8.193674185309812,8.371911082104846
1768731774780,135,7,7.827966169079839,8.250666803741705,8.314778969528449
1768731774784,134,6,7.589308557682126,7.289788856183987,8.083875810204807
1768731774788,134,6,7.337882694208394,7.260699657031119,7.838836273214862
1768731774792,134,6,7.25883789248291,7.420730357483343,7.765174357946135
1768731774796,134,6,7.3953535420091665,7.099803027219343,7.906840402754048
1768731774800,134,6,7.58208654427334,7.413047383129491,8.09917506469815
1768731774804,135,7,7.551375166429563,8.056596135538662,8.074514058373367
1768731774808,134,6,7.140025529143134,7.528098939631874,7.669317342415324
1768731774812,133,5,6.421088493927845,6.101206950549476,6.9569169415397765
1768731774816,132,4,5.634288527304292,5.442422000626484,6.177640046642246
1768731774820,132,4,4.974417452193707,5.083016488765815,5.525720661649659
1768731774824,131,3,4.432232356907342,4.3592030834715825,4.989983371992151
1768731774828,131,3,3.8214977551648097,4.25184084360674,4.382877866332345
1768731774832,130,2,2.9437398132741075,3.32867718572602,3.5072433253233077
1768731774836,128,0,1.7315075132520557,1.24472958830055,2.298821362596126
1768731774840,127,-1,0.2685647998664842,0.256936392806474,0.8431641273502442
1768731774844,126,-2,-1.2762533875643278,-0.8013513515542361,-0.6925559407219269
1768731774848,124,-4,-2.7118163303706924,-2.6089282834887237,-2.120403533435357
1768731774852,123,-5,-3.8612542889244086,-3.7995470968459903,-3.264795213212549
1768731774856,122,-6,-4.606485388562737,-4.636611382952731,-4.006324161615538
1768731774860,122,-6,-4.940263295976891,-4.86441825108221,-4.336030446500523
1768731774864,122,-6,-4.975696761620117,-4.677935185502401,-4.366732811773446
1768731774868,122,-6,-4.886647610207863,-4.7392162677268335,-4.272981809150714
1768731774872,122,-6,-4.818255197487727,-4.6787156064655,-4.2002329802360885
1768731774876,122,-6,-4.830639895230062,-4.745852493688348,-4.208157849234265
1768731774880,122,-6,-4.9001466180718944,-4.800191490363902,-4.272508508567823
1768731774884,122,-6,-4.954411921965973,-4.691230934192173,-4.320767149478699
1768731774888,122,-6,-4.9083160402841255,-4.7905838735284725,-4.268214180986826
1768731774892,122,-6,-4.690273250005495,-4.557021138860195,-4.044144054180926
1768731774896,123,-5,-4.266906468516769,-3.9507372305968063,-3.6162262675749584
1768731774900,123,-5,-3.672320894459019,-3.5246254606717535,-3.019009632858925
1768731774904,124,-4,-3.0310324512927496,-3.0454855403975665,-2.3762203778612223
1768731774908,124,-4,-2.5435185922374024,-2.3646798687132797,-1.8866822903519924
1768731774912,125,-3,-2.4068348312700363,-2.0483589102126905,-1.7460539321122777
1768731774916,124,-4,-2.691588469735694,-2.4268360836692566,-2.024691143306539
1768731774920,124,-4,-3.2571394632858213,-3.070495274722098,-2.583022507256592
1768731774924,123,-5,-3.788281617625702,-3.522364197487125,-3.107663476279544
1768731774928,123,-5,-3.959335324111606,-3.8337126894519686,-3.2743637145484885
1768731774932,123,-5,-3.633610991622645,-3.662348105557574,-2.946540129695685
1768731774936,124,-4,-2.962964554370947,-2.7091239762245487,-2.2749956750441624
1768731774940,125,-3,-2.304015129875974,-1.9068918618616533,-1.6150529742859274
1768731774944,125,-3,-1.994278942325893,-1.5880924942810115,-1.303251957577355
1768731774948,125,-3,-2.1422982168608597,-1.854291405841924,-1.447496983648654
1768731774952,124,-4,-2.5791659092676147,-2.601918822365586,-1.8787689333358248
1768731774956,124,-4,-2.990841077635964,-2.7885583373960543,-2.283900309609898
1768731774960,124,-4,-3.115814435708382,-2.8460839014353474,-2.403149849563126
1768731774964,124,-4,-2.8683224920106687,-2.606842155801906,-2.1523766288303507
1768731774968,125,-3,-2.3353060959538183,-1.883530990118479,-1.6187775484424456
1768731774972,125,-3,-1.6970765161034098,-1.5284953942305193,-0.9812186896749624
1768731774976,126,-2,-1.1499640517490444,-0.9209822223213832,-0.4337948355069433
1768731774980,126,-2,-0.8624727655586754,-0.6812143156659706,-0.1435900200795832
1768731774984,126,-2,-0.9410635045802976,-0.7975595686958797,-0.2175262314855275
1768731774988,126,-2,-1.382125816756095,-0.6836882993880562,-0.6537495868769322
1768731774992,125,-3,-2.0400544632969755,-1.7229904485895482,-1.307926530054522
1768731774996,124,-4,-2.6718439116352486,-2.770030116949151,-1.936940319211663
1768731775000,124,-4,-3.063484164932182,-2.788074329650878,-2.3262674807827324
1768731775004,124,-4,-3.1526731874115974,-2.744576669082647,-2.4137764912664865
1768731775008,124,-4,-3.0515177781731113,-2.67612898292938,-2.311907576815966
1768731775012,124,-4,-2.9596984223125995,-2.775193627107787,-2.2198391559458432
1768731775016,124,-4,-3.0399087088757772,-2.7073324992774883,-2.2992180194547505
1768731775020,124,-4,-3.3319828305910315,-2.8744873640397937,-2.5893282889551017
1768731775024,123,-5,-3.7396086466378256,-3.659526379085539,-2.9940886936090405
1768731775028,123,-5,-4.081282736509182,-3.7448406990569354,-3.332475285426831
1768731775032,123,-5,-4.170078772773996,-3.7172666666476855,-3.4178998207232243
1768731775036,123,-5,-3.882336229408628,-3.768570799669994,-3.1271444041828844
1768731775040,124,-4,-3.1930220985359097,-2.8310956751684184,-2.436142010629279
1768731775044,125,-3,-2.177498431878796,-1.69140012070876,-1.4212745601541883
1768731775048,126,-2,-0.9927669496818864,-0.7174365463764236,-0.2391323037364668
1768731775052,127,-1,0.1512737090541664,0.2625678757488812,0.9028557604825926
1768731775056,128,0,1.0419578987978992,1.231165277721432,1.794719096751479
1768731775060,129,1,1.5549327125571577,2.1480957074269207,2.3123408867526924
1768731775064,129,1,1.7553364539625371,2.352665211115681,2.5182836821912797
1768731775068,129,1,1.9081835455805811,2.2110234054093367,2.6745819897496896
1768731775072,129,1,2.320734983519712,2.377385759262368,3.0874175435647313
1768731775076,130,2,3.0876548196341833,3.0502246693280464,3.852241683862633
1768731775080,131,3,3.944599149815212,4.36851982078498,4.7059979362128965
1768731775084,132,4,4.389857865113596,5.102187600846758,5.148252675140768
1768731775088,131,3,4.016150607345825,4.495163117611048,4.773354505213614
1768731775092,130,2,2.807575011488295,3.0692522006592236,3.566842872775805
1768731775096,128,0,1.1814936109197836,1.3284488769656972,1.9457170571509148
1768731775100,127,-1,-0.2419684235376357,0.0912544045479091,0.5274756507682833
1768731775104,126,-2,-0.9728014249497344,-0.6203805514315923,-0.2008460563922089
1768731775108,126,-2,-0.8813679565779766,-0.7336856416814159,-0.110652602839779
1768731775112,127,-1,-0.2171986376691521,0.2650027727324562,0.5496244869669604
1768731775116,128,0,0.5593560069896796,1.1326359509967987,1.321484612013475
1768731775120,128,0,1.0115933805194044,1.2430370948930165,1.7699274342122502
1768731775124,128,0,0.8913335590123206,1.251886497210569,1.6483557371682394
1768731775128,127,-1,0.1732929600119926,0.4108331124830099,0.9325733852170944
1768731775132,126,-2,-0.99942324818114,-0.912047239925323,-0.2350404560499126
1768731775136,125,-3,-2.378391389950247,-1.6771086871150334,-1.6092550213214771
1768731775140,124,-4,-3.655443408743971,-3.0002654392427273,-2.885692827204726
1768731775144,122,-6,-4.537952966235742,-4.456155788669807,-3.7727984484130648
1768731775148,122,-6,-4.882763862063552,-4.875485265773556,-4.124543167617714
1768731775152,122,-6,-4.804932656434732,-4.649065423624386,-4.051472913701534
1768731775156,123,-5,-4.621945288079399,-3.925314383398762,-3.868192485298545
1768731775160,123,-5,-4.618212493771038,-3.819201247170257,-3.8593301031575464
1768731775164,122,-6,-4.813859782889791,-4.551743508820685,-4.048205793651682
1768731775168,122,-6,-4.960586171580444,-4.856150852775751,-4.19192522096937
1768731775172,122,-6,-4.789685229206043,-4.601558425724786,-4.026948736581721
1768731775176,123,-5,-4.288771222714244,-4.069138900285174,-3.541199457222458
1768731775180,123,-5,-3.721798011685105,-3.6083214660231144,-2.9910357229304916
1768731775184,124,-4,-3.288089786176154,-2.787851976794226,-2.5637175292046503
1768731775188,125,-3,-2.613462446481642,-1.6002446697209922,-1.87759728291729
1768731775192,127,-1,-0.4893457372147782,0.1287579314654952,0.2714558688638384
1768731775196,132,4,4.7538917106312955,5.149388091876232,5.538154880405002
1768731775200,141,13,14.208165942184738,14.242073952112465,14.998844515860773
1768731775204,153,25,27.17755396492748,26.325791758321337,27.951865356351284
1768731775208,167,39,40.62553523089021,40.372256768871786,41.36775035145875
1768731775212,178,50,49.91185775301663,51.06139667667683,50.62069502124426
1768731775216,179,51,50.701780348247766,52.21369397455825,51.39009546359046
1768731775220,169,41,41.07991591374533,42.085746128231776,41.76913016897136
1768731775224,149,21,22.628928141601996,22.489141573191155,23.34034573701673
1768731775228,126,-2,-0.160964706460291,-0.8332601773760402,0.5837871386764304
1768731775232,105,-23,-21.744559187885184,-21.68840237247578,-20.972318980079994
1768731775236,90,-38,-37.55902051092928,-36.99525621158566,-36.77972884695606
1768731775240,82,-46,-45.29249481643232,-44.651261693204894,-44.529334000445544
1768731775244,82,-46,-45.073167518499965,-44.69746862695945,-44.33896073225261
1768731775248,88,-40,-38.8473682202637,-38.73038689767606,-38.13973958064041
1768731775252,98,-30,-29.41724993020136,-28.736152271551056,-28.723632535904656
1768731775256,108,-20,-19.524696162348167,-19.070233842903125,-18.830970691183374
1768731775260,115,-13,-11.2051460061591,-11.47529399863416,-10.502018375316986
1768731775264,122,-6,-5.4861842008720405,-4.990237290708117,-4.7718950322412335
1768731775268,125,-3,-2.403343027731434,-1.389268469737999,-1.6827211967274545
1768731775272,126,-2,-1.2745895208332048,-1.1779332965679223,-0.5546062163803355
1768731775276,125,-3,-1.152850829999179,-1.5690862196658475,-0.4377345592787151
1768731775280,126,-2,-1.2832783760257405,-0.9678079007650072,-0.5735010632762444
1768731775284,126,-2,-1.3308401824958762,-0.5029934923748577,-0.6257461445852984
1768731775288,126,-2,-1.2835816050136486,-0.8384559144393895,-0.5832593670836744
1768731775292,126,-2,-1.1941802071909575,-0.825854007932997,-0.4985185104504425
1768731775296,126,-2,-1.019886604768669,-0.8249040204496247,-0.3272833017203725
1768731775300,126,-2,-0.6642879268249928,-0.8081964963073279,0.0274552059513022
1768731775304,127,-1,-0.1073448622338446,0.4416502417031227,0.5842175500797222
1768731775308,128,0,0.5457497002606087,1.1360516653473076,1.23569840378769
1768731775312,128,0,1.144195357342253,1.2201981841472698,1.830615125797785
1768731775316,129,1,1.6078352678920655,2.120236526814254,2.2901562125602895
1768731775320,129,1,1.9699437555706591,2.228790426772793,2.6491419075742573
1768731775324,129,1,2.3213357163703607,2.4361576479171747,2.9988224678459288
1768731775328,130,2,2.716564665651441,3.1188496512992927,3.3929744801625494
1768731775332,130,2,3.125612720321601,3.226758563079642,3.800213810871796
1768731775336,131,3,3.4675986291483016,4.120003854730158,4.138781589261151
1768731775340,131,3,3.684290837346825,4.2122118757465685,4.351112321527954
1768731775344,130,2,3.774585746490427,3.48133772140162,4.437906887765903
1768731775348,131,3,3.7647846600602977,4.035676853177328,4.426298198718169
1768731775352,131,3,3.6729402057833593,4.330184442104139,4.33307146027057
1768731775356,131,3,3.522362905347572,3.9773670039850977,4.179995142149137
1768731775360,130,2,3.374590535194079,3.39640301231047,4.028940596705415
1768731775364,130,2,3.3211815427591818,3.2803975843870905,3.972845142098338
1768731775368,131,3,3.4398880635580005,4.214497389881393,4.089703558055718
1768731775372,131,3,3.765812215000573,4.181771219800668,4.413725385248893
1768731775376,131,3,4.288445931391677,4.060296198071026,4.933894404727848
1768731775380,132,4,4.950759742058415,5.406510838560418,5.593269009309069
1768731775384,133,5,5.652373414589005,6.180579050370751,6.291448887452316
1768731775388,133,5,6.275471882654386,6.366111746716857,6.91079236921643
1768731775392,134,6,6.724072484244392,6.987121172514034,7.356249346517846
1768731775396,134,6,6.953385764105013,7.260024880737364,7.583930368892423
1768731775400,134,6,6.985525668016943,7.230488535569774,7.61551960692546
1768731775404,134,6,6.913196401802794,7.314778550018988,7.542131888877156
1768731775408,134,6,6.874853608801373,7.272077633581956,7.501164485566267
1768731775412,134,6,6.987573545636635,7.018911391352267,7.610324504132864
1768731775416,134,6,7.268442981024769,7.283763576101125,7.88810668833297
1768731775420,135,7,7.615386587587421,8.164555957887798,8.232870248554507
1768731775424,135,7,7.8840450568189295,8.413278688092076,8.499551555008422
1768731775428,135,7,8.00027033419476,8.145833457891873,8.613524244094162
1768731775432,135,7,8.001788498282849,8.13652719409147,8.612849477951457
1768731775436,135,7,7.976194463488895,8.17275791346773,8.585389585745322
1768731775440,135,7,7.970419838618887,8.258481202299254,8.57768732884996
1768731775444,135,7,7.964068164474827,8.349610294888466,8.569006516117994
1768731775448,135,7,7.921051461514264,8.183340828123331,8.523719497343066
1768731775452,135,7,7.857301609325449,8.09410353749729,8.458548455562392
1768731775456,135,7,7.8557857850891635,8.215335591640189,8.45651952866708
1768731775460,135,7,8.010147737473034,8.196794162757808,8.610343542834546
1768731775464,135,7,8.33559062760564,8.45140721479868,8.934057597858645
1768731775468,136,8,8.714378220666477,9.042236599493744,9.309486673105884
1768731775472,136,8,8.926019943903796,9.251554178808131,9.516942886318091
1768731775476,136,8,8.754202117185963,9.031296250015796,9.341887999620802
1768731775480,135,7,8.105766649541867,8.383588851521043,8.692706038881852
1768731775484,134,6,7.068585898030031,7.2844399472419346,7.657129299596517
1768731775488,133,5,5.875374938197916,6.168247564099042,6.465860529109967
1768731775492,132,4,4.790580426003991,5.165122335375391,5.3811251211594815
1768731775496,131,3,3.971408544955632,4.057535763905856,4.55963693283273
1768731775500,130,2,3.3733271865169896,3.4189439942922952,3.9581386386329696
1768731775504,130,2,2.767457445596879,3.204124872469406,3.349084032894809
1768731775508,129,1,1.8832280961452583,2.282693886111831,2.4622654276673597
1768731775512,128,0,0.5940242368895028,1.0035428462324565,1.1713362340480304
1768731775516,126,-2,-0.9885507749879148,-0.75730278823765,-0.4110120392963292
1768731775520,124,-4,-2.5803005462184005,-2.798400752430036,-1.9998607153255787
1768731775524,123,-5,-3.883572779581203,-3.5456746062234923,-3.299243759930134
1768731775528,123,-5,-4.71075703064143,-3.9850108711292727,-4.125073249024139
1768731775532,122,-6,-5.017944746041181,-4.729216099424446,-4.43525951817138
1768731775536,122,-6,-4.898424549748291,-5.011673435619231,-4.321013812198441
1768731775540,122,-6,-4.575192864229059,-4.59183357321195,-4.001537987894373
1768731775544,123,-5,-4.345631424951647,-3.692707996903628,-3.772334639308636
1768731775548,123,-5,-4.436700558056404,-3.914532684569852,-3.861094078701411
1768731775552,122,-6,-4.8491911090484185,-4.715305702789228,-4.270122411977873
1768731775556,122,-6,-5.335232337405865,-5.124448777643734,-4.752821995560852
1768731775560,121,-7,-5.556942954595977,-5.41254066635714,-4.972614417127588
1768731775564,122,-6,-5.319724012714577,-4.932353451967995,-4.735865489009937
1768731775568,122,-6,-4.716146938139404,-4.620014825790194,-4.134753142620416
1768731775572,123,-5,-4.081884769380154,-4.020966627745885,-3.5033039833533164
1768731775576,124,-4,-3.786075506666592,-2.852365834966448,-3.208916904216199
1768731775580,123,-5,-3.9902407703237666,-3.650367343691507,-3.411919157690394
1768731775584,122,-6,-4.544889082646473,-4.7815111200982905,-3.962436126045107
1768731775588,122,-6,-5.09572340852503,-4.661536515501828,-4.507417253806642
1768731775592,122,-6,-5.306798477653629,-5.071417200409316,-4.713897763685322
1768731775596,122,-6,-5.0366982065599295,-4.742363281621708,-4.443052422196583
1768731775600,123,-5,-4.379413277818701,-3.7870551892580946,-3.788438855458612
1768731775604,123,-5,-3.592627930633532,-3.6728440742122097,-3.004372592661011
1768731775608,124,-4,-2.975255222682387,-2.7129353648320773,-2.3865936842776043
1768731775612,125,-3,-2.737751746495162,-2.0870978108956844,-2.1453906580321114
1768731775616,124,-4,-2.904284232458348,-2.6812325101230248,-2.307215651724682
1768731775620,124,-4,-3.302165977331742,-2.892289521000679,-2.7012706801448885
1768731775624,123,-5,-3.666495461634125,-3.5558245683123055,-3.06261383026619
1768731775628,123,-5,-3.800017962800259,-3.8242742271881385,-3.1932380653331096
1768731775632,124,-4,-3.66821269534954,-2.9921532776058117,-3.0588232598028413
1768731775636,124,-4,-3.363744188486423,-2.7417985455363127,-2.7527385064505143
1768731775640,124,-4,-2.999964832455308,-2.8857387038889732,-2.3878911522718647
1768731775644,124,-4,-2.648340332739827,-2.5196706850969695,-2.034157727978342
1768731775648,125,-3,-2.3575363448359536,-1.9093451972263815,-1.739349455683901
1768731775652,125,-3,-2.1897175528710378,-1.880301342807858,-1.5666109525379075
1768731775656,125,-3,-2.2069717453682953,-1.8527709602429112,-1.579755973361682
1768731775660,125,-3,-2.418192192513633,-1.7999105809194926,-1.7882626444120773
1768731775664,124,-4,-2.749632459238701,-2.5790493004561617,-2.117170079428761
1768731775668,124,-4,-3.0779709102597637,-2.9067467292757088,-2.441399303377367
1768731775672,124,-4,-3.2973741594759227,-2.8244350704685632,-2.6547763159402447
1768731775676,124,-4,-3.358889710627741,-2.9537520691361756,-2.7099414618524427
1768731775680,124,-4,-3.2614263630027143,-2.6621586581085825,-2.6077380492124753
1768731775684,124,-4,-3.034858041241637,-2.74379751771764,-2.378457719552573
1768731775688,124,-4,-2.752185664472644,-2.761184763845214,-2.093889806872663
1768731775692,125,-3,-2.5425924376866016,-1.9391061942336536,-1.8815861393674231
1768731775696,125,-3,-2.5468931137771493,-1.8789720557619405,-1.8811172115475383
1768731775700,124,-4,-2.8155369098983707,-2.6820479376636355,-2.1424048676509604
1768731775704,124,-4,-3.2257882692505304,-2.794783227061779,-2.543610987318635
1768731775708,124,-4,-3.4981925894616555,-2.6635710927058733,-2.807666546854488
1768731775712,124,-4,-3.331008137598564,-3.09569723993222,-2.63487675635808
1768731775716,124,-4,-2.5936426685188865,-2.6553996717846378,-1.8944690332486651
1768731775720,126,-2,-1.4524667931964987,-0.9405982279540904,-0.7508564793113365
1768731775724,127,-1,-0.3060549666016696,0.4698037942331587,0.3993320777817367
1768731775728,128,0,0.4614288024793171,1.062910826028742,1.1729696734642383
1768731775732,128,0,0.7330234183827313,1.148099713320706,1.4531524083096292
1768731775736,128,0,0.7187835538601404,1.146301644143291,1.448905532306057
1768731775740,128,0,0.7772351378331162,1.2020793396545824,1.5169518376454223
1768731775744,128,0,1.1375425694150847,1.3748529321783431,1.8848713662063905
1768731775748,129,1,1.72881260445221,2.1118369964354176,2.48118102330065
1768731775752,130,2,2.238079039124287,3.126124478276062,2.9935931853388116
1768731775756,130,2,2.343905882692124,3.172292297986866,3.1028524338577688
1768731775760,129,1,1.9373714223723204,2.140078833355605,2.703122699881277
1768731775764,128,0,1.168514895420952,1.468546857838931,1.94599206491004
1768731775768,128,0,0.3206863021329393,0.9579245028464828,1.1124763361465864
1768731775772,127,-1,-0.3573193177211812,0.3305060725654983,0.4463313388137208
1768731775776,127,-1,-0.7566697949532861,-0.0411679150841636,0.0530778985674373
1768731775780,126,-2,-0.9420480658779928,-0.6505177868269811,-0.1303905149933837
1768731775784,126,-2,-1.131802299904133,-0.7373459187130228,-0.3174060651464567
1768731775788,126,-2,-1.6072837153818007,-0.8828099582310228,-0.7852083304449314
1768731775792,125,-3,-2.545102352224937,-1.7852563029457738,-1.7101296130479091
1768731775796,124,-4,-3.85660934343012,-2.9457807638584748,-3.0065336055244334
1768731775800,122,-6,-5.179337169732842,-4.727716701051415,-4.31573587965117
1768731775804,121,-7,-6.083452481298188,-5.6985418920116615,-5.210373268649112
1768731775808,121,-7,-6.37283213245795,-5.917508250424974,-5.494639377758876
1768731775812,121,-7,-6.245439027816637,-5.746408879754117,-5.364460837984699
1768731775816,122,-6,-6.1604953713623285,-4.952047458292958,-5.274924131548389
1768731775820,121,-7,-6.490741534078514,-5.74232916004259,-5.594227154816752
1768731775824,120,-8,-7.221279862559025,-6.703324450281506,-6.3060433772499245
1768731775828,120,-8,-7.931655205499791,-6.945857773639361,-6.994469354227092
1768731775832,119,-9,-8.090063762739062,-7.689629643262811,-7.136627267466117
1768731775836,120,-8,-7.462886678014442,-7.001281834047675,-6.505802687770856
1768731775840,121,-7,-6.342898064601982,-5.6624763254172334,-5.393208448696665
1768731775844,122,-6,-5.379716246200803,-4.8321677607066285,-4.437590287218262
1768731775848,123,-5,-5.034393308016294,-3.835648582201187,-4.086243786087527
1768731775852,123,-5,-4.966283453018138,-3.77234683597731,-3.991789628457192
1768731775856,124,-4,-3.812139229652185,-2.954376437000651,-2.7975371810206013
1768731775860,128,0,0.3145847414375105,1.3726801314959758,1.3662155509586529
1768731775864,136,8,8.683585004202811,9.037373417344892,9.753220585674836
1768731775868,147,19,20.72755342932666,20.366113457081468,21.791966025394835
1768731775872,161,33,33.54802858367364,33.998772753017874,34.59336589201148
1768731775876,171,43,42.70042269018938,44.31054304623329,43.728542274379905
1768731775880,173,45,44.070815575153674,46.06392581596237,45.096627973504326
1768731775884,164,36,35.87006255705018,37.273746280735985,36.91388207729922
1768731775888,147,19,19.572975362801373,20.065378951450395,20.651988797082986
1768731775892,126,-2,-0.7372446595582236,-0.6970151124022761,0.3840394773959072
1768731775896,107,-21,-20.152446652152005,-19.944356976040876,-18.995091248209256
1768731775900,93,-35,-34.77038440200393,-33.60789346711741,-33.59359228784898
1768731775904,86,-42,-42.67640289847342,-41.02250511574362,-41.49862775204534
1768731775908,84,-44,-43.89800486586283,-42.659191209084995,-42.72953347948475
1768731775912,88,-40,-39.774027934311434,-38.941087483889355,-38.61216869773677
1768731775916,95,-33,-32.27809919142887,-31.755460889773172,-31.11094948203321
1768731775920,104,-24,-23.522355350681977,-22.71523912738893,-22.33787073455696
1768731775924,113,-15,-15.37058163838587,-14.0289043780189,-14.163509642444748
1768731775928,119,-9,-9.08336156225748,-7.597733596045842,-7.855207371488983
1768731775932,123,-5,-5.091991961892397,-4.115491831636634,-3.8461229705517215
1768731775936,124,-4,-3.060999504296903,-2.5201965168804663,-1.798995653741837
1768731775940,126,-2,-2.239811439798873,-0.978570737395176,-0.9620291593965804
1768731775944,126,-2,-1.900115058516276,-0.7461827962984542,-0.6077688322209709
1768731775948,126,-2,-1.6204906216820936,-0.8754655164140539,-0.3157832741155615
1768731775952,127,-1,-1.315269328954821,0.1317749651891228,0.0002438161633327
1768731775956,127,-1,-1.0698829661490614,0.2735732210277339,0.2568341127685425
1768731775960,127,-1,-0.9410014429332764,0.1828113900452104,0.3992918033251476
1768731775964,127,-1,-0.8681238407098562,0.1519033607741461,0.4888376419036542
1768731775968,127,-1,-0.7292804155622701,0.1557698985583961,0.6460613977350009
1768731775972,128,0,-0.4496363270233248,1.1376812675893189,0.9430236805047956
1768731775976,128,0,-0.054990240082513,1.2457637731791138,1.3521045727599588
1768731775980,128,0,0.3544961565347102,1.224696850716279,1.7738770027763704
1768731775984,129,1,0.6680746607936401,2.119560166690563,2.0999142251526437
1768731775988,129,1,0.8271229520020413,2.154925030400096,2.2734920289568614
1768731775992,129,1,0.8666658694313871,2.1350642415627084,2.3302811839898885
1768731775996,129,1,0.9134360565491098,2.264241379598023,2.396410495375086
1768731776000,129,1,1.1302033201301458,2.1932075428871696,2.632570674116577
1768731776004,130,2,1.6318718651296078,3.1750896558545647,3.150681923323198
1768731776008,131,3,2.4147865915462186,4.064437137836116,3.945675008651844
1768731776012,131,3,3.3251120270505243,4.230914090314685,4.8660425566849
1768731776016,132,4,4.088644356864694,5.169206396510051,5.642158097520112
1768731776020,133,5,4.433246237916458,6.294296454249443,6.004529142299637
1768731776024,133,5,4.281542974332872,6.063967685909146,5.87432341868464
1768731776028,132,4,3.877855601819954,5.1717809710907,5.492084416859185
1768731776032,132,4,3.6919056245630992,5.101920421088935,5.32448903824815
1768731776036,132,4,4.106787968818545,5.318104684843842,5.753833867545559
1768731776040,133,5,5.112444040919136,6.135365690285249,6.771285113481742
1768731776044,135,7,6.266320068254596,8.25014593379518,7.936690239785083
1768731776048,136,8,6.98687997591459,8.963815654273107,8.671251896226494
1768731776052,135,7,6.97060650299255,8.294520103564299,8.673322958023618
1768731776056,135,7,6.4126677661195055,8.12478417312198,8.137482329618901
1768731776060,134,6,5.866155542947407,7.312426571827496,7.613460266352455
1768731776064,134,6,5.851200932827883,7.093282895952388,7.61745335367186
1768731776068,135,7,6.498113027073177,8.127918412889361,8.278266847040712
1768731776072,136,8,7.471385700828491,9.11818528245807,9.262393368705846
1768731776076,137,9,8.216789415980093,10.30012261697797,10.019638662772854
1768731776080,137,9,8.343793116381871,10.134625876896717,10.162853166159678
1768731776084,136,8,7.8682843861238,9.246146478242007,9.708343672048011
1768731776088,136,8,7.162400066031681,9.009306832613776,9.02527096411943
1768731776092,135,7,6.680616830846975,8.183888508633148,8.563899865846393
1768731776096,135,7,6.673003448492125,8.28423691481419,8.572158812186215
1768731776100,136,8,7.0725396509654885,9.11602977033975,8.984535275288565
1768731776104,136,8,7.60361591082568,9.29866858973509,9.52902739231062
1768731776108,137,9,8.010295871029665,9.922968211062557,9.952284176417043
1768731776112,137,9,8.23556963824667,10.284774494149664,10.197084094444048
1768731776116,137,9,8.428140401309376,10.149965356752894,10.410007443077149
1768731776120,137,9,8.779080381326931,10.283330647786592,10.780084196195196
1768731776124,138,10,9.320527581664418,11.104291279581782,11.338545218071426
1768731776128,139,11,9.853171774099486,12.149247153319337,11.88641300092466
1768731776132,139,11,10.061060208484497,12.011780632848636,12.10913910870936
1768731776136,138,10,9.712935231888912,11.465376815354489,11.777109346080293
1768731776140,138,10,8.79304925461158,10.907461046950418,10.875141591061686
1768731776144,136,8,7.484009989606688,9.534693286339786,9.585072914834274
1768731776148,135,7,6.0396430412385715,7.669275936715728,8.159654994145054
1768731776152,133,5,4.651272064582685,6.520960439950735,6.789559477112862
1768731776156,133,5,3.401129475358939,5.958466350064542,5.5567773279972315
1768731776160,131,3,2.312976850875581,4.3711378337393345,4.485351423827439
1768731776164,130,2,1.41646411827672,3.1506285920973585,3.605623351625587
1768731776168,130,2,0.7435693766642542,2.9405796954950025,2.949797231005777
1768731776172,129,1,0.2700438102670257,2.3711359122323183,2.4930580461615324
1768731776176,129,1,-0.1201267726202635,1.9756643023274911,2.11912007786699
1768731776180,128,0,-0.596725209000792,1.4828512467557082,1.6590269841253635
1768731776184,128,0,-1.2862062651882753,0.9247212245122252,0.9873185035761474
1768731776188,127,-1,-2.1749319033871415,0.2428124162121515,0.1174533276420108
1768731776192,126,-2,-3.084695372545781,-0.9895807633680064,-0.773579663069154
1768731776196,125,-3,-3.759198724136097,-1.6432650430925058,-1.4304395253392714
1768731776200,125,-3,-4.020151980153039,-1.8832189220209297,-1.674741115856618
1768731776204,125,-3,-3.882904990774043,-1.743767477273141,-1.521106515252852
1768731776208,126,-2,-3.5393112124117554,-1.0430175972498594,-1.160895353789685
1768731776212,126,-2,-3.220337721570477,-0.7636084042337704,-0.8251218584768525
1768731776216,126,-2,-3.052424131182651,-0.8163367962952018,-0.6404353436956209
1768731776220,126,-2,-3.0226140021183427,-0.7676923519657803,-0.5938333621801524
1768731776224,126,-2,-3.063422265588009,-0.8136198246474047,-0.6175943176665417
1768731776228,126,-2,-3.157484493218643,-1.018053439624136,-0.6943666091540375
1768731776232,126,-2,-3.34932142023736,-0.7597238406444453,-0.8690880781676527
1768731776236,126,-2,-3.650639080898859,-0.8250862600466378,-1.1536608351859543
1768731776240,125,-3,-3.9442645760064994,-1.784857531282239,-1.4302504099290492
1768731776244,125,-3,-4.006314796038767,-1.752635037513849,-1.474163239480927
1768731776248,126,-2,-3.650257588801273,-1.1553719304941543,-1.0994460828333987
1768731776252,126,-2,-2.8723372068361046,-0.5346807234379274,-0.3043926266263445
1768731776256,128,0,-1.877952274760955,0.8705165746095519,0.7041665374389715
1768731776260,128,0,-0.9777020681509544,1.59785590153653,1.6168301833841907
1768731776264,129,1,-0.4368133871519652,1.7888906724304927,2.171612167691756
1768731776268,129,1,-0.3652434526918677,2.3231802369042516,2.2609528205057847
1768731776272,129,1,-0.6822562843403888,1.994175205727618,1.9648552537726436
1768731776276,128,0,-1.153221227591122,1.2988317227314456,1.514617152561068
1768731776280,128,0,-1.4906979764026649,1.2595938171835428,1.1944531882083458
1768731776284,128,0,-1.4947927372409335,1.01400682362898,1.2036647957240023
1768731776288,128,0,-1.1689084251973438,1.1858575137433245,1.5412833196216744
1768731776292,129,1,-0.7289622743182316,2.0641273940397427,1.9948125310486449
1768731776296,129,1,-0.4708382996381125,2.2749856324599107,2.2699564999408453
1768731776300,129,1,-0.5641669262382145,2.2773886207265335,2.195655371765427
1768731776304,129,1,-0.9222434724691484,1.965561947677324,1.8556749223372129
1768731776308,128,0,-1.2668041562360774,1.242598595697725,1.5266265915097212
1768731776312,128,0,-1.3572247739528314,0.9918575449745994,1.450074428411149
1768731776316,128,0,-1.1987851097423694,1.3654719546095082,1.6228240783386674
1768731776320,129,1,-1.036145278274141,2.2091937385883567,1.801147246703613
1768731776324,129,1,-1.1211091728728952,1.99078061337124,1.7325207747844449
1768731776328,128,0,-1.4646775887336885,1.2434955992306491,1.4048965520131136
1768731776332,128,0,-1.813249914888163,0.9392902551455188,1.071596836722698
1768731776336,127,-1,-1.8787756726760672,0.4600729941567618,1.0209507378107827
1768731776340,128,0,-1.6060160100566918,1.108235328729017,1.3083039376980217
1768731776344,129,1,-1.2201560312572928,2.08884909025186,1.7083786178903748
1768731776348,129,1,-1.005753340091332,2.1623127064873593,1.937038140668582
1768731776352,129,1,-1.0254771717037552,1.9585146883459983,1.9326389455355684
1768731776356,128,0,-1.0436395434569223,1.5040604824340318,1.9311808010289
1768731776360,129,1,-0.7230045932158182,1.9984814253305296,2.2684076617359508
1768731776364,130,2,0.0840249740614222,3.259080223423743,3.0898240886708654
1768731776368,131,3,1.1951159788194787,3.969692448030715,4.2127861320972215
1768731776372,132,4,2.213217153575017,5.1253266293916875,5.242136065239961
1768731776376,133,5,2.803854537929694,6.3941705879496205,5.845604179433429
1768731776380,133,5,2.9263494231789133,6.006018422449057,5.983446358833459
1768731776384,132,4,2.841897396958304,5.357731643371646,5.916312213078922
1768731776388,133,5,2.892939116657249,5.7755400917673265,5.984709415250206
1768731776392,133,5,3.238920944617879,6.383692948452372,6.345433906202684
1768731776396,134,6,3.7593534126218455,7.105319980590492,6.8767845287664215
1768731776400,134,6,4.168456478123265,7.300920469646559,7.29499131048123
1768731776404,134,6,4.211985924116494,7.081224527038342,7.349578769048773
1768731776408,134,6,3.798516427499912,7.000103140066999,6.9509054450719585
1768731776412,133,5,3.0149085177806554,6.19889433694881,6.183934233884959
1768731776416,132,4,2.055483436703538,5.245641214812217,5.2397440938141955
1768731776420,131,3,1.112834520572923,4.211139997276577,4.3097286380775355
1768731776424,130,2,0.2821333533052188,3.143413976361387,3.4904395571064297
1768731776428,130,2,-0.4636597860785099,2.928767955405821,2.756549501423115
1768731776432,129,1,-1.205769713059135,2.291636567776668,2.0271011713193245
1768731776436,128,0,-1.9768555199133304,1.1066204352270956,1.268708454859833
1768731776440,127,-1,-2.7223560369116986,0.4265612925820114,0.5354872829487811
1768731776444,127,-1,-3.3621848617800447,-0.1562716495713509,-0.0922496219509066
1768731776448,126,-2,-3.884457191000882,-0.7141328459399272,-0.6022364798238218
1768731776452,126,-2,-4.36982584431148,-1.118389604868497,-1.075273104849532
1768731776456,125,-3,-4.912093254291918,-1.4455381468523791,-1.6059525233869767
1768731776460,125,-3,-5.501470315108355,-2.0191242846836075,-2.1849159675760417
1768731776464,124,-4,-5.9836859580164345,-2.747046864770825,-2.6566133250365995
1768731776468,124,-4,-6.151908578137346,-3.086315977980981,-2.8116971059578386
1768731776472,124,-4,-5.904606783591991,-2.8133308830691734,-2.5478317021419445
1768731776476,125,-3,-5.3299596204916195,-1.6681285679855002,-1.9565537766176435
1768731776480,126,-2,-4.6460630009247526,-0.8414419844068582,-1.2618122214170528
1768731776484,126,-2,-4.067652601872887,-0.914320711274853,-0.6815687567436798
1768731776488,126,-2,-3.7107673581997744,-0.91316182783359,-0.3284854242699369
1768731776492,127,-1,-3.5373736833085676,-0.0749593625969456,-0.1551432224774836
1768731776496,127,-1,-3.2526550483036063,0.728885595888068,0.1433719530030577
1768731776500,128,0,-2.155899945264963,0.635513988737074,1.2705204611620822
1768731776504,131,3,0.8754044688062823,4.742034837752872,4.338915340733518
1768731776508,140,12,7.025598683900215,12.314153021510451,10.515454842276435
1768731776512,145,17,16.726846055266527,18.74859925307337,20.22125905346073
1768731776516,157,29,28.71170314677125,29.9224795726347,32.19272902957397
1768731776520,170,42,39.677925532698495,43.431338732844225,43.14059242010605
1768731776524,177,49,45.23677327664543,49.96042339281296,48.68765752641638
1768731776528,174,46,41.956667290374014,47.00521541853407,45.40922368819653
1768731776532,160,32,29.300250300070186,33.06697665640445,32.77181860091738
1768731776536,139,11,10.12666710027687,12.502683304432134,13.633570739547872
1768731776540,119,-9,-10.583419706737605,-8.092763112364583,-7.03504194805546
1768731776544,102,-26,-27.90025411460096,-24.50563963907504,-24.32130081341746
1768731776548,93,-35,-38.700385070124895,-34.425119477539155,-35.11442431166187
1768731776552,88,-40,-42.24212387626319,-38.46503679232616,-38.67056373650175
1768731776556,91,-37,-39.68603387789992,-35.96858800329373,-36.13452459986238
1768731776560,97,-31,-33.17482807159723,-29.676712688914375,-29.63199040634823
1768731776564,105,-23,-25.002134612135468,-21.91046240359127,-21.45038789512153
1768731776568,114,-14,-17.06801991477231,-13.046197833531728,-13.496272240108247
1768731776572,120,-8,-10.60087781970736,-6.787539891250235,-7.0091492172259935
1768731776576,124,-4,-6.099522018788425,-2.747709548884398,-2.494332255334504
1768731776580,127,-1,-3.469335096713661,0.1109946663354101,0.1434871587881792
1768731776584,128,0,-2.2793287818978083,1.2563060135673767,1.339307894125432
1768731776588,129,1,-2.012198568569527,1.838760760350049,1.613164611390833
1768731776592,128,0,-2.2119396989436204,1.3790507423563454,1.4209794201603674
1768731776596,128,0,-2.5259863029533394,1.0243251523358827,1.1135625965269536
1768731776600,128,0,-2.700126212990164,1.3460117990391285,0.9439499223801024
1768731776604,128,0,-2.582773535654229,0.9828944581931698,1.0649840207970276
1768731776608,128,0,-2.150720906470706,1.158965831255213,1.502878422498552
1768731776612,129,1,-1.510180982111401,2.116297745609258,2.152645437549867
1768731776616,130,2,-0.8153579280305618,3.202821178259992,2.8572150040259165
1768731776620,131,3,-0.1352936579273578,4.201067501879075,3.5434926533991233
1768731776624,131,3,0.5927069304465507,4.043605821336242,4.274134618613005
1768731776628,131,3,1.4340568470002593,4.200707628362155,5.1188228386977705
1768731776632,133,5,2.275995828250012,6.043768662804274,5.967751645873068
1768731776636,134,6,2.832986192670093,7.292660155336501,6.533136477247737
1768731776640,134,6,2.888418721311342,7.053077533363915,6.594272245482879
1768731776644,133,5,2.5247220855014616,6.199839754198551,6.233421489766301
1768731776648,132,4,2.0718258196944292,5.069665538134963,5.784342340906621
1768731776652,132,4,1.8142847371922368,5.160561894750382,5.533863221724132
1768731776656,133,5,1.7704021454554184,6.21474067767933,5.4977290314827085
1768731776660,133,5,1.763927458358002,6.052037569881087,5.495765009429652
1768731776664,132,4,1.6730561952365803,5.270249707264562,5.406071584129883
1768731776668,132,4,1.5698883118824143,4.949431312053562,5.304367005613447
1768731776672,132,4,1.630952565253024,5.317550037311885,5.36989573275667
1768731776676,133,5,1.9605928209882304,6.030991743477051,5.706187239866082
1768731776680,133,5,2.5206616015706156,6.233476420472157,6.272596438693483
1768731776684,134,6,3.2043342298758013,7.108610680839667,6.960870490689218
1768731776688,135,7,3.94279365094565,8.095777123204835,7.702344714256809
1768731776692,135,7,4.724605779776358,8.180051032136756,8.486264465286892
1768731776696,136,8,5.511585079111256,9.14097823573882,9.274842968988905
1768731776700,137,9,6.1495501742473415,10.14050351485358,9.914113385072548
1768731776704,137,9,6.393067765656142,10.192184021860657,10.159251925168268
1768731776708,137,9,6.062246280600165,10.030091354164586,9.831416440065055
1768731776712,136,8,5.219487123566493,9.226574051676325,8.993587655520201
1768731776716,135,7,4.214951183761518,8.08117353826889,7.99516564183127
1768731776720,134,6,3.5336266251141195,7.20160964454785,7.3192412662027
1768731776724,134,6,3.5231216978058386,7.146598425380442,7.311435519487916
1768731776728,135,7,4.183822276887205,8.077623967758006,7.971255053982662
1768731776732,136,8,5.173237620966169,9.195016021331082,8.957380322032778
1768731776736,137,9,6.023904875131484,10.069179687514172,9.805521293715064
1768731776740,137,9,6.422209130461734,10.240232485551564,10.205337109687443
1768731776744,137,9,6.369036358633579,10.074924452636017,10.158179534748072
1768731776748,137,9,6.144668135724541,10.181413214258512,9.940987360393136
1768731776752,137,9,6.123810141421274,10.07095263631948,9.924019882792036
1768731776756,137,9,6.548830867189132,10.194595960042657,10.348114372770096
1768731776760,138,10,7.376834906841582,11.117675503824076,11.172765125199268
1768731776764,139,11,8.291539760528792,12.19393581198636,12.085134201189126
1768731776768,140,12,8.891552224102828,13.072589756065897,12.68520331735252
1768731776772,140,12,8.939334943834957,13.172749637174674,12.734581218203818
1768731776776,139,11,8.484642465537188,12.077543936323316,12.281778920131089
1768731776780,138,10,7.766361730313978,11.23123334405986,11.56501804378739
1768731776784,138,10,6.9907303891075605,11.076041244698573,10.790093874877703
1768731776788,137,9,6.187745737699494,10.211714053649407,9.98668890199102
1768731776792,136,8,5.255182944415839,9.026697237548303,9.052767790064593
1768731776796,135,7,4.121028398188566,8.232009656969185,7.916928318532325
1768731776800,134,6,2.86394762705197,7.040183928026454,6.658597419811015
1768731776804,132,4,1.6815160243083531,5.282948615210948,5.476121404914408
1768731776808,131,3,0.73375032004322,4.01016962319731,4.529419228502867
1768731776812,131,3,0.0119836990028188,4.228422936956873,3.807981992550234
1768731776816,131,3,-0.6351102824700336,4.049746030635313,3.1584964799049704
1768731776820,129,1,-1.355488361721505,2.170748554636293,2.433801614165972
1768731776824,128,0,-2.1891976594084426,1.1942782603851765,1.5970063962552377
1768731776828,128,0,-3.0863240860643453,1.0583202779024212,0.6996128291216804
1768731776832,127,-1,-3.973180864519237,0.2117558538176023,-0.1864785478685415
1768731776836,126,-2,-4.779322181344643,-0.9367635674668472,-0.9933507080874392
1768731776840,125,-3,-5.435298133752406,-1.859532548298613,-1.6520379004863033
1768731776844,125,-3,-5.885232311754923,-1.7616874353194358,-2.1054445902320458
1768731776848,125,-3,-6.111940007362534,-2.0170423897811403,-2.33514627500233
1768731776852,124,-4,-6.1478150739926765,-2.6746108147723824,-2.3731456487067533
1768731776856,125,-3,-6.0610094581763825,-2.065512344703805,-2.2882690632207945
1768731776860,125,-3,-5.921016666524054,-1.7297015189819054,-2.151231883599288
1768731776864,125,-3,-5.763561583985131,-1.902344454588876,-1.997988585591251
1768731776868,125,-3,-5.588520270245668,-1.8933693619130636,-1.826926600309498
1768731776872,125,-3,-5.39333887759533,-1.757254893092472,-1.6340598188211108
1768731776876,126,-2,-5.190728645206871,-1.0268146060303844,-1.4328558741391109
1768731776880,126,-2,-4.9754950839565,-0.7183301395449626,-1.2202406938361292
1768731776884,126,-2,-4.690410132191173,-0.9766751381580622,-0.9396633195422808
1768731776888,126,-2,-4.266213289899587,-0.7801853074510998,-0.520432922184075
1768731776892,127,-1,-3.7148049592056056,0.1144897085838486,0.0267774723981067
1768731776896,128,0,-3.1639075512160675,1.098837864944381,0.5737061290457143
1768731776900,128,0,-2.775032630664623,1.186590926285105,0.9579316234580352
1768731776904,128,0,-2.6219262283313975,1.0659282716683969,1.1061919503938134
1768731776908,128,0,-2.647721172172288,1.2143007795843588,1.0765303670068032
1768731776912,128,0,-2.7272455495634533,1.0824540153648856,0.994077838307462
1768731776916,128,0,-2.76315036575121,1.1510486121565902,0.9546715873837328
1768731776920,128,0,-2.7387443070586235,1.161506000689131,0.9736501374269552
1768731776924,128,0,-2.706902181179851,1.0340080765652382,0.9983959187128306
1768731776928,128,0,-2.7411821684358637,1.3096188238008524,0.9570776235791
1768731776932,128,0,-2.885905508756982,0.8970497856760786,0.8070850373203876
1768731776936,127,-1,-3.127910960552209,0.4282528325615463,0.5616224343151482
1768731776940,128,0,-3.393428717810427,0.8180488240977566,0.2925997520783874
1768731776944,127,-1,-3.5698438211360064,0.4284478467145614,0.1107410151306293
1768731776948,127,-1,-3.559423046998155,-0.1328096542097994,0.1139140557787061
1768731776952,127,-1,-3.3501893561101608,0.3540926529258421,0.3158422630484225
1768731776956,128,0,-3.0431877311192004,0.985893424068148,0.6166098530227789
1768731776960,128,0,-2.787523463508786,1.2302314043885547,0.8666526754685174
1768731776964,128,0,-2.6668897552166015,1.081643834306074,0.9813229487058448
1768731776968,128,0,-2.6441774890140257,1.1053210483997609,0.9974742099037864
1768731776972,128,0,-2.6172248658908197,1.2205416869458865,1.017697095192868
1768731776976,128,0,-2.528628681592825,1.0040195881809395,1.0997326156132323
1768731776980,128,0,-2.4213866704219296,1.3444693801316183,1.2002482384537394
1768731776984,129,1,-2.384350959956322,1.8614466971208976,1.2297774431837722
1768731776988,128,0,-2.4404439052866036,1.397547599371055,1.1656247023847324
1768731776992,128,0,-2.492991587970118,0.858816045142621,1.10568738611805
1768731776996,128,0,-2.3867019458436793,1.3940576821930806,1.205958815117728
1768731777000,129,1,-2.0204290532965015,1.9784756278742095,1.5665877536295827
1768731777004,129,1,-1.4088396370776168,2.1838485512068746,2.171115137966891
1768731777008,130,2,-0.6588481516911712,3.148614450578495,2.911802260683604
1768731777012,131,3,0.0972529865651758,3.993019648740914,3.657209530581825
1768731777016,131,3,0.7575543478363822,4.361226369963347,4.30736828158425
1768731777020,132,4,1.2731362062839622,4.928349762232003,4.815038197615913
1768731777024,132,4,1.6514837634740551,5.313772278948916,5.187729083993751
1768731777028,133,5,1.9608184710076833,5.958161699790795,5.491865044917656
1768731777032,133,5,2.3215577102238143,6.202303266990868,5.845757575022179
1768731777036,133,5,2.8462254020145705,6.13883123149265,6.361099565700807
1768731777040,134,6,3.5337724749775665,7.160855630331897,7.03735968556322
1768731777044,135,7,4.202277276866179,8.093440264652827,7.693760191481628
1768731777048,135,7,4.546493182030043,8.167088225071836,8.026539569096023
1768731777052,135,7,4.309078846305229,7.978212790957536,7.7798357989473
1768731777056,134,6,3.4550838961646297,7.37517778075732,6.91914595917159
1768731777060,133,5,2.2258233124111357,5.896623725429451,5.684502030742218
1768731777064,131,3,1.0209181802874476,4.399255343623452,4.473129862714686
1768731777068,131,3,0.170327358112904,3.8322329212988024,3.612943377403792
1768731777072,130,2,-0.2569571807620042,3.3181216175663057,3.1725548103713224
1768731777076,130,2,-0.4745620405075943,3.054482083961674,2.9401157923296495
1768731777080,130,2,-0.8125749392072805,3.171612553265715,2.5887593616566
1768731777084,129,1,-1.4782553915980323,2.2109173216033406,1.9139774796581563
1768731777088,128,0,-2.408976542598247,0.894762920501813,0.9783133688067944
1768731777092,127,-1,-3.312226865392944,0.380029809307298,0.0704412389834852
1768731777096,127,-1,-3.8559081838194578,-0.1434699052819568,-0.4826300011110114
1768731777100,126,-2,-3.885007186468251,-0.4984442883224693,-0.5274932441026428
1768731777104,127,-1,-3.536361150667501,-0.1970013779511659,-0.196864179616194
1768731777108,127,-1,-3.171319583948262,0.3428673496179539,0.1545626620787573
1768731777112,128,0,-3.1396726546726574,0.9064579518300688,0.1803478772226909
1768731777116,127,-1,-3.520046120368206,0.307227435947335,-0.2013281105334292
1768731777120,126,-2,-4.049430851667219,-0.8968543771388725,-0.7354343941861093
1768731777124,126,-2,-4.3367702597366815,-0.8612207888593629,-1.0380696592539729
1768731777128,126,-2,-4.2052154928399545,-0.9177570241554742,-0.9325187586902092
1768731777132,126,-2,-3.845982866457181,-0.9330298226469969,-0.6010844597360729
1768731777136,127,-1,-3.5622651067846363,0.2548123604755155,-0.334344701941241
