timestamp_ms,ecg_u8_raw,ecg_counts_raw_int,ecg_counts_filt_monitor,ecg_counts_filt_diagnostic,ecg_counts_filt_st
1769145573140,126,-2,-1.3592964882264935,2.379512906373699,2.101041541378497
1769145573144,126,-2,-1.5854349062700466,2.3474891652876817,1.8783469760129143
1769145573148,125,-3,-1.9601519630760147,1.5206174866452506,1.5068485749542038
1769145573152,125,-3,-2.2868972869828914,1.225334635676694,1.183190997268683
1769145573156,125,-3,-2.390397174713997,1.5342925456575192,1.083078952406236
1769145573160,125,-3,-2.2385634684089677,1.297457741338388,1.239338415478756
1769145573164,125,-3,-1.9569006878219668,1.5174727867620557,1.526355342108948
1769145573168,126,-2,-1.7310610429330835,2.407305434938621,1.7563402265029378
1769145573172,126,-2,-1.6759634484742123,2.3483048125926747,1.8116915917796976
1769145573176,125,-3,-1.779534897385863,1.5238504193101157,1.7047696337203817
1769145573180,125,-3,-1.9548749391965377,1.2829750827139923,1.526800149161185
1769145573184,125,-3,-2.0987895916976473,1.674025559113459,1.3860113009998336
1769145573188,126,-2,-2.029672197368112,2.2203596909300627,1.4655131968463109
1769145573192,126,-2,-1.3494950116241935,2.672605282661212,2.160057541174453
1769145573196,128,0,0.5405875075185094,4.183656261582623,4.062380718721515
1769145573200,131,3,4.100684823613331,7.723050831907524,7.627043965099178
1769145573204,136,8,9.12111804590143,12.26587233912101,12.642617565445937
1769145573208,141,13,14.405268934046894,17.682239691158966,17.915870033193205
1769145573212,146,18,18.040393478459503,22.30905251059147,21.540914322160575
1769145573216,146,18,18.257742254536957,22.51835544340644,21.755671936299095
1769145573220,142,14,14.419245600082622,18.49672440599879,17.92518932845777
1769145573224,135,7,7.488355723917512,11.4277755907506,11.010996526153482
1769145573228,126,-2,-0.3642980193437894,2.667615593414375,3.1775273139159648
1769145573232,120,-8,-6.7976196238578925,-3.693314243704525,-3.241959307144766
1769145573236,117,-11,-10.337557072316594,-6.298691706276499,-6.779015102347142
1769145573240,117,-11,-10.825784216524628,-6.700700081436052,-7.275036967658085
1769145573244,118,-10,-9.144389057969343,-5.252293252959712,-5.605422026829174
1769145573248,121,-7,-6.545730758338513,-2.659378705391795,-3.013643218204461
1769145573252,123,-5,-4.0509170652938815,-0.3087529928075678,-0.515832779952994
1769145573256,125,-3,-2.1856121672989413,1.3707659336899392,1.3605163478992786
1769145573260,126,-2,-1.0378585783843672,2.656251291368173,2.5210162115260912
1769145573264,127,-1,-0.4591224885560214,3.47748943468728,3.108337153209353
1769145573268,127,-1,-0.240714280517904,3.610308105858788,3.329525080204392
1769145573272,127,-1,-0.2043834244494468,3.520671339892115,3.3654474734355513
1769145573276,127,-1,-0.2299434440507325,3.552863916359443,3.3401048344729753
1769145573280,127,-1,-0.2546331599640468,3.5725450761250968,3.3180973873604556
1769145573284,127,-1,-0.2584502484755031,3.579850121300753,3.3186120401456094
1769145573288,127,-1,-0.2435288586795345,3.5807953469766542,3.337743694122598
1769145573292,127,-1,-0.219978071849206,3.579624926959684,3.364590342595098
1769145573296,127,-1,-0.2032813194512995,3.5629575819521375,3.384275030240434
1769145573300,127,-1,-0.2123800815143579,3.6044570842396952,3.3788067021624815
1769145573304,127,-1,-0.2546494588225317,3.614243785298985,3.3409217483866973
1769145573308,127,-1,-0.3029398403171153,3.5750772283997723,3.2969871899756567
1769145573312,127,-1,-0.2919479623121019,3.6550714704294753,3.3116544624196154
1769145573316,127,-1,-0.1557124648791963,3.518876391417499,3.451129887100653
1769145573320,127,-1,0.1128469462645305,3.72331694317105,3.7231248719172942
1769145573324,128,0,0.4369963542454731,4.532253849618441,4.050956598956217
1769145573328,128,0,0.701861069568207,4.714390973345772,4.319327089273123
1769145573332,128,0,0.8350307207588238,4.5603679692585,4.455845574058081
1769145573336,128,0,0.8473969239093297,4.662766550294616,4.471980586301155
1769145573340,128,0,0.8040819724381725,4.636851795672285,4.433118011584652
1769145573344,128,0,0.7655995395187648,4.655614577086407,4.399303321149194
1769145573348,128,0,0.7543693821178087,4.665337454660062,4.392362316437465
1769145573352,128,0,0.7619826874537595,4.633568721410647,4.403799648910741
1769145573356,128,0,0.7742889067257761,4.66584377054962,4.419740442655758
1769145573360,128,0,0.7866510482600351,4.659119593002055,4.435703734769081
1769145573364,128,0,0.8003128735985351,4.6994395034138945,4.452931154813004
1769145573368,128,0,0.8100188461217501,4.668747009009643,4.466359689993693
1769145573372,128,0,0.8003015376809524,4.674482378599783,4.460946151194755
1769145573376,128,0,0.7608556353039075,4.6897627489155935,4.426528639499479
1769145573380,128,0,0.7127786400896317,4.659128711283389,4.383696581730565
1769145573384,128,0,0.7182924195062926,4.777752671889033,4.393928956334424
1769145573388,128,0,0.8486997259598952,4.616673847350566,4.528275256002199
1769145573392,128,0,1.1218843678633128,4.795691356085957,4.804927945867198
1769145573396,129,1,1.4640272632561584,5.606605924398778,5.150489874579424
1769145573400,129,1,1.7437578642221525,5.793804356670192,5.434031035719618
1769145573404,129,1,1.8611033509199064,5.6957375697697605,5.5561104676346105
1769145573408,129,1,1.819195952889569,5.746921675972693,5.519933577921636
1769145573412,129,1,1.723907936914118,5.7073914239996855,5.430479340627305
1769145573416,129,1,1.714992650622338,5.751930827182445,5.426442533481443
1769145573420,129,1,1.8729729958689671,5.684324085882648,5.58841252594927
1769145573424,129,1,2.1595841418112336,5.885236938758002,5.879060713711812
1769145573428,130,2,2.4409932547194386,6.570852384597481,6.164881800577673
1769145573432,130,2,2.5911356025846333,6.969971458381646,6.319321620290752
1769145573436,130,2,2.592800392585412,6.493758645909849,6.32527227207963
1769145573440,129,1,2.538883758711992,6.027443798256083,6.276662800608503
1769145573444,130,2,2.5352721827575437,6.57038619747306,6.279645688680736
1769145573448,130,2,2.612479571219638,6.933719514752616,6.363305524513616
1769145573452,130,2,2.7281903367335665,6.684123359983461,6.483840630588037
1769145573456,130,2,2.8273801487112724,6.782190004806037,6.586531317193301
1769145573460,130,2,2.8775310635415905,6.85038833248365,6.640417738913179
1769145573464,130,2,2.85627373862433,6.711651524516754,6.624073465780667
1769145573468,130,2,2.734765813274036,6.919314461202195,6.508380782967286
1769145573472,130,2,2.4918113763200673,6.691853204937926,6.271618960132846
1769145573476,129,1,2.142729890938303,5.861399104122432,5.92894921264038
1769145573480,129,1,1.7471132842251125,5.804223894177172,5.53957921841061
1769145573484,129,1,1.384647813479984,5.781518136418438,5.182366535105012
1769145573488,128,0,1.111944133923179,4.939046991273002,4.913779539194401
1769145573492,128,0,0.9201363233530402,4.678060618226075,4.72617136079538
1769145573496,128,0,0.726140628227131,4.984734988327945,4.5378027951026345
1769145573500,128,0,0.4275361834776207,4.656603915709381,4.246203125208616
1769145573504,127,-1,-0.0059340587794894,4.030832221949778,3.819862509993874
1769145573508,127,-1,-0.4896884637611631,3.689713575412173,3.3422846753117494
1769145573512,126,-2,-0.8873083287062435,3.022575813800632,2.949853117487379
1769145573516,126,-2,-1.133911479940411,2.6538757255747787,2.7081808933582048
1769145573520,126,-2,-1.305078105404254,3.0549114715766543,2.542411380497636
1769145573524,126,-2,-1.5573549681132008,2.6678076286299293,2.296299277915986
1769145573528,125,-3,-1.9858475771345283,2.0931701135258067,1.8746222806961177
1769145573532,125,-3,-2.526166757627163,1.705288413362387,1.3412898850474857
1769145573536,124,-4,-2.990657602230677,0.949919927740288,0.8833795754436367
1769145573540,124,-4,-3.2119497598577222,0.8814065056771496,0.6681655503004595
1769145573544,124,-4,-3.1759688629965352,0.8067043635910958,0.7102296793957252
1769145573548,124,-4,-3.0316568415135063,1.086759156012918,0.8609809327923561
1769145573552,125,-3,-2.9634481023052937,1.7000113020854313,0.9356211788663598
1769145573556,124,-4,-3.0342371964529304,1.0369951775129365,0.8708293404272691
1769145573560,124,-4,-3.142247818568974,0.8049630352609745,0.7688112148663284
1769145573564,124,-4,-3.132071814724438,0.9424179414928876,0.7859211913082387
1769145573568,124,-4,-2.9480122340653736,1.0019906812380546,0.9780489357144276
1769145573572,125,-3,-2.6767367592855167,1.833673907066761,1.2574762714612986
1769145573576,125,-3,-2.443807127160292,1.965808085132449,1.4973805912861005
1769145573580,125,-3,-2.281159003284273,1.8836520100666283,1.6657549782231984
1769145573584,125,-3,-2.1092125791863827,1.9348477024527957,1.843398929057428
1769145573588,125,-3,-1.8503583850807637,2.030354942230642,2.109100286091582
1769145573592,126,-2,-1.5467910979749415,2.879117412146147,2.4206117717857154
1769145573596,126,-2,-1.3496098135372143,2.9706984319995113,2.6257899943519973
1769145573600,126,-2,-1.3812367564326002,2.898855098886856,2.6014169080931513
1769145573604,126,-2,-1.605483712996376,2.9831439174253163,2.384021874846794
1769145573608,125,-3,-1.8371115028496805,1.9968379038005224,2.15992735221863
1769145573612,125,-3,-1.88955939750727,1.985437775725182,2.116076620200707
1769145573616,126,-2,-1.723559832085833,2.9164567685142506,2.290602114122905
1769145573620,126,-2,-1.459914068840552,2.9838924212957543,2.561298141856579
1769145573624,126,-2,-1.2601222416379567,2.9552748922152348,2.7669331797786434
1769145573628,126,-2,-1.2013459383797742,3.048996627703207,2.8321815992565984
1769145573632,126,-2,-1.2493029990438294,2.9865143329054034,2.792630115018987
1769145573636,126,-2,-1.3202106740286954,2.9645737681945254,2.73147885101054
1769145573640,126,-2,-1.354804772651073,2.980620585421375,2.7063231342219023
1769145573644,126,-2,-1.3465990300039508,3.0044782905775795,2.7225613605425325
1769145573648,126,-2,-1.322289565102079,3.0355493681154533,2.7537738889843473
1769145573652,126,-2,-1.3081023997385777,3.047046404537471,2.7748919395325853
1769145573656,126,-2,-1.3130443820590083,2.9531947809927708,2.777904153976631
1769145573660,126,-2,-1.333157259857913,3.0306039178382584,2.766850725437591
1769145573664,126,-2,-1.3595939884255128,3.017292985644114,2.749790112591553
1769145573668,126,-2,-1.377289397126844,3.023582824512035,2.7409180212914244
1769145573672,126,-2,-1.3614143530697975,3.158666951380995,2.7649406811318684
1769145573676,126,-2,-1.2868408371525435,2.824214886206299,2.847602869769921
1769145573680,126,-2,-1.147702039044328,3.269769711343635,2.995336473158255
1769145573684,127,-1,-0.9650378193108546,3.7672221696839303,3.187095480990614
1769145573688,126,-2,-0.7723636697734774,3.3471045665305867,3.3890271442944293
1769145573692,127,-1,-0.596101929989763,3.864052867810564,3.5743630470930454
1769145573696,127,-1,-0.4501313867442427,4.168895347172914,3.7289715569663286
1769145573700,127,-1,-0.3448591615379399,3.9661059279440942,3.842564667113838
1769145573704,127,-1,-0.2994630071589325,4.119761019853918,3.8965807693607664
1769145573708,127,-1,-0.3419271821556149,4.022227841338793,3.8635456301644657
1769145573712,127,-1,-0.4851934672402542,4.248363195766618,3.730295412076794
1769145573716,127,-1,-0.6933981070656599,3.812160142809879,3.532041779954329
1769145573720,126,-2,-0.8781660527990564,3.3838958019353687,3.3568087915791427
1769145573724,127,-1,-0.9459490386002654,3.729445849779763,3.2982576286031593
1769145573728,126,-2,-0.8637639961568443,3.4607841922405154,3.389609386226536
1769145573732,127,-1,-0.6853511844436029,3.850011040790635,3.57726610269963
1769145573736,127,-1,-0.5123123122922558,4.257484699085772,3.759714281383391
1769145573740,127,-1,-0.4213696753737588,3.989244356870653,3.860319092026459
1769145573744,127,-1,-0.4166784726850312,4.1417865624169785,3.874924763859979
1769145573748,127,-1,-0.4414717974926765,4.117531256890892,3.8601889596763432
1769145573752,127,-1,-0.432570837121446,4.192314741881535,3.879268450405953
1769145573756,127,-1,-0.3704531081653522,4.016954656372363,3.951721558738953
1769145573760,127,-1,-0.2840147952867285,4.220402022670148,4.0483699193777705
1769145573764,128,0,-0.2065355042638875,4.994751495254032,4.13554918226162
1769145573768,127,-1,-0.1293481058463873,4.265803786137343,4.222322314400003
1769145573772,127,-1,-0.010400621667378,4.106336839197684,4.351722449795172
1769145573776,128,0,0.1687454260257072,5.14236458891938,4.542190038191597
1769145573780,128,0,0.3687077804791194,5.139902325795886,4.752981689649324
1769145573784,128,0,0.5213250545541902,5.107071558483655,4.91502210948239
1769145573788,128,0,0.58174571904054,5.215640574705908,4.98436700491995
1769145573792,128,0,0.5497856749556306,5.152699674393788,4.96252046533058
1769145573796,128,0,0.4602373345225179,5.187792442094261,4.8848207136129105
1769145573800,128,0,0.3718831579768127,5.091578471727429,4.809005211012356
1769145573804,128,0,0.3609408608450558,5.236655646778301,4.809881169237629
1769145573808,128,0,0.496642503857746,5.103396777440722,4.9561822274294975
1769145573812,128,0,0.7913940612628585,5.298881459587535,5.260766633718849
1769145573816,129,1,1.1610980993797588,6.105337776108025,5.6401629583776245
1769145573820,129,1,1.444020440836957,6.181780245844522,5.933066907691503
1769145573824,129,1,1.481881160564577,6.237808609361927,5.981602134740944
1769145573828,129,1,1.2108830353262043,6.085650610193431,5.7222646812475375
1769145573832,128,0,0.7010880746839182,5.395378485067183,5.224912172618583
1769145573836,128,0,0.120177964393059,5.005178643736298,4.656543585181151
1769145573840,127,-1,-0.3548170263233859,4.367725794169868,4.193545056731589
1769145573844,127,-1,-0.6244187331723074,4.070072718907738,3.9351505480522633
1769145573848,127,-1,-0.7002194602333567,4.305610530933634,3.869874037600992
1769145573852,127,-1,-0.6693324670801931,4.208438010325371,3.910990324114244
1769145573856,127,-1,-0.6241830127285741,4.2108202734768465,3.966748672149964
1769145573860,127,-1,-0.612429199903885,4.243847766640957,3.990140509094249
1769145573864,127,-1,-0.6334592080805006,4.190242430468788,3.981824140725991
1769145573868,127,-1,-0.6645778041587563,4.265238705360972,3.963747773815075
1769145573872,127,-1,-0.6855669332016827,4.245792999832944,3.9551272779569273
1769145573876,127,-1,-0.6879830800073906,4.234862710652233,3.9639695173328553
1769145573880,127,-1,-0.6758176612104015,4.256802419833272,3.9867799324925217
1769145573884,127,-1,-0.665201058252906,4.217855205488874,4.00844039126569
1769145573888,127,-1,-0.6788933169712923,4.2739505974319005,4.006846455260431
1769145573892,127,-1,-0.7277661056886926,4.272200585187159,3.9708698707487375
1769145573896,127,-1,-0.786536185167595,4.236553380220126,3.924973021429154
1769145573900,127,-1,-0.7897977831535745,4.31914861339586,3.934119347468228
1769145573904,127,-1,-0.6689555211126095,4.171489008653129,4.067217066453515
1769145573908,127,-1,-0.4119799142383331,4.377928522953812,4.336563215950555
1769145573912,128,0,-0.0912430039550662,5.1812952417224185,4.669212181426022
1769145573916,128,0,0.1769457339844785,5.3803363833711835,4.948187667378181
1769145573920,128,0,0.3097156525612236,5.214872986465824,5.091380177923898
1769145573924,128,0,0.3032117870289876,5.309755972823923,5.097046057607034
1769145573928,128,0,0.2179677149445074,5.279746872008487,5.027067874567605
1769145573932,128,0,0.1352041357279596,5.290901896666437,4.961381722258433
1769145573936,128,0,0.1199025876969782,5.342558876246836,4.961495496626909
1769145573940,128,0,0.1918973374848325,5.270409470087398,5.04409291904774
1769145573944,128,0,0.2987344884959981,5.31334870139391,5.156557700864931
1769145573948,128,0,0.3200439307726215,5.289939031384769,5.182228773343704
1769145573952,128,0,0.1558406941567109,5.31079561872438,5.026965343395329
1769145573956,128,0,-0.1012192927775861,5.378497893354622,4.787686008505293
1769145573960,128,0,-0.0201415399014043,5.265676115819126,4.894372308419129
1769145573964,129,1,1.1128472209660278,6.362121835612426,6.053694530216259
1769145573968,132,4,3.9424254852199985,9.275018485753863,8.901159944794431
1769145573972,136,8,8.50977301915835,13.338402530319064,13.473614626975715
1769145573976,141,13,13.859169556196145,18.44375429338413,18.819625284447085
1769145573980,146,18,18.153999619646733,23.192706309324137,23.112095248985575
1769145573984,148,20,19.43321998066164,25.512316993764124,24.397696011788987
1769145573988,146,18,16.67912757924375,23.08079019272454,21.6609325074051
1769145573992,138,10,10.512824644602327,15.579360389852528,15.520617044263728
1769145573996,130,2,2.976103811881222,7.220783597110397,8.013247021648136
1769145574000,124,-4,-3.5069533611107895,1.457467358925022,1.5553099312088818
1769145574004,121,-7,-7.298473365585788,-1.651431753237564,-2.2220438809210217
1769145574008,120,-8,-8.126751195413892,-2.7506830012595804,-3.0477398815337797
1769145574012,121,-7,-6.857169793971285,-1.4683277960420686,-1.7803607532386607
1769145574016,124,-4,-4.769858066647052,1.2034291932390977,0.3092091983542024
1769145574020,125,-3,-2.8632564553982176,2.565027773655736,2.227879272275892
1769145574024,126,-2,-1.551086623551654,3.2049620506076133,3.5608492713756825
1769145574028,127,-1,-0.786052994711205,4.47883398139854,4.34953129401986
1769145574032,128,0,-0.3644870114376818,5.3184988073892505,4.790947427161284
1769145574036,128,0,-0.1363646062833083,5.438784752672603,5.032102887938786
1769145574040,128,0,-0.0354682052259345,5.386932232513399,5.141477025714991
1769145574044,128,0,-0.0235257214319821,5.3759302367133515,5.162199838565929
1769145574048,128,0,-0.0562114232176914,5.394586526239312,5.141696055565932
1769145574052,128,0,-0.0925840502617255,5.39805912981538,5.120408780468988
1769145574056,128,0,-0.1130439722237626,5.423389476380308,5.115502760524372
1769145574060,128,0,-0.1196601841810205,5.409387085987181,5.123185382994928
1769145574064,128,0,-0.1227051648118404,5.397216143908185,5.133225975060355
1769145574068,128,0,-0.1289694821168984,5.406995845178189,5.1398184039624795
1769145574072,128,0,-0.1391308809261217,5.420517882628879,5.142953912851224
1769145574076,128,0,-0.1508193749700609,5.435892944857932,5.144938985552411
1769145574080,128,0,-0.1620221925375191,5.421079488325059,5.1474512898364715
1769145574084,128,0,-0.1728149956018747,5.419797549223688,5.150340479823999
1769145574088,128,0,-0.1851200745608681,5.420351424411951,5.15186648950396
1769145574092,128,0,-0.2000564480048992,5.44079705962227,5.150954821974196
1769145574096,128,0,-0.2144118729338369,5.450527492240962,5.150509820381379
1769145574100,128,0,-0.2210830272007304,5.428907835617738,5.1572491569784065
1769145574104,128,0,-0.2168052977202853,5.447267248127669,5.174460448823856
1769145574108,128,0,-0.2117945176176287,5.427259035680256,5.192490893743754
1769145574112,128,0,-0.2281631415622019,5.464411514151265,5.189859680998265
1769145574116,128,0,-0.2791907308706684,5.4690285455909775,5.1533315655326035
1769145574120,128,0,-0.3412219478940951,5.418575019350039,5.1059218606796914
1769145574124,128,0,-0.3477747148031553,5.511469995638197,5.113441442311025
1769145574128,128,0,-0.2272994001934828,5.373424447119499,5.2473579754541975
1769145574132,128,0,0.0339612553366757,5.573313712296338,5.521739694129428
1769145574136,129,1,0.3601936709677665,6.376228658721976,5.860948578361276
1769145574140,129,1,0.625565417703678,6.547033432297397,6.139304710010973
1769145574144,129,1,0.7386568738613849,6.409844624530138,6.265874011423868
1769145574148,129,1,0.7019858576574874,6.507051762650041,6.243539323725162
1769145574152,129,1,0.6054463201154717,6.469520249945065,6.161733767520891
1769145574156,129,1,0.5688065886019276,6.5092903913767115,6.139363558095202
1769145574160,129,1,0.6729174861227487,6.443927689652496,6.2570799270504125
1769145574164,129,1,0.9162383954858392,6.553626634790419,6.513792734366101
1769145574168,130,2,1.2238487615352327,7.372079235054731,6.834728801380292
1769145574172,130,2,1.5062768092277563,7.671524937942652,7.130119210879357
1769145574176,130,2,1.7196635287675894,7.282697067951876,7.356193596697064
1769145574180,130,2,1.874803515300396,7.762015120585406,7.52445270571764
1769145574184,131,3,2.0003442288538205,8.20110457464542,7.664123032188713
1769145574188,130,2,2.1124134231501124,7.805447011858206,7.791142895137611
1769145574192,131,3,2.222379619312438,8.237054830922943,7.915956671126682
1769145574196,131,3,2.3623587649336,8.760906416457079,8.069682732572495
1769145574200,131,3,2.5827809057690874,8.31779719347318,8.302608642555548
1769145574204,131,3,2.9018328600600203,8.638184600700104,8.633783385767769
1769145574208,132,4,3.2488846211954847,9.459878760546165,8.993449115245838
1769145574212,132,4,3.4758508239688277,9.528071005243016,9.23362148151146
1769145574216,132,4,3.4537378263700216,9.599724631638288,9.225046690226538
1769145574220,132,4,3.1784312997401085,9.407109131340146,8.963667955726178
1769145574224,131,3,2.7885176116606663,8.65025462925649,8.588243776121045
1769145574228,131,3,2.4740432265269083,8.419336547085935,8.288366559691253
1769145574232,131,3,2.3498590752191286,8.628576621018322,8.177815860015325
1769145574236,131,3,2.3898533422084007,8.539548595942126,8.229893562186927
1769145574240,131,3,2.458074173465476,8.462411210392204,8.30937248569087
1769145574244,131,3,2.4001252963947675,8.66795017950517,8.263249459926598
1769145574248,131,3,2.132247570910848,8.358140617828784,8.008553746001155
1769145574252,130,2,1.6798127080104424,7.780410974349506,7.570426608261508
1769145574256,130,2,1.148523385496992,7.380008775011606,7.053762532705546
1769145574260,129,1,0.6525549444037729,6.665475598928401,6.5717704886421
1769145574264,129,1,0.2529414493382773,6.496515320626909,6.1847198484479105
1769145574268,129,1,-0.0543690493741887,6.515399500450801,5.888708752467495
1769145574272,128,0,-0.3099519861244686,5.714065819762872,5.644544799012158
1769145574276,128,0,-0.558792476425886,5.407647575897865,5.408609165732411
1769145574280,128,0,-0.8293331595594635,5.735237837216291,5.15209223238282
1769145574284,128,0,-1.1158907694422395,5.380330555993831,4.878985519665387
1769145574288,127,-1,-1.3770887519138963,4.697616902800438,4.629901304691374
1769145574292,127,-1,-1.5736391030969652,4.554045502835906,4.445107720674557
1769145574296,127,-1,-1.7200346229033414,4.575506549759786,4.311145553181143
1769145574300,127,-1,-1.884794600390962,4.634065611947139,4.1591517929250585
1769145574304,127,-1,-2.1237502066456355,4.447315217341298,3.932430233953798
1769145574308,126,-2,-2.41631055066014,3.7126817302510777,3.651668466688198
1769145574312,126,-2,-2.677645560051829,3.51503143183974,3.402533597322912
1769145574316,126,-2,-2.832649625200975,3.677940927034238,3.2603618193413726
1769145574320,126,-2,-2.8727507720189385,3.534285537201228,3.233018631290765
1769145574324,126,-2,-2.8472827542752577,3.577962043043484,3.270464710794949
1769145574328,126,-2,-2.8137556085745223,3.6195512513694266,3.3151679124106685
1769145574332,126,-2,-2.7999906698002253,3.6031541920539607,3.339763091978148
1769145574336,126,-2,-2.8041342074529148,3.644735673656128,3.3466692851493995
1769145574340,126,-2,-2.819182737117961,3.562605737981904,3.343415612968839
1769145574344,126,-2,-2.850174903191466,3.595233296378471,3.32511846948434
1769145574348,126,-2,-2.902667794224001,3.622439687844443,3.285522540960539
1769145574352,126,-2,-2.9527100351955977,3.6096726951884985,3.2472720401565267
1769145574356,126,-2,-2.937000571744905,3.6842093277427552,3.273049656984522
1769145574360,126,-2,-2.7935507865880034,3.5165744057475,3.4259069440215875
1769145574364,126,-2,-2.5292372362353577,3.6978347085122927,3.700805772833958
1769145574368,127,-1,-2.2407596315191007,4.515781901785806,4.001580815923109
1769145574372,127,-1,-2.0433927085607535,4.759925533410529,4.211506470486157
1769145574376,127,-1,-1.9629943701841368,4.542524949081157,4.302956793164173
1769145574380,127,-1,-1.907712780756396,4.682870976410187,4.367691592138549
1769145574384,127,-1,-1.766471405774434,4.558910988318875,4.518326489859103
1769145574388,127,-1,-1.5426673982106818,4.657508884726098,4.752662713540385
1769145574392,128,0,-1.3764447061708385,5.672208844854896,4.929989646414348
1769145574396,128,0,-1.4134893191629532,5.629685565769162,4.903310853345356
1769145574400,127,-1,-1.6459726784352906,4.633022563484677,4.680421460064218
1769145574404,127,-1,-1.893636736539246,4.614896907756996,4.442847056716093
1769145574408,127,-1,-1.9496652197644948,4.615927324845965,4.397977341206196
1769145574412,127,-1,-1.7481713237818275,4.7470926370304305,4.610497295327583
1769145574416,128,0,-1.4010678041513065,5.586271668664309,4.966845268555088
1769145574420,128,0,-1.0906881274549851,5.702795470626565,5.284621570362638
1769145574424,128,0,-0.93295040949487,5.545735773788631,5.4497056800184005
1769145574428,128,0,-0.9259874740622202,5.7020729621060315,5.465815423422133
1769145574432,128,0,-0.9964867791861368,5.677816198083252,5.40633263881547
1769145574436,128,0,-1.071484715119808,5.692833662567254,5.3426129366232695
1769145574440,128,0,-1.1121480964535486,5.6325894372206,5.311805709812036
1769145574444,128,0,-1.1076825413381803,5.6032660772019955,5.324187823797827
1769145574448,128,0,-1.0633651559721904,5.679443942065778,5.375181821154664
1769145574452,128,0,-1.0035398995978362,5.6921651563229645,5.4417410023014625
1769145574456,128,0,-0.9786409704248532,5.742335362085031,5.474537860212518
1769145574460,128,0,-1.0499737766530577,5.588962347913703,5.412390191821396
1769145574464,128,0,-1.2427299875488962,5.662208651729488,5.229077242768625
1769145574468,128,0,-1.499002139263662,5.6280229016841155,4.9813595129156765
1769145574472,127,-1,-1.688639659972909,4.754425607730224,4.799304963151503
1769145574476,127,-1,-1.6962223258758031,4.730307740228556,4.7989429737960485
1769145574480,128,0,-1.5161701365700235,5.609686801613973,4.985897215962969
1769145574484,128,0,-1.2613539479362816,5.666224997555005,5.246895781499616
1769145574488,128,0,-1.0749129282111112,5.6154470320877365,5.439225407321885
1769145574492,128,0,-1.029845194692576,5.804808441486995,5.491111641361115
1769145574496,128,0,-1.096114063593301,5.6894999595335,5.432993688126314
1769145574500,128,0,-1.1814140985154582,5.679562163115054,5.355934115129458
1769145574504,128,0,-1.2023131190599092,5.616243068499402,5.341690339756749
1769145574508,128,0,-1.1411748638600296,5.650855421821964,5.407563452695392
1769145574512,128,0,-1.060905528825807,5.82725387368569,5.491968424015308
1769145574516,128,0,-1.0678490671186984,5.649696001578485,5.490132621237479
1769145574520,128,0,-1.237733856902269,5.7730859857164285,5.3266046332610255
1769145574524,128,0,-1.5490241886320597,5.51939425059882,5.021890244864709
1769145574528,127,-1,-1.8791985027409024,4.7445838983969075,4.697516347625378
1769145574532,127,-1,-2.082830444832786,4.785579369042093,4.498883550147277
1769145574536,127,-1,-2.0982705721070163,4.667596223429469,4.488114236564073
1769145574540,127,-1,-1.9917121968934732,4.829290897873834,4.599071978648688
1769145574544,128,0,-1.8967479358107595,5.429704623634225,4.697835803902743
1769145574548,127,-1,-1.9050823033953492,4.879999088077193,4.692806267833715
1769145574552,127,-1,-2.0088864996718363,4.632469885802214,4.592537266158891
1769145574556,127,-1,-2.1365548782661845,4.862340794066555,4.469117163971882
1769145574560,127,-1,-2.2282364823697245,4.641735850390076,4.382009818119055
1769145574564,127,-1,-2.271873858966692,4.636397038070468,4.342461876935774
1769145574568,127,-1,-2.277896171128183,4.693738273542495,4.339595286346881
1769145574572,127,-1,-2.2354879080578796,4.809880919310127,4.384435365719408
1769145574576,127,-1,-2.10578893439969,4.724069388344429,4.5164343495897885
1769145574580,127,-1,-1.86506613124736,4.779568489256474,4.7596388339159885
1769145574584,128,0,-1.5531110234746306,5.527656450025538,5.073857858675873
1769145574588,128,0,-1.269074747989675,5.807752829424257,5.359380600090727
1769145574592,128,0,-1.1099871222568771,5.707349669483147,5.519452436754254
1769145574596,128,0,-1.1060313367374923,5.838096900814529,5.524896746838419
1769145574600,128,0,-1.2035575242931833,5.692478812957167,5.429801677649183
1769145574604,128,0,-1.2983116610493677,5.602106656687872,5.337551851704161
1769145574608,128,0,-1.2895646990289429,5.786468415127487,5.347595498086303
1769145574612,128,0,-1.12857110609517,5.694706115028412,5.508385129152816
1769145574616,128,0,-0.8439041012578108,5.909269296757372,5.79221019226569
1769145574620,129,1,-0.527810690210831,6.600945794990041,6.10777545679038
1769145574624,129,1,-0.2822237790702808,6.726195462660902,6.353369391391347
1769145574628,129,1,-0.1572435731873236,6.666608921339385,6.478527652235661
1769145574632,129,1,-0.1301649148435495,6.82363013496698,6.505497138298933
1769145574636,129,1,-0.1408586016124131,6.796214828861789,6.494164582769646
1769145574640,129,1,-0.1512796058652347,6.71989295816808,6.482626120485934
1769145574644,129,1,-0.1792717513894645,6.628094513857884,6.453140085251382
1769145574648,129,1,-0.2785554098494438,6.775320793339676,6.351885019413491
1769145574652,129,1,-0.482241338343963,6.718770275595492,6.145782163951437
1769145574656,128,0,-0.7648919559623146,5.924643787321959,5.860842938567603
1769145574660,128,0,-1.063103349648398,5.577483111383769,5.56093159015494
1769145574664,128,0,-1.3294437192029656,5.815209205415178,5.292844888826306
1769145574668,128,0,-1.5596421180286673,5.56656788421753,5.059720382973674
1769145574672,127,-1,-1.7764134543761718,4.96943523829459,4.838806502560917
1769145574676,127,-1,-2.0049990651605487,4.665571008975431,4.6059563481373775
1769145574680,127,-1,-2.262003685981785,4.841384612008727,4.34522824885095
1769145574684,127,-1,-2.5453531329402743,4.57793810674484,4.058330589370257
1769145574688,126,-2,-2.824561196809243,3.792287898501593,3.775293725364558
1769145574692,126,-2,-3.0510532768720715,3.78450075628796,3.5446292636245875
1769145574696,126,-2,-3.186195990762772,3.836047680523716,3.404789119048388
1769145574700,126,-2,-3.2185322538908276,3.6748696737622,3.366934308988375
1769145574704,126,-2,-3.159523136939133,3.780043396918909,3.4198914178787607
1769145574708,126,-2,-3.0339420651067535,3.565827985053356,3.5396342751275425
1769145574712,126,-2,-2.872527037535841,4.065120367505422,3.695584929608587
1769145574716,127,-1,-2.69872003464251,4.5163152653624525,3.863634606821795
1769145574720,126,-2,-2.516380878081902,4.027770488935065,4.039440289233324
1769145574724,127,-1,-2.320477458556222,4.429768754968759,4.228343378550896
1769145574728,127,-1,-2.1272392914391993,4.9180443136479965,4.414604851367832
1769145574732,127,-1,-1.9887318224504584,4.749214599545277,4.54609213350629
1769145574736,127,-1,-1.9701713604789677,4.786177628679268,4.556956969892555
1769145574740,127,-1,-2.1062940343900904,4.832127682040956,4.411871865626878
1769145574744,127,-1,-2.371032516884728,4.5515545470330725,4.13727847299641
1769145574748,126,-2,-2.685190286856674,3.8915868960510647,3.814079195007824
1769145574752,126,-2,-2.9572667704536517,3.707053662573134,3.5354967743753107
1769145574756,126,-2,-3.1220632830306583,3.8881443034692498,3.366240728123723
1769145574760,126,-2,-3.14992406300395,3.706302627498939,3.3326492109343944
1769145574764,126,-2,-3.0451671223041936,3.69086565882592,3.42645095162069
1769145574768,126,-2,-2.866443988429584,3.780903195714304,3.5878655918728386
1769145574772,126,-2,-2.747279491524223,3.784279798072801,3.687062757707732
1769145574776,126,-2,-2.838855747740122,3.853475174215882,3.5798833948466484
1769145574780,126,-2,-3.132572557349513,3.709520228389761,3.280379612589473
1769145574784,126,-2,-3.251066185601804,3.726604237147252,3.1647190595924664
1769145574788,127,-1,-2.4179597802948383,4.732199814375427,4.0009933097794335
1769145574792,129,1,0.2109511221186348,6.852136325787328,6.623814781954811
1769145574796,133,5,4.909445632665297,10.779107309491968,11.303365449845732
1769145574800,139,11,10.8181336831205,16.809142577016836,17.184662160259833
1769145574804,145,17,15.971424724484498,22.62898997748488,22.310136058814113
1769145574808,148,20,18.12512489853415,25.83284027890663,24.44208333406302
1769145574812,146,18,15.98054241837646,23.73718349844163,22.285333274369307
1769145574816,138,10,9.986925850409284,15.856549503740249,16.289711378702577
1769145574820,130,2,2.139429697776058,7.721460247218348,8.446238468848282
1769145574824,124,-4,-5.072178418731595,1.7352583948062463,1.235454030695733
1769145574828,119,-9,-9.831852068667208,-3.230292321725642,-3.5354270328854787
1769145574832,117,-11,-11.60278500020926,-5.152057134988899,-5.330707817321452
1769145574836,118,-10,-10.987425408392468,-4.239152709727173,-4.745530354482167
1769145574840,120,-8,-9.117168362380276,-2.2478219390585465,-2.9019865337750765
1769145574844,122,-6,-7.0135723990350165,-0.2549552587666994,-0.816467117912627
1769145574848,123,-5,-5.2560438131196126,0.7079793089063906,0.9311871442087228
1769145574852,124,-4,-4.017510894574171,1.99954968171574,2.1634134685364454
1769145574856,126,-2,-3.270611981626898,3.529839267457425,2.901282180653224
1769145574860,126,-2,-2.926575446850097,4.009946637792454,3.2295370941623553
1769145574864,126,-2,-2.852545203971332,3.4568069753562902,3.282406104768178
1769145574868,125,-3,-2.877145278721621,3.024188508627754,3.236491625425982
1769145574872,126,-2,-2.85424806526787,3.7228426701891064,3.241646812393105
1769145574876,126,-2,-2.7240284403934556,3.7482656910979575,3.3567096058531556
1769145574880,126,-2,-2.4970640812622458,3.840477957172338,3.567613720922051
1769145574884,127,-1,-2.1908567031311295,4.555022996154442,3.8551821555597887
1769145574888,126,-2,-1.8058523315555317,4.020107773755001,4.220414228415648
1769145574892,127,-1,-1.3641648949398255,4.655196878005652,4.643195556697553
1769145574896,128,0,-0.9407212168121006,5.881738189857902,5.048537830297914
1769145574900,128,0,-0.6221661602396964,5.62756600518626,5.348394695705683
1769145574904,128,0,-0.4295763959887595,5.81179195844318,5.521417951030886
1769145574908,128,0,-0.296266121707168,5.772496211931909,5.635440109097528
1769145574912,128,0,-0.1246089343879192,5.865795801942224,5.788538881718309
1769145574916,129,1,0.1452342471315946,6.732244124860269,6.039295283750686
1769145574920,129,1,0.5172524014286226,6.679444028980301,6.390427868460158
1769145574924,129,1,0.962374730071182,6.857444150650486,6.813433676104413
1769145574928,130,2,1.4410980018949826,7.650162714639297,7.270588010901929
1769145574932,130,2,1.9177490354381448,8.056746161915662,7.727111997071512
1769145574936,131,3,2.381151781116604,8.470215805804138,8.170967651103247
1769145574940,131,3,2.86376438242079,8.98338950888484,8.633084360862728
1769145574944,132,4,3.429664229944835,9.522859970109463,9.176976083673464
1769145574948,132,4,4.122453726184501,10.003708848096837,9.84711277595083
1769145574952,133,5,4.910460676585146,10.706717619327751,10.61291712502402
1769145574956,134,6,5.688590950612937,11.784279763784916,11.369192921576616
1769145574960,135,7,6.353966151747438,12.699458702750707,12.012133329503005
1769145574964,135,7,6.890722994902555,12.771215519908615,12.525811948650878
1769145574968,135,7,7.374966722388762,12.785125807196758,12.987388969629665
1769145574972,136,8,7.895196022123608,13.89974608565937,13.485749273733951
1769145574976,137,9,8.479354302688886,14.588690677036588,14.047649730676518
1769145574980,137,9,9.099935083984931,14.887252400926243,14.644452757952118
1769145574984,138,10,9.727155576246131,15.602321660460683,15.246987318853629
1769145574988,138,10,10.35766573840116,15.922585894164571,15.853434497693394
1769145574992,139,11,10.999682989549104,16.7870709079264,16.472404341932286
1769145574996,140,12,11.650873399373218,17.64165271086614,17.100462140370276
1769145575000,140,12,12.294719052932049,17.89382415508309,17.720127323346205
1769145575004,141,13,12.90366489428335,18.535824449440447,18.304172954526116
1769145575008,141,13,13.4368611285531,19.044570739454713,18.812602015760255
1769145575012,142,14,13.846252049615195,19.589486057123757,19.19750388664641
1769145575016,142,14,14.102180873930925,19.874654937087517,19.428756551324607
1769145575020,142,14,14.217576268096431,19.640862316190923,19.519147788192072
1769145575024,142,14,14.241976754142213,19.782943553357786,19.51858784326812
1769145575028,142,14,14.2302804864845,19.8202204337479,19.48218549347667
1769145575032,142,14,14.218602941837965,19.74241609094599,19.44574688481013
1769145575036,142,14,14.224669981385418,19.778942768506596,19.426575376515263
1769145575040,142,14,14.258454603024958,19.679372513484488,19.434597884545937
1769145575044,142,14,14.3216798726914,19.781912786544417,19.471866841427193
1769145575048,142,14,14.394524784862735,19.79595033786808,19.518894847673103
1769145575052,142,14,14.427549100262285,19.73087196043295,19.52623414800601
1769145575056,142,14,14.356214391114378,19.829303852503244,19.42902041230594
1769145575060,142,14,14.134403715338202,19.560612032211058,19.180949085761185
1769145575064,141,13,13.761257786931836,18.976338749995975,18.78148893487259
1769145575068,141,13,13.278570752634945,18.504829672579397,18.272955820126704
1769145575072,140,12,12.744878489025076,18.075242303270137,17.713879173899137
1769145575076,140,12,12.212615081492013,17.42592539863753,17.15602716149772
1769145575080,139,11,11.721701867789154,16.9853630082129,16.638729749215443
1769145575084,139,11,11.297915987701968,16.56492976587947,16.187956023695175
1769145575088,138,10,10.942636726509452,15.843815991993107,15.805801125459402
1769145575092,138,10,10.62356183657574,15.799817883972793,15.460262313661234
1769145575096,138,10,10.288994319382216,15.594341708773328,15.099230056039168
1769145575100,137,9,9.904889589646189,14.912603882053268,14.688368253713412
1769145575104,137,9,9.480675134470117,14.55376111368254,14.2375721524423
1769145575108,136,8,9.057649510644849,13.887038619672872,13.788658063415545
1769145575112,136,8,8.67704017431609,13.708826524163996,13.382412927491748
1769145575116,136,8,8.362256442678605,13.67565437022283,13.041269552969752
1769145575120,135,7,8.118938915634477,12.858078680342604,12.770691074626448
1769145575124,135,7,7.931486660075974,12.561826715016185,12.555849217831064
1769145575128,135,7,7.757340455541722,12.89874857168877,12.354763772758911
1769145575132,135,7,7.543454328398348,12.633769406397551,12.114335250844576
1769145575136,134,6,7.262043527557947,11.768983533493952,11.806741529411918
1769145575140,134,6,6.929558190722774,11.756120629187375,11.448536252043258
1769145575144,134,6,6.590665826000821,11.653387329262804,11.084042647067124
1769145575148,133,5,6.284261048491975,10.776993905194512,10.75141527371532
1769145575152,133,5,6.014115246709213,10.748964757553836,10.454098914755544
1769145575156,133,5,5.737978606687969,10.617733785927054,10.150417718146072
1769145575160,132,4,5.383294707241832,9.946584453842224,9.76888390396608
1769145575164,132,4,4.886444448665313,9.40315182181297,9.246385549057274
1769145575168,131,3,4.238366721704766,9.04404667837166,8.573168486489527
1769145575172,131,3,3.508232953563703,8.423919912682278,7.817361220005324
1769145575176,129,1,2.814708541091134,6.950442055495623,7.097615423565802
1769145575180,129,1,2.2479207815083564,6.619044714058221,6.504881078848149
1769145575184,129,1,1.8040989690082228,6.687809625184802,6.035616482270603
1769145575188,128,0,1.3983471513708032,5.779662875019078,5.604266119426049
1769145575192,128,0,0.940314562029104,5.605336055214143,5.120131936908424
1769145575196,127,-1,0.3894606479906022,4.828979453419095,4.543256302025587
1769145575200,126,-2,-0.2609651289836323,3.658432952663166,3.8674631853014447
1769145575204,126,-2,-1.0342634628964174,3.6939319930018177,3.069138316978391
1769145575208,125,-3,-1.9851396648551465,2.705773531988741,2.093065946964015
1769145575212,123,-5,-3.162333056992225,0.6805658572790279,0.8907651007468749
1769145575216,122,-6,-4.5588949941154215,-0.2671427319653006,-0.5304309119183941
1769145575220,121,-7,-6.0860409718775035,-1.249479941689439,-2.0821575934039167
1769145575224,119,-9,-7.584927017026296,-3.443514064220417,-3.605946609101169
1769145575228,117,-11,-8.883769449552739,-5.126745150686404,-4.929347701737302
1769145575232,117,-11,-9.873030687111704,-5.576467931217932,-5.942192451799027
1769145575236,116,-12,-10.530938504132765,-5.948416605635775,-6.623378086959004
1769145575240,116,-12,-10.87566693651124,-6.65260273851324,-6.992051931073699
1769145575244,115,-13,-10.91417879404157,-6.997925416729017,-7.054941023002781
1769145575248,116,-12,-10.660304256114964,-6.635142116494483,-6.825018135563705
1769145575252,116,-12,-10.19541671908102,-6.0882524949855465,-6.383671215985237
1769145575256,117,-11,-9.685052495395324,-5.43470301668259,-5.8971026309088295
1769145575260,117,-11,-9.317598319082135,-5.2080869734491175,-5.553577614705824
1769145575264,117,-11,-9.21411947329076,-5.422889710549332,-5.473149821261312
1769145575268,117,-11,-9.374165421840049,-5.281652599552274,-5.654929806010588
1769145575272,117,-11,-9.682604846150523,-5.4459040116929875,-5.984516318418887
1769145575276,116,-12,-9.971300021508371,-6.103841274736001,-6.294536455470312
1769145575280,116,-12,-10.112234795129597,-6.539824737418887,-6.457066028743184
1769145575284,116,-12,-10.089059025941978,-6.1109126080810725,-6.455963059594369
1769145575288,117,-11,-9.988863652991608,-5.6262173834401015,-6.378837766195268
1769145575292,116,-12,-9.922539940141954,-6.142470553029948,-6.3360168188243104
1769145575296,116,-12,-9.954059676329852,-6.394114109541136,-6.3894666286383535
1769145575300,116,-12,-10.09250102542217,-6.304462183738242,-6.5470899989762765
1769145575304,116,-12,-10.314465512392411,-6.320142252487292,-6.787045971923439
1769145575308,116,-12,-10.569579276539317,-6.506781095244669,-7.0616581128172875
1769145575312,115,-13,-10.786638764648329,-7.22823124184891,-7.300348318052508
1769145575316,115,-13,-10.920340421718167,-7.379957749471053,-7.455809265456534
1769145575320,115,-13,-11.010827935959757,-7.289880448850078,-7.566242523124016
1769145575324,115,-13,-11.175597118124148,-7.39621856685825,-7.749534225829811
1769145575328,115,-13,-11.512027901997556,-7.435386264013175,-8.104806459517993
1769145575332,114,-14,-11.999594592666172,-8.33853297184167,-8.61198278911494
1769145575336,113,-15,-12.510004748090116,-9.289730138190208,-9.141349402085035
1769145575340,113,-15,-12.920287024056288,-9.40376708090505,-9.568900927421044
1769145575344,113,-15,-13.20717389410924,-9.303412616858582,-9.872456448419504
1769145575348,113,-15,-13.428105579596672,-9.559069825266782,-10.111258907946423
1769145575352,112,-16,-13.631334426075227,-10.225942583051305,-10.33362103365979
1769145575356,112,-16,-13.807872937633928,-10.443936385475736,-10.528876534713016
1769145575360,112,-16,-13.92443209952786,-10.278299469784947,-10.662470061205024
1769145575364,112,-16,-13.974607006194836,-10.44058905477723,-10.728335352791628
1769145575368,112,-16,-13.981025801645965,-10.471728210801055,-10.750182394664671
1769145575372,112,-16,-13.952625670431557,-10.28899086807501,-10.737552583778696
1769145575376,112,-16,-13.851208070969916,-10.471615145326153,-10.652192005060815
1769145575380,112,-16,-13.60679106459128,-10.232315967009365,-10.42386545633807
1769145575384,113,-15,-13.171027972820262,-9.551194089547034,-10.00396753535052
1769145575388,113,-15,-12.562171841739207,-9.35641632735047,-9.41037771404625
1769145575392,114,-14,-11.860897406054807,-8.434453871774352,-8.723448928276646
1769145575396,115,-13,-11.155830840641958,-7.367355220179755,-8.031966442827287
1769145575400,115,-13,-10.482217734939464,-7.360688269374589,-7.371881244202395
1769145575404,116,-12,-9.809250600040505,-6.471325255593628,-6.713081182525023
1769145575408,117,-11,-9.091555603541954,-5.430179118021545,-6.010056717960659
1769145575412,117,-11,-8.341382336071177,-5.4126330712815545,-5.273881137650501
1769145575416,118,-10,-7.653632429762785,-4.406186457054787,-4.598398149494094
1769145575420,119,-9,-7.146635067105729,-3.360146774245832,-4.102460051821269
1769145575424,119,-9,-6.856926028557054,-3.517335663708958,-3.8242718737824184
1769145575428,119,-9,-6.691853327957714,-3.3859210312313888,-3.6719059438235586
1769145575432,119,-9,-6.510747604775653,-3.4938460985172535,-3.5036147962737063
1769145575436,119,-9,-6.271837435384421,-3.380144442880006,-3.276344932441333
1769145575440,120,-8,-6.090367297070781,-2.3770105943034476,-3.105546277445403
1769145575444,120,-8,-6.129832483541734,-2.5884443054820148,-3.155764830699349
1769145575448,119,-9,-6.426175238836092,-3.2704464864506706,-3.463006717220412
1769145575452,119,-9,-6.8229915548642746,-3.7006148133375953,-3.8698370355838296
1769145575456,118,-10,-7.081238036646667,-4.186051865316741,-4.136815993960436
1769145575460,119,-9,-7.0530652178364015,-3.6161019967987778,-4.117112665662889
1769145575464,119,-9,-6.7654842859187365,-3.3783613895041986,-3.838823036327923
1769145575468,119,-9,-6.365382586492989,-3.4648270496394975,-3.448680416694284
1769145575472,120,-8,-5.996828359072705,-2.599690515034193,-3.0898822460290924
1769145575476,120,-8,-5.7121768620324795,-2.2744567573943524,-2.8142321768149587
1769145575480,120,-8,-5.473911013998499,-2.640629699031953,-2.583990882546314
1769145575484,120,-8,-5.2306474073451135,-2.3043174122475616,-2.347700345314247
1769145575488,121,-7,-4.986500821577779,-1.6041972190552354,-2.1099268355267773
1769145575492,121,-7,-4.789122805010295,-1.4836889888211058,-1.9191546266042323
1769145575496,121,-7,-4.654242058244334,-1.4341403572289666,-1.7913520761291934
1769145575500,121,-7,-4.521922957357347,-1.5437716080092727,-1.665982228817656
1769145575504,121,-7,-4.302381978137059,-1.4025182726515606,-1.4528050564269854
1769145575508,122,-6,-3.965543054406446,-0.5393379060942927,-1.1220120543422771
1769145575512,122,-6,-3.5846890118020713,-0.5872681382519422,-0.7471737168878319
1769145575516,122,-6,-3.295219379413516,-0.3702696565137051,-0.4633809363585222
1769145575520,123,-5,-3.2027794651123376,0.3349948577953698,-0.3758807032762954
1769145575524,122,-6,-3.309179019982042,-0.2994339370310763,-0.4866773356738285
1769145575528,122,-6,-3.5106786931405187,-0.6736582075848832,-0.6926861396755521
1769145575532,122,-6,-3.668554965853901,-0.4895075796386097,-0.855540125366228
1769145575536,122,-6,-3.69252208220861,-0.5131328423466481,-0.8842164234870751
1769145575540,122,-6,-3.5731139914327716,-0.578048352521968,-0.7675841845710973
1769145575544,122,-6,-3.350533228631228,-0.3917846253027646,-0.5451523021792708
1769145575548,123,-5,-3.056946734162513,0.3680517038811031,-0.2513442113885391
1769145575552,123,-5,-2.685842350993431,0.4442246144110791,0.1161713232929728
1769145575556,123,-5,-2.222628327045827,0.4965973286090142,0.5700005601103251
1769145575560,124,-4,-1.7070708794528189,1.352888778104039,1.0738586538163672
1769145575564,124,-4,-1.2299933057651051,1.6838367431559766,1.5443996773393671
1769145575568,125,-3,-0.7889268225258599,2.209727211270295,1.989574934766546
1769145575572,126,-2,-0.071671333051583,3.6277050300670863,2.719500060952295
1769145575576,128,0,1.6039292347217329,5.1969820787388885,4.407291331264142
1769145575580,130,2,4.970553525557868,7.655625757299065,7.776599685708765
1769145575584,135,7,10.158568185720146,12.328006717222852,12.95546417579868
1769145575588,141,13,16.144089787268936,18.542238732475727,18.924823870961728
1769145575592,147,19,20.85827512502879,24.27448597262073,23.62342744625655
1769145575596,149,21,22.1230714352819,26.458347556324153,24.879806331018003
1769145575600,145,17,18.901569801672597,22.37270579748077,21.661146453107005
1769145575604,137,9,12.001491114504278,14.4818850405935,14.775130087969876
1769145575608,129,1,3.719154070077048,6.412089411813074,6.512060548372732
1769145575612,122,-6,-3.327270346266726,-0.6997204931512151,-0.520035300550072
1769145575616,118,-10,-7.404172631339177,-4.489871202092316,-4.595298247159404
1769145575620,118,-10,-8.22145047524761,-4.75921583829164,-5.423183452559341
1769145575624,119,-9,-6.671986799807447,-3.3725521230682265,-3.8885176935245447
1769145575628,122,-6,-4.090552499219598,-0.8423332831156749,-1.316640796082158
1769145575632,124,-4,-1.5578270366050693,1.5245098815343838,1.2164555921242846
1769145575636,126,-2,0.3995081938864384,3.223418263234086,3.182528126283373
1769145575640,127,-1,1.7034056906084911,4.492508881740818,4.498289632615597
1769145575644,128,0,2.4585987227913835,5.3422056787942855,5.262968326109647
1769145575648,129,1,2.785514717957762,6.346264471781575,5.593774080673903
1769145575652,129,1,2.81982459024287,6.345494576279842,5.627014582225031
1769145575656,128,0,2.7492620596808193,5.29896442425648,5.554379940850007
1769145575660,128,0,2.756164493872532,5.448474066112145,5.562105292961529
1769145575664,129,1,2.9032224042255472,6.279600533305848,5.713405358806455
1769145575668,129,1,3.104541202137183,6.387520028713917,5.9200464125461005
1769145575672,129,1,3.229965288481341,6.25475172549944,6.049902751896344
1769145575676,129,1,3.2386229808925955,6.335066897086545,6.062144863430794
1769145575680,129,1,3.216282660421041,6.396116356557609,6.04350042494694
1769145575684,129,1,3.294073198936778,6.2306456243788215,6.1255530080909955
1769145575688,129,1,3.528634245545181,6.433110265738767,6.364667793160038
1769145575692,130,2,3.848606727126064,7.12871696188419,6.688977737994328
1769145575696,130,2,4.112830375033703,7.4455134418695454,6.95717387798565
1769145575700,130,2,4.226622768114698,7.236528369655172,7.075054822294506
1769145575704,130,2,4.211808862261301,7.294901253637155,7.065110773966731
1769145575708,130,2,4.174920024061427,7.378094633874755,7.033950756908502
1769145575712,130,2,4.2128949902859985,7.053059865196051,7.077813984331268
1769145575716,130,2,4.343734787544886,7.580241115943574,7.213856209152652
1769145575720,131,3,4.516566202470396,7.970597676857016,7.391092549606716
1769145575724,130,2,4.679610128061124,7.549583580342141,7.558622921485554
1769145575728,131,3,4.836977286910183,8.052385557808591,7.721596780540171
1769145575732,131,3,5.047047442416971,8.305642193381882,7.9384632964768365
1769145575736,131,3,5.37214517318282,8.346284758743778,8.270529909195693
1769145575740,132,4,5.822383768397845,9.078388783554333,8.726751629882564
1769145575744,132,4,6.332743530700099,9.46669816730412,9.241785950314377
1769145575748,133,5,6.788027430363567,9.989952998478625,9.701269488041095
1769145575752,133,5,7.079307825498999,10.385472332754295,9.997774941257696
1769145575756,133,5,7.156663742079368,10.190209371050234,10.08232192290394
1769145575760,133,5,7.051349001449291,10.17656742217119,9.985406539845414
1769145575764,133,5,6.862483645043645,10.350016420838532,9.8041266123081
1769145575768,133,5,6.712658312202368,9.969815341401382,9.659885273738112
1769145575772,132,4,6.681370412326017,9.447097881409968,9.633183344906968
1769145575776,133,5,6.752710799357276,10.002064230781194,9.710032655941127
1769145575780,133,5,6.834509724409999,10.376695440076176,9.798892003934768
1769145575784,133,5,6.855819248716387,10.047535492167132,9.827844367123172
1769145575788,133,5,6.858121629153475,10.217443738652824,9.83735087750406
1769145575792,133,5,6.980052854523869,10.170807203945769,9.96608248324461
1769145575796,133,5,7.334075402778002,10.179651570398423,10.32703595895524
1769145575800,134,6,7.886842681305867,11.211685159081409,10.88672416457358
1769145575804,135,7,8.4612239078626,12.08731797874681,11.467250764699678
1769145575808,135,7,8.862300662401491,12.168809563330615,11.8736702194579
1769145575812,135,7,9.00980331579277,12.128648441557814,12.02701104586968
1769145575816,135,7,8.964908721582782,12.179080891996524,11.98970903979436
1769145575820,135,7,8.853305411924058,12.15384744934817,11.887088662741611
1769145575824,135,7,8.772721654871013,12.081106056399651,11.815158442518708
1769145575828,135,7,8.755392814315329,12.125773670890958,11.80476413162734
1769145575832,135,7,8.785538410392167,12.113286633084366,11.84026125320511
1769145575836,135,7,8.83016919594709,12.125893860188969,11.890065711149957
1769145575840,135,7,8.852519277745532,12.164028246543854,11.918840441720029
1769145575844,135,7,8.812404259455215,11.98858312399352,11.886666960041794
1769145575848,135,7,8.675637561732692,12.17912935794114,11.758315288726386
1769145575852,135,7,8.43599578950805,11.995644093490306,11.526288599389774
1769145575856,134,6,8.122933615779889,11.1664269334827,11.219703716674443
1769145575860,134,6,7.774305378870175,11.09784968488466,10.877017123013385
1769145575864,134,6,7.397420971846039,10.93634950123688,10.506298340119365
1769145575868,133,5,6.963247655872362,10.24139536768492,10.07897761707876
1769145575872,133,5,6.444932717327863,9.80492909268571,9.568245718414513
1769145575876,132,4,5.866738894598357,9.357844906903416,8.997847596436333
1769145575880,132,4,5.318299946907679,8.79020177969226,8.45665903306795
1769145575884,131,3,4.911213889457186,8.203164095767626,8.056105549614458
1769145575888,131,3,4.698190439642895,7.927952916078638,7.8494849005772895
1769145575892,131,3,4.618040493685758,8.0137726589145,7.776038221485532
1769145575896,131,3,4.5252149262938035,8.15900368587762,7.68981745841103
1769145575900,131,3,4.290978037866418,7.8301500443643794,7.461537749151542
1769145575904,130,2,3.889622696847416,7.187487372465243,7.06587435132712
1769145575908,130,2,3.394503115719097,6.801960305526926,6.577321121460967
1769145575912,129,1,2.899835193777797,6.131006229689432,6.090573683609123
1769145575916,129,1,2.455125285787473,5.952144918132021,5.654076580997496
1769145575920,129,1,2.0716581750882472,5.970331499156943,5.277495321447263
1769145575924,128,0,1.7688676739382323,5.011931736224299,4.979924554291677
1769145575928,128,0,1.583072222306166,4.852551871635298,4.798996481263233
1769145575932,128,0,1.518119285047629,5.0918126444932685,4.739952105879421
1769145575936,128,0,1.5014417823695885,4.835504007092799,4.730218499468919
1769145575940,128,0,1.4104653225113508,5.109564063762824,4.646086202725863
1769145575944,128,0,1.1551135831336374,4.743264655519549,4.396611210065423
1769145575948,127,-1,0.7394218477981673,4.076948899922088,3.986122012423458
1769145575952,127,-1,0.2456666512508598,3.8011361827481327,3.4979301859850542
1769145575956,126,-2,-0.2379801797150742,3.024462699916696,3.020793838645382
1769145575960,126,-2,-0.6719147454912608,2.908349233502853,2.59378911783932
1769145575964,126,-2,-1.0535762401062128,2.8300254731301075,2.2184657703024326
1769145575968,125,-3,-1.3692086006886337,1.9608938314166244,1.9082334292978755
1769145575972,125,-3,-1.5782817262273443,1.8066270200705636,1.7041205658846574
1769145575976,125,-3,-1.6549104838016315,1.972412739626768,1.6325215613557296
1769145575980,125,-3,-1.638544459634998,1.8808937992003325,1.6540182374485353
1769145575984,125,-3,-1.6336336707534818,1.8009384468592509,1.6640274536247135
1769145575988,125,-3,-1.748110655071474,1.9199693634867327,1.5546575449739226
1769145575992,125,-3,-2.0155488030170496,1.7539256132166252,1.2925675386467312
1769145575996,124,-4,-2.3642626089992977,0.9678218436092388,0.9497005070962
1769145576000,124,-4,-2.6640133216655135,0.7978900926129491,0.6561618545588255
1769145576004,124,-4,-2.815823032002938,0.8466604861660167,0.5101312615327709
1769145576008,124,-4,-2.813956125680362,0.7693271005474598,0.5164667429550853
1769145576012,124,-4,-2.7400879592812615,0.8638421696128775,0.5935272363805515
1769145576016,124,-4,-2.7069104086119347,0.7397246347460591,0.6296934043009514
1769145576020,124,-4,-2.7935276011808505,0.994520086474505,0.5470828991722065
1769145576024,124,-4,-3.005689384229773,0.5511481670311369,0.3403876609404346
1769145576028,123,-5,-3.2750516475867464,0.0067528182973601,0.0773085508440409
1769145576032,124,-4,-3.4927305768575274,0.5451113566693975,-0.1345309818941391
1769145576036,123,-5,-3.5608770273034938,-0.0308112873160597,-0.1981705054374423
1769145576040,123,-5,-3.4443511919748286,-0.2845532098708307,-0.078454025943877
1769145576044,124,-4,-3.1978399389689187,0.7354982078375194,0.170450149315366
1769145576048,124,-4,-2.941596726646074,0.7789112520527359,0.4289799647835082
1769145576052,124,-4,-2.7921771386212697,0.6486515252276135,0.581599399943368
1769145576056,124,-4,-2.795946912524819,0.8347362822270878,0.5827605945773167
1769145576060,124,-4,-2.9067374722160335,0.7265835328665986,0.478037881622857
1769145576064,124,-4,-3.0116589004057843,0.6872334864397862,0.3783779571186088
1769145576068,124,-4,-2.992084955441328,0.7356618662056267,0.4010206943503078
1769145576072,124,-4,-2.801895995749476,0.6109512311652292,0.5927056701784625
1769145576076,124,-4,-2.520206037027281,0.8010155497019222,0.875992397990891
1769145576080,125,-3,-2.3197961036032786,1.672257869878358,1.0789133845542551
1769145576084,125,-3,-2.3455952855946043,1.671071180935121,1.0562884965116712
1769145576088,124,-4,-2.594522465966518,0.6845967917798177,0.8110386625963666
1769145576092,124,-4,-2.907925136364895,0.5524266792371373,0.5018655124656375
1769145576096,124,-4,-3.08428722935507,0.8058319215562371,0.3296860265366979
1769145576100,124,-4,-3.0120590032019283,0.5506799303094212,0.405002345101618
1769145576104,124,-4,-2.725527978839873,0.7650012516751001,0.6931678958044185
1769145576108,125,-3,-2.363812735714023,1.488525226557763,1.0556860016028202
1769145576112,125,-3,-2.0763768472699704,1.6659667491032657,1.3440367335485996
1769145576116,125,-3,-1.94167493525763,1.603898188749961,1.4805068010029756
1769145576120,125,-3,-1.947868602755372,1.6582975264787545,1.4772198833807275
1769145576124,125,-3,-2.0314132116385135,1.6058049196871766,1.3972824057439093
1769145576128,125,-3,-2.125239244445296,1.5529196893842734,1.3066855141940097
1769145576132,125,-3,-2.177466402860502,1.5247244732935492,1.2563529267458216
1769145576136,125,-3,-2.1466570938541065,1.643467206547994,1.2878005665446208
1769145576140,125,-3,-2.005416246137685,1.5425351633875524,1.4295686210422036
1769145576144,125,-3,-1.7628320657952166,1.6478153624624443,1.6735936661436837
1769145576148,126,-2,-1.4768561474168247,2.428087629247564,1.961660838613048
1769145576152,126,-2,-1.227370749231577,2.5678314340427426,2.2127677337940517
1769145576156,126,-2,-1.068979411471928,2.487696680946197,2.3718817540554427
1769145576160,126,-2,-1.013691636197196,2.641403368667572,2.427771816260144
1769145576164,126,-2,-1.0579337027677551,2.4382643002387305,2.384804770198976
1769145576168,126,-2,-1.2126896376155707,2.5855330577353213,2.2316492918695436
1769145576172,126,-2,-1.4958655196364552,2.302171226895594,1.9493780495744808
1769145576176,125,-3,-1.8986112588521875,1.6624384803170011,1.546558143011925
1769145576180,125,-3,-2.37121943759704,1.391772012704466,1.073830236465969
1769145576184,124,-4,-2.8482610870795475,0.5828493407873072,0.5976574844072515
1769145576188,124,-4,-3.2833648226137435,0.3854490007905156,0.1641927320963514
1769145576192,124,-4,-3.6550262505099744,0.3865801210234991,-0.2063916597385136
1769145576196,123,-5,-3.946901131270689,-0.4880097551736213,-0.4986831234697559
1769145576200,123,-5,-4.1409365876881274,-0.5796970907774188,-0.6941546649606618
1769145576204,123,-5,-4.23848431600681,-0.4912360441455234,-0.7928489060228658
1769145576208,123,-5,-4.276922418406523,-0.6755486174643046,-0.8312216665634846
1769145576212,123,-5,-4.307110461051652,-0.5884871016291662,-0.8602820825863713
1769145576216,123,-5,-4.34313326611334,-0.6524975216216369,-0.89519052635222
1769145576220,123,-5,-4.334424602607843,-0.4810502379168628,-0.886506465049977
1769145576224,123,-5,-4.201628361245868,-0.683809650654009,-0.7550457829513935
1769145576228,123,-5,-3.9218094471898697,-0.590835987858954,-0.4770670464780169
1769145576232,124,-4,-3.586983850669832,0.2794341173149908,-0.1438307666054639
1769145576236,124,-4,-3.362308006517542,0.3321731414762272,0.0795793525042984
1769145576240,124,-4,-3.3596393677888376,0.4909481823854751,0.0812712440769694
1769145576244,124,-4,-3.535381105901532,0.2123699133488568,-0.0947103437245067
1769145576248,123,-5,-3.710653441114925,-0.5594432703273231,-0.2692399895985975
1769145576252,124,-4,-3.6998656960286618,0.1485081292334538,-0.2577716191947585
1769145576256,124,-4,-3.438513980959569,0.3709857085596688,0.0023221721560453
1769145576260,124,-4,-3.0159500410376525,0.3634898122765904,0.420916707065984
1769145576264,125,-3,-2.607530816460139,1.2478057527145228,0.8241515048466557
1769145576268,125,-3,-2.3652114000398408,1.3062559634343058,1.0629064142825038
1769145576272,125,-3,-2.3322539978218324,1.1749141450444411,1.0959519438538008
1769145576276,125,-3,-2.422680840845711,1.2672752438219197,1.0087754495641184
1769145576280,125,-3,-2.473328427041768,1.3493939163991016,0.961430740859054
1769145576284,125,-3,-2.347057636242701,1.2016085048346898,1.0870458973757202
1769145576288,125,-3,-2.0384137261863184,1.216472746448563,1.388716061877553
1769145576292,126,-2,-1.7085138051620157,2.205797245903656,1.7067939720237693
1769145576296,126,-2,-1.5894440934377787,2.097487343527996,1.8149997684067056
1769145576300,125,-3,-1.7753581184876823,1.4664807766838717,1.6264023256983613
1769145576304,126,-2,-2.0105169241075087,1.9497657200136391,1.399483991011231
1769145576308,126,-2,-1.6305152322794785,2.3940215697003886,1.7931012888213649
1769145576312,128,0,0.2106400927853942,3.9096295820020615,3.642609213201802
1769145576316,131,3,4.020664680094388,7.309866582824219,7.448121002284917
1769145576320,136,8,9.388060758662654,12.18477046805383,12.79908919471511
1769145576324,142,14,14.772235989455355,18.0839457928873,18.16282677611099
1769145576328,146,18,17.999062518164912,22.230381029487845,21.37416305088427
1769145576332,146,18,17.335223174062275,21.855729020478854,20.70521332567482
1769145576336,140,12,12.509740915033635,16.35259900652118,15.885588114134796
1769145576340,132,4,4.975391241672431,7.923815630278636,8.363980313132142
1769145576344,124,-4,-2.8019359514270756,0.3089611101209115,0.5986431323535495
1769145576348,119,-9,-8.56154202854588,-5.1114793265280145,-5.157489010537715
1769145576352,116,-12,-11.206794612974472,-7.8527786470841106,-7.810978364678088
1769145576356,117,-11,-10.999964164769825,-7.001431697295117,-7.620700132665647
1769145576360,119,-9,-9.04280919711816,-4.8478180327473455,-5.680886570754584
1769145576364,121,-7,-6.5159160844569275,-3.051477276126904,-3.1650635951537556
1769145576368,123,-5,-4.183646365937134,-0.856102737568607,-0.8346902800237661
1769145576372,125,-3,-2.353438888254038,0.7675301388955669,1.000205140549959
1769145576376,126,-2,-1.1007534790494171,2.3191567324121873,2.257744561265429
1769145576380,128,0,-0.4469865580251849,3.690786816180534,2.910637899673963
1769145576384,127,-1,-0.3584016368293397,3.311357510581499,2.991638615948035
1769145576388,127,-1,-0.6783071272458074,2.6520288867728254,2.6618583629798467
1769145576392,126,-2,-1.1515327913138116,2.1682534412068435,2.18193884652172
1769145576396,126,-2,-1.5475035779228283,1.8339037361663155,1.7838754701844586
1769145576400,126,-2,-1.756570304308939,2.0477647712214715,1.5739172934125678
1769145576404,126,-2,-1.7766186992041828,1.8862476964753263,1.549978078678321
1769145576408,126,-2,-1.642320461648677,1.8957729726614447,1.6767217659362137
1769145576412,126,-2,-1.3990827870899205,1.8986319207972309,1.91181242390942
1769145576416,126,-2,-1.1358397272214933,1.9218285467812537,2.1693763475892887
1769145576420,127,-1,-0.9893103050439278,2.921743671695795,2.3125576095057214
1769145576424,127,-1,-1.059230501837939,2.855279810780309,2.239224113462633
1769145576428,126,-2,-1.303808726497736,1.825338919529564,1.9898003570993
1769145576432,126,-2,-1.5421347186007142,1.8669616813505252,1.746024321729439
1769145576436,126,-2,-1.5855866760321962,1.8251343120369263,1.697644516624739
1769145576440,126,-2,-1.3802988062461543,1.9326746650867024,1.8981472908388164
1769145576444,127,-1,-1.033878653089884,2.728638066131403,2.238615239463244
1769145576448,127,-1,-0.7177757554834103,2.8388913523620833,2.5472323473085368
1769145576452,127,-1,-0.545913823051183,2.7374996162734124,2.711407204399552
1769145576456,127,-1,-0.5282920604936531,2.8375888190851972,2.7229159102187768
1769145576460,127,-1,-0.6074831284388694,2.807124927616703,2.639583665454228
1769145576464,127,-1,-0.7130847913193459,2.754278078725251,2.5304308635974264
1769145576468,127,-1,-0.7823533453722077,2.692831596856346,2.4563399162832145
1769145576472,127,-1,-0.756904616794607,2.775563659611672,2.474951981553992
1769145576476,127,-1,-0.5954349103743045,2.6705771091432813,2.6283855057435668
1769145576480,127,-1,-0.3107975915828826,2.8697668723279817,2.905205135671869
1769145576484,128,0,0.0103671163238545,3.580144339579987,3.219567991202293
1769145576488,128,0,0.2479834797243831,3.75014722419613,3.451288780382713
1769145576492,128,0,0.3317131040908661,3.6116159797085943,3.5294859541800503
1769145576496,128,0,0.2981697031515814,3.688180913915542,3.4901557442473754
1769145576500,128,0,0.2697735890396388,3.76529987376107,3.4552708054120336
1769145576504,128,0,0.366058397354999,3.5392853720895294,3.5444341463436952
1769145576508,128,0,0.6123674313729028,3.713773103973448,3.7834309510072193
1769145576512,129,1,0.9210787460891456,4.503485430182151,4.084771984189892
1769145576516,129,1,1.1691965899180248,4.685088697908612,4.3252534524652635
1769145576520,129,1,1.3076080460893913,4.646011896152668,4.456020363774336
1769145576524,129,1,1.3996812529886942,4.539137147052649,4.541226579072618
1769145576528,129,1,1.556850720718435,4.604241437055205,4.692426989217181
1769145576532,130,2,1.8424640205675928,5.482848430076862,4.971849827860484
1769145576536,130,2,2.2318784637663014,5.593943479245688,5.353715509074412
1769145576540,130,2,2.642488555321133,5.6102478433293355,5.755565364699692
1769145576544,131,3,2.9870072452346093,6.462938335016817,6.091127096321106
1769145576548,131,3,3.211179064871308,6.554373022140871,6.306881002989366
1769145576552,131,3,3.306523144614274,6.402311786467842,6.394563734431184
1769145576556,131,3,3.3014982607767536,6.566542391621676,6.382627523565255
1769145576560,131,3,3.242889283240281,6.502515260732661,6.317514749498108
1769145576564,131,3,3.1823538751956812,6.458113563400587,6.250054343398818
1769145576568,131,3,3.1675386052799532,6.436075879998377,6.2270633312299
1769145576572,131,3,3.222727870902992,6.387059456967135,6.2727824235274525
1769145576576,131,3,3.317994154706905,6.4709995086126915,6.358200138465014
1769145576580,131,3,3.355953561970342,6.461839926264493,6.387015605880245
1769145576584,131,3,3.2110792078408688,6.387773520499971,6.233975075555047
1769145576588,131,3,2.815675315956918,6.363660986152046,5.830849549921216
1769145576592,130,2,2.2284285975435525,5.360253272965524,5.23585285618503
1769145576596,129,1,1.6148152248222605,4.323286852278542,4.614380815942974
1769145576600,129,1,1.142474680868229,4.548040556878642,4.133854436332914
1769145576604,129,1,0.8756120128787829,4.1032239251125135,3.858019731405829
1769145576608,128,0,0.7483872412174981,3.5989675864800534,3.720966571566667
1769145576612,129,1,0.6245609601315547,3.940352395663621,3.5869514995899214
1769145576616,128,0,0.3916421392382306,3.6440468855423473,3.3441017229357497
1769145576620,128,0,0.0243689402427594,3.084416543201685,2.967650764097707
1769145576624,127,-1,-0.4214252334641606,2.4265235434758323,2.513598830047178
1769145576628,127,-1,-0.8659308431955,2.1869860481241212,2.061158283724481
1769145576632,127,-1,-1.2532393248103892,2.167337414569306,1.665132445415873
1769145576636,126,-2,-1.555917404391576,1.3570819298873795,1.352510731449248
1769145576640,126,-2,-1.7598850115123463,1.1580057337758527,1.1380867369262928
1769145576644,126,-2,-1.8627720176689944,1.305140177928484,1.0251287768869854
1769145576648,126,-2,-1.8825491935455947,1.104522318145862,0.9957524073455636
1769145576652,126,-2,-1.855913127193301,1.1772406841986405,1.0127606554077415
1769145576656,126,-2,-1.8231474872550728,1.1826599108307745,1.035575778045308
1769145576660,126,-2,-1.811691403262946,1.200968403564894,1.0369472365776071
1769145576664,126,-2,-1.8282292881257236,1.1466714834905667,1.010515811150828
1769145576668,126,-2,-1.8606666476922973,1.0952034550600858,0.9683899840735876
1769145576672,126,-2,-1.8861274869832667,1.103810545464743,0.9330777006504736
1769145576676,126,-2,-1.8809638703519111,1.0691455741327638,0.9279018481102854
1769145576680,126,-2,-1.8320153927250735,1.2272606295448218,0.9661785498024162
1769145576684,126,-2,-1.7470543725367258,0.9425820655823722,1.0405256140089183
1769145576688,126,-2,-1.6533548902350428,1.1925215176398023,1.12364158231836
1769145576692,127,-1,-1.5750044736452231,1.865873407800402,1.1911453943059147
1769145576696,126,-2,-1.506271261033708,1.1605611709737085,1.249064451462773
1769145576700,126,-2,-1.4140376835493185,1.0210292324603478,1.3311649351069463
1769145576704,127,-1,-1.2673155501184628,1.9731415256040572,1.468106942322572
1769145576708,127,-1,-1.055155866242873,2.068672037931318,1.669617238177195
1769145576712,127,-1,-0.7821035930680201,1.809743958450166,1.9308158500374903
1769145576716,127,-1,-0.4702779265600849,2.133483485437928,2.2306538674381446
1769145576720,128,0,-0.1710823627628614,2.8502845584747236,2.518619720018337
1769145576724,128,0,0.0489337946317853,3.040235980488103,2.7278910068516957
1769145576728,128,0,0.1527449531603259,2.8431268642766083,2.8208560026221807
1769145576732,128,0,0.1612434003065934,2.9088336361256557,2.8183189013632326
1769145576736,128,0,0.1324621330233344,2.9025564567304674,2.77834613882388
1769145576740,128,0,0.1145661702043311,2.905662956355984,2.7488576803504765
1769145576744,128,0,0.1166317395756866,2.87823009093568,2.7388221236980685
1769145576748,128,0,0.11595906434438,2.830680187836934,2.7259615705326077
1769145576752,128,0,0.0903739219741409,2.827909500468717,2.6886400721946195
1769145576756,128,0,0.0513701718288636,2.795884411553707,2.63838866720277
1769145576760,128,0,0.0533090565828499,2.896334833030994,2.629176945614148
1769145576764,128,0,0.1639865543764533,2.715023252613367,2.7284543307290985
1769145576768,128,0,0.4101396219249228,2.876437950859734,2.962695529177763
1769145576772,129,1,0.7418719144913977,3.638151975150992,3.281700384537068
1769145576776,129,1,1.051421240889165,3.83156394874284,3.5778625905774173
1769145576780,129,1,1.230870694991362,3.7243808826891858,3.7442977065064538
1769145576784,129,1,1.2214653058557945,3.7129380573176984,3.723183628856153
1769145576788,129,1,1.0312616126191023,3.768433147131738,3.522013528372779
1769145576792,129,1,0.7292398933119351,3.5688467260442933,3.208187112009676
1769145576796,128,0,0.4182142696086581,2.7934071911340963,2.883942525211629
1769145576800,128,0,0.1841102584940265,2.5716063412389705,2.6363522687256697
1769145576804,128,0,0.0510173011867874,2.7443974445546924,2.4908028917423124
1769145576808,128,0,-0.011042420430548,2.576846812398911,2.4171290239567504
1769145576812,128,0,-0.0268305241061907,2.6181573391809274,2.389234400658824
1769145576816,128,0,0.0292857560601254,2.624506349809741,2.4319363261252267
1769145576820,128,0,0.2047971339940272,2.5234209580406612,2.5933421825238643
1769145576824,128,0,0.4886602317243594,2.718246990738135,2.863590769505265
1769145576828,129,1,0.7714973651965826,3.358646178966196,3.1336067955617923
1769145576832,129,1,0.910593691117744,3.806684056450914,3.260031005824511
1769145576836,129,1,0.8509562934093164,3.1802407246864526,3.187481308688642
1769145576840,128,0,0.6814269231508113,2.892124709180135,3.0051089359126486
1769145576844,129,1,0.5654230370854658,3.122532944140789,2.8764481191037063
1769145576848,128,0,0.6106504788807023,2.8391127536655834,2.9085874445654625
1769145576852,129,1,0.7929177147086216,3.194932831161699,3.0767264138813504
1769145576856,129,1,0.9903080046026232,3.612027006374443,3.2592535907235285
1769145576860,129,1,1.0893900723197107,3.3494260673586997,3.3438122934455534
1769145576864,129,1,1.0752871894641616,3.414660078488297,3.3163688721190567
1769145576868,129,1,1.0401148062308403,3.493869209810578,3.2689101820790034
1769145576872,129,1,1.1102275830141124,3.2954462100040596,3.3268693473099704
1769145576876,129,1,1.3491746615143632,3.4719550670428285,3.5527410935225623
1769145576880,130,2,1.7064738114440616,4.2217737154889825,3.8954399585541175
1769145576884,130,2,2.0450640256863686,4.456076924895443,4.218220248227558
1769145576888,130,2,2.21847791163644,4.2309951669492705,4.375843247401056
1769145576892,130,2,2.1395133147303413,4.467777421238883,4.282333831945264
1769145576896,130,2,1.8086879741828628,4.111561735376018,3.938398825882402
1769145576900,129,1,1.3072278989169297,3.4255409399804924,3.4244494630395255
1769145576904,129,1,0.7663460982174574,3.084826690015383,2.8707437965367064
1769145576908,128,0,0.3197981307630525,2.431588249440055,2.4104959567755726
1769145576912,128,0,0.0535608248168366,2.1502753125011735,2.1294756067808938
1769145576916,128,0,-0.0244939346169099,2.244246957131171,2.035600718977164
1769145576920,128,0,0.0213062427795832,2.1527174181423674,2.0651296549036036
1769145576924,128,0,0.0924734826322811,2.1533125186518283,2.120756803208657
1769145576928,128,0,0.1073601722601456,2.2329383263165337,2.1217844290310772
1769145576932,128,0,0.0447692769880592,2.179453067228996,2.0466315670421773
1769145576936,128,0,-0.0389414011082881,2.068780260890106,1.949981336498206
1769145576940,128,0,-0.0378981270108542,2.1513098997779876,1.936249392460767
1769145576944,128,0,0.1296379482598707,1.9802946390408784,2.0873818026431623
1769145576948,128,0,0.4437973789906794,2.241082934031787,2.3850849791311255
1769145576952,129,1,0.7721658063752406,3.039633445081199,2.698201068440601
1769145576956,129,1,0.957811233524498,3.0179205165977514,2.8696797575177184
1769145576960,129,1,0.9452324931353596,3.068043688246306,2.8431246858433266
1769145576964,129,1,0.8286409523313528,2.839164468445483,2.712189925579568
1769145576968,128,0,0.7667072782869657,2.254765127975868,2.6354807997203915
1769145576972,129,1,0.8355166140798859,2.8459876491976575,2.6888994283007044
1769145576976,129,1,0.9568031717174018,3.070990567070354,2.7938852938936267
1769145576980,129,1,0.9684336883739336,2.842608626583897,2.788762212563488
1769145576984,129,1,0.7697338985651813,2.8616168377487976,2.5742616898908235
1769145576988,128,0,0.4131506616775322,2.101885149664347,2.203802393078999
1769145576992,128,0,0.0741100303833897,1.7744585839184237,1.8518711122388185
1769145576996,128,0,-0.0646942031036458,2.061983604102454,1.6988946185217806
1769145577000,128,0,-1.354757438027789,2.0221218707749413,1.977315370930714
1769145577004,128,0,-1.3443137985508673,2.0593751554471806,1.9852476023853416
1769145577008,128,0,-1.31170511761248,1.9640348326178807,2.013114491676285
1769145577012,128,0,-1.2710135340208972,1.9110149198820392,2.046758285897622
1769145577016,128,0,-1.2632320290307173,2.001828919102556,2.0469177946494677
1769145577020,128,0,-1.3074661845017612,1.9559403626755016,1.9980653726862847
1769145577024,128,0,-1.2798491951930044,2.1438842229764337,2.0270843566648833
1769145577028,129,1,-0.8057002873063617,2.8100961875993966,2.507994465032481
1769145577032,130,2,0.6893854060960696,4.087550328220363,4.010096882953664
1769145577036,133,5,3.68279447809801,6.780247163044029,7.004163139669588
1769145577040,137,9,8.108237881454468,11.177390333721371,11.42043355451836
1769145577044,142,14,13.04500736267631,15.911370234956204,16.340499105595356
1769145577048,146,18,16.852565125889306,19.98397851480819,20.13038247944245
1769145577052,148,20,17.828688139314654,21.937596082260846,21.094633145414814
1769145577056,145,17,15.0924664393166,18.83389265461176,18.355965325419746
1769145577060,138,10,9.152807222275769,12.14034050461366,12.422409276265258
1769145577064,131,3,1.762580258149448,4.880869923308287,5.041763779269695
1769145577068,124,-4,-4.882813575992593,-1.988951580612744,-1.5976724697124292
1769145577072,120,-8,-9.122467168429509,-6.070132784602038,-5.840417945954707
1769145577076,119,-9,-10.431546476334749,-7.166922782956268,-7.162458071168553
1769145577080,120,-8,-9.383109694891836,-5.843200086471486,-6.132865119231241
1769145577084,123,-5,-7.116643229395288,-3.1973636634871387,-3.8844051703693134
1769145577088,124,-4,-4.716535595761021,-1.9274680799468369,-1.4952999583600948
1769145577092,126,-2,-2.849330239698548,-0.1808110889368763,0.3698303632762603
1769145577096,128,0,-1.7299297999054843,1.9452323961174336,1.4921449988249305
1769145577100,128,0,-1.2610849470904235,2.017407067269184,1.962032431692144
1769145577104,128,0,-1.1908944763267892,1.9048922918973392,2.026973247480012
1769145577108,128,0,-1.247776764446687,1.97439939714836,1.9591713450932713
1769145577112,128,0,-1.2555743270359574,1.842878627429374,1.9385967127828092
1769145577116,128,0,-1.196572200480842,1.975438864853148,1.9865064886132775
1769145577120,128,0,-1.1797786838239628,1.9174835806466823,1.9950287389351968
1769145577124,128,0,-1.32289765806861,2.0283245203477525,1.845228117332164
1769145577128,128,0,-1.626271463827941,1.783898214728849,1.5348776432388098
1769145577132,127,-1,-1.941685026615936,1.027752933472208,1.2114587217617658
1769145577136,127,-1,-2.0745077129237206,0.7672048093317883,1.070065395900013
1769145577140,127,-1,-1.9374829117013113,1.1224629848763614,1.1981394923841755
1769145577144,128,0,-1.6168718783016232,1.7996269729124577,1.5087359053578713
1769145577148,128,0,-1.2943331177454498,1.982952148876526,1.819949891028821
1769145577152,128,0,-1.1079263974203808,1.8113215430301353,1.9949741778131873
1769145577156,128,0,-1.077547339069775,1.9464899952697683,2.015523304730867
1769145577160,128,0,-1.1337336694137072,1.954993935261808,1.951073064289072
1769145577164,128,0,-1.1920422910046116,1.910387562875003,1.8843414503272795
1769145577168,128,0,-1.2046067694918292,1.892590816152044,1.8615104445030557
1769145577172,128,0,-1.1697772562744313,1.8361735098735648,1.8841215712306745
1769145577176,128,0,-1.1170020684229065,1.9357350197762604,1.9240576317242168
1769145577180,128,0,-1.0846161497243991,1.9277381919385448,1.9444800547188277
1769145577184,128,0,-1.0970541968952945,1.922545920783756,1.92145573613289
1769145577188,128,0,-1.1458024074660853,1.8711149904440243,1.8627015874620565
1769145577192,128,0,-1.183566178831212,1.8064737892598728,1.8141100526851557
1769145577196,128,0,-1.1427916474520248,1.9788730623358144,1.842497196651975
1769145577200,128,0,-0.9785527433830808,1.835523727112118,1.9934345165297032
1769145577204,128,0,-0.7105456302817079,2.0192596199289348,2.248479949661152
1769145577208,129,1,-0.4211065450501325,2.745101789803856,2.525695363877025
1769145577212,129,1,-0.1931005986173117,2.898746380460949,2.741525938456564
1769145577216,129,1,-0.0369891387508054,2.890922266337407,2.8849590305506747
1769145577220,129,1,0.115876317046129,2.8707315332589665,3.0249486414069056
1769145577224,129,1,0.3393011976913063,3.000980739605432,3.2356195082125123
1769145577228,130,2,0.6321909041185334,3.702885848040884,3.5153581942930403
1769145577232,130,2,0.9133270895250268,3.955595697811204,3.7822986032727934
1769145577236,130,2,1.089147495645971,3.794434394605021,3.9433059841857663
1769145577240,130,2,1.1240730086754365,3.951904647901972,3.963987710330783
1769145577244,130,2,1.0592248082229538,3.9071222294442745,3.885901333194893
1769145577248,130,2,0.9834835666373336,3.742205036234559,3.79708402553062
1769145577252,130,2,0.988064529289962,3.940984450435846,3.7877648967934943
1769145577256,130,2,1.1266826878567435,3.761574740107992,3.911653839625453
1769145577260,130,2,1.394585881622601,3.9750529585269647,4.16462593248491
1769145577264,131,3,1.7385836430941897,4.87391997283206,4.493718821384718
1769145577268,131,3,2.0936853554472585,4.711945439206955,4.833655449176828
1769145577272,131,3,2.4148587692234726,5.009238689274719,5.13933362463707
1769145577276,132,4,2.675407135937179,5.625884413785102,5.384450681381009
1769145577280,131,3,2.8437600284498643,5.124425297049153,5.537660117791146
1769145577284,132,4,2.87918448965582,5.675717543821572,5.55779637182119
1769145577288,132,4,2.76487135983213,5.8984197268544225,5.427586420166225
1769145577292,131,3,2.5448769316756703,4.813529196970272,5.191561269283846
1769145577296,131,3,2.3148612413131584,4.783067562943259,4.946326854046385
1769145577300,131,3,2.166991875502723,4.97865269456726,4.783866153421352
1769145577304,131,3,2.1416298018312387,4.749459149131222,4.743009407410073
1769145577308,131,3,2.2193596708060985,4.853188643476809,4.803294827415984
1769145577312,131,3,2.33556990924189,4.820882617243555,4.900954070140836
1769145577316,131,3,2.395968897119974,4.750421479660712,4.943554583053708
1769145577320,131,3,2.3041275622932567,5.012220671421355,4.835624427765161
1769145577324,131,3,2.012531031229441,4.6480233536342865,4.52900795761797
1769145577328,130,2,1.5663902704113508,3.981945715996845,4.067592092934451
1769145577332,130,2,1.088021418457164,3.650154784641863,3.5728067083306536
1769145577336,129,1,0.6932782854905092,2.9064814108067956,3.1603580848984394
1769145577340,129,1,0.4007872204982722,2.836965137817108,2.8492451085879544
1769145577344,129,1,0.113293789615178,2.784860064037673,2.542950039786364
1769145577348,128,0,-0.3055410311471045,1.8596847633032447,2.1060225121007963
1769145577352,128,0,-0.914257553428964,1.7180961551871128,1.4804170683460391
1769145577356,127,-1,-1.6252519488477373,0.8654183043931118,0.7534000682846831
1769145577360,126,-2,-2.2401660136306423,-0.2243118553702501,0.1223861188348249
1769145577364,126,-2,-2.570260404850183,-0.0845024516535662,-0.2247890573881944
1769145577368,126,-2,-2.5580233080426837,-0.3711089133837316,-0.230959094077616
1769145577372,126,-2,-2.312362771811169,0.0163710979749545,-0.0046557871646907
1769145577376,127,-1,-2.0353377131638606,0.4828793017899939,0.2528952356608163
1769145577380,126,-2,-1.8981680796025395,0.1624583626602365,0.3712053881607784
1769145577384,127,-1,-1.9538042782844336,0.4877752500402951,0.2975747324357403
1769145577388,126,-2,-2.1371524197630216,0.0490348135229204,0.0969431304926911
1769145577392,126,-2,-2.336445705229636,-0.4166758248991082,-0.1193263219127679
1769145577396,126,-2,-2.4701071767796465,-0.1131626002256027,-0.2703681232013583
1769145577400,126,-2,-2.509686065625791,-0.2526787780296575,-0.3284773986470106
1769145577404,126,-2,-2.449720309064862,-0.1498750611784152,-0.2881238943637011
1769145577408,126,-2,-2.2806442461953917,-0.276871730396808,-0.138605462760712
1769145577412,126,-2,-2.0049030792183764,-0.1681691441079748,0.1186310810375953
1769145577416,127,-1,-1.669582539008846,0.6798660293676996,0.4361025391802752
1769145577420,127,-1,-1.3633241168167716,0.8644504120645337,0.7239450747883933
1769145577424,127,-1,-1.173955134628257,0.7680172944219569,0.8939037612035821
1769145577428,127,-1,-1.1503109316639433,0.7486763784562634,0.897838223982359
1769145577432,127,-1,-1.293575256255408,0.8181473421686166,0.7353023581768932
1769145577436,127,-1,-1.563659659444167,0.642723310269213,0.446608240054358
1769145577440,126,-2,-1.886951579756712,-0.100942345216072,0.105415100141462
1769145577444,126,-2,-2.171460425795324,-0.2981512890187994,-0.1965523767690165
1769145577448,126,-2,-2.330408864727853,-0.1927801634393191,-0.3735738109453985
1769145577452,126,-2,-2.30513326774865,-0.2580409294810545,-0.3681030918537737
1769145577456,126,-2,-2.08808261373245,-0.3169122644280174,-0.1722521494603504
1769145577460,126,-2,-1.744734065722615,-0.1365959311010118,0.150299531600637
1769145577464,127,-1,-1.404067791602108,0.6770579900602529,0.4720022781305614
1769145577468,127,-1,-1.1890025840211464,0.8658836771200121,0.6696416576484655
1769145577472,127,-1,-1.122854610207647,0.6104571697903786,0.7184169963064095
1769145577476,127,-1,-1.1002636923509597,0.8406489194193834,0.7224410072121632
1769145577480,127,-1,-0.9692000011988696,0.6449028568531874,0.8336009164818747
1769145577484,127,-1,-0.6667739679746019,0.8851554990414028,1.1156393416239436
1769145577488,128,0,-0.2912322874634322,1.6674491630119566,1.471363586760028
1769145577492,128,0,-0.0382215330060557,1.7454042433889316,1.7055048999386646
1769145577496,128,0,-0.0460145355709774,1.7514320641999577,1.679227898771968
1769145577500,128,0,-0.2797813357207375,1.6218602365472865,1.4265414088699986
1769145577504,127,-1,-0.5593393401778781,0.9677079863689068,1.127558008470708
1769145577508,127,-1,-0.712077623993977,0.4948160590354251,0.9555826043992924
1769145577512,127,-1,-0.7132596687512074,0.9706820103426784,0.935675002400049
1769145577516,128,0,-0.677777743649322,1.4663597201741534,0.9523893977911606
1769145577520,127,-1,-0.7126570369594691,0.8940315210454535,0.8983025691404107
1769145577524,127,-1,-0.786998439198564,0.683113109920389,0.8048656243834931
1769145577528,127,-1,-0.7570900712809361,0.7250693965085078,0.8163702160213921
1769145577532,127,-1,-0.5188832189784109,0.7718424592272974,1.0362647763432236
1769145577536,128,0,-0.1336259155969817,1.6000439791597614,1.4020406314361156
1769145577540,128,0,0.1927154175582171,1.7909619058807558,1.7075529158900875
1769145577544,128,0,0.2563986106911122,1.717367162762056,1.750665861197226
1769145577548,128,0,0.0055750296464626,1.6937246727683708,1.481504064457328
1769145577552,127,-1,-0.4202068022883385,0.7758171208738698,1.0397709929308174
1769145577556,127,-1,-0.7790475999777919,0.5607178695481897,0.6651205294749337
1769145577560,127,-1,-0.8729515927919669,0.860504720252568,0.5529202317065178
1769145577564,127,-1,-0.658922207324996,0.5678989512256505,0.7459271077311294
1769145577568,127,-1,-0.2698321458249143,0.879160543723444,1.113672198710827
1769145577572,128,0,0.0653735518209396,1.5296112844090286,1.4294774203943168
1769145577576,128,0,0.169608425403369,1.7995253405129992,1.5161481443731903
1769145577580,128,0,0.0437589277824287,1.6201398585068871,1.3731449508389886
1769145577584,127,-1,-0.1375482464700758,0.750250617148247,1.1745437641686296
1769145577588,127,-1,-0.1745482103999666,0.7165857112934266,1.1203553615263933
1769145577592,128,0,-0.005723756450939,1.6243086411743144,1.2716216727860068
1769145577596,128,0,0.264400905417964,1.7373728701007218,1.5228328774726227
1769145577600,128,0,0.4804177353651964,1.6333807926176185,1.7188324759664872
1769145577604,128,0,0.5642225763185724,1.7459962746235578,1.7832459932247535
1769145577608,128,0,0.5451497926268425,1.6583543665301028,1.7467451348793044
1769145577612,128,0,0.4998395238870273,1.6740472367009664,1.6855052176604195
1769145577616,128,0,0.4818818908681896,1.678919829672805,1.6515180867553867
1769145577620,128,0,0.4986460417492472,1.676102648794912,1.651015078452637
1769145577624,128,0,0.5322586579557786,1.6967338336518027,1.6662039030998632
1769145577628,128,0,0.5675179348571783,1.6497722930550895,1.6827663985175456
1769145577632,128,0,0.598988694193344,1.6752431279842264,1.6961600789313598
1769145577636,128,0,0.6204129978818838,1.6616667423222706,1.7005410238160938
1769145577640,128,0,0.6192457419304296,1.6870557977670295,1.6831825121792907
1769145577644,128,0,0.5911259662864494,1.672682396119619,1.6390681605490784
1769145577648,128,0,0.5630512805530042,1.6158734226841582,1.5944874405470155
1769145577652,128,0,0.5957756985591665,1.7112231941477651,1.610066144884324
1769145577656,128,0,0.7475386498122758,1.5904785795891847,1.7446812853818774
1769145577660,128,0,1.0206865902386677,1.778786472392728,2.001324347042392
1769145577664,129,1,1.3433426284870715,2.5373623376107073,2.3079025603844316
1769145577668,129,1,1.6146648771575918,2.726895016532984,2.562850349868852
1769145577672,129,1,1.775470042416241,2.573520150876144,2.7069396233823566
1769145577676,129,1,1.8345883087489216,2.7100354912656655,2.749856898517341
1769145577680,129,1,1.8306203677617616,2.672761599420336,2.730772250207071
1769145577684,129,1,1.779401705845147,2.581202568622439,2.6648281705151
1769145577688,129,1,1.6650368949755794,2.7037424813597544,2.5348565180231795
1769145577692,129,1,1.4745050156664183,2.5134916168702963,2.327681237191997
1769145577696,128,0,1.2249895364714676,1.8221696799882063,2.061944838863055
1769145577700,128,0,0.9504512801003188,1.4941889414913232,1.7729198353653195
1769145577704,128,0,0.6747870767106194,1.7748938840787256,1.4837952638677088
1769145577708,128,0,0.4137498360492789,1.4617316617094562,1.2084308114870224
1769145577712,127,-1,0.1922652826987471,0.7314378337625715,0.9712194965683864
1769145577716,127,-1,0.031039253734714,0.6224805232515351,0.7942727016940367
1769145577720,127,-1,-0.0912652371959812,0.6306910934542265,0.6575088716103079
1769145577724,127,-1,-0.2390261017122446,0.6694890683897032,0.4961307702297457
1769145577728,127,-1,-0.4612428750338114,0.4863434599615632,0.2600889162509991
1769145577732,126,-2,-0.7343107154471378,-0.2610808095399508,-0.0270513049483664
1769145577736,126,-2,-0.9742942846431368,-0.4417222806720717,-0.2806175829111905
1769145577740,126,-2,-1.1069048672155395,-0.2938113937166562,-0.4261982635981276
1769145577744,126,-2,-1.1222919833641722,-0.4455412789693453,-0.4546812895473304
1769145577748,126,-2,-1.069491066249004,-0.4137128411488158,-0.4156140953509211
1769145577752,126,-2,-1.010999163648492,-0.3694100359248202,-0.3711054925383015
1769145577756,126,-2,-0.9830711088372216,-0.3737714603159672,-0.3566191546298591
1769145577760,126,-2,-0.9857134614613452,-0.3563461845970774,-0.3717256656510987
1769145577764,126,-2,-0.9977225112527768,-0.4295127927529401,-0.3953569355568094
1769145577768,126,-2,-0.9989933649581976,-0.4288119386050968,-0.4079542232176916
1769145577772,126,-2,-0.9837600397209468,-0.3832563124504282,-0.4044935750695893
1769145577776,126,-2,-0.9591499841910456,-0.3752327765192211,-0.392662056740702
1769145577780,126,-2,-0.9362036460548288,-0.374868347645364,-0.3832799851610344
1769145577784,126,-2,-0.9241118834848956,-0.4330544451869287,-0.3842499746481289
1769145577788,126,-2,-0.9289460145872144,-0.4450908689748272,-0.3999719172345568
1769145577792,126,-2,-0.9486963087606748,-0.3824600488890013,-0.4278805573301316
1769145577796,126,-2,-0.9636017845700376,-0.396825886480928,-0.4498800597551033
1769145577800,126,-2,-0.9390130509240902,-0.3751679401712608,-0.4346164457845807
1769145577804,126,-2,-0.858215742925872,-0.4433887076893477,-0.3679265361368189
1769145577808,126,-2,-0.7668436562312869,-0.475509502384019,-0.2946527850792191
1769145577812,126,-2,-0.7665186301710024,-0.3397654663543135,-0.3117322585274955
1769145577816,126,-2,-0.9025385609605614,-0.4931625749559438,-0.4585529906785095
1769145577820,126,-2,-0.9780875129773045,-0.2643182412086695,-0.5356938758504759
1769145577824,127,-1,-0.4444562924176336,0.3997579523806576,0.0019126786376406
1769145577828,128,0,1.4501774503982712,1.676140288907288,1.8977678674351095
1769145577832,132,4,5.206340308432771,5.492624833767014,5.645053683065134
1769145577836,137,9,10.522215424704427,10.653644812887364,10.941127821502665
1769145577840,142,14,16.04412310218083,15.594435270054069,16.438537363157344
1769145577844,147,19,19.742755069358825,20.48566553212064,20.11634057337972
1769145577848,148,20,19.861495502803155,21.601081987907065,20.223243703905517
1769145577852,143,15,15.91415720740455,16.46999098487464,16.27408068457935
1769145577856,135,7,9.051258230985187,8.69601521327968,9.416912115860711
1769145577860,128,0,1.5046944095337471,1.483584317505425,1.877886705787003
1769145577864,122,-6,-4.5198676091582515,-4.384291327888675,-4.144958951217476
1769145577868,119,-9,-7.784165288767519,-7.500760098450108,-7.418452566599634
1769145577872,119,-9,-8.291705936713857,-7.455478939911164,-7.9445734702092
1769145577876,120,-8,-6.91032093219826,-6.332752945864332,-6.583781164271297
1769145577880,122,-6,-4.735188993661784,-4.631624328813445,-4.4233438328370625
1769145577884,124,-4,-2.608501756643261,-2.1853269624790963,-2.3021860367656446
1769145577888,126,-2,-0.9711448063942016,-0.8404418928015209,-0.6636876234685758
1769145577892,126,-2,0.0420624400236517,-0.0028476250711748,0.351826674643904
1769145577896,128,0,0.4581445783175698,1.0959886670214671,0.766631469349478
1769145577900,127,-1,0.3955729158647902,0.9560681797536048,0.6977962109708442
1769145577904,127,-1,0.0481989164084882,0.1864159862417307,0.3415007780215475
1769145577908,126,-2,-0.3609726924497827,-0.2470100914230781,-0.0754367396198367
1769145577912,126,-2,-0.6724647872803866,-0.523898631884339,-0.3916308602401674
1769145577916,126,-2,-0.85071145368822,-0.5161467467227012,-0.5728414915798539
1769145577920,126,-2,-0.9470509263211204,-0.3258558976438253,-0.6728230462899387
1769145577924,126,-2,-1.0071970302737667,-0.7049270685856666,-0.7377752239723876
1769145577928,125,-3,-1.0244256970132797,-1.227343741948968,-0.7593483767988867
1769145577932,126,-2,-0.9745432536632214,-0.6658169917570897,-0.7122409177809197
1769145577936,126,-2,-0.8685445618899041,-0.3162391812146177,-0.6084550797029538
1769145577940,126,-2,-0.7546421020742711,-0.5982727677657349,-0.4977541896658823
1769145577944,126,-2,-0.680247852660986,-0.4464938359960217,-0.4274177360471936
1769145577948,126,-2,-0.6656068503766885,-0.4748190810074066,-0.4160763003915644
1769145577952,126,-2,-0.7049886185337841,-0.4845590756927866,-0.4569611123671804
1769145577956,126,-2,-0.7725505344276186,-0.4446855474490201,-0.5249778371838336
1769145577960,126,-2,-0.8203302502773803,-0.5752590018320558,-0.5738076416657745
1769145577964,126,-2,-0.7859706123261403,-0.4177480697931295,-0.5417783914452017
1769145577968,126,-2,-0.6279373366820402,-0.573863398263929,-0.3863506652566262
1769145577972,126,-2,-0.3682066579672071,-0.3685024923857298,-0.128070661096838
1769145577976,127,-1,-0.0914625181964734,0.416443703512986,0.1485080650880688
1769145577980,127,-1,0.1201379962599679,0.5212950054813636,0.3601332146993989
1769145577984,127,-1,0.2615914909339288,0.4954095230192661,0.5011604539221013
1769145577988,127,-1,0.4061583270787947,0.4596776672974623,0.6454414025154753
1769145577992,127,-1,0.6238030540722677,0.6153333693285663,0.8635846115693535
1769145577996,128,0,0.9027104757066826,1.3837384114208513,1.1433171094219892
1769145578000,128,0,1.156468149461972,1.561351303770411,1.3973869130296157
1769145578004,128,0,1.302319389271854,1.4151413395241663,1.5432329876018631
1769145578008,128,0,1.3258321133859077,1.5353112296671592,1.5675191598129152
1769145578012,128,0,1.278208093965128,1.508812442773717,1.5219708213763086
1769145578016,128,0,1.2269031484200017,1.4713049731380765,1.473326662856908
1769145578020,128,0,1.2105382554395816,1.4675663317847167,1.459165764051534
1769145578024,128,0,1.2261629415696365,1.4786160905617125,1.4763241775235996
1769145578028,128,0,1.2452724827234622,1.4685510161073445,1.4969797168774548
1769145578032,128,0,1.241257234735874,1.5300321467013758,1.4952635096023197
1769145578036,128,0,1.211424920350353,1.4606110556901255,1.468593618999029
1769145578040,128,0,1.1820660475709572,1.4233853397431169,1.4428301151496468
1769145578044,128,0,1.1932801022571993,1.5581738731355743,1.4576532284747843
1769145578048,128,0,1.2724603611974203,1.3073768348806625,1.5403470910110646
1769145578052,128,0,1.4162289714975251,1.729855560683377,1.6876290665314253
1769145578056,129,1,1.5962103318663885,2.1884718113050323,1.871365124075005
1769145578060,128,0,1.7808289398911472,1.7226978695808872,2.0603420601751745
1769145578064,129,1,1.9500483894429217,2.214268969197667,2.2345691716983853
1769145578068,129,1,2.094001143788155,2.64400604408756,2.383587915753559
1769145578072,129,1,2.20399459206993,2.364191787090548,2.498154492820378
1769145578076,129,1,2.261535151698154,2.5311835296413037,2.5601160082388232
1769145578080,129,1,2.2313015262920324,2.388572389847292,2.534966536389321
1769145578084,129,1,2.075821133564972,2.4888670946718987,2.38543953809587
1769145578088,129,1,1.7958548690030232,2.4015155525027945,2.1118444649354826
1769145578092,128,0,1.4597637961931735,1.5266543709155806,1.782278720735514
1769145578096,128,0,1.178737174549557,1.4018420512550385,1.508032561713829
1769145578100,128,0,1.038110379424643,1.470717920393268,1.3743114331301007
1769145578104,128,0,1.043063235816266,1.3970814969448933,1.3859021686282216
1769145578108,128,0,1.1193082530672047,1.489975876112321,1.46850821379051
1769145578112,128,0,1.1577113261384713,1.387781073461521,1.5134682822201266
1769145578116,128,0,1.0675850070923771,1.5542742182801346,1.4304456088902462
1769145578120,128,0,0.810727938063027,1.267124373398906,1.1812588088913345
1769145578124,127,-1,0.4018682435232407,0.6089565929379692,0.7806732419656597
1769145578128,127,-1,-0.1195337400036549,0.2430955713931886,0.268142412934536
1769145578132,126,-2,-0.71709051597875,-0.3763818436994466,-0.3204549734062156
1769145578136,126,-2,-1.3576295113480206,-0.7077891464607915,-0.9526340528069568
1769145578140,125,-3,-1.9950618853829396,-1.4821094687626508,-1.5821384974646515
1769145578144,124,-4,-2.574594659608446,-2.6585693761636287,-2.1531693745656035
1769145578148,124,-4,-3.061252022826696,-2.5170083292368233,-2.630329281916577
1769145578152,124,-4,-3.452773616534912,-2.618621583081874,-3.0121105839979947
1769145578156,123,-5,-3.75720513417954,-3.514004780265073,-3.3071693833722113
1769145578160,123,-5,-3.9702497530809233,-3.650001979554177,-3.51068525006879
1769145578164,123,-5,-4.085024024934241,-3.55074481238037,-3.615112916342209
1769145578168,123,-5,-4.114897807685791,-3.6152915523334057,-3.634264141551129
1769145578172,123,-5,-4.095282247515018,-3.563039342903608,-3.604579232863647
1769145578176,123,-5,-4.065731648098582,-3.5669327153497785,-3.565755400692258
1769145578180,123,-5,-4.056284874884133,-3.625211845277653,-3.546676898754479
1769145578184,123,-5,-4.084952564334991,-3.5917572368304023,-3.5640797702693385
1769145578188,123,-5,-4.151715655199413,-3.5968395015722803,-3.6180206367113903
1769145578192,123,-5,-4.222644344211581,-3.6076159404392265,-3.6761241903261
1769145578196,123,-5,-4.226325785890394,-3.5184017673880943,-3.66850600974918
1769145578200,123,-5,-4.09166104747335,-3.7116145410761887,-3.5239801248411613
1769145578204,123,-5,-3.815320832393567,-3.509002531756139,-3.237629400619663
1769145578208,124,-4,-3.4945723927575907,-2.7141445716122665,-2.905255423206885
1769145578212,124,-4,-3.2710461821743615,-2.5040724653916637,-2.6684052638571174
1769145578216,124,-4,-3.2169049665168012,-2.625907948865836,-2.6003961191998175
1769145578220,124,-4,-3.266585454311839,-2.638553041148454,-2.6370421116786567
1769145578224,124,-4,-3.2674245120998093,-2.5912753659147616,-2.626163209609023
1769145578228,124,-4,-3.1166830428239516,-2.673162152016087,-2.464119263157079
1769145578232,124,-4,-2.868100394822401,-2.539895002857886,-2.2032539276160192
1769145578236,125,-3,-2.701424021653936,-1.6115033578502516,-2.022978872915413
1769145578240,125,-3,-2.7621218456200807,-1.6590071624123106,-2.0696930110607346
1769145578244,124,-4,-3.0124750658034065,-2.615712415390288,-2.3065066630388027
1769145578248,124,-4,-3.2458359099705527,-2.655029514436992,-2.526612242175598
1769145578252,124,-4,-3.2630714879007594,-2.6020208642821627,-2.5303218753176604
1769145578256,124,-4,-3.046965284237169,-2.517968562801153,-2.3003703816154175
1769145578260,125,-3,-2.769923988483291,-1.8075929850832773,-2.0096785495887652
1769145578264,125,-3,-2.628524812173591,-1.436634153173014,-1.855117515709361
1769145578268,125,-3,-2.660970421580223,-1.930503070930424,-1.8742319419987088
1769145578272,124,-4,-2.7188745072684526,-2.2853257965257865,-1.9175184295464
1769145578276,125,-3,-2.613992137077724,-1.8964920435520365,-1.796679278316623
1769145578280,125,-3,-2.2918994087570774,-1.4047382666817223,-1.4588333279857493
1769145578284,126,-2,-1.8722006827798336,-0.8619645774443614,-1.0251658958715186
1769145578288,126,-2,-1.5386694527358908,-0.5535676925429731,-0.6791945318589786
1769145578292,126,-2,-1.398297989397755,-0.6458462434633502,-0.5259626669074181
1769145578296,126,-2,-1.428540454105595,-0.611056739750672,-0.541262217084401
1769145578300,126,-2,-1.5293916810341115,-0.6350477080573542,-0.6252614287754764
1769145578304,126,-2,-1.609865169911922,-0.710603283905397,-0.6886364301309095
1769145578308,126,-2,-1.635694493608028,-0.6704453381917342,-0.6987403816778888
1769145578312,126,-2,-1.620601069290189,-0.6004336927639959,-0.6696772720222955
1769145578316,126,-2,-1.5932476713616652,-0.6360332462443612,-0.629109872779759
1769145578320,126,-2,-1.578451408521254,-0.6541671171068505,-0.6002547721062435
1769145578324,126,-2,-1.600126124397067,-0.6734353460957139,-0.6060927621894844
1769145578328,126,-2,-1.681128618338284,-0.7685979946353995,-0.6700840281277013
1769145578332,126,-2,-1.82015780479536,-0.4858126811585164,-0.7925002307325729
1769145578336,126,-2,-1.9674227145605143,-0.806646764059148,-0.9243929053172074
1769145578340,125,-3,-2.043845677072275,-1.461791637307147,-0.9859950530496284
1769145578344,126,-2,-2.0050684075388525,-0.9056205128845516,-0.9319132189368192
1769145578348,126,-2,-1.8866061368377245,-0.5480149079404285,-0.7976489981591058
1769145578352,126,-2,-1.7758882269110423,-0.7282461497522336,-0.6712476625599882
1769145578356,126,-2,-1.7384730238171395,-0.5882866483028788,-0.6183379478005616
1769145578360,126,-2,-1.7727857961487894,-0.6724550749185675,-0.6368370097831955
1769145578364,126,-2,-1.828609547910098,-0.7519805042142741,-0.6763457709022332
1769145578368,126,-2,-1.8597883842298637,-0.6806974946926605,-0.6911996626046505
1769145578372,126,-2,-1.8601559471210172,-0.657903835637194,-0.6757685315075876
1769145578376,126,-2,-1.858234099475346,-0.6308715875158024,-0.6584646269226503
1769145578380,126,-2,-1.8842749359160404,-0.6764179253351574,-0.6689263181406991
1769145578384,126,-2,-1.939792161032504,-0.7484111902443663,-0.708342214819037
1769145578388,126,-2,-1.9898988148708987,-0.7254037661954016,-0.742180588318107
1769145578392,126,-2,-1.9809085985987196,-0.6126904861473743,-0.7172087857891872
1769145578396,126,-2,-1.873468910714872,-0.7082486951296103,-0.5939346334525524
1769145578400,126,-2,-1.670869485525608,-0.5883457314802583,-0.3752566555298917
1769145578404,127,-1,-1.4163719000190984,0.1108359486595618,-0.1046064921682319
1769145578408,127,-1,-1.15529538808111,0.423542352237291,0.172197652900723
1769145578412,127,-1,-0.9002898410374554,0.1935408994038472,0.4426258468768644
1769145578416,127,-1,-0.6418591835788703,0.4934826113403514,0.7167880076530235
1769145578420,128,0,-0.3890478264112678,1.183130244788443,0.9856819341396466
1769145578424,128,0,-0.1841629861913811,1.3110347629315953,1.2064076310132426
1769145578428,128,0,-0.0718912573957628,1.2235288563295923,1.3341170388767414
1769145578432,128,0,-0.0606547984256782,1.3496347811114375,1.36097194558112
1769145578436,128,0,-0.1150456327098365,1.3525914584745216,1.3227856259289856
1769145578440,128,0,-0.179425448139572,1.2722900496278176,1.2747698715562228
1769145578444,128,0,-0.2107616908211196,1.2332242093100152,1.2591724824123252
1769145578448,128,0,-0.2015769422730449,1.258026440434699,1.2831600020518723
1769145578452,128,0,-0.1812035796108897,1.320024077371289,1.3178443170399934
1769145578456,128,0,-0.1922751963985338,1.347617254096093,1.3214378287583193
1769145578460,128,0,-0.2539369423010774,1.2737851367865878,1.275423794904457
1769145578464,128,0,-0.3353501527237353,1.195913902573191,1.210567579262125
1769145578468,128,0,-0.361178220634371,1.2955811086407083,1.201410316484916
1769145578472,128,0,-0.2536540985366231,1.245516317367821,1.324667230388509
1769145578476,128,0,0.0094189013140029,1.4282326440267543,1.60187470481562
1769145578480,129,1,0.3599868926263805,2.1523995971979843,1.9652826002851873
1769145578484,129,1,0.6589257011506284,2.321209804500657,2.2771793389305968
1769145578488,129,1,0.7639754735650162,2.1296321669514873,2.396912562054685
1769145578492,129,1,0.6103931688126648,2.412378173977551,2.2599209022877713
1769145578496,129,1,0.2598135133062944,2.227569562388129,1.9261702394385876
1769145578500,128,0,-0.1222602659726848,1.3429170278899394,1.5592770044946176
1769145578504,128,0,-0.3689090541846359,1.111947384528699,1.325829009456441
1769145578508,128,0,-0.43429231372711,1.3204405844703615,1.2728250408856
1769145578512,128,0,-0.4319096972589439,1.208417505147758,1.2880730433907357
1769145578516,128,0,-0.5390673376920483,1.40853929596247,1.1947965713717343
1769145578520,128,0,-0.838117735369618,1.160491010057814,0.9104325758701048
1769145578524,127,-1,-1.2316011731460916,0.2452933663721948,0.5318788817230327
1769145578528,127,-1,-1.5095663633848015,0.199481920780273,0.2683799934543732
1769145578532,127,-1,-1.5136637710580223,0.2757567028412544,0.2776678463890151
1769145578536,127,-1,-1.259034482841257,0.3666865801881711,0.5445603257669382
1769145578540,128,0,-0.9157576171826092,1.1575438706218404,0.8997342780497088
1769145578544,128,0,-0.6718230868709683,1.2605814133923392,1.1561834450903712
1769145578548,128,0,-0.59313747013572,1.118308091079138,1.2482879784037573
1769145578552,128,0,-0.5911675367144867,1.3785755416221304,1.26389525157393
1769145578556,128,0,-0.5168046364685762,1.208929355908304,1.3512053281997454
1769145578560,128,0,-0.2975240064185939,1.340060272265345,1.58252489895035
1769145578564,129,1,-0.0016593969567761,2.0406132692876824,1.8900024306695309
1769145578568,129,1,0.2262610064080212,2.3168179696956797,2.129585417763032
1769145578572,129,1,0.3038474665356755,2.1751079856427222,2.21894800977378
1769145578576,129,1,0.2977904831755392,2.3603407551935938,2.22470544522098
1769145578580,129,1,0.3753948685774775,2.232922999978595,2.314275731910471
1769145578584,129,1,0.6588189162780786,2.0531474546511537,2.609791260836447
1769145578588,130,2,1.1145456351044782,3.3690301240100697,3.077053899887624
1769145578592,131,3,1.58198703061638,4.028088658627728,3.5546750609624733
1769145578596,130,2,1.909414891875292,3.5501308335125046,3.8912043599865895
1769145578600,131,3,2.0642141443106983,4.0016329262428725,4.055357281510323
1769145578604,131,3,2.1277044155978864,4.250590511012302,4.129579178135074
1769145578608,131,3,2.203593277461632,4.182702663300148,4.217786838892074
1769145578612,131,3,2.328812722782361,4.153605016596571,4.356138969213754
1769145578616,131,3,2.4524265692632543,4.474276169576974,4.491613691049359
1769145578620,132,4,2.4913214939736563,5.000058288673527,4.538247666503132
1769145578624,131,3,2.4126591214144355,4.279383902955416,4.462284366901222
1769145578628,131,3,2.2755552856911025,4.086249991034881,4.3263962565762615
1769145578632,131,3,2.2235407425089138,4.270674625145566,4.2807379149024225
1769145578636,131,3,2.4903385959264273,4.326831470663425,4.563312498496177
1769145578640,133,5,3.4488887203319454,6.137183674887979,5.544259746103151
1769145578644,135,7,5.602988417299963,8.142545621531564,7.718445429948994
1769145578648,138,10,9.357082247841358,11.160854596285136,11.481894179661252
1769145578652,143,15,14.556032672558388,16.239910448405446,16.67813164404621
1769145578656,148,20,20.094100866770816,21.28252357732516,22.20770626500668
1769145578660,153,25,24.04312216852592,26.22316582814255,26.151075878136226
1769145578664,155,27,24.47680377387575,27.983174094716865,26.58757795420142
1769145578668,150,22,20.588773177895195,23.32071391979785,22.712167770368097
1769145578672,142,14,13.324948456542764,14.997959878964398,15.468577231793317
1769145578676,133,5,5.007199213587677,6.540153205703804,7.173090449599574
1769145578680,127,-1,-1.8413906913058875,-0.0843964794583556,0.3409727071188659
1769145578684,123,-5,-5.689944848851004,-3.6384186757465504,-3.502617801762197
1769145578688,123,-5,-6.489479281106021,-4.064909449965308,-4.3078997894365685
1769145578692,124,-4,-5.2935041129344285,-2.6268499745992813,-3.121331037076412
1769145578696,126,-2,-3.4180354650669864,-0.8703902614582433,-1.2504761044290096
1769145578700,127,-1,-1.7494654641391438,0.2573082071546602,0.4229066822950504
1769145578704,128,0,-0.5660768008483608,1.0408417429219314,1.6191074094049227
1769145578708,129,1,0.2058734562909903,2.2198987347978725,2.4057661937034336
1769145578712,130,2,0.663841208786419,3.101316081523573,2.8736802203067766
1769145578716,130,2,0.8156493846030677,3.343375276598729,3.0280253090927634
1769145578720,130,2,0.6739969706226823,3.037245417205401,2.884479797946197
1769145578724,129,1,0.3556576095499106,2.2332378236625994,2.565383502465595
1769145578728,129,1,0.0453033810664049,2.037895582037989,2.258474482127917
1769145578732,129,1,-0.1256142560870716,2.2551596931192703,2.0935629735005588
1769145578736,129,1,-0.1480651500241243,2.179486473755861,2.07592211684823
1769145578740,129,1,-0.0976365310608187,2.160400090413628,2.1281949672255536
1769145578744,129,1,-0.0512358049088348,2.1210644444762576,2.174872444613581
1769145578748,129,1,-0.039754902887759,2.1096795210579034,2.1873773440725586
1769145578752,129,1,-0.0551407846383678,2.1957144898610528,2.1744751085195615
1769145578756,129,1,-0.0778574046582585,2.1889142315635715,2.1546029522677137
1769145578760,129,1,-0.0935737084112955,2.150937652876915,2.1407810319557226
1769145578764,129,1,-0.096452201150792,2.1055228993726525,2.138590830282075
1769145578768,129,1,-0.0889633598695713,2.116978322612174,2.1461889996198455
1769145578772,129,1,-0.0804175085023337,2.1722979031685883,2.154873392289711
1769145578776,129,1,-0.0805447012049564,2.1851944649362975,2.155042306675802
1769145578780,129,1,-0.0908888630408968,2.141208485242596,2.1450040959145165
1769145578784,129,1,-0.1029912650927473,2.095623137264476,2.1330549248495223
1769145578788,129,1,-0.1062594425763079,2.118560507248106,2.1295720133120333
1769145578792,129,1,-0.0975186307929183,2.150510795005846,2.1374467385911853
1769145578796,129,1,-0.0834612640722749,2.1847871489487125,2.1499450652041223
1769145578800,129,1,-0.0762454821686757,2.1276416503497653,2.1553731250520665
1769145578804,129,1,-0.087122837678162,2.0852046212779767,2.1430904913763347
1769145578808,129,1,-0.1181202892353618,2.129123706932743,2.111068532849084
1769145578812,129,1,-0.1503978956447214,2.106968744460903,2.077376726164484
1769145578816,129,1,-0.138978602237926,2.2207726799147456,2.086328638585286
1769145578820,129,1,-0.0306041255927387,2.0656730333727684,2.191494315475639
1769145578824,129,1,0.1985473052979596,2.133244112601241,2.417612468702677
1769145578828,130,2,0.5204036884566783,3.0707953209343017,2.736996576408597
1769145578832,130,2,0.8776422334003253,3.1471318105611266,3.0917814588107544
1769145578836,130,2,1.2318325001937935,3.156430496055944,3.442708048155156
1769145578840,131,3,1.585779503902783,4.121593508710744,3.792263081826792
1769145578844,131,3,1.9562641583672145,4.046872831904013,4.157759203873393
1769145578848,131,3,2.3260599452550155,4.146862176476225,4.522921291220666
1769145578852,132,4,2.630866209463383,5.0695660389896045,4.823785946290633
1769145578856,132,4,2.811183294907781,5.186384891403476,5.000201175527982
1769145578860,132,4,2.888828788130079,5.1110956795448566,5.073298768009328
1769145578864,132,4,2.982279973105471,4.99642485791207,5.161697686900758
1769145578868,132,4,3.2256270463071797,5.222634502365628,5.399926562784268
1769145578872,133,5,3.658469555091934,5.94081018637494,5.827387134013281
1769145578876,133,5,4.188519842037785,6.336430593204659,6.351140888177341
1769145578880,134,6,4.657736891035459,6.915247203991594,6.813052328652717
1769145578884,134,6,4.949384201414896,7.1929804420363,7.09726397535923
1769145578888,134,6,5.048826073924818,6.996071237782963,7.1902278693794806
1769145578892,134,6,5.0243541560895855,7.14052191245611,7.1603760729508945
1769145578896,134,6,4.964262359511975,7.151589302638358,7.094911259801043
1769145578900,134,6,4.927904833528711,7.045028662478976,7.05184287112244
1769145578904,134,6,4.934835112994938,7.093369603213411,7.050382679570534
1769145578908,134,6,4.9762691266707195,7.033615673987289,7.082684239191058
1769145578912,134,6,5.026730553757316,7.108772797474477,7.124603442501511
1769145578916,134,6,5.051643244577615,7.166196630523067,7.1421018350477254
1769145578920,134,6,5.018463273821395,7.003244869675361,7.101894213330201
1769145578924,134,6,4.911554890617756,7.1408446144367455,6.987048419805459
1769145578928,134,6,4.735431654683236,6.9433747627534395,6.801606440417953
1769145578932,133,5,4.492114919961316,6.1888457787875915,6.548413679840795
1769145578936,133,5,4.150112926904648,6.080341616776411,6.196928859564284
1769145578940,133,5,3.6508994860666113,6.050133115354491,5.688544537313597
1769145578944,132,4,2.967322324219981,5.118818417562241,4.995569171542547
1769145578948,131,3,2.1588403514843306,3.8949761123753985,4.177557773981387
1769145578952,130,2,1.3595506145332663,3.269430283399382,3.3689591229839264
1769145578956,130,2,0.7078235340103283,2.93356293804485,2.707789409450785
1769145578960,129,1,0.2811946924311024,2.2247096976059417,2.2709087373064145
1769145578964,129,1,0.0768372556480887,1.9146644914380635,2.0555258608162035
1769145578968,129,1,0.0324476367569981,2.080575093493178,1.999946472462499
1769145578972,129,1,0.0673679644478575,2.0731086528233655,2.0237752817063317
1769145578976,129,1,0.1218153693676424,2.085316788045718,2.067029155102289
1769145578980,129,1,0.1695522289440421,2.094593043886543,2.103472671768124
1769145578984,129,1,0.1967901192497834,2.005457977142938,2.1196423234875104
1769145578988,129,1,0.1749552499869116,1.9843744191563049,2.0868892992097603
1769145578992,129,1,0.065414379866127,2.1443741688515443,1.96584280249664
1769145578996,129,1,-0.1439246378711081,1.9823343898878791,1.744021603570146
1769145579000,128,0,-0.4171334147433336,1.2165378437715706,1.4581617751874285
1769145579004,128,0,-0.6985194435372493,0.8377613884483806,1.1649275895048756
1769145579008,128,0,-0.9584994351786786,1.156851934173381,0.8934289092945911
1769145579012,128,0,-1.1993869285506351,0.9343667267749234,0.6400164495717791
1769145579016,127,-1,-1.4236109638066117,0.1792813623239637,0.4022062954965091
1769145579020,127,-1,-1.6199517374650052,0.0286918930562127,0.1926450740511269
1769145579024,127,-1,-1.7850184261094535,-0.0215352236129957,0.015366357562061
1769145579028,127,-1,-1.9353261703834517,0.0207506894303448,-0.1474118844423446
1769145579032,127,-1,-2.084207352527718,0.0318024042948019,-0.3102629474779885
1769145579036,126,-2,-2.222227520050549,-0.9164058538144986,-0.4629605360043014
1769145579040,126,-2,-2.3368226808549304,-0.8906725678309435,-0.5912137595317921
1769145579044,127,-1,-2.437865388461308,-0.1324559300296977,-0.7047024405323987
1769145579048,126,-2,-2.5396604857040592,-0.8691354740012587,-0.8191966872697121
1769145579052,126,-2,-2.62106653581322,-1.126000162117407,-0.9146442730430052
1769145579056,126,-2,-2.6293608972905784,-0.7193827160276278,-0.9379489699736672
1769145579060,126,-2,-2.5383659325417987,-1.164592385076629,-0.8619670929019843
1769145579064,126,-2,-2.3967921752647645,-0.8284862158786535,-0.7350227384510863
1769145579068,127,-1,-2.305272889042516,-0.2192934637379546,-0.6579707539296757
1769145579072,126,-2,-2.33499115093117,-0.7847451226228985,-0.7020453836517673
1769145579076,126,-2,-2.465237429133673,-1.0538386098174428,-0.8462728360867324
1769145579080,126,-2,-2.599796499646554,-0.88954252304895,-0.9946725502947448
1769145579084,126,-2,-2.6442950100267137,-1.0782024281306093,-1.0538311630639083
1769145579088,126,-2,-2.578336609060859,-1.0368077037408514,-1.0038891247422848
1769145579092,126,-2,-2.4732835598083827,-0.913384495148862,-0.9154081350141918
1769145579096,126,-2,-2.447630520538177,-1.0052608088687096,-0.9055502186767675
1769145579100,126,-2,-2.5851570442822407,-0.8994980014649041,-1.057722375182664
1769145579104,126,-2,-2.867436556296571,-1.1466314051096504,-1.3543031480568373
1769145579108,125,-3,-3.1773602263297978,-1.9378044711322169,-1.679076488733591
1769145579112,125,-3,-3.384966346975786,-2.0531054530583304,-1.9022971752198965
1769145579116,125,-3,-3.451060396402741,-1.8564968676233808,-1.9845642376730432
1769145579120,125,-3,-3.4569694595243927,-2.086411475747572,-2.006994082799907
1769145579124,125,-3,-3.5318908380609595,-1.969287203735378,-2.0985300945221357
1769145579128,125,-3,-3.7422811147601633,-2.1295544185160327,-2.3251863663967804
1769145579132,124,-4,-4.03922149764551,-2.8839157139957656,-2.637661466540689
1769145579136,124,-4,-4.303692785289416,-3.027097949266196,-2.917160949089539
1769145579140,124,-4,-4.441559256724643,-2.955264778433989,-3.07045697813105
1769145579144,124,-4,-4.444154230538996,-3.0976471533434853,-3.0896177922005963
1769145579148,124,-4,-4.375030617856588,-3.0290082513201986,-3.037879203756863
1769145579152,124,-4,-4.310915078053366,-2.978611708409755,-2.990912663926106
1769145579156,124,-4,-4.289748529745505,-2.9755604551728356,-2.9860335562796485
1769145579160,124,-4,-4.298385671557984,-3.005025281418443,-3.0104969704225306
1769145579164,124,-4,-4.299458581710651,-3.087113604006004,-3.027807472568504
1769145579168,124,-4,-4.271964651651027,-3.030251475770496,-3.017354786472936
1769145579172,124,-4,-4.232547701064432,-3.0001877638033383,-2.9953308721152325
1769145579176,124,-4,-4.2194134268707835,-2.974873933767449,-2.9991479368717084
1769145579180,124,-4,-4.2505924028352595,-3.016072419201139,-3.0465474960714496
1769145579184,124,-4,-4.291305105877605,-3.112478085613743,-3.103292123522773
1769145579188,124,-4,-4.263116721141323,-2.990436817565626,-3.091730047318213
1769145579192,124,-4,-4.098561569111542,-3.076844140579954,-2.9445815985529986
1769145579196,124,-4,-3.80415444321216,-2.897446548564054,-2.667912601667602
1769145579200,125,-3,-3.473836387541254,-2.129218481618363,-2.355251307720243
1769145579204,125,-3,-3.226768159654219,-2.0030531019583355,-2.1256529042583012
1769145579208,125,-3,-3.1143158502670327,-2.1225709536770423,-2.030303123179172
1769145579212,125,-3,-3.0786191723347933,-1.943616842694775,-2.0110057579822405
1769145579216,125,-3,-3.000855722673692,-2.074190164658626,-1.9490769751170776
1769145579220,125,-3,-2.795290327629064,-1.9489277191188972,-1.7598280820754524
1769145579224,126,-2,-2.4689003131654985,-1.2203484468048356,-1.4514055702115567
1769145579228,126,-2,-2.1070412685537976,-0.8855426800627293,-1.10891944808805
1769145579232,126,-2,-1.8147716475001632,-1.220292431307444,-0.8355265350717191
1769145579236,126,-2,-1.6645171704102957,-0.8051474773787073,-0.7020867439715579
1769145579240,127,-1,-1.66681881100885,-0.2503415670606752,-0.7197701355521047
1769145579244,126,-2,-1.76302263788525,-0.9332034991425552,-0.831884553575613
1769145579248,126,-2,-1.856594594747069,-1.1660758288480506,-0.9429257507141736
1769145579252,126,-2,-1.8857643057049935,-0.9632741896115052,-0.9905891295515924
1769145579256,126,-2,-1.8837442157794688,-1.0923370937235022,-1.0071458577912888
1769145579260,126,-2,-1.9605440110182308,-0.9672156680385706,-1.1021463122330573
1769145579264,126,-2,-2.2095421888232027,-1.2551138993996869,-1.3688043278823625
1769145579268,125,-3,-2.6175431961516393,-1.8071910151347763,-1.7937266934773932
1769145579272,125,-3,-3.056765120557206,-2.3920766094506902,-2.249196120410692
1769145579276,124,-4,-3.3640675630700168,-2.642495010639656,-2.5727896688350342
1769145579280,125,-3,-3.44137182269277,-2.4779329353574098,-2.66736657412414
1769145579284,124,-4,-3.305446956112976,-2.7190187661206213,-2.5499052958486677
1769145579288,125,-3,-3.0641081291064745,-2.354058063679581,-2.327484302726172
1769145579292,125,-3,-2.8449439012109217,-1.8848431145852884,-2.126750408193525
1769145579296,125,-3,-2.724628915893009,-2.138960100146577,-2.023921010057389
1769145579300,125,-3,-2.7018169431501144,-2.068446038705401,-2.0177939217141367
1769145579304,125,-3,-2.724143470692773,-2.046841677412689,-2.0565929778717433
1769145579308,125,-3,-2.738943240011313,-2.1256572835479393,-2.0883627048069875
1769145579312,125,-3,-2.7260190347568196,-2.041159062396502,-2.093235443042943
1769145579316,125,-3,-2.696223756616119,-2.0890273811255975,-2.081732525350388
1769145579320,125,-3,-2.6696438154954905,-2.0833505459579853,-2.0732471078079246
1769145579324,125,-3,-2.655846953728649,-2.0682420220338966,-2.076906724928329
1769145579328,125,-3,-2.6486696292468324,-2.096950997079828,-2.0866894070951263
1769145579332,125,-3,-2.634718752342206,-2.0898110823702445,-2.0897091683810003
1769145579336,125,-3,-2.6072656939083045,-2.0754791686079668,-2.0796510870165794
1769145579340,125,-3,-2.575365586075321,-2.107592639612786,-2.0656537698508135
1769145579344,125,-3,-2.559874324297182,-2.061212135430377,-2.068416758942088
1769145579348,125,-3,-2.5746661898137537,-2.090970584961599,-2.101509708253416
1769145579352,125,-3,-2.6032565865819626,-2.140646426994848,-2.1478382408415317
1769145579356,125,-3,-2.5914204953108317,-2.0234759020253703,-2.152251689570634
1769145579360,125,-3,-2.4718994880951795,-2.2089543387146517,-2.0471192037638355
