timestamp_ms,ecg_u8_raw,ecg_counts_raw_int,ecg_counts_filt_monitor,ecg_counts_filt_diagnostic,ecg_counts_filt_st
1768730271880,127,-1,0.7685108926062089,-6.0168013575276635,-5.913185528432176
1768730271884,127,-1,0.7929275352093915,-5.9816778732659355,-5.878989755766264
1768730271888,127,-1,0.747515383100548,-6.171650267007111,-5.913872724509621
1768730271892,127,-1,0.587258560380245,-6.017131218022111,-6.063396003691549
1768730271896,127,-1,0.326583659055178,-6.187058561840043,-6.314070871513057
1768730271900,126,-2,0.0394968024086344,-6.9303663208583846,-6.591831394985411
1768730271904,126,-2,-0.1983074593992778,-7.089237985006796,-6.8198102888432
1768730271908,126,-2,-0.3764487567290414,-7.130437331633257,-6.986951086783512
1768730271912,126,-2,-0.5513430116112159,-7.0721085889104165,-7.150557369440042
1768730271916,126,-2,-0.7742305901987006,-7.190521387852936,-7.363198812572506
1768730271920,125,-3,-1.028034854766411,-7.937348908025175,-7.6078173650323455
1768730271924,125,-3,-1.2505754775789424,-8.133015403435177,-7.82103808109467
1768730271928,125,-3,-1.4173285723523783,-8.127228779544897,-7.9776022930826525
1768730271932,125,-3,-1.581268632966554,-8.111314654333334,-8.13093961752386
1768730271936,125,-3,-1.8170851721191936,-8.187952022523266,-8.356275327089067
1768730271940,124,-4,-2.130237746115665,-8.951185874451541,-8.65872938970735
1768730271944,124,-4,-2.4304781978766985,-9.186789406728312,-8.947653413114601
1768730271948,124,-4,-2.5978178492825093,-9.091808716720353,-9.103771501331089
1768730271952,124,-4,-2.5811226199194084,-9.2121556073337,-9.077156989221526
1768730271956,124,-4,-2.4531690651613607,-9.083304136344267,-8.940622939700972
1768730271960,124,-4,-2.3857730131262223,-9.097151485081788,-8.864690207869623
1768730271964,124,-4,-2.5525114858321207,-9.084302305378102,-9.02186887052731
1768730271968,124,-4,-3.0069649986074163,-9.23580197453581,-9.465732091685087
1768730271972,123,-5,-3.6198624378257978,-10.12053222642992,-10.067186264264896
1768730271976,122,-6,-4.1407430245985095,-11.17363018133948,-10.575685723676454
1768730271980,122,-6,-4.351606118795658,-11.059595129592886,-10.774062012309786
1768730271984,123,-5,-4.189715570751979,-10.136372914822118,-10.601667776768068
1768730271988,123,-5,-3.752926590175292,-10.249433553014418,-10.157418898968253
1768730271992,123,-5,-3.2235636662593197,-10.122902302243345,-9.621717186034491
1768730271996,124,-4,-2.79415713348824,-9.197462526360743,-9.183878882516456
1768730272000,124,-4,-2.6147908977224135,-9.089486612509443,-8.992915898982925
1768730272004,124,-4,-2.737387938136835,-9.116864257340684,-9.102688297598004
1768730272008,124,-4,-3.0738019374041805,-9.343353056661725,-9.427597348157418
1768730272012,123,-5,-3.4252109650672495,-10.02575888491008,-9.76944693971572
1768730272016,123,-5,-3.5952394729421058,-10.34706230775693,-9.93059652700879
1768730272020,123,-5,-3.5079012236406553,-9.964271518777778,-9.833858455278836
1768730272024,124,-4,-3.2270649244583045,-9.26178686554633,-9.54311332598915
1768730272028,124,-4,-2.864444042048659,-9.269779086594758,-9.170595027320392
1768730272032,124,-4,-2.474177034689197,-9.0727333057728,-8.77061833291802
1768730272036,125,-3,-2.0347549652778003,-8.402209575999773,-8.321712327316252
1768730272040,125,-3,-1.5190980853079914,-7.882631479137805,-7.796901416615826
1768730272044,126,-2,-0.971307316586833,-7.419474220648228,-7.240026607095043
1768730272048,126,-2,-0.5124070579686173,-7.121429786614099,-6.771582658687944
1768730272052,127,-1,-0.2589374011592406,-6.244234973278502,-6.508163041608743
1768730272056,127,-1,-0.2129870297595673,-6.297326587279709,-6.452542644330075
1768730272060,126,-2,-0.2247719615463289,-6.980786290780038,-6.4552005174453555
1768730272064,127,-1,-0.0823302363099021,-6.397742836142426,-6.30358633542944
1768730272068,127,-1,0.3365427419570526,-6.128748808233324,-5.874956754377905
1768730272072,128,0,0.984064644003575,-5.300625497783621,-5.217464649027573
1768730272076,129,1,1.700794986236613,-4.239420417144856,-4.491509583972163
1768730272080,129,1,2.3453380560104296,-4.094839545558585,-3.838965573274332
1768730272084,130,2,2.8667608919225573,-3.3120511446289016,-3.31012581290176
1768730272088,130,2,3.260094646708026,-3.243619856011421,-2.908763932905016
1768730272092,130,2,3.4730832991928287,-3.224391470611094,-2.686707020920317
1768730272096,131,3,3.38850075500434,-2.333423985480113,-2.761978305077256
1768730272100,130,2,2.9238826310476043,-3.023454594597916,-3.2177962983053305
1768730272104,129,1,2.149474783093567,-4.450159257952015,-3.983424986328339
1768730272108,128,0,1.290295088862674,-5.088836338634395,-4.833076943438373
1768730272112,128,0,0.5965072495605738,-5.472062561067808,-5.5172318098613395
1768730272116,127,-1,0.1930545373069395,-6.046980741685081,-5.91252868038819
1768730272120,127,-1,0.0210156549892589,-6.374026053205414,-6.078340699704107
1768730272124,127,-1,-0.1029708860212956,-6.108524971479767,-6.196637193289864
1768730272128,127,-1,-0.3585224493419722,-6.474410100202045,-6.445179620179016
1768730272132,126,-2,-0.8061383345612456,-7.134378169763046,-6.883816722328588
1768730272136,126,-2,-1.354839425160639,-7.38171885714025,-7.422510378728015
1768730272140,125,-3,-1.8303549945623845,-8.088612054385704,-7.888540849317516
1768730272144,125,-3,-2.0970950950012677,-8.40174762072708,-8.1472217092377
1768730272148,125,-3,-2.152567983227099,-8.231789539092436,-8.196031603934705
1768730272152,125,-3,-2.1285723351879047,-8.397964797970427,-8.166468227873853
1768730272156,125,-3,-2.1949827477061152,-8.148474319200151,-8.228094735045193
1768730272160,125,-3,-2.43550736468035,-8.327082526501663,-8.46348222171266
1768730272164,124,-4,-2.792363585739102,-9.224657269919016,-8.812501770913013
1768730272168,124,-4,-3.121408993194894,-9.412880799100977,-9.129385214590698
1768730272172,124,-4,-3.3020458409412137,-9.2810586938436,-9.29568632089661
1768730272176,124,-4,-3.30766021611645,-9.252622781036616,-9.29097989311423
1768730272180,124,-4,-3.2008431275297204,-9.256778812298451,-9.183615513567103
1768730272184,124,-4,-3.0860073908118495,-9.320780830625443,-9.07722821398898
1768730272188,124,-4,-3.0376819557218524,-9.356690118266846,-9.037102964173386
1768730272192,124,-4,-2.964607252556858,-9.38066837651818,-8.959850566239318
1768730272196,125,-3,-2.3942176226193617,-8.149485284523355,-8.367744236350363
1768730272200,128,0,-0.3199328838809948,-5.389958983783281,-6.261621925267644
1768730272204,132,4,4.591544126660064,-1.1897624067488015,-1.3236728325745988
1768730272208,140,12,13.239999614470726,6.453894808837761,7.333337154950112
1768730272212,151,23,25.041960980413137,17.80630317474045,19.12420842121037
1768730272216,164,36,37.34173273162218,30.6332438524529,31.40179216776402
1768730272220,174,46,46.004298609596106,40.82787468044455,40.04393760737109
1768730272224,176,48,47.17795883846976,42.54194664458456,41.21031557139995
1768730272228,167,39,39.28458979667291,33.62179024399933,33.328721130063286
1768730272232,151,23,23.980115783725655,17.574629731071,18.052807763153737
1768730272236,132,4,5.457296837362318,-1.199616577559679,-0.4351353075769175
1768730272240,115,-13,-11.45437683813525,-18.25838864852025,-17.319545592490048
1768730272244,104,-24,-23.238196031843376,-29.385064875243884,-29.093837386407863
1768730272248,99,-29,-28.66805536759369,-34.3391544192408,-34.53332743083463
1768730272252,100,-28,-28.548625298137033,-33.63930022617886,-34.434844588325916
1768730272256,103,-25,-24.73366890422647,-29.853436773919363,-30.63825166586998
1768730272260,107,-21,-19.201297655884566,-26.81594338202011,-25.109076877110667
1768730272264,112,-16,-13.594194546831812,-20.67207640975584,-19.487974913648294
1768730272268,121,-7,-9.076496006126805,-13.231016509878655,-14.949680324113348
1768730272272,121,-7,-6.218264894115429,-11.714428300810424,-12.07726978503566
1768730272276,122,-6,-4.925805451941667,-11.84897561985816,-10.780508555091943
1768730272280,122,-6,-4.624171460196621,-10.8474116798199,-10.478552633311248
1768730272284,123,-5,-4.666044313764891,-10.61818587549766,-10.51846629624036
1768730272288,123,-5,-4.669279995695404,-10.379572849859876,-10.518168780763986
1768730272292,123,-5,-4.565220269236373,-10.454812865148234,-10.41150784771843
1768730272296,123,-5,-4.42627128098368,-10.283372450189802,-10.271277194328809
1768730272300,123,-5,-4.288552895342651,-10.280922552437197,-10.13184275098416
1768730272304,123,-5,-4.106708351539606,-10.373140549470158,-9.94668033901047
1768730272308,124,-4,-3.821763140124928,-9.506188879468564,-9.65742534186596
1768730272312,124,-4,-3.440133182923717,-9.430432576530505,-9.271649621802624
1768730272316,124,-4,-3.0460430574951785,-9.27746659084755,-8.874083819153853
1768730272320,125,-3,-2.7408006849552584,-8.337350832965738,-8.56620593921475
1768730272324,125,-3,-2.5606958917065903,-8.35656707974304,-8.384502601823907
1768730272328,125,-3,-2.447212069124667,-8.517536956884284,-8.269982855960794
1768730272332,125,-3,-2.305598463419374,-8.44848993901027,-8.126547975114558
1768730272336,125,-3,-2.097956219556215,-8.257123309786353,-7.9155154339180225
1768730272340,126,-2,-1.8671555886552924,-7.422357939641715,-7.680732106547282
1768730272344,126,-2,-1.660332387063772,-7.2519564111220625,-7.471034626058907
1768730272348,126,-2,-1.4453249262107453,-7.690317162869032,-7.25477776976653
1768730272352,126,-2,-1.1303708141573556,-7.227518982794361,-6.939360729590318
1768730272356,127,-1,-0.674647646923531,-6.55427939849492,-6.483090462640465
1768730272360,127,-1,-0.1656258429157662,-6.126457218998354,-5.973139002921332
1768730272364,128,0,0.2296350103937028,-5.565185283059282,-5.5763678472154155
1768730272368,128,0,0.4049765822421037,-5.415733065113487,-5.398725875580135
1768730272372,128,0,0.4256164007602134,-5.469466048746766,-5.375316850993068
1768730272376,128,0,0.5078994266855454,-5.404146251362133,-5.2907132095345855
1768730272380,128,0,0.8698399285604066,-5.236186989907497,-4.927642333050517
1768730272384,129,1,1.560257668527948,-4.532975211791536,-4.237245714878284
1768730272388,130,2,2.403937038093535,-3.3991341380138556,-3.394164601612216
1768730272392,131,3,3.1176980080567755,-2.5370966656278613,-2.6809650198638084
1768730272396,131,3,3.511748183069632,-2.348559859687653,-2.2868647230751775
1768730272400,131,3,3.6142160670605183,-2.3239352243316445,-2.1832190141343584
1768730272404,131,3,3.622788639320213,-2.478132425059241,-2.1723805079314973
1768730272408,131,3,3.738729332753643,-2.4377114413068752,-2.054157288571954
1768730272412,132,4,4.031650912452853,-1.5296338441977406,-1.7604556475804185
1768730272416,132,4,4.434370080510905,-1.3518428547089822,-1.358957057476391
1768730272420,132,4,4.838129985780023,-1.373584271918432,-0.9572494977165608
1768730272424,133,5,5.1848554004220375,-0.4323525680703861,-0.6116834908593822
1768730272428,133,5,5.488134056963038,-0.4993239102695326,-0.3079656765875516
1768730272432,133,5,5.792551586858395,-0.4863255049653974,-0.0022438437908265
1768730272436,134,6,6.124805872902732,0.6138277976625592,0.3308641257200575
1768730272440,134,6,6.478264318346184,0.6004932843981932,0.6840497395035636
1768730272444,134,6,6.828196847649088,0.6001735033651885,1.0329699360668188
1768730272448,135,7,7.148036466348147,1.44570039196645,1.3517472029162692
1768730272452,135,7,7.411279139488544,1.5616809172528998,1.6140972999794378
1768730272456,135,7,7.584563166649551,1.552631753807693,1.7865860692338749
1768730272460,135,7,7.621673476307878,1.6352104415441615,1.8229746326478
1768730272464,135,7,7.470933386943912,1.542118723058751,1.671454709199817
1768730272468,135,7,7.103431480147376,1.4970919328278458,1.302948244056355
1768730272472,134,6,6.542294006018409,0.5069851797756688,0.740824852029816
1768730272476,133,5,5.85924261504351,-0.4185575113959512,0.0572159241913543
1768730272480,133,5,5.137243602379524,-0.4045216885816844,-0.6651531297389672
1768730272484,132,4,4.434009494579102,-1.4489584913117843,-1.3693689227000707
1768730272488,131,3,3.7695128611335287,-2.5142334107054807,-2.035790029312736
1768730272492,131,3,3.1313779453523143,-2.4769146246597487,-2.676230131659466
1768730272496,130,2,2.489318876203151,-3.4626317863263596,-3.320135332477735
1768730272500,129,1,1.816957513088615,-4.3858002212117295,-3.9935411397918306
1768730272504,129,1,1.113987824013009,-4.46690926461298,-4.697149390323719
1768730272508,128,0,0.4144195413324878,-5.537202917620446,-5.397648309619648
1768730272512,127,-1,-0.2309922378153119,-6.4090952385143245,-6.044644696989091
1768730272516,127,-1,-0.792196455964659,-6.600395059954926,-6.60797763699502
1768730272520,126,-2,-1.2870290188930746,-7.215381656440054,-7.105154427547749
1768730272524,126,-2,-1.7701034815166858,-7.715187757536631,-7.590397290752714
1768730272528,125,-3,-2.289143236790094,-8.222122225081016,-8.11117898398452
1768730272532,125,-3,-2.8413757764440355,-8.8012937446904,-8.664903160794653
1768730272536,124,-4,-3.360852205557489,-9.156798538745152,-9.186013229170538
1768730272540,124,-4,-3.749020446122563,-9.737304200436654,-9.575959399378336
1768730272544,123,-5,-3.9332579786558495,-10.173156701742208,-9.761794443141351
1768730272548,124,-4,-3.909777468415739,-9.770488759388316,-9.739860895911107
1768730272552,124,-4,-3.732803216990379,-9.279839026203764,-9.565021901666173
1768730272556,124,-4,-3.465577057210818,-9.636416654504158,-9.30068546544594
1768730272560,124,-4,-3.149620444158924,-9.36899582968702,-8.987701038864952
1768730272564,125,-3,-2.816464130705203,-8.443170799411472,-8.656947625351842
1768730272568,125,-3,-2.5074157483646413,-8.632790151428809,-8.349734864078082
1768730272572,125,-3,-2.264169342158503,-8.28760109391139,-8.10809395688818
1768730272576,126,-2,-2.0968597492148096,-7.748484831723173,-7.942423743337648
1768730272580,125,-3,-1.964405656257744,-8.20593559778933,-7.811833195328986
1768730272584,126,-2,-1.7929115938850746,-7.665087402299056,-7.642573872665087
1768730272588,126,-2,-1.52658021138922,-7.395590705919,-7.378818507379936
1768730272592,126,-2,-1.17559584829568,-7.513058129488627,-7.030537125983362
1768730272596,127,-1,-0.820307809506086,-6.559972907883898,-6.677921397494968
1768730272600,127,-1,-0.5605751448840731,-6.372586309628073,-6.420792836632429
1768730272604,127,-1,-0.4469069893147959,-6.57564428811293,-6.309490004838199
1768730272608,127,-1,-0.451247513087786,-6.418021302690467,-6.3157095543368555
1768730272612,127,-1,-0.4991088406255425,-6.547625693891019,-6.365135222549242
1768730272616,127,-1,-0.5278651127866594,-6.495559074780857,-6.395804395043818
1768730272620,127,-1,-0.5208799038601895,-6.4680204322343835,-6.391533425349086
1768730272624,127,-1,-0.4995418297360622,-6.505704681230133,-6.37334182424157
1768730272628,127,-1,-0.4917269027105373,-6.459527456575509,-6.368227904420454
1768730272632,127,-1,-0.5051845258444972,-6.535385410042519,-6.383494065694416
1768730272636,127,-1,-0.5220716290169083,-6.4933230429828015,-6.401800391073252
1768730272640,127,-1,-0.5146774081197646,-6.4970877413491905,-6.396371118938747
1768730272644,127,-1,-0.4723342586169418,-6.495903155903519,-6.356873684619752
1768730272648,127,-1,-0.4234596694761331,-6.4461863271837725,-6.3110992452531995
1768730272652,127,-1,-0.4330537420709327,-6.575322946039218,-6.3232421528193345
1768730272656,127,-1,-0.5646748079593807,-6.431633239405543,-6.456804631103058
1768730272660,127,-1,-0.8257036448528232,-6.600415349981997,-6.719687114914308
1768730272664,126,-2,-1.1440746540431868,-7.38750043761473,-7.040024328188254
1768730272668,126,-2,-1.4089519126364871,-7.560889625532786,-7.306715396481883
1768730272672,126,-2,-1.5459904252157028,-7.455143483059821,-7.445401485659787
1768730272676,126,-2,-1.5596433978006423,-7.555624163351013,-7.461008649054006
1768730272680,126,-2,-1.5107127499088606,-7.492945070232933,-7.414656306064529
1768730272684,126,-2,-1.4615485359651297,-7.494578586985769,-7.36838232528937
1768730272688,126,-2,-1.44064812435273,-7.473009019822717,-7.3500438758781
1768730272692,126,-2,-1.446034690810767,-7.515354971922461,-7.3572681336172145
1768730272696,126,-2,-1.467794243769815,-7.532564175232297,-7.380263775211246
1768730272700,126,-2,-1.499222246489561,-7.487621012891168,-7.412853808917507
1768730272704,126,-2,-1.525802926749646,-7.546000446683841,-7.441027647071936
1768730272708,126,-2,-1.5108078527642244,-7.390682747747526,-7.428050014066923
1768730272712,126,-2,-1.4050889402758333,-7.611018462255952,-7.324287555427228
1768730272716,126,-2,-1.1816342433062563,-7.4452568330572415,-7.1024863226184705
1768730272720,127,-1,-0.8598573236505267,-6.554456266319924,-6.782475086909196
1768730272724,127,-1,-0.4896038559233752,-6.533412325928643,-6.414452473987171
1768730272728,127,-1,-0.1101627221856188,-6.342944329666867,-6.037198286359006
1768730272732,128,0,0.2764400101274353,-5.712869810781864,-5.651892798449169
1768730272736,128,0,0.7031368052945042,-5.305785590239043,-5.225526571161332
1768730272740,129,1,1.2174302149264324,-4.723544246118766,-4.711349275979394
1768730272744,129,1,1.8502337382449836,-4.367235695581968,-4.079211573573819
1768730272748,130,2,2.578931441725134,-3.4793107729483848,-3.3520494480730365
1768730272752,131,3,3.305112024580208,-2.6260683961160702,-2.6282061223005235
1768730272756,131,3,3.87092321200904,-2.3240465570678928,-2.065058739453934
1768730272760,132,4,4.114227739312252,-1.8000508814065137,-1.823878893140824
1768730272764,131,3,3.93686359726502,-2.1947864936737345,-2.0020733279130325
1768730272768,131,3,3.353866703718899,-2.7498635834091054,-2.584623003874346
1768730272772,130,2,2.4993901345176743,-3.267031450449103,-3.4381964748716105
1768730272776,129,1,1.5792764868339493,-4.742579531689195,-4.357925205127536
1768730272780,128,0,0.7849009302054184,-5.365544277291346,-5.152960580346306
1768730272784,128,0,0.2124202277714943,-5.598811747246474,-5.727040381408493
1768730272788,127,-1,-0.1641922596088385,-6.413324450772045,-6.1054946980605544
1768730272792,127,-1,-0.4534249863420398,-6.494667488587283,-6.395884440364618
1768730272796,127,-1,-0.7705467298037181,-6.635341795458994,-6.713039418164287
1768730272800,126,-2,-1.1743979918857828,-7.356463214712214,-7.116277209736873
1768730272804,126,-2,-1.6528048985713346,-7.726011322378836,-7.594398932667069
1768730272808,125,-3,-2.1587855204955857,-8.171690386174403,-8.100928533608883
1768730272812,125,-3,-2.6632923244110995,-8.826415321744326,-8.60621567165072
1768730272816,124,-4,-3.179220045194759,-9.227331771001602,-9.121970530511383
1768730272820,124,-4,-3.734111817598614,-9.809406160064896,-9.675450915628677
1768730272824,123,-5,-4.3105915677993005,-10.269835968671533,-10.25062162082559
1768730272828,123,-5,-4.810210595922893,-10.584721108083512,-10.75061488242665
1768730272832,122,-6,-5.093729637837526,-11.473845839699024,-11.035827828267776
1768730272836,122,-6,-5.086215021867367,-11.495918552579257,-11.028846050318451
1768730272840,123,-5,-4.8549738826582125,-10.619583776831911,-10.794742239214102
1768730272844,123,-5,-4.573759710583567,-10.396136826469188,-10.507784529726717
1768730272848,123,-5,-4.398950662760215,-10.481680321149362,-10.328139818669916
1768730272852,123,-5,-4.376134939089115,-10.566670911349991,-10.30649709330696
1768730272856,123,-5,-4.452279981075137,-10.390441211970003,-10.391998818409506
1768730272860,123,-5,-4.540287682989658,-10.759540743737237,-10.492689200047188
1768730272864,122,-6,-4.5058519155020615,-11.208344406529848,-10.46352253487614
1768730272868,124,-4,-3.9980328728279457,-9.6869141662478,-9.945111224848384
1768730272872,126,-2,-2.224254148396295,-7.332412198366111,-8.147190745652498
1768730272876,130,2,2.0238842139756423,-3.622581441599016,-3.8743010412939407
1768730272880,137,9,9.795869156938997,3.4557099904105844,3.9085746367290377
1768730272884,147,19,20.957485141112496,13.642722854192256,15.060931808322673
1768730272888,160,32,33.37627177202891,26.400592223677016,27.455151140316232
1768730272892,171,43,43.14367190118307,37.687387189003694,37.1949185108188
1768730272896,175,47,46.09005204628737,41.24349861526913,40.12427949354554
1768730272900,168,40,39.87735323920847,34.636368412189526,33.91475224423153
1768730272904,153,25,25.385865685727467,19.35465937607236,19.447485098673734
1768730272908,133,5,6.47801752049728,-0.301227663053333,0.5752617977628862
1768730272912,115,-13,-11.73454360850921,-18.568648994852236,-17.606552996814877
1768730272916,102,-26,-25.073624441012544,-31.44610570808784,-30.933991131884344
1768730272920,96,-32,-31.72120337996622,-37.55966880962106,-37.59298196836153
1768730272924,96,-32,-32.30342614080584,-37.484938846412334,-38.200943780050714
1768730272928,99,-29,-28.91813216559805,-34.40398998361621,-34.839283508722914
1768730272932,103,-25,-23.898676343272143,-30.556014130905385,-29.827121239596636
1768730272936,108,-20,-18.98401012014716,-25.38162082858613,-24.900385784939708
1768730272940,113,-15,-15.070779707664382,-20.685156269581356,-20.965145331369783
1768730272944,115,-13,-12.345946672416693,-18.311857353358697,-18.222035961904453
1768730272948,117,-11,-10.559348821468063,-16.6219818301228,-16.428357788243645
1768730272952,118,-10,-9.316008318540778,-15.31427253292132,-15.186768043772076
1768730272956,119,-9,-8.319830844811644,-14.614470527599796,-14.193808301033112
1768730272960,120,-8,-7.48616665444011,-13.43156093956708,-13.359626871502597
1768730272964,121,-7,-6.880034476209677,-12.521868860345954,-12.749225145427657
1768730272968,121,-7,-6.551318963153232,-12.458815881556308,-12.415309329429387
1768730272972,121,-7,-6.421586927066282,-12.418864569389884,-12.281159237510854
1768730272976,121,-7,-6.324550066023593,-12.561535625430505,-12.179820988979824
1768730272980,121,-7,-6.146220222006782,-12.403370825759476,-11.996225103092389
1768730272984,122,-6,-5.908521137463598,-11.5732516010677,-11.75286299015615
1768730272988,122,-6,-5.705223393940437,-11.370612270071987,-11.545074935981935
1768730272992,122,-6,-5.565087999009368,-11.52278498803464,-11.401792761279829
1768730272996,122,-6,-5.398643633565891,-11.447606667508692,-11.231625958815746
1768730273000,122,-6,-5.087104735335567,-11.48327122533831,-10.914119435530296
1768730273004,123,-5,-4.607918742269613,-10.507123750659163,-10.427750250375498
1768730273008,124,-4,-4.054482875918548,-9.3675093109552,-9.868642618982166
1768730273012,124,-4,-3.5388272159254086,-9.584225036331324,-9.349710301968935
1768730273016,124,-4,-3.0993914177712676,-9.318525980366978,-8.90708235874124
1768730273020,125,-3,-2.707566583964143,-8.643030506149444,-8.50949527582913
1768730273024,125,-3,-2.33190255330212,-8.313689658643607,-8.1258007005508
1768730273028,126,-2,-1.96471012166696,-7.526063069924666,-7.751064305861438
1768730273032,126,-2,-1.594871396074565,-7.445664159997179,-7.375973203946521
1768730273036,126,-2,-1.192652123965332,-7.404525407365485,-6.969730482546055
1768730273040,127,-1,-0.7456376522004273,-6.6035294279864525,-6.517638619028387
1768730273044,127,-1,-0.2986914689313944,-6.270926972995282,-6.063863012242534
1768730273048,128,0,0.0693987066506103,-5.614122723724743,-5.68858512508294
1768730273052,128,0,0.3232139304091845,-5.259415343971768,-5.428611864725523
1768730273056,128,0,0.5177914630791887,-5.668864504131358,-5.228457026507638
1768730273060,128,0,0.7575399258039166,-5.2596648276551985,-4.982174998411969
1768730273064,129,1,1.1093005685748445,-4.650127299807174,-4.6224856005260735
1768730273068,129,1,1.562751561031412,-4.1737354681296885,-4.161059855507455
1768730273072,130,2,2.070534469065632,-3.6782713288694,-3.646802051740234
1768730273076,130,2,2.6084638979302617,-3.2636053531267724,-3.1037988480536396
1768730273080,131,3,3.183765956072514,-2.6305883872510143,-2.523038239198776
1768730273084,131,3,3.79059524211492,-2.298953587897704,-1.908696894844777
1768730273088,132,4,4.3791566506567285,-1.4550922653872913,-1.3108765220135972
1768730273092,133,5,4.8905791263783325,-0.3961452120819446,-0.7905223328395143
1768730273096,133,5,5.324040351761845,-0.5228437636859145,-0.3500089614056954
1768730273100,133,5,5.746333598020619,-0.3728813968211675,0.0781044317206935
1768730273104,134,6,6.212528274565145,0.450099706773071,0.5507619792665759
1768730273108,134,6,6.680335609073733,0.8514620454128181,1.0265653607252805
1768730273112,135,7,7.024115181860111,1.3013374563374835,1.3790424282255789
1768730273116,135,7,7.149962192293678,1.823234908646052,1.51304248196696
1768730273120,135,7,7.098777971721092,1.2620936363377844,1.4693685816771458
1768730273124,134,6,7.0274496605398005,0.819135945956325,1.405886583026457
1768730273128,135,7,7.080299350520326,1.5587725361257467,1.467515656449642
1768730273132,135,7,7.274187666751816,1.5596713313238588,1.670489738140151
1768730273136,135,7,7.501134139936085,1.675522451527501,1.905709748537684
1768730273140,136,8,7.632652331984861,2.323570505754077,2.044328204808818
1768730273144,135,7,7.62052656913383,1.8403451990185171,2.039022956785012
1768730273148,135,7,7.506359705676124,1.517889991893561,1.932856038664001
1768730273152,135,7,7.348658064165131,1.6588327287351294,1.7849532299429365
1768730273156,135,7,7.155905736909168,1.6111274217487654,1.6028550561548285
1768730273160,135,7,6.893808161693056,1.3556695077206404,1.350635760844777
1768730273164,134,6,6.5408861771201545,0.8821648018766011,1.0059945710766796
1768730273168,134,6,6.11324798543456,0.4360088783893561,0.5855714712839895
1768730273172,133,5,5.624634882124809,-0.1615888541556884,0.1043515770420544
1768730273176,133,5,5.030548111033296,-0.5874349516288659,-0.4812065761428847
1768730273180,132,4,4.232429022385259,-1.411630220336967,-1.2696364467653418
1768730273184,131,3,3.162312247533576,-2.3390266235556116,-2.3296859733998065
1768730273188,130,2,1.8812872025863483,-3.3223970613134917,-3.600940030651344
1768730273192,128,0,0.5901863119128157,-5.354045340920494,-4.882411674013563
1768730273196,127,-1,-0.4818729830663497,-6.385600466709149,-5.944615840173143
1768730273200,127,-1,-1.2249207135793148,-6.582425278681194,-6.678093530605027
1768730273204,126,-2,-1.7011259922052815,-7.16252255274404,-7.145909837966064
1768730273208,126,-2,-2.065881543716916,-7.449713451794668,-7.503048242294224
1768730273212,125,-3,-2.443437145723764,-8.202052925323091,-7.871957807059442
1768730273216,125,-3,-2.860519088405389,-8.510711086924127,-8.278338319655917
1768730273220,125,-3,-3.262003267877639,-8.459453421508382,-8.668270393125056
1768730273224,124,-4,-3.5698279586582613,-9.237526671429723,-8.965723077469605
1768730273228,124,-4,-3.744518878887425,-9.370865720046645,-9.131704101613064
1768730273232,124,-4,-3.82086197324539,-9.195274993576287,-9.199640471771804
1768730273236,124,-4,-3.8917266239075143,-9.55115846018455,-9.26105692217223
1768730273240,124,-4,-4.03787829922518,-9.364610956038344,-9.39684263145226
1768730273244,124,-4,-4.252343281251731,-9.325995593091667,-9.60097004000488
1768730273248,123,-5,-4.433215443741489,-10.243627994409582,-9.771791857779046
1768730273252,123,-5,-4.467702826966745,-10.270859189482229,-9.796076156673465
1768730273256,124,-4,-4.333319870337844,-9.475476422765777,-9.651465681172688
1768730273260,124,-4,-4.112464129099477,-9.408141097351432,-9.421108872364613
1768730273264,124,-4,-3.908138754228399,-9.257881458906516,-9.207919256209406
1768730273268,124,-4,-3.753962412530053,-9.262786864324188,-9.044217889105411
1768730273272,124,-4,-3.6021254031891305,-9.2354753229154,-8.881383658351506
1768730273276,125,-3,-3.3786249715363867,-8.472874896053062,-8.646354020652975
1768730273280,125,-3,-3.041457902225464,-8.413265460833552,-8.29868731125212
1768730273284,125,-3,-2.6042494461824655,-8.184521446095903,-7.852276197885069
1768730273288,126,-2,-2.1279160856503756,-7.326303620559726,-7.366900464252763
1768730273292,126,-2,-1.689889890213815,-7.108373596215371,-6.918978188611567
1768730273296,127,-1,-1.3408110624859113,-6.622954868788403,-6.559238110470867
1768730273300,127,-1,-1.074330976068115,-6.191654323958932,-6.281995589463725
1768730273304,127,-1,-0.8393123513418959,-6.409554660249282,-6.036454395257209
1768730273308,127,-1,-0.5906643871370467,-6.031487863101236,-5.777508258182233
1768730273312,128,0,-0.3330386980906961,-5.3792425659867416,-5.509850370926534
1768730273316,128,0,-0.1152309583140736,-5.348210169160998,-5.282230585656588
1768730273320,128,0,0.0144606945818794,-5.399106888101823,-5.142536919538742
1768730273324,128,0,0.0458768900747296,-5.210932150899659,-5.100658464950215
1768730273328,128,0,0.0108804690396836,-5.143281138531177,-5.12515344868928
1768730273332,128,0,-0.0392601644212844,-5.277531990145674,-5.165279847478118
1768730273336,128,0,-0.0656550473747715,-5.39116354375102,-5.181832388848413
1768730273340,128,0,-0.0646693450102681,-5.3472134639760345,-5.170340544841984
1768730273344,128,0,-0.0619396826776038,-5.209382376454837,-5.156380844903419
1768730273348,128,0,-0.076286390014787,-5.113423518726131,-5.159846430390916
1768730273352,128,0,-0.0895172099902728,-5.263827087478307,-5.163479219306586
1768730273356,128,0,-0.0654212381836734,-5.3917481796628195,-5.130573303955576
1768730273360,128,0,-0.010054053690912,-5.297198874725915,-5.06572919878686
1768730273364,128,0,-0.0045529061366416,-5.241757974440783,-5.049430579083945
1768730273368,128,0,-0.151986717275152,-5.014741392198951,-5.185694664596914
1768730273372,128,0,-0.4705290884180215,-5.340096004873563,-5.493961646402896
1768730273376,127,-1,-0.8415660368792993,-6.286822010916689,-5.855516197817005
1768730273380,127,-1,-1.082023931137052,-6.3630485478016485,-6.086031639850427
1768730273384,127,-1,-1.0819007323389798,-6.158232457133023,-6.07490138283076
1768730273388,127,-1,-0.8748314869292768,-6.013487614305591,-5.856729523417165
1768730273392,128,0,-0.5794299521989281,-5.339503560692874,-5.551491548001787
1768730273396,128,0,-0.283820959396103,-5.209423063820436,-5.247265777238775
1768730273400,128,0,0.00332436156839,-5.47158050742331,-4.951220767770055
1768730273404,128,0,0.2980848439610145,-4.962147507508199,-4.646274448781532
1768730273408,129,1,0.5686259105140031,-4.195143695271486,-4.365077652404901
1768730273412,129,1,0.7432381561887246,-4.091820526815522,-4.180640025119905
1768730273416,129,1,0.7901591610634934,-4.414914045632135,-4.1244533475148195
1768730273420,129,1,0.7754668006865264,-4.275855611141568,-4.128979238567999
1768730273424,129,1,0.8395116528341029,-4.077749882939607,-4.0535145518239455
1768730273428,129,1,1.118058989962226,-4.076165921509524,-3.7639144339532233
1768730273432,130,2,1.6679835460729484,-3.111847748388437,-3.2049731938089563
1768730273436,131,3,2.43130505197445,-2.376224886148455,-2.434069484964089
1768730273440,131,3,3.242196059137548,-2.302509133070302,-1.6146719779779213
1768730273444,132,4,3.881118515387327,-0.983952703838324,-0.9652867777530556
1768730273448,133,5,4.17467596641588,-0.1681558077653466,-0.6610444654205114
1768730273452,132,4,4.087885825406324,-0.9082325840538168,-0.7388529028018374
1768730273456,132,4,3.7179512638015506,-1.5875291964036458,-1.1007263681651795
1768730273460,131,3,3.177722509374073,-2.0390128782016577,-1.6315177682355548
1768730273464,131,3,2.492421152289334,-2.2327429891039188,-2.3056686827069894
1768730273468,130,2,1.6341250215029175,-2.858022527098312,-3.1533111286524087
1768730273472,129,1,0.6524770229526395,-4.130058969413145,-4.126498183424086
1768730273476,128,0,-0.2685935924845435,-5.36561074947012,-5.040154686329089
1768730273480,127,-1,-0.9196442618967438,-6.200477215883592,-5.6823961375560845
1768730273484,127,-1,-1.2354613230965477,-6.08868293815447,-5.987548035161877
1768730273488,127,-1,-1.3429019744111663,-5.888113081448491,-6.08466231340942
1768730273492,127,-1,-1.4359894182927946,-6.050624601391709,-6.169777422591639
1768730273496,127,-1,-1.6146274994309997,-6.404488848990086,-6.34191270399966
1768730273500,126,-2,-1.8507776560761733,-7.139447543227385,-6.5702317434219975
1768730273504,126,-2,-2.089691732526368,-7.161630448277779,-6.798847368958953
1768730273508,126,-2,-2.3441957370740427,-6.687028523237512,-7.042560380263145
1768730273512,126,-2,-2.6726212535754175,-7.222905202019158,-7.362064858949657
1768730273516,125,-3,-3.0902133024726184,-8.139979750962013,-7.772234988782919
1768730273520,125,-3,-3.5378463516380787,-8.444743464669905,-8.211790991059605
1768730273524,124,-4,-3.938672588349733,-8.802414605440257,-8.603530929073738
1768730273528,124,-4,-4.258258542167663,-8.992718249709553,-8.915242728962754
1768730273532,124,-4,-4.497702312214956,-8.801100467685783,-9.149100248433188
1768730273536,124,-4,-4.65130337663356,-9.532426980605589,-9.296109086882144
1768730273540,123,-5,-4.699994094018037,-10.051279709675018,-9.332437156604612
1768730273544,124,-4,-4.640880829148092,-9.165072598972433,-9.255999140925043
1768730273548,124,-4,-4.491871829071292,-8.574740728133206,-9.09342244050134
1768730273552,124,-4,-4.262184250133561,-9.081911796618932,-8.863369545766002
1768730273556,124,-4,-3.946311186439565,-9.239844001981588,-8.559964159519383
1768730273560,125,-3,-3.5320275504896776,-8.329804395115454,-8.157513610653195
1768730273564,125,-3,-2.8973772741234782,-7.867710790688312,-7.515909397052711
1768730273568,127,-1,-1.5408706976712492,-5.8152612712200575,-6.125704067195034
1768730273572,131,3,1.6298908014781883,-1.6724140355943042,-2.906621735438005
1768730273576,137,9,8.019136968709423,3.360323948479728,3.5182842188284003
1768730273580,146,18,18.34890820825068,13.034223212797675,13.84750512062912
1768730273584,158,30,31.37040785771452,24.96823872034163,26.832072634901643
1768730273588,171,43,43.30609756549306,38.06530037722415,38.7213587974207
1768730273592,177,49,48.942941909056835,45.14179836170039,44.33742086262237
1768730273596,174,46,44.28265563729268,38.81631730566829,39.69722817442358
1768730273600,161,33,29.31950188969582,30.3001598683382,24.780763435038057
1768730273604,143,15,8.886654080415216,6.977115113362,4.396413105191879
1768730273608,105,-23,-9.572280273677944,-24.34770366555715,-14.026436396923469
1768730273612,109,-19,-20.159220724051444,-26.538217022324503,-24.596467626530018
1768730273616,111,-17,-21.618177131807705,-20.30130882416728,-26.06615852100791
1768730273620,113,-15,-17.12674814427877,-21.382577328009567,-21.61174212652298
1768730273624,117,-11,-11.390544158732885,-15.578080367336,-15.914314401370792
1768730273628,120,-8,-7.6366088173565485,-12.36550255106967,-12.169094221286592
1768730273632,121,-7,-6.496390953549849,-12.195485035721465,-10.998651862823884
1768730273636,121,-7,-6.8307135846648634,-11.826057007011183,-11.285308513616496
1768730273640,121,-7,-7.260862234816132,-12.452007212704933,-11.681097429999149
1768730273644,122,-6,-7.167867903597649,-10.821810376841077,-11.582442420914436
1768730273648,122,-6,-6.719121858538222,-10.501756207255518,-11.149359695688098
1768730273652,122,-6,-6.310447505811029,-10.904130952024191,-10.757816367661707
1768730273656,122,-6,-6.097998143146196,-11.034847758249922,-10.54805738298001
1768730273660,122,-6,-5.964050724579233,-11.225566723545056,-10.400677727108098
1768730273664,123,-5,-5.754356285442849,-9.836277023014413,-10.171943375194616
1768730273668,123,-5,-5.442736871327102,-9.569436661816642,-9.84745881850256
1768730273672,123,-5,-5.090111328750896,-9.79827048325988,-9.491638258423256
1768730273676,124,-4,-4.730948518037502,-9.053489440032838,-9.133741477580363
1768730273680,124,-4,-4.34967150811507,-9.138678714642,-8.751263876119467
1768730273684,124,-4,-3.950625834000389,-8.786796896654753,-8.346387343442021
1768730273688,125,-3,-3.605679136840155,-7.641124516294221,-7.993955742342258
1768730273692,125,-3,-3.4052507343779626,-7.690189191007932,-7.787848117140498
1768730273696,125,-3,-3.3659197236889313,-8.113255615657069,-7.744622608356636
1768730273700,125,-3,-3.398865224413322,-7.943117157985661,-7.772922760359972
1768730273704,125,-3,-3.3646789971699804,-7.924695914985998,-7.732243504854424
1768730273708,125,-3,-3.1485477435886993,-7.46188192508352,-7.509653234010539
1768730273712,126,-2,-2.6997679107118975,-6.85724456003252,-7.0566862965782615
1768730273716,126,-2,-2.0466145445370043,-6.881766762053538,-6.401294933552244
1768730273720,127,-1,-1.3076221688763856,-6.041397214607095,-5.659796687031225
1768730273724,128,0,-0.6695614732987725,-4.775890771791962,-5.0177291188877415
1768730273728,128,0,-0.29842498759,-4.557779711822946,-4.6417843115653445
1768730273732,128,0,-0.2301430764048957,-4.763868536402361,-4.568850262716158
1768730273736,128,0,-0.340959134040585,-4.888197834861689,-4.675105733126722
1768730273740,128,0,-0.4324637777216311,-4.928526264307552,-4.761751787885062
1768730273744,128,0,-0.3567442002599777,-4.824615523720517,-4.6812421450287465
1768730273748,128,0,-0.0798208492144885,-4.434544548829887,-4.400513258056897
1768730273752,129,1,0.3474153072769281,-3.9180345981384943,-3.970789118164501
1768730273756,129,1,0.8579169816873824,-3.59205255524865,-3.458266459935635
1768730273760,130,2,1.4069626175512688,-3.188242548640631,-2.9063727506374315
1768730273764,130,2,1.9630825343968905,-2.4296506245115213,-2.346177191866757
1768730273768,131,3,2.4895994503126873,-1.8239404566170585,-1.8152304031854865
1768730273772,131,3,2.9524185985587144,-1.4984534737635036,-1.348732263261617
1768730273776,132,4,3.344168915901939,-0.9078635839401584,-0.954196133908467
1768730273780,132,4,3.6900077186961937,-0.8169620909805619,-0.6057180555987829
1768730273784,132,4,4.0246100203719575,-0.6605227169934871,-0.2681168543469159
1768730273788,133,5,4.366611309607769,0.3848960047335437,0.0769647495635101
1768730273792,133,5,4.714993832336746,0.3831209616914002,0.4282348636924826
1768730273796,133,5,5.057550025579467,0.2400643982561892,0.7738098842221408
1768730273800,134,6,5.372289494310776,1.1779426285505543,1.091773594335525
1768730273804,134,6,5.628490341196559,1.403477052690505,1.3505305644934549
1768730273808,134,6,5.79822799249496,1.3614655780217015,1.5214890654137283
1768730273812,134,6,5.863707182944461,1.4659880305166846,1.5878173639048816
1768730273816,134,6,5.8093837228992635,1.200689104727557,1.5358007388354205
1768730273820,134,6,5.623231231953495,1.3561769661132077,1.3538773736449086
1768730273824,134,6,5.329452807863137,1.2833937126390156,1.0645767430154685
1768730273828,133,5,5.01945781148687,0.5393445608525829,0.7571988038008195
1768730273832,133,5,4.818775790439133,0.3268276475492193,0.5568870948009943
1768730273836,133,5,4.786175162067453,0.4112035450709195,0.5240767842079084
1768730273840,133,5,4.831223646250017,0.2598361011593049,0.5703594165082055
1768730273844,133,5,4.748235633695597,0.4591576350018158,0.4903798158365022
1768730273848,133,5,4.367831814438715,0.4236564252588302,0.1131203916100336
1768730273852,132,4,3.703931042108348,-0.5320189131429647,-0.549055267857069
1768730273856,131,3,2.948683462693498,-1.6491206301517622,-1.3034863708609938
1768730273860,130,2,2.297856459432826,-2.569843921519206,-1.9527463343136595
1768730273864,130,2,1.7695261703921858,-2.642010174759017,-2.4786376467657676
1768730273868,130,2,1.205543099344611,-2.376648611827254,-3.041036496348658
1768730273872,129,1,0.4556876691516873,-3.736621118601924,-3.790909475480615
1768730273876,127,-1,-0.4558519197427051,-5.319983533634346,-4.702306688265342
1768730273880,127,-1,-1.351015627467539,-5.84445689991384,-5.5953692588116
1768730273884,126,-2,-2.058683028028947,-6.257796437760452,-6.2998858474953305
1768730273888,126,-2,-2.539580755129885,-6.6933302461721205,-6.778993376926448
1768730273892,125,-3,-2.8785997111515664,-7.380763661138715,-7.118292844408165
1768730273896,125,-3,-3.1896667910595395,-7.564250240983385,-7.430083272175095
1768730273900,125,-3,-3.526176794185629,-7.565143653813807,-7.765974385958183
1768730273904,124,-4,-3.854048655287383,-8.38537902979148,-8.091731136671283
1768730273908,124,-4,-4.0935528604378755,-8.566015573762428,-8.32891861233292
1768730273912,124,-4,-4.192359014797069,-8.374949259947787,-8.426654313323176
1768730273916,124,-4,-4.171783585054728,-8.557911486796776,-8.406587039127661
1768730273920,124,-4,-4.113033234833451,-8.43621030522412,-8.348792346271233
1768730273924,124,-4,-4.098077502374273,-8.438751369583112,-8.333696770412232
1768730273928,124,-4,-4.146883070852547,-8.459759512597689,-8.380849288630063
1768730273932,124,-4,-4.191538824782247,-8.374743902265926,-8.423386705314169
1768730273936,124,-4,-4.110662000921355,-8.545604694064705,-8.341252962582855
1768730273940,124,-4,-3.8134509982380944,-8.279906543595951,-8.043981909895258
1768730273944,125,-3,-3.3202056115191323,-7.577108657909326,-7.551209078455601
1768730273948,125,-3,-2.7732324194362676,-7.176608988203107,-7.004603970311592
1768730273952,126,-2,-2.356392526675277,-6.658727269332785,-6.588125005569461
1768730273956,126,-2,-2.1761532754105524,-6.12943555688599,-6.408488094642842
1768730273960,126,-2,-2.198122384972148,-6.642059773022427,-6.430644004250591
1768730273964,125,-3,-2.2922640303427637,-7.108974180975861,-6.523441650831282
1768730273968,126,-2,-2.3383033060289407,-6.554975591871683,-6.566928505157847
1768730273972,126,-2,-2.2857500335436383,-6.256706082293907,-6.5127735955160615
1768730273976,126,-2,-2.129994343970645,-6.374004652511675,-6.3579436808606395
1768730273980,126,-2,-1.8749980360623333,-6.390626427224773,-6.105314390083748
1768730273984,126,-2,-1.552147541208732,-6.171410064337339,-5.783893246691538
1768730273988,127,-1,-1.2590674135238518,-5.52431948269664,-5.490589405945271
1768730273992,127,-1,-1.1319031889232565,-5.1194561776554695,-5.362910553956478
1768730273996,127,-1,-1.2472568956343977,-5.49504425096868,-5.478479381594182
1768730274000,126,-2,-1.5504160497698407,-6.126601310418431,-5.781794500216429
1768730274004,126,-2,-1.885989741474498,-6.36424698495796,-6.116429029667595
1768730274008,126,-2,-2.096327466826617,-6.2814632130720245,-6.32541729613892
1768730274012,126,-2,-2.097765999980175,-6.231604491688875,-6.326771618934035
1768730274016,126,-2,-1.896147729183531,-6.347483412353418,-6.126738541619334
1768730274020,126,-2,-1.566714050539003,-6.107737710451233,-5.799256492250049
1768730274024,127,-1,-1.2216490209370234,-5.364692404107426,-5.455220754630674
1768730274028,127,-1,-0.9641757760172144,-5.162153751552896,-5.197778314250705
1768730274032,127,-1,-0.8414339129453193,-5.29610274577337,-5.074660742885664
1768730274036,127,-1,-0.8298218839588017,-5.170141509242388,-5.0626914996715024
1768730274040,127,-1,-0.8653120669095149,-5.185152872632816,-5.098067161495523
1768730274044,127,-1,-0.8908708089008116,-5.222255109386794,-5.123949542466771
1768730274048,127,-1,-0.8849543539540692,-5.201893762690537,-5.118800705317558
1768730274052,127,-1,-0.859091062406647,-5.195494099553107,-5.093855807221391
1768730274056,127,-1,-0.8360463027148662,-5.143418913009379,-5.071533444882974
1768730274060,127,-1,-0.8277772908031855,-5.134867622401198,-5.063678499095301
1768730274064,127,-1,-0.8279349304602791,-5.175498348525418,-5.0640661094373804
1768730274068,127,-1,-0.8218100052513536,-5.178483076436586,-5.058161417236593
1768730274072,127,-1,-0.8030747738157789,-5.123744294935797,-5.039739371040787
1768730274076,127,-1,-0.7815045317204211,-5.112551960403634,-5.018617501079477
1768730274080,127,-1,-0.7744291469274176,-5.070808576690101,-5.012169318183694
1768730274084,127,-1,-0.7889515297743706,-5.141432641566219,-5.027551818341949
1768730274088,127,-1,-0.8087067371256009,-5.15670117501052,-5.048322769997792
1768730274092,127,-1,-0.7944528166751661,-5.018015846803547,-5.034826661582925
1768730274096,127,-1,-0.6980712774127474,-5.1567785891133555,-4.9383693822875685
1768730274100,127,-1,-0.4799517376266162,-4.877659310442026,-4.719360719467976
1768730274104,128,0,-0.1167028794563909,-4.290519094966432,-4.3554965178374125
1768730274108,128,0,0.4005501710406574,-3.890277583103736,-3.839135412029667
1768730274112,129,1,1.0571159837478286,-3.215088272215216,-3.184748768328798
1768730274116,129,1,1.784123750435254,-2.836134215179253,-2.459504352111264
1768730274120,130,2,2.440919126809678,-2.108410531879892,-1.802907062915339
1768730274124,131,3,2.8639510126957104,-0.9646840183439904,-1.3793211401103864
1768730274128,131,3,2.971018045691171,-1.132206227367428,-1.2723497038347429
1768730274132,130,2,2.8227009500491493,-1.8825210512088049,-1.421321946967923
1768730274136,130,2,2.5637483201766345,-2.0509290836782323,-1.6803656484237757
1768730274140,130,2,2.2967933822057898,-1.8143092378467216,-1.9467497693888824
1768730274144,130,2,2.0150389640087836,-2.136967058651424,-2.2284537955532273
1768730274148,129,1,1.64505194160484,-2.892242325579309,-2.5996303775138263
1768730274152,129,1,1.1342779730013903,-2.9972093846102044,-3.112109342082868
1768730274156,128,0,0.4957251040899577,-3.859088286178018,-3.751598211012856
1768730274160,127,-1,-0.2131970716400306,-4.894371767186902,-4.460187541852891
1768730274164,127,-1,-0.9366485248880254,-4.960325699905352,-5.18270008787478
1768730274168,126,-2,-1.6406007525742858,-5.969970986551549,-5.886185389517955
1768730274172,125,-3,-2.29699031612967,-6.819352838830452,-6.543073284154032
1768730274176,125,-3,-2.862448094339552,-6.930337224994995,-7.109571126614848
1768730274180,124,-4,-3.282631404768464,-7.731598752400124,-7.530391474450897
1768730274184,124,-4,-3.522696523443705,-8.015658823602818,-7.769975020521091
1768730274188,124,-4,-3.5963472357649473,-7.811963613745526,-7.8423118704451085
1768730274192,124,-4,-3.563450311631494,-7.877362183298924,-7.808660418693187
1768730274196,124,-4,-3.495538093964826,-7.770169424773622,-7.741943271023747
1768730274200,124,-4,-3.441810578108735,-7.781564678425918,-7.691149652732058
1768730274204,124,-4,-3.424033769484339,-7.883559694860189,-7.675720385322025
1768730274208,124,-4,-3.450153742018591,-7.817656585747438,-7.700646671934055
1768730274212,124,-4,-3.5132117763534527,-7.78607141318504,-7.758097749884321
1768730274216,124,-4,-3.568316674990601,-7.745823210449274,-7.806160889035352
1768730274220,124,-4,-3.528556695561217,-7.696744292565981,-7.763611767076663
1768730274224,124,-4,-3.3225694687245313,-7.883911561597526,-7.563527179151881
1768730274228,124,-4,-2.9798750730946755,-7.686225797783089,-7.234308721673163
1768730274232,125,-3,-2.6218579628429532,-6.8415458505154,-6.889379404930647
1768730274236,125,-3,-2.258443989248016,-6.547652606622282,-6.527877994692805
1768730274240,126,-2,-1.4605637845062602,-5.816431696728887,-5.71522419731865
1768730274244,129,1,0.8206810364885602,-2.63747686285863,-3.4083745306900104
1768730274248,134,6,5.967209050001852,2.1639554125131655,1.7598962220132703
1768730274252,141,13,14.84180258009295,9.424392166670495,10.638911976253318
1768730274256,153,25,26.73346162884784,21.322154817038427,22.5143067257056
1768730274260,166,38,38.858014277903806,34.41327752783684,34.60987142540182
1768730274264,175,47,47.05324372227135,43.242220752098035,42.77771107260054
1768730274268,176,48,47.56746873930091,44.35836092165269,43.27988556097607
1768730274272,167,39,38.99186825614644,35.303954192072986,34.71432702111981
1768730274276,150,22,23.147525323037534,18.48792760219,18.898098053869283
1768730274280,131,3,4.3489276812800775,-0.6172308851591515,0.132307791881951
1768730274284,114,-14,-12.51768525497203,-17.624998592325575,-16.71255506596357
1768730274288,103,-25,-23.97575557285024,-28.53190505966841,-28.169307972146232
1768730274292,99,-29,-28.962808989275135,-32.70980840762054,-33.17356769926184
1768730274296,99,-29,-28.543832951702992,-32.304995461905676,-32.778981838064425
1768730274300,103,-25,-24.813417946710445,-28.81507369689227,-29.06636403784577
1768730274304,107,-21,-19.79442672147043,-24.25772218876727,-24.05010328540601
1768730274308,112,-16,-14.876490534057396,-19.86036295867056,-19.12083873042218
1768730274312,116,-12,-10.804312973797057,-15.221527092777382,-15.032089118637105
1768730274316,120,-8,-7.883363569794361,-11.7075568200077,-12.099339169061638
1768730274320,121,-7,-6.121595715082596,-10.33461224795245,-10.334778593508002
1768730274324,122,-6,-5.284192146053661,-9.583426487884068,-9.500278656614707
1768730274328,122,-6,-4.980540313497606,-9.475066257832584,-9.199019391267584
1768730274332,122,-6,-4.8248886162939115,-9.415856588045536,-9.042181124651878
1768730274336,123,-5,-4.5822238060536,-8.451598410053787,-8.79627951879571
1768730274340,123,-5,-4.205845116678709,-8.42548097713071,-8.41732211021171
1768730274344,123,-5,-3.773311207278643,-8.423917806626378,-7.983475734895056
1768730274348,124,-4,-3.394160543224329,-7.477660960576507,-7.603148736561756
1768730274352,124,-4,-3.14297117373398,-7.322586514287112,-7.350115660052332
1768730274356,124,-4,-3.0322923851630073,-7.410698615514326,-7.236957867593828
1768730274360,124,-4,-3.025293756729604,-7.348316593303885,-7.226881750381658
1768730274364,124,-4,-3.0715931236506693,-7.403796615122075,-7.269403498597747
1768730274368,124,-4,-3.13095944651338,-7.355073210341047,-7.324737331179334
1768730274372,124,-4,-3.1652321462925648,-7.345598161974516,-7.355751627195264
1768730274376,124,-4,-3.122933674606643,-7.241541769632324,-7.311488760202259
1768730274380,124,-4,-2.957611631030849,-7.41486276085228,-7.1446781522059615
1768730274384,124,-4,-2.6779981463140445,-7.218437770391314,-6.86270018378963
1768730274388,125,-3,-2.3701485486381086,-6.413257027599109,-6.551281873150336
1768730274392,125,-3,-2.1413831814344464,-6.179365409001779,-6.318591975916428
1768730274396,125,-3,-2.0228944715591513,-6.246367038150536,-6.19646270243639
1768730274400,125,-3,-1.9296168621317455,-6.339593915522601,-6.099514777055424
1768730274404,125,-3,-1.724945316815857,-6.125401199369393,-5.890765583829683
1768730274408,126,-2,-1.3299696473810765,-5.44971421797128,-5.491709030575401
1768730274412,126,-2,-0.7789379277161151,-4.936869975041956,-4.937152096192205
1768730274416,127,-1,-0.1859841613466843,-4.42303286310105,-4.340991058484691
1768730274420,127,-1,0.3333533521590586,-3.985111441926714,-3.818114833893664
1768730274424,128,0,0.7242568409827308,-3.419961429330371,-3.423292357145822
1768730274428,128,0,1.0056789685965986,-3.0027595486074317,-3.13793302789637
1768730274432,128,0,1.2342905499690446,-3.254709401283333,-2.9051320572065547
1768730274436,128,0,1.4500612200277567,-2.979727191794264,-2.684285941539588
1768730274440,129,1,1.6565170683978558,-2.2773449983428073,-2.4720993085379925
1768730274444,129,1,1.8603180622996585,-2.065641961923761,-2.263040375598546
1768730274448,129,1,2.119195699528301,-2.167549665422689,-1.9999180724610168
1768730274452,129,1,2.521508551079156,-2.018514900501967,-1.5936889763250393
1768730274456,130,2,3.1006635537427414,-1.0102192555866276,-1.010098193571924
1768730274460,131,3,3.776548614039985,-0.1952798411358394,-0.3291519577324919
1768730274464,131,3,4.3951771483589015,0.0379434661773476,0.294832041302751
1768730274468,132,4,4.836918830876583,0.7965695060910765,0.7419875488802896
1768730274472,132,4,5.099977528224706,1.2104482917200023,1.010527932572936
1768730274476,132,4,5.28855649127212,0.8462404641124275,1.2049180810605424
1768730274480,132,4,5.514579464243401,1.1044849543662505,1.4372423251613622
1768730274484,133,5,5.799595260032456,1.8509251346452409,1.7285589591699964
1768730274488,133,5,6.066985147100835,2.106372093676039,2.0014525699782464
1768730274492,133,5,6.224853995987631,2.0741625120320144,2.164074601451678
1768730274496,133,5,6.251052635734773,2.0743022877405375,2.1954257709025686
1768730274500,133,5,6.203364369356267,2.0403665641294495,2.154353682545614
1768730274504,133,5,6.1625098444537585,2.0019866989861894,2.121417415419338
1768730274508,133,5,6.17124730679194,2.1191271819714643,2.1381748751889704
1768730274512,133,5,6.215845287652323,2.2019214805278935,2.1897459922035347
1768730274516,133,5,6.245871061723053,2.074694873737127,2.225452243203307
1768730274520,133,5,6.200021915396258,2.1804671552909403,2.18474810445751
1768730274524,133,5,6.016796036740572,1.960716250272685,2.007395215059516
1768730274528,132,4,5.637107271053007,1.3270802880135475,1.6352051841341906
1768730274532,132,4,5.0206048988512455,1.1209493889268265,1.0275535639770157
1768730274536,131,3,4.1809604561387985,0.3142954511676423,0.1967905881628011
1768730274540,130,2,3.2088515378591795,-0.9548601395164108,-0.7675361019036355
1768730274544,129,1,2.240344710060598,-1.760265364622966,-1.7292049036192323
1768730274548,128,0,1.374835327287862,-2.8203184529835004,-2.5877257063219123
1768730274552,127,-1,0.6102310238933244,-3.5751724419781143,-3.3445366145604094
1768730274556,127,-1,-0.1344563844728927,-3.8398620986752463,-4.081074120722505
1768730274560,126,-2,-0.918345911005106,-4.687091664669135,-4.857030113974177
1768730274564,125,-3,-1.6953764618776943,-5.882869114486926,-5.62586792212429
1768730274568,124,-4,-2.3348511150781417,-6.5774173677287795,-6.255988962857676
1768730274572,124,-4,-2.7245204007914587,-6.6429290197217385,-6.63548695906354
1768730274576,124,-4,-2.8523944051799823,-6.648164444095073,-6.75398908759906
1768730274580,124,-4,-2.8012509521054447,-6.719303730417822,-6.695178465896737
1768730274584,124,-4,-2.6863718059175596,-6.738484600775179,-6.57323926095728
1768730274588,124,-4,-2.602184730593932,-6.577769446295556,-6.480682507231594
1768730274592,124,-4,-2.601557200131147,-6.48390768160148,-6.469759147206704
1768730274596,124,-4,-2.6905003617008285,-6.679928033256476,-6.547673396259192
1768730274600,124,-4,-2.827632549332817,-6.514558003945466,-6.674513478028277
1768730274604,124,-4,-2.9421005636336908,-6.844168781884939,-6.779549975938005
1768730274608,123,-5,-2.9771359733410443,-7.308409500047325,-6.805075547522456
1768730274612,124,-4,-2.928149553599954,-6.610455268018351,-6.746120246542094
1768730274616,124,-4,-2.8317491453188692,-6.403064214125585,-6.639853781977963
1768730274620,124,-4,-2.7138819722903538,-6.631119966295023,-6.512299749474418
1768730274624,124,-4,-2.5593012799370136,-6.615611227652843,-6.347207973304783
1768730274628,124,-4,-2.3354557863024827,-6.37313564336903,-6.111525361336216
1768730274632,125,-3,-2.031039234626559,-5.424170679909446,-5.795097840743889
1768730274636,125,-3,-1.6637088145940195,-5.394136861151505,-5.4169731144934765
1768730274640,125,-3,-1.269874946299674,-5.522964437809767,-5.01335148034514
1768730274644,126,-2,-0.9059234295953807,-4.564002787685348,-4.639305395128588
1768730274648,126,-2,-0.6455008315108162,-4.3028169434237,-4.367776949063061
1768730274652,126,-2,-0.5439960106794931,-4.3443995248960015,-4.2544066459625
1768730274656,126,-2,-0.5892140286167814,-4.28244514596952,-4.287328843570861
1768730274660,126,-2,-0.688972161751485,-4.519897077419146,-4.374381016142473
1768730274664,126,-2,-0.7161673663647798,-4.398987184844794,-4.38858280273508
1768730274668,126,-2,-0.5818868163367946,-4.355659544340701,-4.241566815303976
1768730274672,126,-2,-0.2871327511710502,-4.113205859918468,-3.935006356826265
1768730274676,127,-1,0.0781575047024155,-3.3505125507264655,-3.5588775470795
1768730274680,127,-1,0.3818030702669775,-3.2946070060101524,-3.2443094268364585
1768730274684,127,-1,0.5080405915019807,-3.5005295174463047,-3.1057025366349347
1768730274688,127,-1,0.4030210452844081,-3.103110093236161,-3.196746095351523
1768730274692,127,-1,0.1020667350278869,-3.216376196499695,-3.483331638640837
1768730274696,126,-2,-0.2739817368923325,-4.066128926584021,-3.845569227680161
1768730274700,126,-2,-0.5741169811234235,-4.419513979645035,-4.132122185325713
1768730274704,126,-2,-0.703877639097267,-4.256247250409465,-4.247986670694702
1768730274708,126,-2,-0.6749285900443612,-4.178944362972359,-4.205276993998766
1768730274712,126,-2,-0.5760488230927823,-4.009583227940974,-4.093542039534771
1768730274716,126,-2,-0.5036265716059783,-4.045782336307024,-4.008824159896789
1768730274720,126,-2,-0.5194575565226938,-4.342066754831794,-4.011533401427963
1768730274724,126,-2,-0.6521247292741652,-4.147815588583825,-4.1293789532322105
1768730274728,126,-2,-0.9031291850368884,-4.1882572685881225,-4.364409028853444
1768730274732,125,-3,-1.232188755199363,-4.799271993274423,-4.677567728688382
1768730274736,125,-3,-1.5470321318050797,-5.078899572141664,-4.977342897598702
1768730274740,125,-3,-1.7327535145728232,-5.170195971718503,-5.148775955057091
1768730274744,125,-3,-1.7137973949434953,-5.155884246088012,-5.115669497890469
1768730274748,125,-3,-1.504027077799521,-5.069979515087454,-4.891106498379422
1768730274752,125,-3,-1.2022105417206408,-4.69843741341676,-4.57365997037868
1768730274756,126,-2,-0.9262403430989408,-4.030966029948752,-4.2819033122439265
1768730274760,126,-2,-0.7312511297429944,-4.041043941253196,-4.071614613792134
1768730274764,126,-2,-0.5833953022461951,-4.158734506483436,-3.908500404906457
1768730274768,126,-2,-0.4158998444569814,-3.92907753012356,-3.724814347086339
1768730274772,126,-2,-0.2059938217220802,-3.6292795410788985,-3.497846087830051
1768730274776,127,-1,0.0146726378911648,-2.96055788180926,-3.2604319215898308
1768730274780,127,-1,0.2223480606906405,-2.8853776993521336,-3.0368677194395635
1768730274784,127,-1,0.4512211663027707,-3.2509585919551496,-2.7919562082824534
1768730274788,127,-1,0.7650596131889613,-2.6212647573088756,-2.4609415693707604
1768730274792,128,0,1.1864739858121771,-1.8128949065428497,-2.0219008863130075
1768730274796,128,0,1.665138668585067,-1.547673329488239,-1.526506067881574
1768730274800,129,1,2.106043458145842,-1.1414337293355996,-1.0695859947934836
1768730274804,129,1,2.4143633257534503,-0.8664525070145839,-0.7443865078492911
1768730274808,129,1,2.525087075142432,-0.8419522901633067,-0.6153212174960911
1768730274812,129,1,2.423929730126855,-0.4430465225665001,-0.6980445619499669
1768730274816,129,1,2.158110283559938,-0.6792018498449677,-0.9465639326519142
1768730274820,128,0,1.8077676135615597,-1.875886677090084,-1.2797783418320514
1768730274824,128,0,1.419212964854381,-1.965852149098824,-1.6496580255786002
1768730274828,128,0,0.9694394845103292,-1.6114935111538236,-2.079615156356159
1768730274832,127,-1,0.4173584763707943,-2.4955898955658578,-2.6129929098177898
1768730274836,126,-2,-0.2146253535182281,-3.3906289859247565,-3.2282770455476024
1768730274840,126,-2,-0.838312408628711,-4.03211285067794,-3.835322580479264
1768730274844,125,-3,-1.3880826325395426,-4.637463027763394,-4.366053593624701
1768730274848,125,-3,-1.8884178855419425,-4.829038036313305,-4.8450482265447095
1768730274852,124,-4,-2.406607104235895,-5.054621468795441,-5.342242207766172
1768730274856,124,-4,-2.938223753742588,-5.633776064354365,-5.855285987305877
1768730274860,123,-5,-3.368598499705005,-6.616931235964392,-6.268472019117827
1768730274864,123,-5,-3.578665163494497,-6.915922688450807,-6.4598253416675195
1768730274868,123,-5,-3.590270302610044,-6.418953003558252,-6.450100883981234
1768730274872,123,-5,-3.57954078173447,-6.2403839056942045,-6.417727578182798
1768730274876,123,-5,-3.722495356605696,-6.246601418086568,-6.541739447062664
1768730274880,123,-5,-4.02720435741975,-6.8168980976339775,-6.829983527165034
1768730274884,122,-6,-4.329598479386281,-7.609027885276609,-7.114410816585375
1768730274888,122,-6,-4.453659720641186,-7.569049773751447,-7.21523257489344
1768730274892,122,-6,-4.359889379847453,-6.890902084841599,-7.093787168847688
1768730274896,123,-5,-4.133650967160519,-6.3470553324700205,-6.840924410615264
1768730274900,123,-5,-3.863509465837108,-6.562309501118083,-6.5509436480653624
1768730274904,123,-5,-3.5807598063753368,-6.711754177086753,-6.256591152275471
1768730274908,123,-5,-3.3161019543198966,-6.371697614139278,-5.984444206122263
1768730274912,123,-5,-3.123643892063167,-5.830166520807707,-5.780706951555944
1768730274916,124,-4,-2.903955974146879,-5.2122994646100045,-5.5380291944176845
1768730274920,125,-3,-2.091725098438367,-4.467239653811845,-4.688287601603628
1768730274924,128,0,0.4684118311694814,-1.7219622162499335,-2.082376346061224
1768730274928,133,5,6.128714156030128,3.8062296135225897,3.618363556167481
1768730274932,141,13,15.520309481182384,12.193458905060725,13.03244383251128
1768730274936,153,25,27.573549999095334,24.0352761673353,25.087573132052015
1768730274940,166,38,39.21699190456828,36.474400761717774,36.72195435408803
1768730274944,174,46,46.26168219489672,44.44418087213015,43.762769349515075
1768730274948,173,45,45.24459553533809,43.751282827125785,42.76023205530157
1768730274952,162,34,35.25300883466417,33.40441478416102,32.804878672105886
1768730274956,145,17,18.599889623428197,16.053695810626216,16.20200586611745
1768730274960,126,-2,-0.1316203072844306,-3.3808828104745183,-2.478677548967154
1768730274964,110,-18,-16.137279111078676,-19.496656489052313,-18.444957930555155
1768730274968,100,-28,-26.32999461041936,-29.135792037253513,-28.61583055773592
1768730274972,97,-31,-30.122409547201425,-31.419533101351817,-32.40276595554215
1768730274976,99,-29,-28.866588832476445,-29.865594123309293,-31.149326796539167
1768730274980,102,-26,-24.65022431803803,-27.31934456705722,-26.92951363453484
1768730274984,107,-21,-19.36856471726363,-22.40330156858928,-21.62680197174011
1768730274988,112,-16,-14.457351254851307,-17.173458477505672,-16.676218403366114
1768730274992,115,-13,-10.999481331903144,-13.086802561047088,-13.17334967622275
1768730274996,118,-10,-9.754691755621048,-11.004424315530708,-11.89506389493376
1768730275000,119,-9,-7.472823605887816,-14.196006659289958,-13.61151811949176
1768730275004,120,-8,-7.169511439473992,-13.562535514934044,-13.303562856653905
1768730275008,121,-7,-6.418123446091216,-12.135056967213307,-12.547732171680888
1768730275012,122,-6,-5.5462571186343395,-11.511198094341143,-11.672578126317507
1768730275016,122,-6,-4.828542387836983,-11.28423409592364,-10.952111387200755
1768730275020,123,-5,-4.342877770883777,-10.401700103606892,-10.462536126940298
1768730275024,123,-5,-4.009241592188269,-10.331601157559986,-10.122957084779706
1768730275028,123,-5,-3.729272983521781,-10.197389894528866,-9.835814434578198
1768730275032,124,-4,-3.4807132798797737,-9.38895018547568,-9.5805578939669
1768730275036,124,-4,-3.2946774284086,-9.286928760573232,-9.38946715064917
1768730275040,124,-4,-3.168771416819523,-9.304334070617047,-9.25979548927599
1768730275044,124,-4,-3.0270528582429463,-9.349818027901357,-9.114133726167545
1768730275048,124,-4,-2.774611255126189,-9.05644477498174,-8.856455165531472
1768730275052,125,-3,-2.3846293199491937,-8.445683460312974,-8.4601420493792
1768730275056,125,-3,-1.9223287464664824,-8.115508950123223,-7.991450543308081
1768730275060,126,-2,-1.4810956708538874,-7.379974560199207,-7.544442465870268
1768730275064,126,-2,-1.0969135932340348,-7.195995194735051,-7.154820488988875
1768730275068,126,-2,-0.7261245959510172,-7.086389098313692,-6.778188218750989
1768730275072,127,-1,-0.3057325066085905,-6.353932618141289,-6.351319121756376
1768730275076,127,-1,0.1661566215782217,-6.054069921641381,-5.872915485473245
1768730275080,128,0,0.608424473962752,-5.400165543176096,-5.42479084447897
1768730275084,128,0,0.9123022379076547,-5.023148140435772,-5.115580312908513
1768730275088,128,0,1.0221796224536113,-5.217212470623971,-4.999941411846107
1768730275092,128,0,0.9754665329903328,-5.088966722243262,-5.039702359044099
1768730275096,128,0,0.8791279007852779,-5.230544414542315,-5.128154265419838
1768730275100,128,0,0.8503025781072058,-5.138804601052068,-5.149101645016555
1768730275104,128,0,0.9616635851065812,-5.149052349928579,-5.030573233340697
1768730275108,128,0,1.2174516365238357,-5.048594658078286,-4.768420746276016
1768730275112,129,1,1.5673574281077824,-4.106041988419225,-4.412624480229379
1768730275116,129,1,1.9449071373733444,-4.153726084312574,-4.02901246986981
1768730275120,129,1,2.3018639465942385,-4.10148508927091,-3.665103489557229
1768730275124,130,2,2.6220356313545143,-3.0800337338125585,-3.336913916434274
1768730275128,130,2,2.9224223495882233,-3.0596480582758607,-3.0279645212678576
1768730275132,130,2,3.2479873418519647,-2.9490372656048645,-2.693896076030354
1768730275136,131,3,3.6510753011529977,-2.2597166721164172,-2.282650697479178
1768730275140,131,3,4.156173421180355,-1.850642690924923,-1.7698998048358856
1768730275144,132,4,4.731905134774218,-1.2800610969053414,-1.1871217248875712
1768730275148,132,4,5.291893853130658,-0.7294589243324744,-0.6204684604643711
1768730275152,133,5,5.72865468015049,-0.2035592308168148,-0.176744220667728
1768730275156,133,5,5.9663787118740785,0.0946311262572677,0.0690754490571277
1768730275160,133,5,6.005463664115505,-0.0840990368897068,0.1177109280926583
1768730275164,133,5,5.932696188925161,-0.0076788133078702,0.0552320714904819
1768730275168,133,5,5.887659113417818,0.1675526948115657,0.0198703123315048
1768730275172,133,5,5.994650261271532,-0.0843597782161539,0.1351731039423588
1768730275176,133,5,6.287154381958045,0.1507331594879197,0.4351203157361922
1768730275180,134,6,6.671144188943893,0.9059622357880416,0.8267027722865699
1768730275184,134,6,6.966957209142765,1.1101158519945595,1.1307970083916357
1768730275188,134,6,7.0144341976495665,1.1626039421349044,1.187196328130223
1768730275192,134,6,6.766495127571015,0.9681261115629676,0.9486719282075726
1768730275196,133,5,6.300736323509964,0.2644431998988,0.4927828916763817
1768730275200,133,5,5.74795154520243,-0.1980371978744086,-0.0498234122440948
1768730275204,132,4,5.203564726242965,-0.6037518503944661,-0.5841400489813557
1768730275208,132,4,4.691628504172979,-1.1090048485792243,-1.0865390531436692
1768730275212,131,3,4.1938023869371905,-1.5890036426924858,-1.5753778257263131
1768730275216,131,3,3.697650901798848,-2.1394479260201424,-2.0626508378562702
1768730275220,130,2,3.213308015476876,-2.663941109327322,-2.537669093746228
1768730275224,130,2,2.749704565073872,-3.0734795286962173,-2.9911810146462825
1768730275228,129,1,2.283518855910798,-3.519574822097316,-3.446603938376158
1768730275232,129,1,1.7590662593371524,-4.100375804299482,-3.9602087084085302
1768730275236,128,0,1.1264002012477496,-4.510392401169605,-4.582751143728186
1768730275240,128,0,0.3856175619860484,-5.22723166915871,-5.314359030275114
1768730275244,126,-2,-0.4066810578446937,-6.401197159217539,-6.097508105557975
1768730275248,126,-2,-1.176974392004198,-7.101732526494459,-6.857352838467655
1768730275252,125,-3,-1.8749376169499803,-7.431244797622326,-7.543303405012777
1768730275256,125,-3,-2.46637967255946,-8.045749206666802,-8.122312348720072
1768730275260,124,-4,-2.895394820291075,-8.665893378938726,-8.539864652373513
1768730275264,124,-4,-3.0814660888855587,-8.778473139588973,-8.715844933687093
1768730275268,124,-4,-2.9820171547332732,-8.747413878188812,-8.606932972901161
1768730275272,124,-4,-2.669381711299679,-8.561027363529337,-8.284377959477222
1768730275276,125,-3,-2.3354122441519967,-7.941362115749408,-7.939550643787966
1768730275280,125,-3,-2.190196894675255,-7.569241457818199,-7.782822188544758
1768730275284,125,-3,-2.322648030511414,-7.873525022350746,-7.903438425608144
1768730275288,124,-4,-2.6426369006239145,-8.50753130964793,-8.211211963541187
1768730275292,124,-4,-2.9601469692562628,-8.733774153611618,-8.51623339022143
1768730275296,124,-4,-3.1314222996899725,-8.668901530914939,-8.675506855455218
1768730275300,124,-4,-3.1464812919953378,-8.726035313618755,-8.679745914521835
1768730275304,124,-4,-3.097740982560833,-8.651938614364804,-8.620922318297259
1768730275308,124,-4,-3.0755377362495713,-8.609312218170832,-8.587916153821531
1768730275312,124,-4,-3.0840702549566656,-8.57349352193624,-8.58378884045126
1768730275316,124,-4,-3.0399261729653753,-8.70953871149197,-8.52551180250493
1768730275320,124,-4,-2.8451013863033587,-8.60518116201417,-8.316921283157427
1768730275324,125,-3,-2.4723435321185656,-7.670670194076369,-7.932490881380906
1768730275328,125,-3,-2.0021594937833713,-7.499774357633253,-7.45247737829711
1768730275332,125,-3,-1.5939943265988332,-7.600743620492606,-7.034168112914795
1768730275336,126,-2,-1.4071120687833067,-6.582893814769263,-6.835045436354576
1768730275340,126,-2,-1.5024407950366767,-6.636978221977675,-6.916312908033443
1768730275344,125,-3,-1.783538982711789,-7.563009209719208,-7.183017928805552
1768730275348,125,-3,-2.038947668157549,-7.485372560567525,-7.424726987849872
1768730275352,125,-3,-2.0769953406376116,-7.565478454373425,-7.449932540466394
1768730275356,125,-3,-1.8535728962874345,-7.49075358521192,-7.214380136879976
1768730275360,126,-2,-1.4902625833598886,-6.652449549794619,-6.839461539744138
1768730275364,126,-2,-1.173243348975177,-6.4391822473102565,-6.51087898930614
1768730275368,126,-2,-1.0215984797748086,-6.5295560237841865,-6.346893020855441
1768730275372,126,-2,-1.0284898345802715,-6.437095204879465,-6.340099441853995
1768730275376,126,-2,-1.1036528296552983,-6.529745239410867,-6.400613389363687
1768730275380,126,-2,-1.15981749946785,-6.5196752893901335,-6.442297446638087
1768730275384,126,-2,-1.1671789885787698,-6.4590169591837405,-6.436240094888198
1768730275388,126,-2,-1.1472697753765284,-6.440254479464475,-6.403893331527848
1768730275392,126,-2,-1.132509565429643,-6.424333875344169,-6.376819451222221
1768730275396,126,-2,-1.1350558065158696,-6.474542107550834,-6.366351688631661
1768730275400,126,-2,-1.1461886635600984,-6.4629822751773345,-6.3636216606111216
1768730275404,126,-2,-1.1545471841560797,-6.423535853223422,-6.3577633284733714
1768730275408,126,-2,-1.1589188612522665,-6.387103513634905,-6.348121635003896
1768730275412,126,-2,-1.164905247056391,-6.391791064038777,-6.34039945979537
1768730275416,126,-2,-1.1745299040656905,-6.427929516995009,-6.336323141777378
1768730275420,126,-2,-1.1824817648056611,-6.40494172542792,-6.330386678076362
1768730275424,126,-2,-1.1820353313867429,-6.388471988053125,-6.316059393121022
1768730275428,126,-2,-1.173435080369639,-6.333434415466705,-6.293852304108639
1768730275432,126,-2,-1.1671613930803617,-6.358664063689359,-6.274077510379123
1768730275436,126,-2,-1.1789211267926407,-6.387266584699353,-6.2718880562664
1768730275440,126,-2,-1.216119700002272,-6.332756669694726,-6.29440767875936
1768730275444,126,-2,-1.2605545067865327,-6.380373751940192,-6.323856613577028
1768730275448,126,-2,-1.2620750155405496,-6.240802232012082,-6.31079106213287
1768730275452,126,-2,-1.159914144823496,-6.373720634648549,-6.194701178157867
1768730275456,126,-2,-0.9259215468819668,-6.29358194974885,-5.947131817377398
1768730275460,127,-1,-0.5926736069790823,-5.318753154986642,-5.600188973323203
1768730275464,127,-1,-0.2333055740788752,-5.30370468897188,-5.2265846726918905
1768730275468,127,-1,0.0942625295951163,-5.2356269355908145,-4.8840081557832455
1768730275472,128,0,0.3910054953530077,-4.274057292575094,-4.57176745783465
1768730275476,128,0,0.7114803481708649,-4.353557190059213,-4.235994071363071
1768730275480,128,0,1.1083854811672482,-4.11666874852362,-3.824457673366384
1768730275484,129,1,1.56401391734529,-3.444939318692246,-3.3548860240234997
1768730275488,129,1,1.9684517461154156,-2.982113481990229,-2.9369835045545387
1768730275492,130,2,2.176293317257854,-2.456642367170236,-2.7156018482498654
1768730275496,129,1,2.1024982006834634,-3.0932543270250523,-2.7748446921363277
1768730275500,129,1,1.7811365584966103,-3.2745365705191025,-3.0801868863741495
1768730275504,129,1,1.34863465670764,-3.2040044794156683,-3.496013728013038
1768730275508,128,0,0.9703290966101322,-4.120582597725349,-3.858342311811806
1768730275512,128,0,0.7518404629750731,-4.25098535105225,-4.062107087042381
1768730275516,128,0,0.6798380297865172,-4.192685717690339,-4.120235846572229
1768730275520,128,0,0.6311668947434337,-4.111965376451322,-4.155273786535849
1768730275524,128,0,0.450618633633543,-4.240349903936541,-4.321935046157632
1768730275528,127,-1,0.0432562934184367,-5.02502569224654,-4.714688250443522
1768730275532,127,-1,-0.5814530796735399,-5.245924569783961,-5.323826019747174
1768730275536,126,-2,-1.3295634689073144,-6.13203770501961,-6.055683833121984
1768730275540,125,-3,-2.075438835552323,-7.072910600307192,-6.785288785164589
1768730275544,125,-3,-2.7083012507877053,-7.187332689897931,-7.402439687663859
1768730275548,124,-4,-3.155481651795101,-7.974744976712061,-7.834584046815206
1768730275552,124,-4,-3.390125118026564,-8.24248415788603,-8.054548238562836
1768730275556,124,-4,-3.4361230432141263,-8.018629533146541,-8.085861412472237
1768730275560,124,-4,-3.3685018488011567,-8.137472999672987,-8.003469308343995
1768730275564,124,-4,-3.2970743058817615,-7.9906027771478785,-7.917399306259336
1768730275568,124,-4,-3.32692698529687,-8.10071577653254,-7.933038755233421
1768730275572,124,-4,-3.5044825160293147,-8.045440896062644,-8.096578821151981
1768730275576,124,-4,-3.778692776975672,-8.11162930935788,-8.35541608050124
1768730275580,123,-5,-4.0172420575893915,-8.995127201715569,-8.575099002161755
1768730275584,123,-5,-4.084228305156898,-8.98672741264782,-8.620123673594133
1768730275588,124,-4,-3.924780114099955,-8.068296876656586,-8.440717998158082
1768730275592,124,-4,-3.593088001564548,-7.942672771712592,-8.097688519355845
1768730275596,124,-4,-3.218764054738383,-8.194828401093483,-7.721788412180337
1768730275600,124,-4,-2.931879374311135,-7.754416950453995,-7.435193910019821
1768730275604,125,-3,-2.720570485372759,-7.21407463609003,-7.213670909522763
1768730275608,125,-3,-2.20173727311165,-6.679086063520668,-6.666968310997937
1768730275612,128,0,-0.4353407159727562,-4.312395564363147,-4.859977018590658
1768730275616,132,4,3.926172259949374,0.3133255849572318,-0.4598260980754727
1768730275620,139,11,11.937736244111363,6.802523103495751,7.574110358338856
1768730275624,149,21,23.307387778921825,17.325677017111325,18.94519580182514
1768730275628,163,35,35.68311113328754,30.900353480615976,31.307970059542825
1768730275632,173,45,45.0473249024263,41.143255993958995,40.65803746067177
1768730275636,176,48,47.34841928275959,43.97633297695742,42.95764909372568
1768730275640,169,41,40.5532170420836,37.13475872597065,36.18250617306362
1768730275644,153,25,25.855849894410355,21.06172885732867,21.525650288094624
1768730275648,134,6,7.253885838229696,2.19524793784878,2.9724462183665707
1768730275652,117,-11,-10.255702528240832,-15.004317553907567,-14.497451992550754
1768730275656,104,-24,-22.786354149090833,-27.744317660006615,-27.00938894679224
1768730275660,99,-29,-28.8401425281456,-32.971239019440084,-33.06488020762899
1768730275664,99,-29,-29.2500018814426,-32.75844455970386,-33.48549759401877
1768730275668,102,-26,-26.115171553653063,-29.92120223101596,-30.356151841712123
1768730275672,106,-22,-21.55242207795507,-25.82008953012484,-25.784266992318177
1768730275676,110,-18,-16.97263433352188,-21.854550959918296,-21.180528114029286
1768730275680,114,-14,-13.045048138225052,-17.766123638129464,-17.222243943822633
1768730275684,118,-10,-10.010933135225454,-13.912752779606889,-14.161300853447392
1768730275688,120,-8,-7.929128257931139,-11.682287750736725,-12.06221803016976
1768730275692,121,-7,-6.718546230010302,-11.003587398249076,-10.841273707435375
1768730275696,121,-7,-6.135174056155482,-10.542099231919492,-10.247532837764314
1768730275700,122,-6,-5.831900098251157,-10.020483817372178,-9.929876515423375
1768730275704,122,-6,-5.495494393680856,-9.560621996504889,-9.57666274413581
1768730275708,123,-5,-4.9645659378441795,-8.960307963710754,-9.029921012406422
1768730275712,123,-5,-4.265082150172079,-8.646197084881415,-8.316364005522065
1768730275716,124,-4,-3.5583483057080127,-7.783348711332251,-7.595461718076957
1768730275720,125,-3,-3.024636297342171,-6.727993310810062,-7.0462916630105425
1768730275724,125,-3,-2.7372761671012844,-6.74664658373024,-6.7430157115974545
1768730275728,125,-3,-2.614679123979987,-6.7315429323951825,-6.605174251197194
1768730275732,125,-3,-2.500164582268476,-6.7546065567082,-6.475826025656483
1768730275736,125,-3,-2.304338389333966,-6.618911460873714,-6.264614166275644
1768730275740,126,-2,-2.070551825673335,-5.778504375152862,-6.014867987523537
1768730275744,126,-2,-1.894496990316593,-5.636604278518958,-5.823264587556318
1768730275748,126,-2,-1.78487599220064,-5.753096514632789,-5.698994202449566
1768730275752,126,-2,-1.621989025238828,-5.6549560009922955,-5.521568635007885
1768730275756,126,-2,-1.2691730869509086,-5.63562164596005,-5.153420864356612
1768730275760,127,-1,-0.7250090560336069,-4.680356951194953,-4.593599544027919
1768730275764,128,0,-0.1554128008526463,-3.640873339681428,-4.009408678508159
1768730275768,128,0,0.2321697728467951,-3.674745306585468,-3.608585533055322
1768730275772,128,0,0.3525296964783075,-3.657889549036449,-3.474715216820563
1768730275776,128,0,0.300221591124389,-3.5383433912965554,-3.5113739827093027
1768730275780,128,0,0.2707630037599966,-3.739520637326031,-3.523096750647106
1768730275784,128,0,0.4301223048230722,-3.4344027676144897,-3.3460928678746793
1768730275788,129,1,0.8318560256374354,-2.8551559411076948,-2.9292184853308227
1768730275792,129,1,1.415646358991217,-2.342117874407452,-2.333242487091565
1768730275796,130,2,2.054177977009456,-1.8199068175829023,-1.683442766695463
1768730275800,130,2,2.6050061786901573,-1.3647455276552916,-1.1194945741648863
1768730275804,131,3,2.9591871427954155,-0.7186819141707248,-0.7493002980007859
1768730275808,131,3,3.0950031488766667,-0.507651310899768,-0.5959774239120876
1768730275812,131,3,3.113116948076949,-0.5745718919704763,-0.5610911899182929
1768730275816,131,3,3.2025370426635993,-0.5544837742730231,-0.456706194008905
1768730275820,131,3,3.528350271719314,-0.5173720212163921,-0.1172958433022057
1768730275824,132,4,4.114921467940332,0.4899147834480621,0.4824590640281074
1768730275828,133,5,4.824095247527807,1.3958226752693594,1.205105672362054
1768730275832,133,5,5.452970916655648,1.5957303368769935,1.848124164238092
1768730275836,134,6,5.873458086568104,2.3389526271805465,2.283448229985149
1768730275840,134,6,6.105806091867275,2.677098174190387,2.5309762532726245
1768730275844,134,6,6.275676395399114,2.347428887898754,2.7159792872617663
1768730275848,134,6,6.495442066093792,2.661662540806746,2.9506019600141737
1768730275852,135,7,6.7716760851959625,3.3933377824680013,3.2411829857421117
1768730275856,135,7,7.017379715240417,3.617483575521927,3.5006376629499156
1768730275860,135,7,7.146997985122943,3.4857420148404517,3.6438603906402545
1768730275864,135,7,7.155927958541189,3.583041544750353,3.6668837263803606
1768730275868,135,7,7.114981853625427,3.5625067823734957,3.6405378763922864
1768730275872,135,7,7.098623099190669,3.5159958183327937,3.6387198568196935
1768730275876,135,7,7.117415178214483,3.631587722933694,3.671660529198242
1768730275880,135,7,7.109932854688295,3.49089815087522,3.678147523437748
1768730275884,135,7,6.9979716900247055,3.692548104948159,3.5802546697592645
1768730275888,135,7,6.757176343372649,3.525992999185375,3.353650833287714
1768730275892,134,6,6.437094148182671,2.6200219346635754,3.047805978551537
1768730275896,134,6,6.106632243800439,2.6338717979951003,2.731486087605057
1768730275900,134,6,5.775326879433187,2.519461464011348,2.4139551364406726
1768730275904,133,5,5.368586441424514,1.7818333525820416,2.0204932773699915
1768730275908,133,5,4.78354947139963,1.4978737961985358,1.4485552579725247
1768730275912,132,4,3.9792105702741374,0.7384455756354198,0.6577429286762027
1768730275916,131,3,3.0265855118319935,-0.40813820857589,-0.2804454947254777
1768730275920,130,2,2.0764507605906606,-1.396256677369878,-1.215321652535763
1768730275924,129,1,1.268517908095604,-2.170858614524999,-2.008126848144826
1768730275928,129,1,0.6538007665708119,-2.5329041426816437,-2.6091928973016465
1768730275932,128,0,0.1844065030518915,-3.0591080500865644,-3.0668160272785263
1768730275936,128,0,-0.2380859842088079,-3.634858141402507,-3.4780538461250448
1768730275940,127,-1,-0.7025179584791859,-4.015371698669805,-3.929646659881577
1768730275944,127,-1,-1.2471861484494826,-4.543296359760512,-4.45914865982525
1768730275948,126,-2,-1.841007404334826,-5.0339062939802135,-5.036961397427005
1768730275952,126,-2,-2.390298238638478,-5.483503689777128,-5.571673969730841
1768730275956,125,-3,-2.7846176089848007,-6.157574512941032,-5.953645651577393
1768730275960,125,-3,-2.9732378646451183,-6.3887822550317015,-6.130815604363551
1768730275964,125,-3,-3.018145365023172,-6.143288907268016,-6.163269984228704
1768730275968,125,-3,-3.06197174410646,-6.288373771408934,-6.193162840711499
1768730275972,125,-3,-3.21550689123271,-6.207278948685881,-6.332460157116747
1768730275976,125,-3,-3.4565898097186656,-6.299170374994857,-6.56014561780923
1768730275980,124,-4,-3.643445344171352,-7.250950363275333,-6.734135303778453
1768730275984,124,-4,-3.645006231844935,-7.150402475955346,-6.722352807884243
1768730275988,125,-3,-3.4659459314045375,-6.234333827224522,-6.529481244077789
1768730275992,125,-3,-3.239834846286344,-6.1478491998596025,-6.290128400305018
1768730275996,125,-3,-3.10196541681892,-6.291998228777712,-6.140087881141606
1768730276000,125,-3,-3.0753080013627496,-6.2080636595666405,-6.101622011247752
1768730276004,125,-3,-3.072925843600164,-6.111030820939468,-6.0867263877443385
1768730276008,125,-3,-2.994741364449944,-6.2127889205271085,-5.994850053512821
1768730276012,125,-3,-2.8156599599541505,-6.044322661742466,-5.801381053529885
1768730276016,126,-2,-2.5835687423837874,-5.349957500165998,-5.555433675962584
1768730276020,126,-2,-2.3382329159883226,-5.066260770417485,-5.297688689344469
1768730276024,126,-2,-2.0472324517206237,-5.207187245543978,-4.995178177500153
1768730276028,126,-2,-1.6416911974155537,-5.027522218333998,-4.577545712895883
1768730276032,127,-1,-1.1181608096224296,-4.130910893666838,-4.040852728490254
1768730276036,128,0,-0.5861330170461048,-3.2062721034934873,-3.4956552494618727
1768730276040,128,0,-0.1988956990399274,-3.118324279434181,-3.096153026617632
1768730276044,128,0,-0.0377383634663401,-3.125941946389191,-2.92304832751975
1768730276048,128,0,-0.061911627311898,-2.998602277704076,-2.934486312876372
1768730276052,128,0,-0.1563381734168328,-3.10311718621801,-3.0154015843063484
1768730276056,128,0,-0.2191716985299867,-3.1354674507670386,-3.0650101921431117
1768730276060,128,0,-0.2177693180823599,-3.1271971133423713,-3.0513926399506337
1768730276064,128,0,-0.1844670402280862,-3.058517075276959,-3.00651261216645
1768730276068,128,0,-0.1695242080270961,-2.9771475548494633,-2.979731979280612
1768730276072,128,0,-0.1921503151447578,-3.0573409700292524,-2.9898090093811067
1768730276076,128,0,-0.2262299489014742,-3.09011761924864,-3.0109675675196974
1768730276080,128,0,-0.2289528142721085,-3.110044112827848,-3.0010728336671586
1768730276084,128,0,-0.1868008204700563,-3.019765069507544,-2.9469036455741047
1768730276088,128,0,-0.1399978734209536,-2.921593817263308,-2.888347403937167
1768730276092,128,0,-0.1630861359546833,-3.0560184162225075,-2.8994589940113005
1768730276096,128,0,-0.3121742601224528,-2.9836726065363797,-3.036323121664195
1768730276100,128,0,-0.5773183215516935,-3.179364103518134,-3.28932246035916
1768730276104,127,-1,-0.8815621014806976,-3.868325396101677,-3.5815551070441187
1768730276108,127,-1,-1.1332308462558949,-4.008574139752321,-3.8210552113590897
1768730276112,127,-1,-1.286250504714036,-3.8860107074327006,-3.961691884728265
1768730276116,127,-1,-1.3519714813472812,-4.061824644517915,-4.015205370401872
1768730276120,127,-1,-1.357168294814531,-4.058775342370512,-4.008685380774368
1768730276124,127,-1,-1.299742218040426,-3.8915349228565153,-3.9397850573086544
1768730276128,127,-1,-1.1522320729904714,-3.959863456169991,-3.7804655912503566
1768730276132,127,-1,-0.9087189120807724,-3.8041055349828534,-3.524689880133251
1768730276136,128,0,-0.6211737910601169,-3.110921001599394,-3.225172455114812
1768730276140,128,0,-0.3790115446668905,-2.9010087056688025,-2.9721486807465136
1768730276144,128,0,-0.2455756970639669,-3.0198666616309486,-2.828570725255521
1768730276148,128,0,-0.2105749857972887,-2.743833317101677,-2.782493725166876
1768730276152,128,0,-0.196758676294717,-2.9457505545800378,-2.7554535604529504
1768730276156,128,0,-0.1032107732581637,-2.9033162708863296,-2.647477285615471
1768730276160,129,1,0.1548142839226556,-2.011555807559149,-2.3763770094320655
1768730276164,129,1,0.6184744722110354,-1.876180469985721,-1.902465423616727
1768730276168,129,1,1.2486496863944074,-1.7943724812315494,-1.2635628364183522
1768730276172,130,2,1.8900255243245525,-0.8299952428155741,-0.6125965774099449
1768730276176,131,3,2.3014027078505084,0.0510337716367388,-0.1900218916019502
1768730276180,131,3,2.2843016771034756,0.1201287402700093,-0.1952417103557118
1768730276184,130,2,1.8233753965258244,-0.959722162119669,-0.6441552019804351
1768730276188,129,1,1.106286546161393,-1.639979644842668,-1.348704823272291
1768730276192,129,1,0.3975757533673623,-1.90772926894992,-2.0443820990010124
1768730276196,128,0,-0.1253101021979409,-2.8171297269664435,-2.5549054819493113
1768730276200,128,0,-0.4509467539987147,-2.890912325980547,-2.870089940634703
1768730276204,128,0,-0.6949109959904103,-2.9270699709213828,-3.105434396668227
1768730276208,127,-1,-0.9996579807288546,-3.565213554780412,-3.4017537493426673
1768730276212,127,-1,-1.4533753345051457,-3.963794689699001,-3.8452400519730703
1768730276216,126,-2,-2.064645857637017,-4.645486634339328,-4.443893244147303
1768730276220,126,-2,-2.7733659808322986,-5.018398536626237,-5.139024956079767
1768730276224,125,-3,-3.4700909464537517,-5.704895728428194,-5.823228031990795
1768730276228,124,-4,-4.028114750218292,-6.736944043210359,-6.370649177873428
1768730276232,124,-4,-4.358750957284598,-6.735886296382361,-6.691945234919317
1768730276236,124,-4,-4.462957299210984,-6.769191574504208,-6.786862513596032
1768730276240,124,-4,-4.4325170628274115,-6.865230089719033,-6.746289889885108
1768730276244,124,-4,-4.389250607353521,-6.721719053501618,-6.691901979431859
1768730276248,124,-4,-4.40163584160726,-6.731429236600971,-6.692915754573324
1768730276252,124,-4,-4.436802677031112,-6.618266185030859,-6.717484592998963
1768730276256,124,-4,-4.385087657355806,-6.865348650467501,-6.656003225276027
1768730276260,124,-4,-4.145472080629673,-6.654152461366165,-6.406048804423933
1768730276264,125,-3,-3.7095049071473696,-5.880566446658191,-5.9575681350621
1768730276268,125,-3,-3.1766819041146226,-5.500942159620034,-5.410349580628867
1768730276272,126,-2,-2.6935761734645425,-4.798616173150531,-4.914048472664865
1768730276276,126,-2,-2.375671926236582,-4.597658829102593,-4.588373751110027
1768730276280,126,-2,-2.269482723414014,-4.8717599700292515,-4.481481278634797
1768730276284,126,-2,-2.3408042073188904,-4.565220523326337,-4.555003334421524
1768730276288,126,-2,-2.4147452879213485,-4.7827542686567925,-4.624934294750114
1768730276292,126,-2,-2.0298814390382196,-4.436705230363293,-4.222048410869506
1768730276296,129,1,-0.3034283359845133,-1.884906861423832,-2.464593826383309
1768730276300,133,5,3.9628360625159704,2.4810338984117273,1.83442161576086
1768730276304,140,12,11.732297074020387,9.18888350235948,9.624241517902083
1768730276308,150,22,22.832164209561263,19.48571802391336,20.72472050100737
1768730276312,163,35,35.23581465397102,32.417432357976665,33.112893813623984
1768730276316,174,46,45.23469795257521,43.26237743269819,43.092120820791855
1768730276320,178,50,48.77221847715956,47.46184157694768,46.61976466108656
1768730276324,173,45,43.38070789576128,42.18134031413334,41.237773536435874
1768730276328,158,30,29.59632690333547,27.543806437210037,27.48297833435711
1768730276332,139,11,10.936346507833502,8.365892576402027,8.863609975998125
1768730276336,120,-8,-7.602648594208807,-10.590005020024725,-9.638374894525445
1768730276340,106,-22,-21.658652566727657,-24.53389604987563,-23.6739639647966
1768730276344,100,-28,-29.057762866242435,-30.705484320325773,-31.07398719522935
1768730276348,99,-29,-30.10446685142239,-31.464147621417904,-32.136692583261315
1768730276352,102,-26,-26.753518199976988,-28.599963615634326,-28.80270824734698
1768730276356,107,-21,-21.394894552883237,-23.57628594420026,-23.448184402039647
1768730276360,112,-16,-15.953789710618688,-18.46858675714482,-17.993373541311662
1768730276364,117,-11,-11.552802998110238,-13.749818456558904,-13.567346059373198
1768730276368,120,-8,-8.575018731158952,-10.30076254923825,-10.56523116293224
1768730276372,122,-6,-6.877907607181083,-8.806495372320088,-8.852848557459192
1768730276376,122,-6,-6.0359873555085,-8.23478286177075,-8.004584859632214
1768730276380,123,-5,-5.585723856461367,-7.792619073196626,-7.5512019891180415
1768730276384,123,-5,-5.221856788181562,-7.309841221428811,-7.182500350862074
1768730276388,124,-4,-4.863541104182287,-6.668811926307059,-6.816756160069076
1768730276392,124,-4,-4.573864704820474,-6.41553351219834,-6.5186524777563015
1768730276396,124,-4,-4.422644245431062,-6.520613981028349,-6.359054667981875
1768730276400,124,-4,-4.40750811299065,-6.496676194967355,-6.335288080051606
1768730276404,124,-4,-4.468346836089971,-6.470545985544364,-6.386899198074361
1768730276408,124,-4,-4.540785579257877,-6.490816971156602,-6.4500627868978935
1768730276412,124,-4,-4.583376763259499,-6.500076105602827,-6.484124519815225
1768730276416,124,-4,-4.567315861715967,-6.404343148030911,-6.460252479981319
1768730276420,124,-4,-4.462322228337361,-6.531520241672537,-6.347422597906498
1768730276424,124,-4,-4.244464448094918,-6.3694927063480336,-6.121381968630238
1768730276428,125,-3,-3.9158282939349913,-5.516574407339625,-5.7847806929106715
1768730276432,125,-3,-3.5139844424227413,-5.428997451356658,-5.375661529017944
1768730276436,125,-3,-3.1071256620893903,-5.40374290527804,-4.961765689671226
1768730276440,126,-2,-2.777256284278276,-4.488476762649533,-4.624426719023738
1768730276444,126,-2,-2.585101473230499,-4.312749308386451,-4.424456752655492
1768730276448,126,-2,-2.5268518529439405,-4.541543439707444,-4.358516672741239
1768730276452,126,-2,-2.522688888952302,-4.309698964788638,-4.346739712109853
1768730276456,126,-2,-2.461582519060348,-4.498275148301086,-4.277712513776748
1768730276460,126,-2,-2.270225608057837,-4.3181987814455525,-4.078343286403749
1768730276464,127,-1,-1.9476310782614152,-3.3999549101859414,-3.748499406486177
1768730276468,127,-1,-1.5464026522022245,-3.408881426787291,-3.341147681738951
1768730276472,127,-1,-1.1363385196748563,-3.3543145919848527,-2.9253639595579393
1768730276476,128,0,-0.7856441311784033,-2.434840172774389,-2.568452956913001
1768730276480,128,0,-0.5520037360755947,-2.293480806036275,-2.327962878910437
1768730276484,128,0,-0.4635040334848503,-2.3792671447604543,-2.2323081879977584
1768730276488,128,0,-0.4981036050105714,-2.3234865197519743,-2.2596625906402728
1768730276492,128,0,-0.5831539084552719,-2.426179235975327,-2.337617418233278
1768730276496,128,0,-0.6190826867031294,-2.273060369902553,-2.367000002378032
1768730276500,128,0,-0.5175236995869603,-2.4293475550577837,-2.2595487313309066
1768730276504,128,0,-0.2404948786114904,-2.1418233299869742,-1.9768432010501589
1768730276508,129,1,0.1803866728840906,-1.4989347128118404,-1.550066219703837
1768730276512,129,1,0.6641157338436214,-1.20469024514653,-1.0603549349082173
1768730276516,130,2,1.1308275943183257,-0.4278806885311073,-0.5879747623260076
1768730276520,130,2,1.5414291664645314,-0.2398013417100517,-0.1719926056823726
1768730276524,130,2,1.8927481431316808,-0.2290953225430887,0.1848502720385232
1768730276528,131,3,2.182576382351972,0.6254325883375746,0.4804821412963127
1768730276532,131,3,2.391258446581678,0.7587819029802603,0.694908531663029
1768730276536,131,3,2.5001836202935745,0.6200787495177376,0.809291106869301
1768730276540,131,3,2.5195053720655207,0.8128026068495666,0.8338931812910815
1768730276544,131,3,2.4910002808636422,0.7550585866413502,0.8104747517582229
1768730276548,131,3,2.463758172777635,0.7292368439769912,0.7878435597360509
1768730276552,131,3,2.464139745809353,0.7050023214597667,0.7923564060028303
1768730276556,131,3,2.4823681241298137,0.7154126555861073,0.8148127066899726
1768730276560,131,3,2.4874084208711613,0.7964357186396844,0.82479285126752
1768730276564,131,3,2.462671476521364,0.8179281283796791,0.8056078967375639
1768730276568,131,3,2.4330635292988005,0.7555596376703413,0.781322965721265
1768730276572,131,3,2.45055955624663,0.7110979473395944,0.8031056640683443
1768730276576,131,3,2.536178827599218,0.7783714188779833,0.891941015197482
1768730276580,131,3,2.6224221277457276,0.7767200877799709,0.9809915485235527
1768730276584,131,3,2.5572109371107645,0.9179599592181988,0.918832678701917
1768730276588,131,3,2.188869778097495,0.720922049231699,0.5540193764655634
1768730276592,130,2,1.4768594809010651,-0.215122476329244,-0.1539532870181394
1768730276596,129,1,0.5363522029857822,-1.2199949146859337,-1.0898913729586748
1768730276600,128,0,-0.4264012146559525,-2.21379879729769,-2.047873058626767
1768730276604,127,-1,-1.2379090228625904,-2.9613273265881745,-2.8552896300062547
1768730276608,127,-1,-1.8451619956038732,-3.3982698926545245,-3.459931760441484
1768730276612,126,-2,-2.3126009179208418,-3.965796070361172,-3.92606397611953
1768730276616,126,-2,-2.7492511139062783,-4.491827005315431,-4.361589549862947
1768730276620,125,-3,-3.226564161733047,-4.835916838847323,-4.8368614601985644
1768730276624,125,-3,-3.7355750975241953,-5.303305789773847,-5.342589768060449
1768730276628,124,-4,-4.198880476289304,-5.986033433226907,-5.801806388818208
1768730276632,124,-4,-4.521241574132164,-6.29269975372017,-6.120219977186962
1768730276636,124,-4,-4.64176977120839,-6.17163405784522,-6.238035257847615
1768730276640,124,-4,-4.5582131225904945,-6.035322854143096,-6.153377434624568
1768730276644,124,-4,-4.326560083042654,-6.107059114318559,-5.92132525893432
1768730276648,124,-4,-4.051910145140187,-6.048413015031036,-5.645756398662337
1768730276652,125,-3,-3.862113319390532,-5.231710443328238,-5.454467750120766
1768730276656,125,-3,-3.8506035613078815,-5.149553617221905,-5.441644794698976
1768730276660,124,-4,-4.0202876424195715,-6.025530185905107,-5.610086240525432
1768730276664,124,-4,-4.283660039387037,-6.046762685200152,-5.871315243025429
1768730276668,124,-4,-4.5196421225494205,-6.028790592843356,-6.10427927241043
1768730276672,124,-4,-4.630049300762314,-6.232601582201267,-6.212435911818465
1768730276676,124,-4,-4.562030433291087,-6.0494129425963505,-6.1443268992136915
1768730276680,124,-4,-4.318689681791611,-6.121163401149428,-5.902428615662171
1768730276684,124,-4,-3.9765792881662345,-5.8440618684505825,-5.561391671199084
1768730276688,125,-3,-3.679204597447149,-5.202612921287709,-5.2637119720955425
1768730276692,125,-3,-3.570668277671693,-4.988019581559004,-5.154102840233621
1768730276696,125,-3,-3.700854633218143,-5.247629025110232,-5.283381128901826
1768730276700,124,-4,-3.9878885388421983,-5.8734835645470325,-5.5698314824788735
1768730276704,124,-4,-4.2802809563941935,-6.02740832919722,-5.861894490213996
1768730276708,124,-4,-4.462162441135746,-5.966658142499118,-6.044160905105257
1768730276712,124,-4,-4.5082239152962345,-6.1576798448801195,-6.091693772435939
1768730276716,124,-4,-4.4552338574531225,-6.027551378716681,-6.040528891631461
1768730276720,124,-4,-4.333498885259454,-6.037602250948608,-5.919605424025795
1768730276724,124,-4,-4.119508163065222,-5.81351941346683,-5.70502451876695
1768730276728,125,-3,-3.7407023488104887,-5.124358404895716,-5.325439732499003
1768730276732,125,-3,-3.129207919366201,-4.929530877373063,-4.714624694386402
1768730276736,126,-2,-2.2942141090701567,-4.220611498854603,-3.8823705174990657
1768730276740,127,-1,-1.3594641028697063,-2.763927473917569,-2.951546738683942
1768730276744,128,0,-0.5212901750958752,-2.0681684927199133,-2.116660950214464
1768730276748,128,0,0.0589458585916737,-1.7866837130307638,-1.5375131140600289
1768730276752,129,1,0.3568029354261346,-1.219515697510622,-1.2387625984486887
1768730276756,129,1,0.5093434407973221,-0.890199064467105,-1.0855528424603542
1768730276760,129,1,0.735006089305186,-1.0133548289425556,-0.8616116224778372
1768730276764,129,1,1.181847113925921,-0.8140808722978461,-0.4188701323950079
1768730276768,130,2,1.8011410453450885,0.087294998872307,0.1957924658617096
1768730276772,131,3,2.3587643230736393,0.8850247067905594,0.7498161279802389
1768730276776,131,3,2.6043040354083145,1.1431033519934006,0.9928936695879718
1768730276780,131,3,2.4728011516571624,0.9193975995529424,0.8593796664406703
1768730276784,130,2,2.1457605130995865,0.3695209722046484,0.5303580933782586
1768730276788,130,2,1.914229055066132,-0.0898517030030001,0.2967732178895144
1768730276792,130,2,1.9642039546137744,0.1425778833554183,0.3442152298433734
1768730276796,131,3,2.271704513203581,0.9556862019621412,0.6480313560175373
1768730276800,131,3,2.684702572423583,1.125413553180195,1.0561919008124103
1768730276804,131,3,3.0935170939776926,1.2672095729714692,1.460111872869628
1768730276808,132,4,3.525398156900416,1.9884628706667593,1.8882883860883448
1768730276812,132,4,4.091176196698407,2.1945069755828275,2.4516753472968977
1768730276816,133,5,4.852249548133382,2.8836652866970462,3.210433244215028
1768730276820,134,6,5.736624011385487,4.334895421390213,4.0909744958086405
1768730276824,135,7,6.575166257295225,5.037028783301337,4.923702311178234
1768730276828,135,7,7.215491194765006,5.317383517981725,5.557512135787774
1768730276832,136,8,7.6111096589884975,5.882382559606364,5.947857283323769
1768730276836,136,8,7.826260386077234,6.2580411535110905,6.159825593116195
1768730276840,136,8,7.977090177527165,6.035960750257571,6.30857874875741
1768730276844,136,8,8.166540825847708,6.346670131101071,6.494942961177742
1768730276848,137,9,8.452648068059055,7.12170953984876,6.7753866433672
1768730276852,137,9,8.847246159381132,7.040944198364609,7.162378974517095
1768730276856,137,9,9.315769946228496,7.25329661646423,7.6239462605978385
1768730276860,138,10,9.773813037998256,7.9962726196052785,8.077535777421755
1768730276864,138,10,10.115530429260543,8.528931797389607,8.416219330625989
1768730276868,139,11,10.281520291658373,8.90806516584611,8.57792778021031
1768730276872,138,10,10.298639052506026,8.366198922397793,8.58852562238719
1768730276876,138,10,10.225729776234523,7.938276632113677,8.508357714050417
1768730276880,138,10,10.05133139788842,8.379066793961059,8.327624226559648
1768730276884,138,10,9.66916470918292,8.207392662685372,7.940034737089695
1768730276888,137,9,8.97956084542803,7.249633483050777,7.245062676039779
1768730276892,136,8,8.017171930456074,6.128174951185962,6.277090552613072
1768730276896,135,7,6.970484319717988,5.159053673882767,5.224846587508094
1768730276900,134,6,6.067653734918464,4.260929000245764,4.316445511993036
1768730276904,133,5,5.425434125032037,3.3405475250447343,3.6681668484786134
1768730276908,133,5,4.984398024392943,3.199614738734687,3.2201077141062857
1768730276912,133,5,4.57913855171674,3.2253714222429046,2.806969684986094
1768730276916,132,4,4.079032232820642,2.096662664469906,2.299131895187776
1768730276920,131,3,3.478712571409659,1.3725686080027335,1.6924215090291028
1768730276924,131,3,2.874770210435489,1.2770410123243083,1.0834578551723983
1768730276928,130,2,2.372889635113112,0.318716973339288,0.5765355377451642
1768730276932,130,2,2.012882919429061,0.163249122015225,0.2100745041229652
1768730276936,130,2,1.7565368432810993,0.2114939144379288,-0.0541152237111277
1768730276940,129,1,1.523347254049536,-0.7185121663642171,-0.2953511043628247
1768730276944,129,1,1.2372056728757688,-0.5661402223377001,-0.5889339500629145
1768730276948,129,1,0.860791503056892,-0.789719116782079,-0.9725740652923358
1768730276952,128,0,0.4091116406186921,-1.6838766514458685,-1.431823978389238
1768730276956,128,0,-0.0635898453271726,-1.8704177812401883,-1.911798288927273
1768730276960,127,-1,-0.4966407958459595,-2.627745911823739,-2.350396738558296
1768730276964,127,-1,-0.848253027397933,-2.587638604438525,-2.705578693518301
1768730276968,127,-1,-1.0938580575816297,-2.7170898723296175,-2.955101526699999
1768730276972,126,-2,-1.2095089478182532,-3.704200983352544,-3.0791687099599137
1768730276976,127,-1,-1.157489835684932,-2.8064525171716292,-3.042788170936079
1768730276980,127,-1,-0.8622586971645889,-2.632878475413665,-2.7674078184969253
1768730276984,127,-1,-0.1525182257673623,-2.591414713229468,-2.07210639601766
1768730276988,129,1,1.328880183970179,-0.5647731736677155,-0.5902319147164752
1768730276992,132,4,4.1976732018531635,2.096367436251496,2.2929892874619444
1768730276996,138,10,9.25840873037808,8.533335348003465,7.368392910661001
1768730277000,146,18,17.112212343834923,16.007148533081125,15.22147166279791
1768730277004,152,24,27.415854497233155,22.857081341124903,25.504409697225263
1768730277008,165,37,38.20551692811872,35.02135437151495,36.26124299669032
1768730277012,175,47,46.0282920575448,45.56522757067366,44.05122910866612
1768730277016,176,48,47.256882695285015,46.08437771585872,45.2575380848877
1768730277020,168,40,39.99507096642582,38.47835765738932,37.990997068467195
1768730277024,153,25,25.333050588964877,23.414738566934,23.34235221948004
1768730277028,134,6,7.065595620425615,4.4013320014923885,5.097358552970304
1768730277032,117,-11,-9.981895341909723,-12.637769276342311,-11.933724496933934
1768730277036,105,-23,-22.01428612828975,-24.699149968624273,-23.96777117757317
1768730277040,100,-28,-27.574233733919172,-29.52128421581482,-29.5491791932708
1768730277044,101,-27,-27.532210898449502,-28.59909542670931,-29.539764008947504
1768730277048,104,-24,-24.044352582518737,-25.540394213231448,-26.081942508375217
1768730277052,108,-20,-19.30464775668184,-21.68786637489613,-21.35833567892427
1768730277056,112,-16,-14.80996721212168,-17.603235376109726,-16.863282733603636
1768730277060,116,-12,-11.286151612315797,-13.557549120520472,-13.33043705793404
1768730277064,119,-9,-8.942334912721897,-10.538644219059908,-10.980994339320954
1768730277068,120,-8,-7.693834985141146,-9.576923780694376,-9.737036255614964
1768730277072,120,-8,-7.268994291338552,-9.61965349231474,-9.324241858484406
1768730277076,120,-8,-7.300395880239148,-9.605186951242583,-9.367998349697675
1768730277080,120,-8,-7.451281196165728,-9.502550926042506,-9.527509589040806
1768730277084,120,-8,-7.519087632349307,-9.530791883282902,-9.601597621483506
1768730277088,120,-8,-7.459006270394716,-9.571804778845667,-9.54843454100302
1768730277092,120,-8,-7.34203905131858,-9.561387686258463,-9.439652289197298
1768730277096,120,-8,-7.290014973835855,-9.640181019505818,-9.395563731017148
1768730277100,120,-8,-7.404587345300153,-9.386285655075431,-9.516790827629356
1768730277104,120,-8,-7.699083476761398,-9.615941831626904,-9.81718640561066
1768730277108,119,-9,-8.069740728864215,-10.457689160114816,-10.193815213609048
1768730277112,119,-9,-8.343323891568366,-10.616200504643093,-10.473462803904702
1768730277116,119,-9,-8.377409958165611,-10.57994485655954,-10.513422675235164
1768730277120,119,-9,-8.134257472267187,-10.328560348092054,-10.276227403102636
1768730277124,120,-8,-7.674470842762767,-9.691488191409872,-9.823084956632712
1768730277128,120,-8,-7.096101704650799,-9.278179022509374,-9.252087055601235
1768730277132,121,-7,-6.48743614384161,-8.83044063547571,-8.650790262920577
1768730277136,121,-7,-5.926016151009799,-8.270395749979059,-8.096018971490944
1768730277140,122,-6,-5.492442795843958,-7.612230858030217,-7.668316595408435
1768730277144,122,-6,-5.2533726716054,-7.352140997858889,-7.43462359703094
1768730277148,122,-6,-5.2153725799345,-7.562884482788039,-7.401604851488995
1768730277152,122,-6,-5.294939916501098,-7.5584664021028125,-7.485884113306048
1768730277156,122,-6,-5.340818562553754,-7.444935165088467,-7.536691286450645
1768730277160,122,-6,-5.204879293094917,-7.441921107947751,-7.406286308534901
1768730277164,122,-6,-4.82475355589879,-7.405829202054848,-7.03210863561853
1768730277168,123,-5,-4.263590821821063,-6.533154592687489,-6.476958788801297
1768730277172,124,-4,-3.666416474782366,-5.503930199651066,-5.885770027576293
1768730277176,124,-4,-3.1565565910035605,-5.512781198913463,-5.381543151201009
1768730277180,124,-4,-2.756946801159491,-5.265234439753007,-4.986447371276838
1768730277184,125,-3,-2.398003067433506,-4.586933668273234,-4.630686825052048
1768730277188,125,-3,-1.9882607329536417,-4.268024708018318,-4.223862049961748
1768730277192,126,-2,-1.480080760983961,-3.788990012594032,-3.71974117487381
1768730277196,126,-2,-0.8925361421030981,-3.134043696307481,-3.1376491658913457
1768730277200,127,-1,-0.296857226125454,-2.6275159173356526,-2.54769630688286
1768730277204,127,-1,0.2176544350618511,-2.159808192021429,-2.0379020629334255
1768730277208,128,0,0.5851284967185378,-1.657474252589135,-1.6738862653322355
1768730277212,128,0,0.7988805099439371,-1.4070248176574225,-1.4630111234092291
1768730277216,128,0,0.919352851982186,-1.404406214111019,-1.3453809841076456
1768730277220,128,0,1.0391185710770814,-1.3938140586081396,-1.2283779259443972
1768730277224,128,0,1.2247593253706008,-1.244199328615024,-1.0454886706203066
1768730277228,129,1,1.484003461642486,-0.6490468630944024,-0.7896067325147809
1768730277232,129,1,1.7831611430243473,-0.2844368760962554,-0.4946306991959539
1768730277236,129,1,2.0846563774677365,-0.5577661652621013,-0.1970124974509519
1768730277240,129,1,2.3623365235710168,-0.1473074296731598,0.078472695248779
1768730277244,130,2,2.598443084548785,0.5468506161717714,0.3138228130074245
1768730277248,130,2,2.7911082118645716,0.5553604476644747,0.5055036735396321
1768730277252,130,2,2.9635201189985025,0.6113225087819458,0.6756790482407631
1768730277256,130,2,3.1400966466893596,0.5141286760782178,0.8493161521950308
1768730277260,130,2,3.30036393239835,0.8987699673445202,1.0069495505985715
1768730277264,131,3,3.369503633561552,1.4850661361201087,1.0742199815827616
1768730277268,130,2,3.271554834093634,0.6882494613609884,0.9753005424541752
1768730277272,130,2,2.998524813604788,0.495476677939759,0.7021549225120718
1768730277276,130,2,2.632609523404357,0.6744584259484303,0.3363736531915857
1768730277280,129,1,2.30284891368001,-0.2124605751840951,0.006187265064637
1768730277284,129,1,2.101651876388613,-0.379401031756736,-0.1960218078353666
1768730277288,129,1,2.0132927072925133,-0.3748946906895183,-0.2852758450413706
1768730277292,129,1,1.9131591130449124,-0.4549516693519164,-0.3858060170927815
1768730277296,129,1,1.6521832756564017,-0.2827021572366663,-0.6469010317905188
1768730277300,128,0,1.1606730909010707,-1.261248261788697,-1.1383203922322989
1768730277304,127,-1,0.4796925609737998,-2.2549683904407662,-1.8187159334953291
1768730277308,127,-1,-0.2977716467905544,-2.4911862467352712,-2.595170681458341
1768730277312,126,-2,-1.1027022158382631,-3.286766901347242,-3.399157684647661
1768730277316,125,-3,-1.9088107766805464,-4.425529789920958,-4.204430485371705
1768730277320,124,-4,-2.692123942352747,-5.046447750787807,-4.986434136482219
1768730277324,124,-4,-3.3817012787542975,-5.466739131496824,-5.673901134070994
1768730277328,123,-5,-3.852397986061749,-6.212435531695308,-6.142053747130849
1768730277332,123,-5,-3.980646901693146,-6.567873024772337,-6.267920436461955
1768730277336,123,-5,-3.733631201088401,-6.062542045930211,-6.019054429231239
1768730277340,124,-4,-3.220506457277931,-5.399595135233303,-5.504604858036992
1768730277344,124,-4,-2.653781827242997,-5.045157291305429,-4.936626735843039
1768730277348,125,-3,-2.240709606805361,-4.6312832814163665,-4.521679374830925
1768730277352,125,-3,-2.0778411930593252,-4.102125479099846,-4.3557783080638615
1768730277356,125,-3,-2.1173850450254825,-4.491155872041729,-4.390931544093731
1768730277360,124,-4,-2.223679006910445,-4.944923294323506,-4.491868297646122
1768730277364,125,-3,-2.2712277890677828,-4.422348622712321,-4.534420058767439
1768730277368,125,-3,-2.20571432262555,-4.280689307878499,-4.465741619366232
1768730277372,125,-3,-2.0371469142812857,-4.348981651096778,-4.295561566211724
1768730277376,125,-3,-1.805491934210684,-4.274218989368445,-4.061445962198512
1768730277380,125,-3,-1.56048349333278,-4.055542688608396,-3.811131903917251
1768730277384,126,-2,-1.3450144221705582,-3.3378390479708195,-3.5884334417117407
1768730277388,126,-2,-1.1648091942981953,-3.281337099378547,-3.4019497779245063
1768730277392,126,-2,-0.9776115254052308,-3.3548477339941285,-3.210864805875284
1768730277396,126,-2,-0.7437417693646495,-3.1966103757454283,-2.973982339244821
1768730277400,126,-2,-0.5024414801648829,-3.1187242215718594,-2.7281295398342027
1768730277404,127,-1,-0.3751086790016091,-2.2367445300444215,-2.594097615577122
1768730277408,127,-1,-0.4579484567130107,-2.3293283274280747,-2.66936524694005
1768730277412,126,-2,-0.7015626974767728,-3.3047623308671037,-2.905808407173142
1768730277416,126,-2,-0.914364816854854,-3.167617642131932,-3.112102307886279
1768730277420,126,-2,-0.907617721206324,-3.165527984397589,-3.0992133046601165
1768730277424,126,-2,-0.6556793335025364,-3.1129407541198666,-2.841161336198692
1768730277428,127,-1,-0.3277385088720719,-2.437052477130308,-2.50685404166892
1768730277432,127,-1,-0.1596941706803676,-2.1385663016179417,-2.3320252093247533
1768730277436,127,-1,-0.2708116066698067,-2.322462701354031,-2.4358281519946647
1768730277440,126,-2,-0.5792960661462165,-2.9716216607239434,-2.736260497267844
1768730277444,126,-2,-0.8868037752187392,-3.2898419113447965,-3.0348960986621556
1768730277448,126,-2,-1.0512612712068974,-3.203172557096954,-3.190137728270614
1768730277452,126,-2,-1.0920660207146236,-3.336331053898215,-3.2223132184815304
1768730277456,126,-2,-1.1435351766287147,-3.090392845209986,-3.2662798923377103
1768730277460,126,-2,-1.3166127634309743,-3.1745241788415948,-3.4323025200760933
1768730277464,125,-3,-1.6065677601303294,-4.067692282666213,-3.714088512482358
1768730277468,125,-3,-1.924600676773042,-4.383188308029556,-4.022062206778978
1768730277472,125,-3,-2.1988857852949355,-4.110816806820371,-4.285504574679182
1768730277476,125,-3,-2.43157090608646,-4.291200525977058,-4.50824159663381
1768730277480,124,-4,-2.67047595630887,-4.929438561213142,-4.738221855259605
1768730277484,124,-4,-2.9489565865023306,-5.2974210620481665,-5.0075865317922865
1768730277488,124,-4,-3.251832497659241,-5.122932790954865,-5.300571084898609
1768730277492,124,-4,-3.517818849954463,-5.313407545953349,-5.556311328690155
1768730277496,123,-5,-3.6719438457090434,-6.085428129017935,-5.699858625199489
1768730277500,123,-5,-3.675378983839771,-6.050751331217706,-5.691884168545041
1768730277504,124,-4,-3.550593448540984,-5.221632801199646,-5.555258738270969
1768730277508,124,-4,-3.34622660662633,-5.090454820596419,-5.33989636599962
1768730277512,124,-4,-3.0798614848441623,-5.381706687926572,-5.063643786737229
1768730277516,124,-4,-2.7353403513404526,-4.9049130384068516,-4.7089582636467355
1768730277520,125,-3,-2.3195279608602757,-4.26984594410456,-4.281411033197089
1768730277524,125,-3,-1.89808564736448,-3.9388612584546494,-3.847070178131815
1768730277528,126,-2,-1.5521470028343165,-3.3567836015037886,-3.4885825634546146
1768730277532,126,-2,-1.2966503778326324,-3.0702071553573904,-3.2215912145258203
1768730277536,126,-2,-1.0535965137689276,-3.1711189205214905,-2.96710982695136
1768730277540,126,-2,-0.7187551702444768,-3.003946185796303,-2.6195579188289835
1768730277544,127,-1,-0.2562005991331011,-2.159057763445453,-2.143225878310363
1768730277548,128,0,0.2777847191111928,-1.1235382855518612,-1.5959520650294192
1768730277552,128,0,0.794796799979764,-1.223101462847902,-1.0668404526314497
1768730277556,128,0,1.235991799803714,-1.0274362104469232,-0.613700197364488
1768730277560,129,1,1.571505402527947,-0.0854388769512866,-0.2652752524228892
1768730277564,129,1,1.7654823975146114,-0.114751119689096,-0.0576283221227584
1768730277568,129,1,1.7661455014739371,-0.0734931181427391,-0.0432933495485121
1768730277572,129,1,1.531987693639722,-0.2584751826515434,-0.2638355882533227
1768730277576,128,0,1.0641426833049077,-0.9499039588553924,-0.717719986095863
1768730277580,128,0,0.4200367904874671,-1.1448556346878451,-1.3475565694582778
1768730277584,127,-1,-0.2999517839930448,-2.065224399435759,-2.0533669931668848
1768730277588,126,-2,-0.9923458325481044,-3.0324044808322768,-2.7317220929737767
1768730277592,126,-2,-1.5992296323514656,-3.3051133990860473,-3.324386549000354
1768730277596,125,-3,-2.128757399654809,-3.811720434513253,-3.839433516724199
1768730277600,125,-3,-2.6261333611966378,-4.33902600875713,-4.322341062120036
1768730277604,124,-4,-3.121463298235734,-4.792404164613016,-4.803335722292626
1768730277608,124,-4,-3.604854262989448,-5.303228857734586,-5.272249116899888
1768730277612,123,-5,-4.047793370947214,-5.973779127613723,-5.700329420659438
1768730277616,123,-5,-4.438643876590502,-6.099252152853066,-6.0761275691792
1768730277620,123,-5,-4.788248876710481,-6.086210993500826,-6.410647895406862
1768730277624,122,-6,-5.103293368578017,-6.955842091197509,-6.710120851018282
1768730277628,122,-6,-5.365099578636908,-7.180283319631721,-6.9555342795663595
1768730277632,122,-6,-5.536697010425151,-6.9663930386929165,-7.111021898716415
1768730277636,122,-6,-5.583530000467232,-7.160397137926985,-7.143795746073856
1768730277640,122,-6,-5.493465231586422,-6.952887770458782,-7.041266308739097
1768730277644,122,-6,-5.300013004358613,-7.09391270989677,-6.833305446458181
1768730277648,122,-6,-5.094607081333438,-7.01265101311488,-6.608178557079715
1768730277652,123,-5,-4.9880624098651705,-6.053525601727222,-6.478748473810814
1768730277656,123,-5,-5.024500182254956,-6.105418080603575,-6.496061340265305
1768730277660,122,-6,-5.13512373559313,-6.928871222629093,-6.596911904667878
1768730277664,122,-6,-5.202575068906839,-7.15856809750254,-6.6621747295989415
1768730277668,122,-6,-5.150517080194424,-6.8675318725121715,-6.606416165006231
1768730277672,123,-5,-4.86886773607931,-6.189121557749667,-6.309285761893668
1768730277676,124,-4,-3.929818688447246,-4.915678924220821,-5.33924868274953
1768730277680,127,-1,-1.3561585465858634,-2.097638267953151,-2.7256353355877163
1768730277684,132,4,4.149772491627045,3.0067440301924098,2.815788363887613
1768730277688,140,12,13.35984698091812,11.0410872389333,12.044951655200492
1768730277692,152,24,25.45335917008329,22.896522008185386,24.137907916066588
1768730277696,165,37,37.54587914500251,36.10538306459829,36.217352953794865
1768730277700,174,46,45.45151042141275,44.83389523911084,44.111297892828965
1768730277704,174,46,45.52008162940166,45.106752917154736,44.18375673106856
1768730277708,165,37,36.54964733917772,35.892648709378065,35.240055873347636
1768730277712,148,20,20.588376077968565,19.03659408935267,19.324066553238556
1768730277716,129,1,2.09625365921573,0.0157305630208721,0.8813176554801849
1768730277720,113,-15,-14.040909186637933,-16.03737468385248,-15.219236719347748
1768730277724,103,-25,-24.49276490572849,-25.906425492817828,-25.65678929723735
1768730277728,100,-28,-28.43294843406418,-29.049723424589388,-29.601777779921584
1768730277732,101,-27,-27.17219723184681,-27.961264266046808,-28.3515736438015
1768730277736,105,-23,-22.98261410412573,-23.990274055616403,-24.16356597423672
1768730277740,110,-18,-17.93253862480385,-19.02024324086613,-19.09881383422085
1768730277744,114,-14,-13.296158828028442,-14.92079953601128,-14.434495072166005
1768730277748,118,-10,-9.587612776473982,-11.020638259558272,-10.694153806809975
1768730277752,121,-7,-6.892834520528223,-7.952285037664188,-7.9729067559095395
1768730277756,123,-5,-5.138084163546807,-6.010358340908465,-6.200914245449385
1768730277760,124,-4,-4.164499765481268,-4.937908065498463,-5.216769483399669
1768730277764,124,-4,-3.7153668584411954,-5.026979943869647,-4.757668682989479
1768730277768,124,-4,-3.4813397888261353,-4.834585018954237,-4.509542043014741
1768730277772,125,-3,-3.2145142717944175,-4.158961161708742,-4.2243180819718145
1768730277776,125,-3,-2.8098067924189714,-3.729008376455808,-3.800293477804668
1768730277780,126,-2,-2.286048512080498,-3.234580114064414,-3.25950203272527
1768730277784,126,-2,-1.7081655958164297,-2.6704255388661107,-2.667288813936117
1768730277788,127,-1,-1.135181313722186,-2.196337076931985,-2.080778560693089
1768730277792,127,-1,-0.6234953312156775,-1.763478939353691,-1.5543638419886523
1768730277796,128,0,-0.2422023858157609,-1.0945151253309415,-1.1565919977523291
1768730277800,128,0,-0.0491497735998673,-0.8577863879844276,-0.9461274514579836
1768730277804,128,0,-0.0339815465342729,-1.001436269553026,-0.9137738625779246
1768730277808,128,0,-0.087752607849177,-0.8694657715177012,-0.9513096627443812
1768730277812,128,0,-0.0469629769378024,-1.0499505966503309,-0.8953188794605271
1768730277816,128,0,0.2057007453564459,-0.7980129212445863,-0.6280251839780577
1768730277820,129,1,0.6581341471944206,-0.1088650917027447,-0.1608365461714269
1768730277824,129,1,1.1730697723416852,0.2604170932556142,0.3693395833168669
1768730277828,130,2,1.584433720278787,0.9032944346700704,0.7960478165797955
1768730277832,130,2,1.8145156956979045,1.174018293954786,1.0408831751975187
1768730277836,130,2,1.9177807148583552,1.0282489122695706,1.1583595105765934
1768730277840,130,2,2.014963267176639,1.0504767929529963,1.27027599643698
1768730277844,130,2,2.180914633854433,1.1849640698407606,1.4522748524721123
1768730277848,131,3,2.3978510320994224,1.923466270380744,1.6857549484794978
1768730277852,131,3,2.6171328954383437,2.2637210438108744,1.9202680515052144
1768730277856,131,3,2.8485759473212697,1.8722929035190017,2.164795455070519
1768730277860,131,3,3.1624840921391058,2.3050594980738,2.49064932554683
1768730277864,132,4,3.5953618368879394,2.9005357048112987,2.936162455285925
1768730277868,132,4,4.070313974788283,3.245187241893027,3.4255694948136313
1768730277872,133,5,4.435943585335377,3.9826276013583617,3.8071159734606033
1768730277876,133,5,4.604309312431579,4.1439099163844,3.991246374140899
1768730277880,133,5,4.6576853065799275,4.089455201559585,4.058597830342023
1768730277884,133,5,4.803779825687697,4.098842552064496,4.216684680053172
1768730277888,133,5,5.193290742784797,4.088618259329488,4.6176063774576805
1768730277892,134,6,5.760416519292923,5.155011875254196,5.197016740308918
1768730277896,135,7,6.255070267402871,6.011234139780237,5.704951430489616
1768730277900,135,7,6.464436481236949,6.228118097708791,5.927877970758655
1768730277904,135,7,6.423311341355716,5.9913326410021845,5.900346900507832
1768730277908,134,6,6.40260428843328,5.185144244566673,5.893378689872638
1768730277912,135,7,6.67511203670003,6.096116884236057,6.179068210240137
1768730277916,136,8,7.272496622552028,7.103455954967973,6.787825175631783
1768730277920,136,8,7.946143563326314,7.150606840443789,7.471035915606818
1768730277924,137,9,8.352265767283129,8.11478658439502,7.886689107073059
1768730277928,137,9,8.303199838295733,8.029887182464655,7.848920495779398
1768730277932,136,8,7.895832777433549,7.290394224629028,7.454785815593381
1768730277936,136,8,7.429997553173147,6.922917798553096,7.002833649601518
1768730277940,135,7,7.185408372856792,6.37231422611273,6.771136464685081
1768730277944,136,8,7.231746004621547,6.910900200966466,6.828191401214089
1768730277948,136,8,7.414050499696917,7.242123379831943,7.01890954062047
1768730277952,136,8,7.503240608683786,7.099568206544781,7.11557089353213
1768730277956,136,8,7.366838410996593,7.122083797275735,6.987985740868234
1768730277960,135,7,7.022253099880346,6.2332308113736925,6.654867638897961
1768730277964,135,7,6.563936860827427,6.0088225869404095,6.209380272892092
1768730277968,135,7,6.06487589679403,6.222877109012657,5.721622693968992
1768730277972,134,6,5.537494500872615,5.071134109142406,5.202605562050454
1768730277976,133,5,4.949647994828817,4.234075225259652,4.621702877147574
1768730277980,133,5,4.253659347143069,4.109849753402365,3.933628365830964
1768730277984,132,4,3.4176005616571414,3.155866544987793,3.106988218310372
1768730277988,131,3,2.4602858725634618,2.081184720692071,2.1592316633513056
1768730277992,130,2,1.4637854461903008,1.247425822285205,1.1712061875082762
1768730277996,129,1,0.5370403506128274,0.0602371198809592,0.2520870283911742
1768730278000,128,0,-0.2482340188910035,-0.6640794089205215,-0.5253805657115986
1768730278004,128,0,-0.8912655610090194,-1.0930544450732986,-1.1601013307564498
1768730278008,127,-1,-1.43160638987721,-1.6280058907461037,-1.6924786177170112
1768730278012,127,-1,-1.8872277200947416,-2.033953726908164,-2.141399480783627
1768730278016,126,-2,-2.232467506926434,-2.640099112322776,-2.4809160186022616
1768730278020,126,-2,-2.445147853166022,-2.924563358660893,-2.6876124308451725
1768730278024,126,-2,-2.568445702992312,-2.8642782023560462,-2.803981899369611
1768730278028,126,-2,-2.705209168865123,-2.7845887615272336,-2.9335425349873043
1768730278032,126,-2,-2.934267104292383,-2.918487375167622,-3.156200410498288
