timestamp_ms,ecg_u8_raw,ecg_counts_raw_int,ecg_counts_filt_monitor,ecg_counts_filt_diagnostic,ecg_counts_filt_st
1769251536412,121,-7,-5.641550342102349,-6.267436372800636,-6.464233397545567
1769251536416,123,-5,-5.140348787506305,-4.992765949832347,-5.927265246699476
1769251536420,124,-4,-3.0984752597992373,-3.3863018172671877,-3.849206608297598
1769251536424,128,0,1.0497839000183635,0.2835045574996719,0.325913757951815
1769251536428,133,5,7.215753822416408,5.491905420686802,6.505565419238799
1769251536432,140,12,14.070123367186,12.542465110123356,13.36325073291001
1769251536436,147,19,19.07808556562138,19.1378162805874,18.37129127804525
1769251536440,147,19,19.448437065982716,19.6506361758428,18.74764819754417
1769251536444,141,13,13.576873098820556,13.165131356705986,12.895969782708754
1769251536448,129,1,2.0944026333249433,1.6961279861992669,1.4489576942439175
1769251536452,115,-13,-12.175703507657635,-12.689100656645367,-12.777202256921004
1769251536456,101,-27,-25.370242124858965,-26.543468996077085,-25.93112432224465
1769251536460,92,-36,-34.206315688754685,-35.5233623220947,-34.73920278980532
1769251536464,90,-38,-37.18788261891618,-37.61959115202478,-37.70795345791497
1769251536468,93,-35,-34.819886038702805,-34.39842499545603,-35.33802532092153
1769251536472,99,-29,-28.905548315643273,-28.629097331669342,-29.42325597102583
1769251536476,105,-23,-21.53725087239529,-22.50763880142751,-22.045623406925884
1769251536480,112,-16,-14.396279364547556,-15.549645597033734,-14.881635068677593
1769251536484,119,-9,-8.535478783118197,-8.537605296749124,-8.98888461887439
1769251536488,123,-5,-4.4318689192936995,-4.457625746593901,-4.854294820739457
1769251536492,125,-3,-2.0864862982970194,-2.5433798158932026,-2.48504366166759
1769251536496,126,-2,-1.1398852461780953,-1.5217529246747317,-1.520241885972526
1769251536500,126,-2,-1.0452749774195622,-1.5023022037148213,-1.4083425723821108
1769251536504,126,-2,-1.2658206110027717,-1.5182320163146148,-1.6102630622356502
1769251536508,126,-2,-1.4131694632334972,-1.427013900030838,-1.738715821906439
1769251536512,126,-2,-1.293943905305913,-1.5331685763165463,-1.6014282496765295
1769251536516,126,-2,-0.8935433471794907,-1.457188716294045,-1.1830048260597206
1769251536520,127,-1,-0.3245892801309846,-0.5421209655013204,-0.594906746594944
1769251536524,128,0,0.2580365907660464,0.587808615092281,0.007660948589641
1769251536528,128,0,0.7494267991325403,0.503466279890552,0.5186254929141194
1769251536532,128,0,1.1304212936276894,0.5850544181591584,0.9183769969448924
1769251536536,129,1,1.4223077953396466,1.4791015552314333,1.22858759198005
1769251536540,129,1,1.6219003030528634,1.555347349842651,1.4465885087723445
1769251536544,129,1,1.693937589477256,1.5428956637893512,1.5374937789443577
1769251536548,129,1,1.6269845642097884,1.616887470590294,1.4898419534391243
1769251536552,129,1,1.4941589222180238,1.480248013630522,1.3760278086031903
1769251536556,129,1,1.4544264001899654,1.678983187129668,1.3542698083197957
1769251536560,129,1,1.671745739398392,1.3457158833310778,1.588888227398682
1769251536564,129,1,2.1986138976812595,1.8515520466622544,2.133510887298433
1769251536568,131,3,2.923918195631413,3.332359096756714,2.877263089032887
1769251536572,131,3,3.64849039427453,3.818636291230642,3.619853535327339
1769251536576,132,4,4.2289841683257245,4.395452662291505,4.217003639910081
1769251536580,132,4,4.653279730534997,4.644648650426647,4.65717297754449
1769251536584,132,4,4.982712106983399,4.6334528823954715,5.003077259262865
1769251536588,133,5,5.242038931542779,5.55145613826958,5.280057257997322
1769251536592,133,5,5.3886164697094365,5.71395069304376,5.444834760794315
1769251536596,133,5,5.393859270165616,5.475877494844163,5.467839416094599
1769251536600,133,5,5.340482498144699,5.680879320958458,5.431248755331779
1769251536604,133,5,5.418054427532989,5.566693883695615,5.524711709439028
1769251536608,133,5,5.797937241231784,5.719525908739499,5.920115007123003
1769251536612,134,6,6.4877559998154,6.5686703356294185,6.625552632149688
1769251536616,135,7,7.300004232468375,7.6883087266832515,7.453405178163958
1769251536620,136,8,7.979418773850556,8.506406262725214,8.147992682718419
1769251536624,136,8,8.387379348068738,8.772550909719302,8.570854851434499
1769251536628,136,8,8.582113411806391,8.566236031315988,8.780977722680095
1769251536632,136,8,8.733264663364741,8.751929654908597,8.948218621542475
1769251536636,137,9,8.967200732430797,9.58252534059537,9.198065649895907
1769251536640,137,9,9.287658038282792,9.629908405795838,9.533317939537488
1769251536644,137,9,9.621775148137038,9.721903667458296,9.881157703051972
1769251536648,138,10,9.92542846660278,10.632315876957264,10.19816854367064
1769251536652,138,10,10.24716290441789,10.742808433767824,10.53356129925279
1769251536656,138,10,10.69508959682146,10.640360947820806,10.995825508940428
1769251536660,139,11,11.336031965450946,11.60542022427744,11.651507556095613
1769251536664,140,12,12.1237718752841,12.823883209957303,12.453308050769124
1769251536668,141,13,12.927324374543028,13.516325751890111,13.26946615745434
1769251536672,141,13,13.622463196889312,13.97364268940428,13.976466491406454
1769251536676,142,14,14.1496311797619,14.382236060051907,14.516104576256955
1769251536680,142,14,14.49909777774909,14.966774795349895,14.878763197764966
1769251536684,143,15,14.667813716991082,15.46337568567376,15.06026902995389
1769251536688,142,14,14.637699463387236,14.936239829180602,15.042021645859052
1769251536692,142,14,14.380681181904649,14.614439310725617,14.796709276863186
1769251536696,142,14,13.87881759918882,14.74326078145188,14.30704891496524
1769251536700,141,13,13.151221160816762,13.709674311580123,13.591686390508762
1769251536704,140,12,12.264019698919038,12.67887896748557,12.71592804651765
1769251536708,139,11,11.29587909497234,11.868649321791448,11.758317942945746
1769251536712,138,10,10.27634227510743,10.620456321435071,10.748877127233117
1769251536716,137,9,9.159057341893044,9.87180159236005,9.64163117234433
1769251536720,136,8,7.870322571111108,8.5598125858174,8.362917159262237
1769251536724,134,6,6.400956389951205,6.898949258490804,6.903562356178462
1769251536728,133,5,4.862283813963989,5.701406075244098,5.375119312393299
1769251536732,131,3,3.45280933092486,3.794013376156744,3.9762888463517263
1769251536736,130,2,2.3574180665016593,2.7833087450710323,2.891593166568092
1769251536740,130,2,1.656789146907231,2.6559207600039514,2.200799793613754
1769251536744,129,1,1.307897718904846,1.877438567938401,1.8602860997351105
1769251536748,129,1,1.1878656630152986,1.749041019682787,1.7475231689895363
1769251536752,129,1,1.151973379804191,1.7974438815417146,1.7185867805817212
1769251536756,129,1,1.0753660779700631,1.8008917021246695,1.6491814245261018
1769251536760,129,1,0.8778629023891895,1.6982368691460712,1.4595870593835274
1769251536764,128,0,0.5360987419473564,0.864780675249424,1.1268306781326922
1769251536768,128,0,0.0872092023019623,0.8197548646134001,0.6875368179797432
1769251536772,128,0,-0.3710399028194402,0.748980403136037,0.2378817459910749
1769251536776,127,-1,-0.6986108917642602,-0.0995529599327129,-0.0831855929047282
1769251536780,127,-1,-0.7766717708591862,-0.3695006993303842,-0.1561099917381359
1769251536784,127,-1,-0.5944704652543891,-0.0029102949788279,0.0314044965016213
1769251536788,128,0,-0.2765937552316693,0.707301465922586,0.3553751893889219
1769251536792,128,0,-0.0008375607774606,0.92013646671061,0.6375995475950162
1769251536796,128,0,0.1294136216155679,0.7537432634239298,0.7743185289738079
1769251536800,128,0,0.1406862588261557,0.8232144943388633,0.7918914775483836
1769251536804,128,0,0.1286224304935759,0.8450983917018506,0.785472635156391
1769251536808,128,0,0.147151062082075,0.8925867705066066,0.808413118886186
1769251536812,128,0,0.1493588364499691,0.7918847705535859,0.8139956003455016
1769251536816,128,0,0.0296603544368023,0.9072073496662448,0.6977502602359698
1769251536820,128,0,-0.2668580834718268,0.7278220153371668,0.4059132430180892
1769251536824,127,-1,-0.6590286965937717,-0.0482899677860073,0.0198217105210245
1769251536828,127,-1,-0.9485293259661516,-0.1440114890323203,-0.2633165144899676
1769251536832,127,-1,-0.9455981011128856,-0.1620189922179609,-0.2554652004855704
1769251536836,127,-1,-0.6178607858813163,-0.0601166331097777,0.0746428171475397
1769251536840,128,0,-0.1528483127652395,0.7022906153193356,0.5398267550360467
1769251536844,128,0,0.122197287833544,1.0455989855458752,0.8145094316766084
1769251536848,128,0,-0.077064296143392,0.7740023058256016,0.6163863640560185
1769251536852,127,-1,-0.8213320435236944,-0.031012285260056,-0.124102888164078
1769251536856,126,-2,-1.91686104892742,-1.1480503169572265,-1.2138665242186528
1769251536860,125,-3,-3.0022623481515742,-2.196346202851412,-2.2936484286440404
1769251536864,124,-4,-3.7313683881740114,-2.9705057457440396,-3.019409618373194
1769251536868,124,-4,-3.938904147194248,-3.2204240448827326,-3.2266190441685056
1769251536872,124,-4,-3.7018323834044176,-2.9380021970009524,-2.991404800446502
1769251536876,125,-3,-3.2688132088822983,-2.251103793265933,-2.56068246716695
1769251536880,125,-3,-2.9074128041779477,-2.02155148421717,-2.200124923373803
1769251536884,125,-3,-2.7666282445965256,-2.1302354984111025,-2.057592829826167
1769251536888,125,-3,-2.829697709136245,-2.0191070318197997,-2.1169810578651935
1769251536892,125,-3,-2.960529880392563,-2.094459865090203,-2.244604579006648
1769251536896,125,-3,-2.9968599293855203,-2.070406897507302,-2.280444397036419
1769251536900,125,-3,-2.842872586625866,-2.1400074965282077,-2.128674793562225
1769251536904,125,-3,-2.5251125435684445,-1.993521394515338,-1.813752567135652
1769251536908,126,-2,-2.176898421318927,-1.1087184937061796,-1.4670645834355156
1769251536912,126,-2,-1.944595050297212,-0.9640069141945178,-1.2348419517588427
1769251536916,126,-2,-1.8749934228796377,-1.180669226210047,-1.1651167700320697
1769251536920,126,-2,-1.8772462547892432,-0.9595530950317404,-1.1682085833395508
1769251536924,126,-2,-1.796785442193952,-1.177319129546599,-1.0896823565613003
1769251536928,126,-2,-1.538928556067353,-0.8611111611080515,-0.8340366808079507
1769251536932,127,-1,-1.134362232930256,-0.1810793593273025,-0.4311155715615236
1769251536936,127,-1,-0.6899116790397359,0.075065131501212,0.0121523689482616
1769251536940,128,0,-0.2727563553362844,0.8365746634513149,0.4276024645806364
1769251536944,128,0,0.1561108277025702,1.0403485706253566,0.8535477164628587
1769251536948,128,0,0.6826412527064254,0.9611846976819258,1.3763727405966684
1769251536952,129,1,1.3044659721164522,2.037611229990558,1.9946482420967795
1769251536956,130,2,1.862656131550152,2.8931976919232856,2.549808191666852
1769251536960,130,2,2.130220074965679,3.070431688187533,2.8145819165929975
1769251536964,130,2,1.9884106853141823,2.823621888085544,2.6698585900345595
1769251536968,129,1,1.5291660780656264,2.2179327034151326,2.207278385893267
1769251536972,129,1,0.9900461278272604,1.7972774907851452,1.6642428962813272
1769251536976,128,0,0.5764825997261553,1.1952753262333182,1.246530911769142
1769251536980,128,0,0.3188869847187918,0.8076431232450689,0.9851421259989852
1769251536984,128,0,0.0842411135066909,1.114370349538281,0.746858924437733
1769251536988,128,0,-0.2680356288161916,0.9825240530180376,0.3901283261281794
1769251536992,127,-1,-0.7355104535443564,0.0084875266045125,-0.082772538945119
1769251536996,126,-2,-1.186844966223417,-0.8992864749793812,-0.5392624230518015
1769251537000,126,-2,-1.5330624397179653,-1.1444307602404296,-0.8896634132005277
1769251537004,126,-2,-1.8676336027376723,-0.8115537398027026,-1.2288268691126198
1769251537008,126,-2,-2.411969691525261,-1.1338794001187793,-1.7797691953127757
1769251537012,124,-4,-3.3171534836349235,-2.781360127907001,-2.6925534747906372
1769251537016,123,-5,-4.5207664364359355,-4.115285977223814,-3.9018448353873225
1769251537020,122,-6,-5.7786161733146075,-4.87821545697356,-5.162342262946074
1769251537024,121,-7,-6.814372427221236,-6.046413152091935,-6.200074961011193
1769251537028,120,-8,-7.460063749585655,-6.867210415188938,-6.850558176546405
1769251537032,120,-8,-7.714024455239515,-6.9779822812809105,-7.113489450896581
1769251537036,120,-8,-7.711469914644539,-6.928685944897869,-7.122233129264619
1769251537040,120,-8,-7.636727011769113,-6.988412134207609,-7.0572910469123915
1769251537044,120,-8,-7.621087742840129,-6.960014814840445,-7.046675619060235
1769251537048,120,-8,-7.672961842994669,-6.853221693674275,-7.0987162662971075
1769251537052,120,-8,-7.6747796552678365,-7.0152464523153455,-7.100048651530635
1769251537056,120,-8,-7.456689605898107,-6.801217679870486,-6.887171696728272
1769251537060,121,-7,-6.919184271636579,-6.143520417943849,-6.364074352156156
1769251537064,121,-7,-6.13036959790933,-5.7214897868749155,-5.5952900722482575
1769251537068,122,-6,-5.296760052892564,-5.088670020132661,-4.7779399663614885
1769251537072,123,-5,-4.54845212585226,-3.71574351705954,-4.033923298737262
1769251537076,125,-3,-3.6284358773556225,-2.085774306975659,-3.1060636578976397
1769251537080,126,-2,-1.7642804155274154,-0.8318238852629687,-1.2303203897518564
1769251537084,129,1,1.9870351506775077,2.0174342113969104,2.5249865437523606
1769251537088,135,7,7.947921450902031,8.18554078886382,8.474894167390696
1769251537092,142,14,15.068518435946174,15.095622603598816,15.570220062537114
1769251537096,148,20,20.86895535320548,21.0864078015385,21.33936685570347
1769251537100,151,23,22.367734244073716,24.076366850639957,22.812314406995178
1769251537104,146,18,17.60193217768423,19.061982858447763,18.03512051971458
1769251537108,134,6,6.840847486912889,7.1681917927687735,7.2792593398722065
1769251537112,120,-8,-7.300029011129562,-6.880685315329177,-6.845720736646497
1769251537116,106,-22,-20.953366995443293,-20.90205945401035,-20.483903366137888
1769251537120,96,-32,-30.65603104567664,-30.83945129461382,-30.183282234880355
1769251537124,93,-35,-34.63680986505613,-33.948812996767074,-34.17786352490887
1769251537128,95,-33,-33.138085525806275,-31.766130855417483,-32.706666352146925
1769251537132,100,-28,-27.828436230285213,-26.908530624655207,-27.427708929428007
1769251537136,106,-22,-20.853290604745823,-20.88530617790632,-20.474394759778328
1769251537140,113,-15,-14.076909379312037,-13.814152800602988,-13.70519002704044
1769251537144,119,-9,-8.71652368291645,-7.977601030459423,-8.341365022830438
1769251537148,122,-6,-5.268702157250259,-4.691491140565653,-4.889154531125092
1769251537152,124,-4,-3.596399612622325,-2.9719226554158817,-3.2188639515935944
1769251537156,124,-4,-3.1374692909910213,-2.8027821769154433,-2.769094270002778
1769251537160,124,-4,-3.205059347839967,-2.864632708122233,-2.8490526392856292
1769251537164,124,-4,-3.2751875119292793,-2.8846196975336196,-2.930806735988419
1769251537168,124,-4,-3.126739781144713,-2.734929498448146,-2.792197797978969
1769251537172,125,-3,-2.7837570378785856,-1.8850926650056308,-2.4585467034624733
1769251537176,125,-3,-2.348441147231571,-1.8833685322917768,-2.033161312934185
1769251537180,125,-3,-1.87875577637619,-1.7485845207332682,-1.5734933911600342
1769251537184,126,-2,-1.389590752238545,-0.9807694623442548,-1.093224763399217
1769251537188,126,-2,-0.918638063345786,-0.5841762781328992,-0.6298236636235401
1769251537192,127,-1,-0.5450332489463929,-0.0041166016388904,-0.2634721483369224
1769251537196,127,-1,-0.3259733511506368,0.2507036976698868,-0.0525279316925129
1769251537200,127,-1,-0.223153619814501,0.1561158597597334,0.0410868715669563
1769251537204,127,-1,-0.1089384760494778,0.1081865734801184,0.145632269406347
1769251537208,127,-1,0.1404126948449118,0.4192080617398508,0.3855319024903858
1769251537212,128,0,0.5486797629110609,0.9768074683253012,0.7848223849968328
1769251537216,128,0,1.0306763005427964,1.3422116924342378,1.2582768874589343
1769251537220,129,1,1.4775740604581085,2.054962940559765,1.696956312177038
1769251537224,129,1,1.8559850504776407,2.2420382271549357,2.0672462684234123
1769251537228,129,1,2.228202960068184,2.342217241509978,2.4309957931590684
1769251537232,130,2,2.674283949689535,3.049107436811843,2.867810956897806
1769251537236,130,2,3.1889381668369934,3.3522180378221265,3.372480705529906
1769251537240,131,3,3.6530262016305497,4.001238938795865,3.826743963967704
1769251537244,131,3,3.9167379313243873,4.392190824766824,4.081863740858164
1769251537248,131,3,3.9346920558848897,4.168536194762688,4.09263060342466
1769251537252,131,3,3.841730903019843,4.296390225834384,3.992841651127633
1769251537256,131,3,3.8933157220369594,4.111113483091105,4.036731961357862
1769251537260,131,3,4.295305228302626,4.256378037908105,4.429956088767909
1769251537264,132,4,5.045178328511125,5.201246099062444,5.1706539425799765
1769251537268,133,5,5.918222422811846,6.3532601162775375,6.03452990934423
1769251537272,134,6,6.6241682902188295,7.195199892419447,6.731186126066482
1769251537276,134,6,7.009953708034678,7.186431075049242,7.107712491159711
1769251537280,134,6,7.139616136424959,7.231525691971875,7.228994575728024
1769251537284,134,6,7.198974801694621,7.229548634718579,7.281519086111132
1769251537288,134,6,7.334746102708766,7.371909579221176,7.411443083349562
1769251537292,135,7,7.580114120576642,8.2220849066293,7.650450887006283
1769251537296,135,7,7.908219219845781,8.17668368715478,7.970641037523206
1769251537300,135,7,8.319526158263841,8.265173444410518,8.37273733333245
1769251537304,136,8,8.852266143064265,9.2090844511297,8.896025720399457
1769251537308,136,8,9.508807846518318,9.43372899245822,9.543813298387846
1769251537312,137,9,10.19048423465162,10.193782399223917,10.21784500204262
1769251537316,138,10,10.730416708396922,11.246849001621216,10.75111840711729
1769251537320,138,10,11.018332975879996,11.196194287694205,11.032885792100917
1769251537324,138,10,11.111278120957213,11.298107517575705,11.119697414607778
1769251537328,138,10,11.216689740425748,11.38666010941824,11.218681104548788
1769251537332,138,10,11.539959472687697,11.26078300311346,11.5349954790108
1769251537336,139,11,12.115428619512237,12.23345667070632,12.102737717849434
1769251537340,140,12,12.765021545898934,13.218814787433052,12.743964811871784
1769251537344,140,12,13.220713580450402,13.285308886528396,13.191633773096004
1769251537348,140,12,13.305551770573944,13.45621373220571,13.270093942093595
1769251537352,140,12,13.02753819075993,13.184745788696842,12.987509980178556
1769251537356,139,11,12.527105041904218,12.374991375781736,12.48270685557317
1769251537360,139,11,11.938058864027704,12.064037524435674,11.887503420104592
1769251537364,138,10,11.27560462174503,11.486649895663945,11.216907396193186
1769251537368,137,9,10.43088933494566,10.28058312953637,10.364080513033992
1769251537372,136,8,9.272499237566176,9.381136274646542,9.19972278615688
1769251537376,135,7,7.784752008883722,8.23384570457753,7.708122769388961
1769251537380,133,5,6.138437792489819,6.173564776353408,6.058247367123544
1769251537384,131,3,4.6175275211088715,4.456425295141723,4.532639301164325
1769251537388,130,2,3.431490698441518,3.294293377808214,3.3407902195235923
1769251537392,129,1,2.559951906118286,2.432496420545432,2.462901950724408
1769251537396,129,1,1.7753126749118255,2.2031894194599344,1.6716838495976614
1769251537400,128,0,0.8371938251859712,1.2099175069780372,0.727331729221417
1769251537404,126,-2,-0.3098823515068205,-0.5293981058929624,-0.4243949263310149
1769251537408,125,-3,-1.50437208854963,-1.740565498223995,-1.6213790262051877
1769251537412,124,-4,-2.506526759058277,-2.456899150996388,-2.625381798744853
1769251537416,124,-4,-3.167316555583998,-2.9229678974447575,-3.2897835141087572
1769251537420,123,-5,-3.498457658893017,-3.5903806979906916,-3.6268271344959064
1769251537424,123,-5,-3.626323774225446,-3.741567956392175,-3.760918093910916
1769251537428,123,-5,-3.688872733678568,-3.488332999815276,-3.827937182136651
1769251537432,123,-5,-3.7440522465813753,-3.69570885484468,-3.885731007512
1769251537436,123,-5,-3.744460092369914,-3.659661718984194,-3.8881706241169622
1769251537440,123,-5,-3.600704950084494,-3.800055605941083,-3.746774441244907
1769251537444,123,-5,-3.2901897957739163,-3.5526710482616943,-3.439088598031273
1769251537448,124,-4,-2.9162156391375857,-2.608099956152917,-3.06853443355734
1769251537452,124,-4,-2.6562066480066315,-2.6041997914527677,-2.8127196723074643
1769251537456,124,-4,-2.6410095326946212,-2.6715562321111697,-2.8019365600484103
1769251537460,124,-4,-2.8711354471835553,-2.796380216217398,-3.035239443394323
1769251537464,123,-5,-3.2322731684252664,-3.52500341455655,-3.3971993963445586
1769251537468,123,-5,-3.575914515615144,-3.623531787669052,-3.739982979295128
1769251537472,123,-5,-3.7856819566419055,-3.5618563570524193,-3.949484318263336
1769251537476,123,-5,-3.7940997247742,-3.668759394937544,-3.960005754089853
1769251537480,123,-5,-3.5841105043746717,-3.7829940226888046,-3.753988292049067
1769251537484,123,-5,-3.211524419203293,-3.5153512726341027,-3.385125531094241
1769251537488,124,-4,-2.8197026884366583,-2.631329149690292,-2.9952428421344983
1769251537492,124,-4,-2.5895631067777187,-2.515620795317533,-2.7653432790077703
1769251537496,124,-4,-2.632242346894217,-2.6795988704434097,-2.80746790775001
1769251537500,124,-4,-2.909613398645398,-2.7561311259339747,-3.0841905475510485
1769251537504,123,-5,-3.2589302027224183,-3.516338149150234,-3.4331358864502675
1769251537508,123,-5,-3.5092547357711097,-3.652134457437972,-3.683658138477728
1769251537512,123,-5,-3.598783921671443,-3.4162930918177437,-3.7740073713543487
1769251537516,123,-5,-3.60423638547542,-3.7790463925849025,-3.780360849042098
1769251537520,123,-5,-3.6674300916506097,-3.603759307369663,-3.8436797739639896
1769251537524,123,-5,-3.881643447599536,-3.6678061774231656,-4.056961132837758
1769251537528,122,-6,-4.223459086421051,-4.519594141608521,-4.3974482672273645
1769251537532,122,-6,-4.577052841681559,-4.4701656146636335,-4.750083090826196
1769251537536,122,-6,-4.828305873096181,-4.737115657631766,-5.000534293953394
1769251537540,121,-7,-4.952170851837018,-5.568278137292117,-5.122851098016073
1769251537544,122,-6,-5.016395213997673,-4.74139595263061,-5.184647624879829
1769251537548,122,-6,-5.092230657275491,-4.4002109640309826,-5.258133922019306
1769251537552,121,-7,-5.161473299093306,-5.590446253109924,-5.325712396773184
1769251537556,121,-7,-5.130627257564681,-5.55320431724714,-5.293455100035816
1769251537560,122,-6,-4.946690662222842,-4.740364052808617,-5.107935129895693
1769251537564,122,-6,-4.683750462208638,-4.57430264598768,-4.843225088158917
1769251537568,122,-6,-4.500225503201824,-4.526708510205532,-4.657208251176999
1769251537572,122,-6,-4.506310275874758,-4.4625117673507,-4.6591851845566765
1769251537576,122,-6,-4.65960362212635,-4.61823196530085,-4.807209898561609
1769251537580,122,-6,-4.77179621627518,-4.6846171923775985,-4.915080338769816
1769251537584,122,-6,-4.627613928852718,-4.6099196698983125,-4.768877065094158
1769251537588,122,-6,-4.142188448235016,-4.467337895608734,-4.282255322269956
1769251537592,123,-5,-3.4388575489884508,-3.5134505628229205,-3.5757199844940115
1769251537596,124,-4,-2.759694310461172,-2.4802491986704887,-2.890672065298267
1769251537600,125,-3,-2.2503657243483497,-1.8887923025748177,-2.3751065750703018
1769251537604,125,-3,-1.8053173320635272,-1.3034604635376867,-1.925552822497928
1769251537608,125,-3,-1.1524613846427232,-1.857193673349714,-1.268944227318146
1769251537612,125,-3,-0.138194478709885,-1.0175035995673412,-0.249504124593634
1769251537616,129,1,1.0616135497823591,2.016961965691374,0.9565583870188368
1769251537620,129,1,2.0390457901584744,2.641191761001748,1.9388892952539507
1769251537624,129,1,2.4756480461227586,2.214318884992503,2.378457296239821
1769251537628,129,1,2.368836212212835,2.5564320602969213,2.275320387281572
1769251537632,128,0,1.9648431584563733,1.6868805916290377,1.8783991751784963
1769251537636,128,0,1.5085389327095822,1.2026926933258777,1.4319640881660505
1769251537640,128,0,1.0699945530286612,1.6625454413315497,1.002683613332608
1769251537644,128,0,0.5818873663671704,1.0438973374381575,0.5206100991067046
1769251537648,126,-2,-0.0092808825862278,-0.118607841501527,-0.0669329419026603
1769251537652,126,-2,-0.6663361112985768,-0.7426085070981507,-0.7196624292624234
1769251537656,125,-3,-1.3244972211809805,-1.2865194981468129,-1.3707900041596988
1769251537660,125,-3,-1.9904480359798928,-1.816434591675276,-2.0277069023914134
1769251537664,124,-4,-2.749707907097419,-2.4799848335685732,-2.7779800531060395
1769251537668,123,-5,-3.670912921943719,-3.5295570397300606,-3.6915345334528578
1769251537672,122,-6,-4.704915855817854,-4.408698544618372,-4.718907763513398
1769251537676,121,-7,-5.679615172145193,-5.519083882221429,-5.686496843607746
1769251537680,120,-8,-6.4031347754718375,-6.619867774892746,-6.400967682460812
1769251537684,120,-8,-6.788375400637953,-6.587273179810227,-6.775356326900089
1769251537688,120,-8,-6.889271278961632,-6.443189940466078,-6.865751207212201
1769251537692,120,-8,-6.825672555949311,-6.495446387143307,-6.794330708471282
1769251537696,120,-8,-6.6883609890179425,-6.384335208655506,-6.651757445569581
1769251537700,120,-8,-6.52577499112989,-6.765181635885705,-6.4835328598148045
1769251537704,120,-8,-6.400182590461988,-6.375430694012589,-6.348742953268137
1769251537708,121,-7,-6.403728429470568,-5.67213973744548,-6.338919121741904
1769251537712,120,-8,-6.575821122505979,-6.257371723403214,-6.495887332567907
1769251537716,120,-8,-6.805497088752591,-6.583183104727707,-6.7125660884563825
1769251537720,120,-8,-6.85152083528873,-6.571951872953873,-6.750911408225717
1769251537724,120,-8,-6.497385241522906,-6.50313726777952,-6.394607939928964
1769251537728,121,-7,-5.703338166590473,-5.58162033805915,-5.599569620740284
1769251537732,122,-6,-4.585928025636862,-4.282538839392875,-4.475039827698214
1769251537736,124,-4,-3.192073353592165,-2.5851212628468336,-3.062853604904693
1769251537740,126,-2,-1.2471149344188692,-0.5020102732492058,-1.0906623705040763
1769251537744,129,1,1.828374044652417,2.414651460880683,2.0112530214532516
1769251537748,133,5,6.466589115635458,6.523616598621459,6.664288578949277
1769251537752,138,10,12.25304138508316,11.631586833515112,12.449900810684564
1769251537756,144,16,17.505764508188562,17.505657953720767,17.691887827560485
1769251537760,147,19,19.648978190995365,20.46667688260463,19.826359739057857
1769251537764,144,16,16.414660706102424,17.40559497980512,16.596068221919335
1769251537768,135,7,7.246273424082165,8.556286059092946,7.448316490120543
1769251537772,121,-7,-6.0216456996157115,-5.455791183612421,-5.786719282122158
1769251537776,106,-22,-19.76293121834636,-20.36701159148412,-19.492574819096205
1769251537780,96,-32,-30.16194705514597,-30.613424526267703,-29.864186859290317
1769251537784,92,-36,-34.86195878607688,-34.43582081821282,-34.55181929431565
1769251537788,94,-34,-33.710692225874155,-32.55740463179241,-33.40292436813691
1769251537792,99,-29,-28.33316466057061,-27.31202909255766,-28.03426204966977
1769251537796,106,-22,-21.0332439833898,-20.536381432437658,-20.737962311262987
1769251537800,113,-15,-13.793509810624473,-13.432663638986746,-13.488861509343732
1769251537804,119,-9,-7.827397601145492,-7.629926223836741,-7.501128258247736
1769251537808,123,-5,-3.633392569780451,-3.3407125076652817,-3.2805785880616067
1769251537812,126,-2,-1.227968924988886,-0.5150997562551485,-0.8517640454159299
1769251537816,127,-1,-0.3074774182995679,0.6545633217819669,0.0851561546608952
1769251537820,127,-1,-0.3297198536762296,0.4164810191873282,0.0739499235693541
1769251537824,126,-2,-0.6463436380724357,-0.5004620064272771,-0.2329230271666365
1769251537828,126,-2,-0.7361316274099905,-0.3859993125000631,-0.3115913720251679
1769251537832,127,-1,-0.4149665666979594,0.4867823656955732,0.0218832935787167
1769251537836,127,-1,0.1448888642536365,0.7471008186967021,0.5942407703919947
1769251537840,128,0,0.6120176809553679,1.2489536663824188,1.0744225340543787
1769251537844,128,0,0.7657225674815344,1.7717242369648227,1.2430285470596
1769251537848,128,0,0.6500080351467914,1.2653991493401682,1.1443872123470955
1769251537852,127,-1,0.5165696001625468,0.9237171899895048,1.0286438867414065
1769251537856,128,0,0.6156353471735483,1.2818617081624373,1.1435490399633474
1769251537860,128,0,1.0016597282601758,1.740452180231637,1.5422104162419252
1769251537864,129,1,1.4992274587151804,2.3235998224038346,2.050564052316732
1769251537868,129,1,1.84291980881311,2.6752047923708613,2.4065173732537186
1769251537872,129,1,1.8794948330283283,2.6014200231150557,2.459149700947335
1769251537876,129,1,1.6914996896050982,2.52341538753513,2.2899591754492885
1769251537880,129,1,1.560978077631403,2.6034393972610665,2.177658012359659
1769251537884,129,1,1.7872303094019069,2.395052118913481,2.41934620272397
1769251537888,129,1,2.4678394804527075,2.6968126790489926,3.113172831208872
1769251537892,131,3,3.404944968938814,4.537177665925146,4.063030560274803
1769251537896,132,4,4.23409407573868,5.643330619218286,4.9056113973801025
1769251537900,132,4,4.690031498434827,5.458874466336804,5.37635219939984
1769251537904,132,4,4.788204992691746,5.586060283769,5.49131262996213
1769251537908,132,4,4.7756238750829025,5.4871155460224434,5.497124205309753
1769251537912,132,4,4.9166150129961075,5.77463652508091,5.656245780979303
1769251537916,133,5,5.304264963580762,6.421407251201338,6.059832426592991
1769251537920,133,5,5.8296963891322315,6.698057002879223,6.5988323854638775
1769251537924,134,6,6.296474659966229,7.375129909953107,7.078435546930733
1769251537928,134,6,6.571327572604528,7.6824396004785775,7.367333766304479
1769251537932,134,6,6.662735647503535,7.606221285485651,7.475074834643397
1769251537936,134,6,6.688733899949213,7.580133154114357,7.519413358473248
1769251537940,134,6,6.781690830120132,7.598710024454478,7.631087950740778
1769251537944,135,7,7.017203844111411,8.441725878690127,7.883571971992991
1769251537948,135,7,7.409142273462631,8.683545501045051,8.289950721832454
1769251537952,135,7,7.9346969683978115,8.54522046169792,8.828939861489769
1769251537956,136,8,8.541238341106205,9.719518804082837,9.45023436924602
1769251537960,137,9,9.14604273188566,10.430285499345468,10.071853079518768
1769251537964,137,9,9.668511914940796,10.647810587829952,10.611930181459837
1769251537968,138,10,10.086397039776866,11.492356274784466,11.04666690692506
1769251537972,138,10,10.457611844958024,11.713315006659943,11.43380370292014
1769251537976,138,10,10.871081642496437,11.602890331553295,11.863231766682722
1769251537980,139,11,11.364894770191176,12.520564257235678,12.37350671298539
1769251537984,140,12,11.893303460676158,13.618107382210113,12.91817616159759
1769251537988,140,12,12.374474653091728,13.503267515389874,13.414810895445829
1769251537992,140,12,12.761480413685732,13.71811398901962,13.817112376578368
1769251537996,141,13,13.064492611897958,14.62155197722542,14.136305260519048
1769251538000,141,13,13.319342091784993,14.46841915289826,14.408360037722725
1769251538004,141,13,13.54688490660005,14.761001447695891,14.65330142572416
1769251538008,142,14,13.735199784106054,15.295049525995887,14.85829753429318
1769251538012,141,13,13.84417326977276,15.012833956460046,14.982964158268212
1769251538016,142,14,13.815830017357236,15.251636450077571,14.969790748590356
1769251538020,141,13,13.579584697960234,14.925095819380456,14.748921688633349
1769251538024,141,13,13.059718953602577,14.259074024993884,14.245004018795012
1769251538028,140,12,12.199558465494238,13.861923523114934,13.401209127950452
1769251538032,139,11,10.998153761831183,12.42140812026281,12.216372918628004
1769251538036,137,9,9.530193987427426,10.846822082933828,10.765226181030345
1769251538040,136,8,7.92497248032443,9.370457858077284,9.176950447116628
1769251538044,134,6,6.316391692988425,7.783047269449708,7.584808898370277
1769251538048,133,5,4.799020694359872,6.418485277617441,6.082827420690489
1769251538052,131,3,3.4110986921476414,4.804158358594246,4.7096955499818485
1769251538056,130,2,2.1439302246274696,3.5335590471635463,3.4578372487571336
1769251538060,129,1,0.97373503844021,2.6316029180813167,2.303971882923459
1769251538064,128,0,-0.0936814841150166,1.5990471695167212,1.2533348552198404
1769251538068,127,-1,-0.9974470332889832,0.5627085959205287,0.3660677839225155
1769251538072,126,-2,-1.6496441973043567,-0.2805032041949769,-0.2700406961742736
1769251538076,126,-2,-2.0043669641441206,-0.4300745695625894,-0.6089606998321386
1769251538080,126,-2,-2.106002728241781,-0.3530175007836007,-0.695187735077269
1769251538084,126,-2,-2.0699573434881975,-0.4267957919351177,-0.6441469864331424
1769251538088,126,-2,-2.0147179874144716,-0.3745957810730616,-0.5738361146996613
1769251538092,126,-2,-2.00389558986666,-0.3498595125720394,-0.5472697286476551
1769251538096,126,-2,-2.0361127218046184,-0.3659993358557587,-0.5631024513861211
1769251538100,126,-2,-2.0760130861775346,-0.3986582818843027,-0.5866676758967921
1769251538104,126,-2,-2.0952200364881883,-0.3728646009134024,-0.5902271974604894
1769251538108,126,-2,-2.095294750034165,-0.3911846547096882,-0.5753541205468231
1769251538112,126,-2,-2.101676080655551,-0.3555669169151256,-0.5670106671633208
1769251538116,126,-2,-2.135990807999871,-0.3350503745868529,-0.5863985116853323
1769251538120,126,-2,-2.187335654746578,-0.4510853172321356,-0.6224881416277483
1769251538124,126,-2,-2.205675754357931,-0.2737656787089619,-0.6252112463443931
1769251538128,126,-2,-2.127382458376519,-0.4815060501806005,-0.5309241597633596
1769251538132,126,-2,-1.9170828819573948,-0.2799608391375763,-0.3046371651806963
1769251538136,127,-1,-1.5927889937837605,0.6314690475823017,0.0347944927663483
1769251538140,127,-1,-1.2177276278362976,0.522436816911295,0.4237366005127176
1769251538144,127,-1,-0.877275218581461,0.8564270596026695,0.77762367201501
1769251538148,128,0,-0.6636060513431619,1.3252294900376516,1.0055705816751803
1769251538152,127,-1,-0.6592764305128245,0.9723846934675162,1.0252616970270436
1769251538156,128,0,-0.9004467890071532,1.3383635380745087,0.7995340921935341
1769251538160,127,-1,-1.337651347997359,0.8359262571843216,0.3771076045830206
1769251538164,126,-2,-1.8434634433526833,-0.4146032958436869,-0.1141174264953184
1769251538168,126,-2,-2.2800111399159784,-0.4428947549098083,-0.5356798110328462
1769251538172,126,-2,-2.5683799216674106,-0.1789723057959689,-0.8091972229995288
1769251538176,126,-2,-2.6994921395174387,-0.6133844568876898,-0.9263617869456824
1769251538180,125,-3,-2.7013138256936733,-1.0867621822442048,-0.914750486370012
1769251538184,126,-2,-2.6157114910508437,-0.5714359409257597,-0.81533851249403
1769251538188,126,-2,-2.4947224761572415,-0.2086733048870845,-0.6802224926857852
1769251538192,126,-2,-2.3913565787073896,-0.4515314488865094,-0.5630923693019785
1769251538196,126,-2,-2.343129576158064,-0.3356476966419679,-0.5014272356013274
1769251538200,126,-2,-2.3647855902124295,-0.3235255674594128,-0.5092455717519595
1769251538204,126,-2,-2.4468078218709186,-0.3695874226055613,-0.5768643542096257
1769251538208,126,-2,-2.545953520701627,-0.344679592658454,-0.6618291611664509
1769251538212,126,-2,-2.578794134023036,-0.3695986246181535,-0.6813169781947925
1769251538216,126,-2,-2.4480301239307014,-0.371590800866775,-0.5374509496337563
1769251538220,126,-2,-2.1030761932043207,-0.3003090101857744,-0.178712745797041
1769251538224,127,-1,-1.5848478657682556,0.6268205502964648,0.3536111988295243
1769251538228,128,0,-1.0030095666062002,1.6778987937910337,0.9483877141645785
1769251538232,128,0,-0.46574725839048,1.5906186738942765,1.4970308872640246
1769251538236,128,0,-0.0378648742694552,1.693034917530916,1.9362506784855764
1769251538240,129,1,0.2450313192964165,2.6141099463848168,2.2319197225073593
1769251538244,129,1,0.3630907765790903,2.7521561209038694,2.363820584847275
1769251538248,129,1,0.3464243316069153,2.5313072379003136,2.3607445448546853
1769251538252,129,1,0.3155715772002339,2.785206766156933,2.3428962974670133
1769251538256,129,1,0.4538087575841446,2.4527307583162026,2.4942966514473763
1769251538260,129,1,0.90615905749127,2.8939584121735935,2.960148719628232
1769251538264,131,3,1.6816808408430934,4.461679804169092,3.748342299355566
1769251538268,131,3,2.6334038102628425,4.8539070898781675,4.710723790386002
1769251538272,132,4,3.518366238621043,5.462234054240071,5.604738508858312
1769251538276,133,5,4.090838931864736,6.772526791419968,6.186522927840353
1769251538280,133,5,4.188861794271446,6.566497367591868,6.296056082056812
1769251538284,132,4,3.7904376161247697,5.798338476388072,5.911956976444131
1769251538288,132,4,3.0213757378104407,5.545593472921292,5.158512020341764
1769251538292,131,3,2.108658282726487,4.763258339961386,4.259777304613692
1769251538296,130,2,1.284702525409438,3.4772239409997825,3.446302466134485
1769251538300,129,1,0.6644794062435211,2.858645426180429,2.8340336758797875
1769251538304,129,1,0.160367492420423,2.516425185170365,2.338038307592507
1769251538308,128,0,-0.4771815036946782,1.8565135236131864,1.7104780112226905
1769251538312,128,0,-1.4780325288095222,1.440687783620021,0.7211543161404306
1769251538316,126,-2,-2.850178605496704,-0.1816869905963685,-0.6389790971317306
1769251538320,124,-4,-4.330030297547541,-2.520512990567674,-2.106749680726746
1769251538324,123,-5,-5.540691751829722,-3.0673482300241712,-3.305377490669649
1769251538328,123,-5,-6.229001469699941,-3.552681475665025,-3.9822484891058263
1769251538332,122,-6,-6.393352696236441,-4.147063383838814,-4.136376069730593
1769251538336,123,-5,-6.22853670832077,-3.547500584147413,-3.962631015943791
1769251538340,123,-5,-5.965552487691057,-3.2359207827911867,-3.6916073889301617
1769251538344,123,-5,-5.744072747064319,-3.2659391457194102,-3.4622567803215416
1769251538348,123,-5,-5.600952277070318,-3.430689930475075,-3.3105010832952635
1769251538352,123,-5,-5.541360168152067,-3.1708976821823702,-3.240830558882283
1769251538356,124,-4,-5.583875235242933,-2.595058992953658,-3.2717117566774805
1769251538360,123,-5,-5.722276666516407,-3.1395971557420075,-3.397171338695837
1769251538364,123,-5,-5.867624784847839,-3.394059588821682,-3.5292365292600283
1769251538368,123,-5,-5.871447250466673,-3.277772538816609,-3.52215673224699
1769251538372,123,-5,-5.637936993899998,-3.304951718072881,-3.2837824850505912
1769251538376,124,-4,-5.223414870085108,-2.4868358275790587,-2.870979917503382
1769251538380,124,-4,-4.808814430103977,-2.2020827417051465,-2.4586486945889026
1769251538384,124,-4,-4.51370387236726,-2.3840930739946176,-2.1566111794082152
1769251538388,125,-3,-4.13417010195333,-1.2320259190769152,-1.7561819475930118
1769251538392,127,-1,-2.992756684390964,0.6240145532514587,-0.5859895333418352
1769251538396,129,1,-0.1372761032141451,2.6017818513215865,2.2930905197223144
1769251538400,133,5,5.012966877702299,6.7254786128318,7.4515928835900915
1769251538404,140,12,11.855295288198022,13.671878032068737,14.286060169167571
1769251538408,147,19,18.257301802409696,20.746180782009976,20.671963963589715
1769251538412,151,23,21.186075197558356,24.62206249375813,23.588129282744458
1769251538416,148,20,18.166920756730676,21.629394965034436,20.569918873014657
1769251538420,138,10,8.738655468347401,11.616231978729168,11.159642662442366
1769251538424,124,-4,-5.04364843641344,-2.204428057768846,-2.592806028634933
1769251538428,109,-19,-19.430507532173102,-17.431955498030536,-16.949058465807074
1769251538432,97,-31,-30.65219118156203,-29.090666124419148,-28.15045032135888
1769251538436,93,-35,-36.45658452986497,-33.63687121469172,-33.95060768511516
1769251538440,93,-35,-36.68270333153174,-33.04922557942003,-34.186448992172544
1769251538444,97,-31,-32.74672324707227,-29.569804875353014,-30.26499440866022
1769251538448,102,-26,-26.60951565883728,-24.082577285681474,-24.135727320171064
1769251538452,109,-19,-19.946404299882396,-17.435068495737802,-17.467437511804093
1769251538456,115,-13,-13.848626803798783,-11.325508214244442,-11.353605152377538
1769251538460,120,-8,-8.910108712427505,-6.310232245087694,-6.396511199465855
1769251538464,124,-4,-5.384619994030258,-2.379256390016197,-2.8578883864579954
1769251538468,126,-2,-3.2459840614992586,-0.2324181457368563,-0.7141648801453657
1769251538472,127,-1,-2.205370294763834,0.6680862220493102,0.3267409554008793
1769251538476,127,-1,-1.8122996088416885,0.6218276674901002,0.720900662722622
1769251538480,127,-1,-1.6516597664766597,0.7304837054251969,0.8865944893072921
1769251538484,128,0,-1.502568255419046,1.5966489709520504,1.0432524630313686
1769251538488,128,0,-1.332634052070076,1.778850320065569,1.2195224655891224
1769251538492,128,0,-1.164717342223025,1.6705354867958038,1.390770493503009
1769251538496,128,0,-0.976254297834318,1.6194760864423683,1.581201140067554
1769251538500,128,0,-0.7253329241735451,1.747021006749657,1.835263710023904
1769251538504,129,1,-0.4340259439347922,2.5563144581244464,2.131477826487589
1769251538508,129,1,-0.2008466500780414,2.8427846470098395,2.370081494090817
1769251538512,129,1,-0.1140529786748327,2.59653240748033,2.4616703187218327
1769251538516,129,1,-0.1569372924368592,2.703204272999881,2.422759743668258
1769251538520,129,1,-0.2022937991033124,2.678177596314538,2.380716820524536
1769251538524,129,1,-0.104347009649794,2.567307619294576,2.4814488817719624
1769251538528,129,1,0.1880154517860788,2.918874754490128,2.776396804611691
1769251538532,130,2,0.5913075894068283,3.430639050154144,3.1824968746731264
1769251538536,130,2,0.9601332198442298,3.984211952101078,3.5544103464596235
1769251538540,131,3,1.2157601683671335,4.285051356041376,3.81310832131115
1769251538544,130,2,1.4149696076710958,4.043978141256538,4.015167599128246
1769251538548,131,3,1.6904572226051644,4.367294225195607,4.293288523045354
1769251538552,131,3,2.114696364908322,5.050407909970693,4.719876597819255
1769251538556,132,4,2.61416466866283,5.335466166174348,5.221141313882641
1769251538560,132,4,3.015292809941118,5.947168877707076,5.623270998928101
1769251538564,133,5,3.184896902752116,6.382200734869466,5.793341260236755
1769251538568,132,4,3.1430034052146936,5.9891952563852815,5.752448396087081
1769251538572,132,4,3.048523546901035,5.4960134869226795,5.660600840450461
1769251538576,132,4,3.076143313181892,5.813597451753507,5.691953213706675
1769251538580,133,5,3.303870300420308,6.571072693498206,5.922166277021417
1769251538584,133,5,3.701222693028792,6.641255520589108,6.319028353939377
1769251538588,133,5,4.188691880623468,6.849436515408966,6.804162022776511
1769251538592,134,6,4.684831376224681,7.522673495722037,7.29900325994304
1769251538596,134,6,5.1177491252634235,7.887561213722069,7.733062021397451
1769251538600,135,7,5.441384623376335,8.41820687559571,8.05884347505726
1769251538604,135,7,5.672747727275181,8.844386026110682,8.291101028696868
1769251538608,135,7,5.904176226664938,8.6297226539562,8.521780220041956
1769251538612,135,7,6.248044387745118,8.721709780858115,8.864719243906917
1769251538616,136,8,6.751098120058934,9.73790837060852,9.367600127497454
1769251538620,137,9,7.366257730364794,10.49900436591631,9.98249164400131
1769251538624,137,9,8.010292182358258,10.847860695117634,10.625015716075067
1769251538628,138,10,8.63676677524624,11.551286174843929,11.24910106972609
1769251538632,138,10,9.245385767205784,11.85436698974727,11.855825336785305
1769251538636,139,11,9.836280383854136,12.55239454836622,12.445830295367394
1769251538640,140,12,10.381176755467822,13.719057983589808,12.990019892569975
1769251538644,140,12,10.846403982464976,13.626134612818843,13.453927278546027
1769251538648,140,12,11.227339057710378,13.763375824158125,13.833015629322997
1769251538652,141,13,11.544248037844005,14.65583858360239,14.147761439517616
1769251538656,141,13,11.803457768189087,14.709892018352816,14.404205201881378
1769251538660,141,13,11.962189887526192,14.596285189619614,14.559416175355018
1769251538664,141,13,11.925970513932649,14.749110471494207,14.519452021927906
1769251538668,141,13,11.588482655059556,14.628795755577569,14.178739949669747
1769251538672,140,12,10.898796314639345,13.800250150182176,13.486618047312616
1769251538676,139,11,9.910072204677316,12.52614012471554,12.495832543202846
1769251538680,138,10,8.765088889616322,11.814555318888114,11.348344083806907
1769251538684,137,9,7.6191920368586,10.525655428885347,10.198903808362616
1769251538688,135,7,6.549923925036094,8.8494116425619,9.125050743960289
1769251538692,135,7,5.519876925380023,8.58823060368685,8.08968902147457
1769251538696,134,6,4.428952606799551,7.6991731178043885,6.993215742212492
1769251538700,132,4,3.2183854556038916,5.685218878305699,5.777756586079736
1769251538704,131,3,1.9387482883570553,4.621947970171782,4.494544224050322
1769251538708,130,2,0.7333836480140747,3.792279487375496,3.286224815935471
1769251538712,129,1,-0.2348168337532774,2.5841998125143353,2.314068907241843
1769251538716,128,0,-0.8615144596797075,1.748801037090712,1.6816675130038972
1769251538720,128,0,-1.148993571477593,1.605534473769457,1.3875200983689284
1769251538724,128,0,-1.1998865807126402,1.7320979158407477,1.3301701752568815
1769251538728,128,0,-1.153559114240115,1.668232878281696,1.370675997528548
1769251538732,128,0,-1.1068364079201265,1.6848754866575986,1.4118661806386823
1769251538736,128,0,-1.0801386622707398,1.6677697543376948,1.4327953030942204
1769251538740,128,0,-1.051095157434022,1.6550008689475932,1.455602812389346
1769251538744,128,0,-1.017719697083786,1.729727122411508,1.482409285461526
1769251538748,128,0,-1.0291477529845203,1.624168618403571,1.4642499001188547
1769251538752,128,0,-1.1523884997716909,1.7540623339118575,1.334034748622023
1769251538756,128,0,-1.4041185090784185,1.566123610571159,1.0750147767931484
1769251538760,127,-1,-1.7160245966122138,0.7760053574289354,0.755816797534707
1769251538764,127,-1,-1.975155623280764,0.6059043327125,0.4897252862465864
1769251538768,127,-1,-2.1047874575653247,0.742325961166558,0.353127201003697
1769251538772,127,-1,-2.1102148680701256,0.6324947196069224,0.3399546370831618
1769251538776,127,-1,-2.055467078803477,0.6753220022395041,0.3859625764969125
1769251538780,127,-1,-2.0056244170567177,0.6864075886077039,0.4267268817404241
1769251538784,127,-1,-1.9882010337134215,0.6722082030479237,0.4354959085535377
1769251538788,127,-1,-1.9940083330432987,0.6932070604643292,0.4215597006885003
1769251538792,127,-1,-2.001544129648199,0.6491059325295674,0.4059313791826477
1769251538796,127,-1,-1.9988093351751255,0.6759759486739068,0.4001152963503305
1769251538800,127,-1,-1.9881423547824544,0.6790858118097232,0.401638813287275
1769251538804,127,-1,-1.976916976997816,0.6793052019136101,0.4032742128238373
1769251538808,127,-1,-1.967083802094882,0.6836571409683403,0.4032663671915495
1769251538812,127,-1,-1.9543577552719191,0.6408522843416296,0.4060567573150844
1769251538816,127,-1,-1.9367112609414088,0.6897989464112806,0.4138174600651929
1769251538820,127,-1,-1.9216899760194304,0.6671962359998393,0.4190736656330274
1769251538824,127,-1,-1.9221100937592184,0.6815115940583425,0.4088221957993099
1769251538828,127,-1,-1.940446379802694,0.6908402736384414,0.3801271308051515
1769251538832,127,-1,-1.9549122063365856,0.5999944519590561,0.3544808919078339
1769251538836,127,-1,-1.9232804875503784,0.7525230956962243,0.3745633224743714
1769251538840,127,-1,-1.8071768614458337,0.591729663513366,0.4797577755689395
1769251538844,127,-1,-1.5963550195787368,0.7552210817255052,0.6806802843266251
1769251538848,128,0,-1.304894851260431,1.6273862313312044,0.9621847273423358
1769251538852,128,0,-0.9419773058606324,1.621200883804946,1.3135828103504132
1769251538856,128,0,-0.5004025817000837,1.77087660446506,1.741895990917076
1769251538860,129,1,0.0082460188515549,2.531613188738733,2.2369543636081892
1769251538864,129,1,0.5106776346368089,2.8488411313248188,2.7269290527538597
1769251538868,130,2,0.8913153320553928,3.4932849024890262,3.096307987216511
1769251538872,130,2,1.0840265560256406,3.7762875362874313,3.277806789430478
1769251538876,130,2,1.1559613727792486,3.5943882365221347,3.337631001477262
1769251538880,130,2,1.2870534895419157,3.707698666054294,3.4559545008650794
1769251538884,130,2,1.6378375762835635,3.68493782227156,3.794094222442636
1769251538888,131,3,2.2125623380185786,4.610374111878399,4.356236881225584
1769251538892,132,4,2.841935429258141,5.718417671261751,4.972091230954891
1769251538896,132,4,3.2986754164501275,5.585420749781989,5.413931552271057
1769251538900,132,4,3.4342048600051065,5.76561904668386,5.534211887615574
1769251538904,132,4,3.2230115791259704,5.582266260870743,5.30882623958498
1769251538908,131,3,2.712184759193163,4.700431530364188,4.784998162127229
1769251538912,131,3,1.9612450595038784,4.659060763793053,4.021178331610956
1769251538916,130,2,1.0338895271991118,3.6040952104686257,3.08035575808577
1769251538920,128,0,0.0203760177317537,1.7948083088452995,2.053060869271809
1769251538924,128,0,-0.9638559491555054,1.4830040584880608,1.0547815510535623
1769251538928,127,-1,-1.8180524585831337,0.8442866277987844,0.1854541901738997
1769251538932,126,-2,-2.510540200336657,-0.5403250229818557,-0.5235488503857644
1769251538936,125,-3,-3.11761402955925,-1.1313269171950942,-1.147378590787418
1769251538940,125,-3,-3.807457157480205,-1.5200435830332242,-1.853087601672482
1769251538944,124,-4,-4.738468937457823,-2.2045975532442377,-2.7993762534112
1769251538948,123,-5,-5.919394625242298,-3.4677278153222755,-3.9956549846927185
1769251538952,121,-7,-7.155405489010551,-5.264911324580236,-5.246584670137544
1769251538956,120,-8,-8.152027993415548,-6.343209123796082,-6.256952490714024
1769251538960,120,-8,-8.696593458358615,-6.387922159758328,-6.81518556910392
1769251538964,120,-8,-8.764522216051336,-6.276230555183395,-6.899187694092496
1769251538968,120,-8,-8.489915252041357,-6.465655014959914,-6.644081955867847
1769251538972,120,-8,-8.068719588475455,-6.209988357845277,-6.243891796574809
1769251538976,121,-7,-7.679066120241617,-5.443308862876654,-5.87341205196646
1769251538980,121,-7,-7.43634048948023,-5.281890788179008,-5.645716131182619
1769251538984,121,-7,-7.367696725639893,-5.401144521482348,-5.588192835230949
1769251538988,121,-7,-7.410504569977546,-5.343809397675005,-5.641616847139341
1769251538992,121,-7,-7.449274338638379,-5.329374407128076,-5.696063719828038
1769251538996,121,-7,-7.384156708524993,-5.327685513496006,-5.65555063302843
1769251539000,121,-7,-7.191705716278518,-5.42188919815782,-5.494110701594846
1769251539004,121,-7,-6.910073466030576,-5.243063381820041,-5.240606576369419
1769251539008,122,-6,-6.490022394888772,-4.547794787363223,-4.836058541334432
1769251539012,123,-5,-5.556690978435739,-3.068759025350184,-3.9038533011990064
1769251539016,126,-2,-3.3008449221660534,-0.6552975919071025,-1.6437870102296692
1769251539020,129,1,1.216102217649386,2.9602913728543916,2.8687121681497576
1769251539024,136,8,8.294067644511426,9.314717179979262,9.924113933397596
1769251539028,144,16,16.77812846916143,17.925999974927734,18.368517488109728
1769251539032,152,24,23.901329612369008,25.4572882217598,25.44533887876713
1769251539036,155,27,26.227399325602335,28.7765373883927,27.73193837296281
1769251539040,151,23,21.376366252679745,24.555470996327287,22.85850239329235
1769251539044,138,10,9.526686087499908,11.57326879850266,11.005753400247986
1769251539048,121,-7,-6.3265662689156645,-5.268403315631122,-4.83809916938206
1769251539052,106,-22,-21.616957290884528,-20.43919072166077,-20.1201350109126
1769251539056,95,-33,-32.233810153987434,-31.1853961471654,-30.743441020468644
1769251539060,92,-36,-36.15340781020382,-34.50143690650087,-34.690666298691184
1769251539064,95,-33,-33.85683410460071,-31.288883838936194,-32.437903801943825
1769251539068,101,-27,-27.54813039232921,-25.471517284360097,-26.175587530843465
1769251539072,108,-20,-19.859519870768786,-18.2532500881789,-18.521777303706017
1769251539076,115,-13,-12.82723733827154,-11.38853486148785,-11.506483042837628
1769251539080,120,-8,-7.509648648924772,-6.343784336823921,-6.193095479369843
1769251539084,124,-4,-4.124553828615048,-2.418551306956783,-2.811353004823866
1769251539088,126,-2,-2.3754347318967604,-0.4093916270237074,-1.0747594421620033
1769251539092,126,-2,-1.7423294559173632,-0.2957242360690579,-0.4649898087722253
1769251539096,126,-2,-1.693875297536528,-0.3710936634756887,-0.444734811416652
1769251539100,126,-2,-1.8344690381494215,-0.3438616495323576,-0.6113168191785343
1769251539104,126,-2,-1.9617396562514215,-0.4207109031903431,-0.7598596002467053
1769251539108,126,-2,-2.0132553591781877,-0.4200250690276794,-0.8303287687735192
1769251539112,126,-2,-1.9583310652637025,-0.2915229438601785,-0.7954126394157846
1769251539116,126,-2,-1.7410644373233253,-0.389566097233827,-0.5999866698233878
1769251539120,126,-2,-1.3245472279792616,-0.3296809834665968,-0.2054763953330804
1769251539124,127,-1,-0.7682597863346676,0.5730185484226569,0.329842059979319
1769251539128,128,0,-0.2222523512780396,1.5507348818403883,0.8550501145807718
1769251539132,128,0,0.185161375971596,1.764619143603599,1.2405800352274143
1769251539136,128,0,0.454946853861474,1.4992689460603188,1.4879499746118077
1769251539140,128,0,0.7035169953442046,1.8144050209634528,1.7152253691688282
1769251539144,129,1,1.0463151762365848,2.386882603312277,2.0380612406034495
1769251539148,129,1,1.503497668443552,2.7479814395417987,2.4747562671268657
1769251539152,130,2,2.008443454992415,3.5666308097526542,2.956998423453161
1769251539156,130,2,2.479821488883524,3.6719929226748658,3.4040918767129646
1769251539160,130,2,2.869423557906962,3.648966414154271,3.770084638825475
1769251539164,131,3,3.1585201891108303,4.512699962017446,4.037515095768248
1769251539168,131,3,3.346928191055748,4.643920265548179,4.205349805554918
1769251539172,131,3,3.466522323515778,4.641491014980292,4.303978936882659
1769251539176,131,3,3.590416804393106,4.622751585071606,4.406015989299889
1769251539180,131,3,3.8018215261204658,4.6445010964754445,4.594897369358497
1769251539184,132,4,4.140038984416049,5.531962822884177,4.910014182181859
1769251539188,132,4,4.57111703653707,5.603511577774046,5.317581258588439
1769251539192,132,4,5.00396988747787,5.689727311403142,5.727182473651756
1769251539196,133,5,5.340019276876857,6.574607318778995,6.040759689500289
1769251539200,133,5,5.533841787044201,6.6482830260876185,6.212564053738289
1769251539204,133,5,5.630880763078148,6.538669336964407,6.287424115005971
1769251539208,133,5,5.74580400515574,6.56484729473613,6.379939475225508
1769251539212,133,5,5.987325254149385,6.768385337988197,6.599078773019731
1769251539216,134,6,6.390373995244388,7.435908828441994,6.979683555387421
1769251539220,134,6,6.911524032553556,7.832255062902023,7.477953855336949
1769251539224,135,7,7.479603924683349,8.265000601120327,8.022585309174126
1769251539228,135,7,8.046456732388766,8.912845022083333,8.565687648401733
1769251539232,136,8,8.597768037072214,9.3502849886831,9.09343204918598
1769251539236,136,8,9.130093253219588,9.887271629321912,9.602909969882356
1769251539240,137,9,9.628809100739794,10.348408994454331,10.07972186512628
1769251539244,137,9,10.075722172857905,10.71882979518288,10.505061938442156
1769251539248,138,10,10.482182162057589,11.495442775019026,10.889083705487495
1769251539252,138,10,10.906221518635837,11.711307593134002,11.28934354749278
1769251539256,138,10,11.412791289749478,11.57338951416026,11.771737277183323
1769251539260,139,11,11.997994068064468,12.584419510996474,12.333568257364282
1769251539264,140,12,12.559996063988963,13.526954022175152,12.873052811466785
1769251539268,140,12,12.964901097413165,13.626448331625038,13.255573109009116
1769251539272,140,12,13.14798788709326,13.64128074246569,13.416072386879067
1769251539276,140,12,13.147224259565844,13.564715680389863,13.392548815357102
1769251539280,140,12,13.041133965841151,13.627150715115691,13.263339811198083
1769251539284,140,12,12.85670369075998,13.41652234946328,13.055388632877255
1769251539288,139,11,12.528574555224102,12.792377708375652,12.703965276038064
1769251539292,139,11,11.942150564434318,12.430160989567089,12.095045078884263
1769251539296,138,10,11.032222871863826,11.794151629269276,11.162960599578064
1769251539300,137,9,9.860192425332604,10.345147661603049,9.968239758607927
1769251539304,135,7,8.591537058570204,8.693039005182989,8.676427335717289
1769251539308,134,6,7.375658631487205,7.535805874025042,7.437764509525889
1769251539312,133,5,6.236433452476467,6.644446078621384,6.276286287540174
1769251539316,132,4,5.086938643696523,5.632227847898198,5.104211727950982
1769251539320,131,3,3.856666974146224,4.398123840628394,3.850588839661447
1769251539324,129,1,2.59813763958526,2.7238251885922815,2.568905034332136
1769251539328,128,0,1.4629601568506994,1.3974547250729763,1.41197794159591
1769251539332,127,-1,0.5786807926297284,0.8775950935665837,0.5069128991726837
1769251539336,127,-1,-0.0446178439641391,0.3079588281478185,-0.1381303713312194
1769251539340,126,-2,-0.4965714917034507,-0.2402382441747965,-0.613874590983527
1769251539344,126,-2,-0.8765795836711532,-0.6727418183615272,-1.0184112914530918
1769251539348,125,-3,-1.224152217559749,-1.2307907204678743,-1.388821669824443
1769251539352,125,-3,-1.5129886197182434,-1.4573325537130444,-1.697947272779485
1769251539356,125,-3,-1.6830650810909151,-1.433915455123434,-1.8874449453264712
1769251539360,125,-3,-1.6746353870439172,-1.434307147209561,-1.8999205972980997
1769251539364,125,-3,-1.4617685103043945,-1.56900343614979,-1.7100311134300528
1769251539368,125,-3,-1.090619377791374,-1.278927453388305,-1.362537461124535
1769251539372,126,-2,-0.6935379872666254,-0.468271389513391,-0.9882231084288696
1769251539376,126,-2,-0.4402571855132491,-0.4046029973867595,-0.7564560590600187
1769251539380,126,-2,-0.4411495217176053,-0.485025235472063,-0.7781726552720682
1769251539384,126,-2,-0.6759061941418878,-0.5413100999025362,-1.0336191097587897
1769251539388,125,-3,-1.0095653653310368,-1.3024343499646651,-1.3879707432588697
1769251539392,125,-3,-1.2847705138997374,-1.4847567949303668,-1.6838312030630007
1769251539396,125,-3,-1.4158942102100154,-1.3594451363362223,-1.8356535651553267
1769251539400,125,-3,-1.415502239724284,-1.570817895284149,-1.8561377187336603
1769251539404,125,-3,-1.3488034277018413,-1.4477540843920202,-1.8105071771804864
1769251539408,125,-3,-1.270928410926983,-1.4145747498212335,-1.7538352000626882
1769251539412,125,-3,-1.202767165688942,-1.4091631151964394,-1.7069010150913575
1769251539416,125,-3,-1.1551001091973203,-1.4011878802669262,-1.680167140600576
1769251539420,125,-3,-1.163115384642463,-1.5909604342300927,-1.7084101370374083
1769251539424,125,-3,-1.2817812343452708,-1.387569660379469,-1.8465247994699467
1769251539428,125,-3,-1.532091025493466,-1.5341326894614329,-2.11583611188591
1769251539432,124,-4,-1.8500554258305235,-2.2793745011016115,-2.4526911686251984
1769251539436,124,-4,-2.105194315326038,-2.544475957759041,-2.726849657936105
1769251539440,124,-4,-2.191877988941534,-2.471999332935499,-2.8330823138711088
1769251539444,124,-4,-2.119799230044514,-2.4892588470695487,-2.781449668594613
1769251539448,124,-4,-2.0232337912918203,-2.4843818665772104,-2.7059357046198
1769251539452,124,-4,-2.07328267417991,-2.2992025030040337,-2.7765432467168543
1769251539456,124,-4,-2.351238238395008,-2.578438058813421,-3.073317504970374
1769251539460,123,-5,-2.772175601940164,-3.421163479732514,-3.5109312366757393
1769251539464,123,-5,-3.114886812057603,-3.5704854306791747,-3.869223355650722
1769251539468,123,-5,-3.140146209542661,-3.415509635655119,-3.910897082503981
1769251539472,123,-5,-2.724778284436685,-3.3613157859619283,-3.514020829648466
1769251539476,124,-4,-1.93771296463981,-2.554281546758417,-2.7471222721723105
1769251539480,125,-3,-1.016222092479882,-1.418819987877486,-1.846040991804634
1769251539484,126,-2,-0.248456450784346,-0.6317413222312513,-1.0975878137960504
1769251539488,126,-2,0.1740096961374803,-0.3366512822676317,-0.6925574536923182
1769251539492,126,-2,0.2431330953210967,-0.4691919456464335,-0.6389229866816244
1769251539496,126,-2,0.1132444435124895,-0.4713532511407807,-0.783210581497003
1769251539500,126,-2,0.001347862522728,-0.4754045468731012,-0.909878713842598
1769251539504,126,-2,0.077450331044258,-0.6493071934048742,-0.8499615733916515
1769251539508,126,-2,0.3976517485861601,-0.2544031741023564,-0.5472833010574703
1769251539512,127,-1,0.8991496416639556,0.3641608640209597,-0.0637700903137097
1769251539516,127,-1,1.4484130905442218,0.737926268921766,0.4680074416373601
1769251539520,128,0,1.911810075803607,1.2689095699380937,0.915106357443702
1769251539524,128,0,2.2098664068249576,1.592846002731554,1.1984097744464033
1769251539528,128,0,2.3310048081765435,1.519347003704092,1.3061568735608675
1769251539532,128,0,2.3085260424262564,1.5196578445138011,1.2706390539716177
1769251539536,128,0,2.1839523342368334,1.6443170497340671,1.131930201929853
1769251539540,128,0,1.9756165974424948,1.2678103056726795,0.9077610098677052
1769251539544,127,-1,1.6565667849858243,0.6540575778186137,0.5722832846973107
1769251539548,127,-1,1.1497300339271246,0.393276345768355,0.0503054736015826
1769251539552,126,-2,0.3624483450722183,-0.349881415947169,-0.7500543519379739
1769251539556,125,-3,-0.737615981880051,-1.4852235165354672,-1.862114568546945
1769251539560,124,-4,-2.05688000527157,-2.662404420612904,-3.193751223035367
1769251539564,122,-6,-3.391956835414178,-4.356216842419892,-4.541913249298096
1769251539568,121,-7,-4.5383850701770765,-5.702455032529031,-5.701338942640861
1769251539572,120,-8,-5.4089467187463285,-6.174674154237863,-6.584294613902824
1769251539576,120,-8,-6.054367620324873,-6.748068104771724,-7.242057421282028
1769251539580,119,-9,-6.568189727758477,-7.35814500291935,-7.768755003286755
1769251539584,119,-9,-6.974163770579252,-7.691050138216098,-8.187374091767857
1769251539588,118,-10,-7.209944107688556,-8.408933179884889,-8.433957643958063
1769251539592,118,-10,-7.215041283998569,-8.442138034740275,-8.447821198447448
1769251539596,119,-9,-7.020289761455854,-7.548004706865838,-8.262136246728218
1769251539600,119,-9,-6.744677928700439,-7.497149630731375,-7.998566918375079
1769251539604,119,-9,-6.51717394221124,-7.631575449045385,-7.785658872341036
1769251539608,119,-9,-6.413235685287061,-7.433244085329467,-7.69489763316544
1769251539612,119,-9,-6.447974147815105,-7.493319677524176,-7.737432990437899
1769251539616,119,-9,-6.587419068553967,-7.473650171711162,-7.879565309884731
1769251539620,119,-9,-6.739787027867445,-7.580195554217698,-8.034837510921896
1769251539624,119,-9,-6.754799752733581,-7.573630523256495,-8.059456104295522
1769251539628,119,-9,-6.486514412046567,-7.48466145647713,-7.809112789802694
1769251539632,119,-9,-5.904042419183652,-7.51240689178534,-7.246916437841368
1769251539636,120,-8,-5.1247346303736485,-6.416045891528561,-6.48053004468003
1769251539640,122,-6,-4.245293247379035,-4.677426149525756,-5.6011984720067005
1769251539644,123,-5,-3.043494851535842,-3.4516405569361717,-4.390279076669046
1769251539648,125,-3,-0.8678568251251879,-1.6562505165206316,-2.2064482873096036
1769251539652,128,0,2.9826768808182216,1.6419002570520842,1.6418256767253494
1769251539656,133,5,8.478583882772446,6.4159667736457,7.122111616520133
1769251539660,139,11,14.244289574156516,12.488873873935148,12.863423732400625
1769251539664,144,16,17.753319465386532,17.402406503234065,16.348031014025537
1769251539668,143,15,16.46890107817732,16.427579198078565,15.047754490127002
1769251539672,135,7,9.310591020837435,8.524086235785065,7.887102151951239
1769251539676,123,-5,-2.5239729825595267,-3.5409204958338325,-3.937270371455402
1769251539680,109,-19,-15.963356837452377,-17.55477313047693,-17.36075792364684
1769251539684,97,-31,-27.44567502500485,-29.53130579066205,-28.83097292907034
1769251539688,91,-37,-34.41331785671524,-35.61145887137438,-35.79785539032853
1769251539692,90,-38,-36.075881385855425,-36.407207394791904,-37.47286578549369
1769251539696,93,-35,-33.19591456822525,-33.65769622256691,-34.61340188006393
1769251539700,98,-30,-27.319073779591275,-28.415781294998304,-28.75543638624167
1769251539704,105,-23,-20.07956207800728,-21.741577929734166,-21.52504881537655
1769251539708,112,-16,-12.886306344623096,-14.383047375603258,-14.33012086569207
1769251539712,119,-9,-6.852008567568692,-7.697281705545921,-8.289133906496762
1769251539716,123,-5,-2.703802177128821,-3.3745303130560584,-4.135952879230119
1769251539720,125,-3,-0.6271688707702094,-1.728807249314178,-2.0583915029184094
1769251539724,125,-3,-0.2133378734074069,-1.4578386076219294,-1.645710526013627
1769251539728,125,-3,-0.6542710989345837,-1.6715401699917356,-2.087342605614955
1769251539732,124,-4,-1.126484891509993,-2.4390254035931145,-2.559212194910693
1769251539736,124,-4,-1.14633359291012,-2.609173794930313,-2.578796789070797
1769251539740,125,-3,-0.6898980508408101,-1.5206761965104465,-2.1236893588124923
1769251539744,126,-2,-0.0326368469976046,-0.6623249861499785,-1.4696927929340156
1769251539748,126,-2,0.5350332314026893,-0.5120877725006783,-0.9052114750911576
1769251539752,126,-2,0.8867792718506151,-0.5992756305494429,-0.5532964188920584
1769251539756,126,-2,1.041234771194094,-0.482426908317958,-0.3942263496619862
1769251539760,127,-1,1.0560137299969887,0.354064324801103,-0.3732789640195921
1769251539764,127,-1,0.9852334328363472,0.4439208615830505,-0.4402317462905012
1769251539768,126,-2,0.9072684105416228,-0.6306477620043784,-0.5173279642703532
1769251539772,126,-2,0.9245419957527066,-0.5106516559718735,-0.4995022607037902
1769251539776,127,-1,1.1037164229136731,0.4256429787939826,-0.3178546429136872
1769251539780,127,-1,1.4274477037690485,0.4024698823758097,0.0100879255822623
1769251539784,127,-1,1.8125201714900925,0.4415275253765678,0.3997179260005516
1769251539788,128,0,2.168708063264503,1.2934932355672375,0.7598339725741639
1769251539792,128,0,2.445492209588779,1.604617756221021,1.0398713362429008
1769251539796,128,0,2.639497252544381,1.211854836763028,1.2373065520071362
1769251539800,128,0,2.769966324548383,1.6794149003524632,1.3725845872017244
1769251539804,129,1,2.8571961242921353,2.101170850403684,1.4664996748906076
1769251539808,128,0,2.9332051159814667,1.6586755819292924,1.5502681132573866
1769251539812,129,1,3.067449829104847,2.1911938821902095,1.691786494483345
1769251539816,129,1,3.356977037080812,2.600703598728636,1.9870754310553929
1769251539820,129,1,3.857362691328384,2.3028635497480465,2.4921295555286584
1769251539824,130,2,4.500081421165267,3.427229017879995,3.139827933528533
1769251539828,131,3,5.0861712459935235,4.394011657605383,3.732305561861473
1769251539832,131,3,5.399404151417747,4.321265497236091,4.053511063685947
1769251539836,131,3,5.36700787705643,4.572111593166574,4.030273489992755
1769251539840,131,3,5.1319147256198905,4.187863232161835,3.8049382668372234
1769251539844,130,2,4.964939587076745,3.6485545604298872,3.647594430523956
1769251539848,131,3,5.080240164196701,4.069859358563249,3.771672071277589
1769251539852,131,3,5.499186018135241,4.68397102590781,4.198364392300035
1769251539856,132,4,6.064428694958101,5.1595172783837615,4.77117238354192
1769251539860,132,4,6.580424848933423,5.593284614814656,5.295928617434645
1769251539864,133,5,6.962856396332236,6.243999002710864,5.68899473182278
1769251539868,133,5,7.285134622364895,6.423931665398561,6.023204892267516
1769251539872,133,5,7.694327700093047,6.3448696916916845,6.444360842970626
1769251539876,134,6,8.269936149729858,7.440878917843044,7.030910821700374
1769251539880,135,7,8.944861412844235,8.337564215368502,7.715629333873633
1769251539884,135,7,9.552665443984584,8.463479465376123,8.33309428037481
1769251539888,136,8,9.956195800406483,9.19554355114716,8.747560655568446
1769251539892,136,8,10.15269377546564,9.552478713952512,8.956877314367977
1769251539896,136,8,10.277393414690746,9.188808382813605,9.095741308508222
1769251539900,136,8,10.503283038299656,9.605381134762276,9.336041190813534
1769251539904,137,9,10.909425489964596,10.174393522557178,9.755770917679696
1769251539908,137,9,11.415074792565786,10.457651240568833,10.273534422727035
1769251539912,138,10,11.82481329696416,11.302947405429943,10.69421692407304
1769251539916,138,10,11.94102044599368,11.35425553533961,10.821792354356822
1769251539920,137,9,11.654851713701394,10.501677542171509,10.549412295746473
1769251539924,137,9,10.965771648822734,10.181009593522292,9.87693344811614
1769251539928,136,8,9.953077028263085,9.517988916742958,8.881618794421527
1769251539932,135,7,8.741220274366166,8.137742587558023,7.685440169263727
1769251539936,133,5,7.459497321973306,6.573298916675624,6.417342957678228
1769251539940,132,4,6.186395091158689,5.217003056889544,5.157501750960892
1769251539944,131,3,4.91654407233715,4.475284616674478,3.902087498296573
1769251539948,130,2,3.6007877468728804,3.213112983475476,2.602210511006091
1769251539952,128,0,2.2380903666560257,1.3914010727486965,1.2564760153903562
1769251539956,127,-1,0.9323827763461132,0.3492658301633353,-0.0316150292033903
1769251539960,126,-2,-0.1430476704859373,-0.6341803336010918,-1.08943621398718
1769251539964,125,-3,-0.8469006147928637,-1.638008603071047,-1.77640599548285
1769251539968,125,-3,-1.160346158588773,-1.726651103278237,-2.073818853532044
1769251539972,125,-3,-1.201590932052598,-1.6515682854287554,-2.099200919131229
1769251539976,125,-3,-1.1526507784412594,-1.658723857882947,-2.0336309029307973
1769251539980,125,-3,-1.1484814564670074,-1.6203933353432038,-2.0116308895801405
1769251539984,125,-3,-1.2058985412988743,-1.6988047571216334,-2.050340605040425
1769251539988,125,-3,-1.239838730232952,-1.6545467295706455,-2.0652663013114836
1769251539992,125,-3,-1.1513391963482915,-1.763936828760838,-1.9576674169285495
1769251539996,125,-3,-0.9189285521107162,-1.546648144862519,-1.706152057209644
1769251540000,126,-2,-0.6202814653524082,-0.7651526996584552,-1.3888459290129056
1769251540004,126,-2,-0.369261603067861,-0.5655790927372562,-1.1200163531812009
1769251540008,126,-2,-0.2330637420232961,-0.7983826020660096,-0.9662399613578376
1769251540012,126,-2,-0.2089575119197295,-0.6592215517711839,-0.9233551558021
1769251540016,126,-2,-0.2662699405440447,-0.6376243162706343,-0.960002068928028
1769251540020,126,-2,-0.3863200919408887,-0.7501657507857553,-1.058482617476943
1769251540024,126,-2,-0.5505360746346879,-0.522370399511801,-1.201833777874381
1769251540028,126,-2,-0.7063031336397477,-0.9284371327183708,-1.3379017094949566
1769251540032,125,-3,-0.7758524634988566,-1.4870660724886768,-1.3879994753531395
1769251540036,126,-2,-0.7174350028747518,-0.880201274481069,-1.3095352804872509
1769251540040,126,-2,-0.5737868541913049,-0.507071930865953,-1.145346308237159
1769251540044,126,-2,-0.4516799671167643,-0.7669220619519423,-1.0024920464347478
1769251540048,126,-2,-0.4518855668854004,-0.7296711927938899,-0.9815917768128468
1769251540052,126,-2,-0.6096286804440663,-0.6538302158015843,-1.1178336574178087
1769251540056,126,-2,-0.8830866483478106,-0.8243672421473391,-1.3697542534027782
1769251540060,125,-3,-1.1927488512656796,-1.487649811841174,-1.6579307074178111
1769251540064,125,-3,-1.4854597646962198,-1.884183081381022,-1.928902787343318
1769251540068,125,-3,-1.7693047628270215,-1.5499577703329717,-2.1908671129371102
1769251540072,125,-3,-2.0794443985076896,-1.9029965656179768,-2.479547195358765
1769251540076,124,-4,-2.4064905948803292,-2.600930799502659,-2.78547444980309
1769251540080,124,-4,-2.6667228235952387,-2.6877194071128083,-3.0238656509148725
1769251540084,124,-4,-2.7478672012949756,-2.7730101063261428,-3.081617053198711
1769251540088,124,-4,-2.582665806884122,-2.573772457853253,-2.8920671304419687
1769251540092,125,-3,-2.1838027531262076,-2.005805624897598,-2.469588435769261
1769251540096,125,-3,-1.6255429397921195,-1.4293722842596803,-1.8896717464753496
1769251540100,126,-2,-1.009687624340108,-0.9493073842935488,-1.253618124727467
1769251540104,126,-2,-0.4506216296588735,-0.4902265268114085,-0.6738954834474868
1769251540108,127,-1,-0.0676867358757963,0.1287239700236928,-0.2682191568443843
1769251540112,127,-1,0.0534747484221861,0.2361896610732001,-0.1223377115139126
1769251540116,127,-1,-0.0685526917493316,0.3585056197199954,-0.2191841973575234
1769251540120,127,-1,-0.272688774085853,0.1813909591976825,-0.3989636429778542
1769251540124,126,-2,-0.3193004355786541,-0.5817610122454386,-0.4221350233274217
1769251540128,127,-1,-0.0396690520928133,0.1667193226128285,-0.1195491623996116
1769251540132,128,0,0.5424104708986559,1.1966273258089777,0.4850945625964304
1769251540136,128,0,1.2198201755899498,1.3845577393076551,1.184739342249035
1769251540140,129,1,1.7308886817684106,2.1089614382663777,1.7182683138238684
1769251540144,129,1,1.9029993568877617,2.516522934499949,1.9137338822327403
1769251540148,129,1,1.712762384026009,1.9861697589667688,1.7478556557853997
1769251540152,128,0,1.240179349885167,1.41104828841714,1.3000501331202567
1769251540156,128,0,0.5743854112501092,1.113507988253911,0.6585706882343776
1769251540160,127,-1,-0.2434305841998234,0.3800759560104225,-0.1358161279971845
1769251540164,126,-2,-1.2031833706745116,-0.7644083338416716,-1.0724585026375242
1769251540168,125,-3,-2.2732111563543382,-1.7785338443994183,-2.118733942474936
1769251540172,124,-4,-3.3726735574415594,-2.815776350509416,-3.1936813985270245
1769251540176,123,-5,-4.395341806427441,-3.711103318178457,-4.191955700823216
1769251540180,122,-6,-5.269304641139633,-4.780632694777992,-5.042379939604632
1769251540184,121,-7,-6.011604780816683,-5.642142897473777,-5.76182417175285
1769251540188,121,-7,-6.728441181317398,-5.906107082754385,-6.4559078516033495
1769251540192,120,-8,-7.54017813261924,-6.726226726374823,-7.244596662596166
1769251540196,119,-9,-8.476937796162014,-7.80688938405144,-8.157617748572552
1769251540200,118,-10,-9.43187993998156,-8.717948327755028,-9.08767310028058
1769251540204,117,-11,-10.216603780404167,-9.698305943060374,-9.846585018146047
1769251540208,117,-11,-10.673769056370231,-9.91006166786799,-10.278410786483128
1769251540212,117,-11,-10.760779737591312,-9.69418816398328,-10.34212345606883
1769251540216,117,-11,-10.55929313366644,-9.902451595438915,-10.119467502146444
1769251540220,117,-11,-10.227020525759675,-9.5995176438979,-9.766530291915092
1769251540224,118,-10,-9.925774884928778,-8.860690835116467,-9.443190467609028
1769251540228,118,-10,-9.749811515820738,-8.778078832890234,-9.242648871130136
1769251540232,118,-10,-9.684965031477386,-8.8216025175612,-9.150859736732052
1769251540236,118,-10,-9.630737390079137,-8.827452884570475,-9.069052266252172
1769251540240,118,-10,-9.476391168808492,-8.651149486119035,-8.889991802661973
1769251540244,119,-9,-9.174849897048457,-7.871696293528215,-8.569673542918345
1769251540248,119,-9,-8.764447289745792,-7.754746319182608,-8.14511507784567
1769251540252,119,-9,-8.328040646449008,-7.884665098569049,-7.692547954369084
1769251540256,120,-8,-7.894811202886919,-6.7772481181730235,-7.234239297580409
1769251540260,121,-7,-7.307917452803414,-5.707899079620597,-6.612858025199971
1769251540264,122,-6,-6.160404019414576,-4.870828224937526,-5.428719358845361
1769251540268,124,-4,-3.965574745341147,-2.7232525461647903,-3.204621624506052
1769251540272,127,-1,-0.6078288058005645,0.0153664025541697,0.170370357485754
1769251540276,130,2,3.1777069218350658,3.343643974239104,3.9638700194910577
1769251540280,134,6,5.749532434640178,7.123579252057127,6.54176905669842
1769251540284,134,6,5.1981321050370335,7.294532954527762,6.002231942322224
1769251540288,129,1,0.4252722682063883,2.0613344579959785,1.2519171835656966
1769251540292,120,-8,-8.023030780532434,-6.79077975241994,-7.163033641263581
1769251540296,110,-18,-17.977627287154206,-16.921228292519086,-17.078775690922953
1769251540300,101,-27,-26.568501049959863,-25.593669818840024,-25.63368109230219
1769251540304,96,-32,-31.502849616803903,-30.987106430893707,-30.541817715564992
1769251540308,96,-32,-31.954840144188683,-30.62142308036503,-30.979283903523783
1769251540312,101,-27,-28.621296129811732,-26.1094082624887,-27.639281194368397
1769251540316,105,-23,-23.066086396150222,-21.666535968431347,-22.07811191462301
1769251540320,111,-17,-16.893147620438537,-15.861178685161228,-15.891967567715923
1769251540324,117,-11,-11.245501898558642,-9.782011369926604,-10.220807173147978
1769251540328,121,-7,-6.738038770001756,-5.810200341730717,-5.68329771418988
1769251540332,125,-3,-3.6029827585881824,-1.982584761625452,-2.5191748852111084
1769251540336,127,-1,-1.8090606251185513,0.2235335262873543,-0.7024587644981364
1769251540340,127,-1,-1.1060056814115402,0.158243725904744,0.0175944787816733
1769251540344,127,-1,-1.0880704791305351,0.231259333400791,0.0511366351389179
1769251540348,127,-1,-1.3308647744951854,0.1395332023711564,-0.1740203675107672
1769251540352,127,-1,-1.533613330192849,0.0525214716058664,-0.3573299078875838
1769251540356,127,-1,-1.5693167944449335,0.2096019675350122,-0.3739125583807157
1769251540360,127,-1,-1.432896317561346,0.0775522963663246,-0.2196203859566377
1769251540364,127,-1,-1.159365284872282,0.3685717533889763,0.0713956879599346
1769251540368,128,0,-0.7773165275685474,0.9073958344326504,0.4714420423459557
1769251540372,128,0,-0.3066833695043978,1.338291980758323,0.9602566774308544
1769251540376,129,1,0.2245858424410238,1.8521240255636977,1.508987733754232
1769251540380,129,1,0.769147081862271,2.439248786075732,2.0700957320220805
1769251540384,130,2,1.267532621156855,2.9676654161184186,2.5848265988821466
1769251540388,130,2,1.6770398453333923,3.288010826957956,3.011184199242665
1769251540392,131,3,2.008330689792423,3.958983985095057,3.3597903785778964
1769251540396,131,3,2.3373693320275226,4.189781035093153,3.706029285184461
1769251540400,131,3,2.765301587750573,4.097151546943677,4.150429572143971
1769251540404,132,4,3.3421342657309667,5.259009505702904,4.742485481494148
1769251540408,133,5,4.0141460504003845,6.010125718914865,5.428329833580776
1769251540412,133,5,4.64239901291609,6.187914677289962,6.069747393378311
1769251540416,134,6,5.081687558852417,6.987076387409005,6.522828062956008
1769251540420,134,6,5.269683307413892,7.217842917011825,6.725927559063445
1769251540424,134,6,5.274799265881374,7.157063181382601,6.746905334453942
1769251540428,134,6,5.27006004118569,7.0525882924619046,6.757570609742753
1769251540432,134,6,5.439406137985627,7.175070145029499,6.940912442605834
1769251540436,135,7,5.871965065678169,7.944866208607595,7.3858955498465075
1769251540440,135,7,6.514353480885391,8.268432167281121,8.039735900719464
1769251540444,136,8,7.21167525523636,9.04322796178674,8.748371320665745
1769251540448,137,9,7.807461703098017,10.181257919729608,9.355848330206808
1769251540452,137,9,8.233152506383664,10.010397338792655,9.793679425623726
1769251540456,137,9,8.52720107533571,10.094942252538855,10.099967142216434
1769251540460,138,10,8.784187588172767,11.0954284517376,10.368637885016716
1769251540464,138,10,9.089501138714889,11.173800983079031,10.684813427190354
1769251540468,138,10,9.487390869850794,11.052705711634712,11.093318324291682
1769251540472,139,11,9.988333524820128,12.1208087549876,11.60511141442844
1769251540476,140,12,10.598025774276364,12.96186437480589,12.225257931326874
1769251540480,140,12,11.336248171167764,13.196819341098736,12.972578487397298
1769251540484,141,13,12.21103503617122,14.05480096058189,13.855239092885329
1769251540488,142,14,13.160039421655284,15.138811675049066,14.811922532650357
1769251540492,143,15,14.031961526093475,16.050974716747135,15.691930733795036
1769251540496,144,16,14.66204212996812,16.96665804487542,16.33028043683654
1769251540500,144,16,14.995396274954835,17.21820280096897,16.671851661049597
1769251540504,144,16,15.1442556921606,16.94088797541883,16.82906994085585
1769251540508,144,16,15.315384352511082,17.29636202257311,17.008612558533
1769251540512,145,17,15.662858023341684,17.82984470858435,17.36361012985367
1769251540516,145,17,16.183595598853557,18.20183230171857,17.889983802100055
1769251540520,146,18,16.72444860750272,18.95435379627572,18.434817673480605
1769251540524,146,18,17.076587812563712,19.159910871631748,18.790716470980705
1769251540528,146,18,17.083425979020085,19.080527927499254,18.802325843673867
1769251540532,146,18,16.70126452051582,18.994918638403,18.425912052883124
1769251540536,145,17,15.992045912580684,18.05277709083373,17.722508673343846
1769251540540,144,16,15.06440865973607,17.048688867635406,16.79997051413494
1769251540544,143,15,14.005647477128951,16.06772002457506,15.74522803594462
1769251540548,142,14,12.85183300136264,15.12220487361247,14.594229629045069
1769251540552,141,13,11.608892868516978,13.963039192056206,13.353199389835405
1769251540556,139,11,10.288990948171673,12.0511716780094,12.035067392446352
1769251540560,138,10,8.922678271322802,11.03493787169644,10.67089402983101
1769251540564,137,9,7.549009588954421,10.050180257826655,9.29947028375496
1769251540568,135,7,6.2074780803823995,8.112751712304444,7.959828869505378
1769251540572,134,6,4.9367296407815155,6.965136926614874,6.690505268571706
1769251540576,133,5,3.7736857905160655,6.035621047777873,5.528300720969127
1769251540580,132,4,2.754548224603271,5.0084322991953645,4.509151517378549
1769251540584,131,3,1.9131031833716232,4.072135371191804,3.667071755699224
1769251540588,130,2,1.26458172865879,3.0440823647070707,3.0180050660673254
1769251540592,130,2,0.7872606092362755,3.0395708337532343,2.5403530803040035
1769251540596,130,2,0.4330914837193429,2.9341318221698285,2.1852913973388004
1769251540600,129,1,0.1650397149347604,2.0828240031395935,1.915269890476578
1769251540604,129,1,-0.022977365305949,1.978088559677662,1.724704718455973
1769251540608,129,1,-0.1262924590308189,2.1035309697680216,1.6189908289901511
1769251540612,129,1,-0.1584601693599849,1.9707507251481724,1.584608759699032
1769251540616,129,1,-0.151759519093106,1.9844753660561212,1.5887865780172348
1769251540620,129,1,-0.1335947793235465,2.012844664060337,1.6037157225344476
1769251540624,129,1,-0.1100376068914621,2.0132358605818523,1.6232605252819434
1769251540628,129,1,-0.0759871082640137,2.044699896485537,1.6527536207219384
1769251540632,129,1,-0.0432208109040264,2.0155116688638324,1.680738271976498
1769251540636,129,1,-0.0570487172440232,1.9178692480740835,1.6619222787452337
1769251540640,129,1,-0.1755048710002209,2.071184143841916,1.5378998076377424
1769251540644,129,1,-0.4187430033498263,1.9056938385678652,1.2884456813626657
1769251540648,128,0,-0.734979724764349,1.1429706464792444,0.966157513742356
1769251540652,128,0,-1.0226454101112212,0.8887258080669365,0.6734551700509268
1769251540656,128,0,-1.191472246853845,1.0328688944562012,0.4999696312564783
1769251540660,128,0,-1.2078634513582394,0.943532049549467,0.4773188909965329
1769251540664,128,0,-1.1007554026561333,0.9864371238924732,0.5753948502502908
1769251540668,128,0,-0.9517382597228016,1.0664766523955298,0.7138112701697512
1769251540672,128,0,-0.8860954872619917,0.9108027894307008,0.7697395390983002
1769251540676,128,0,-1.0393249500543642,1.0196515624299676,0.6087830638723744
1769251540680,128,0,-1.476346130073216,0.9258326459059228,0.1648085279161613
1769251540684,127,-1,-2.1081451940950804,-0.0337344223160842,-0.4749480085148128
1769251540688,126,-2,-2.698143214694817,-0.9066825262113012,-1.0742007632125814
1769251540692,126,-2,-2.9904202025581843,-1.1869218751070592,-1.3760608474561309
1769251540696,126,-2,-2.869181527019127,-0.8465550169042464,-1.2642838042356963
1769251540700,127,-1,-2.4162748090781005,-0.2670529534430423,-0.8215545732698937
1769251540704,127,-1,-1.8273442971567109,0.1682713935060933,-0.2445550679191179
1769251540708,128,0,-1.2746109656723363,0.8548616826115705,0.2947366787412413
1769251540712,128,0,-0.8346826952172002,1.0023270675544795,0.7213816992918836
1769251540716,128,0,-0.5146209888588738,0.9836304126588836,1.029887778401584
1769251540720,129,1,-0.3041884302263322,1.8272481780207024,1.2303113315316647
1769251540724,129,1,-0.1707429447574879,2.1303905758607913,1.3536350689419856
1769251540728,129,1,-0.0098752340102623,1.7932405392172477,1.503034731457483
1769251540732,129,1,0.3522726042451818,2.0930114832574023,1.8524923813455332
1769251540736,130,2,1.0552325194932404,2.840316153528162,2.5419818790158084
1769251540740,131,3,2.0706961261595964,3.940330290865673,3.54297460552248
1769251540744,132,4,3.1590494270879224,5.068075142276864,4.615589540445988
1769251540748,133,5,3.9645036368829705,5.733885853408376,5.404741576423576
1769251540752,133,5,4.190944114360484,6.232591439964195,5.615765093182811
1769251540756,133,5,3.7481325850274656,5.557211199424737,5.159350774507427
1769251540760,131,3,2.7832009102380377,4.28871366598684,4.182111335783533
1769251540764,131,3,1.5882473832748012,3.663862297406211,2.9745369949389824
1769251540768,129,1,0.4471307320928539,2.121974064055419,1.819074415993239
1769251540772,128,0,-0.4900774359300972,0.8506656513126356,0.8654001717671416
1769251540776,128,0,-1.2396120427972337,0.8480598764594296,0.0977199948703053
1769251540780,127,-1,-1.9156383227420517,0.0650216131306891,-0.5970504593578907
1769251540784,126,-2,-2.6224162092781658,-1.2195426813464931,-1.321536515141755
1769251540788,125,-3,-3.3886637612298243,-1.9227587765266272,-2.1033888983011786
1769251540792,125,-3,-4.167592765129425,-2.2201553817342807,-2.8967028547866978
1769251540796,124,-4,-4.8680272963496805,-3.055123890565973,-3.6124869051851025
1769251540800,123,-5,-5.392856699515384,-4.068792889027413,-4.154895059541896
1769251540804,123,-5,-5.685918803433366,-4.100035081008141,-4.467153502531638
1769251540808,123,-5,-5.768291468421892,-4.040863752602073,-4.568837391845978
1769251540812,123,-5,-5.728329147207491,-4.175710866076617,-4.547107407862132
1769251540816,123,-5,-5.665576462261819,-4.084088373088101,-4.501236081205763
1769251540820,123,-5,-5.633135025347011,-4.087705769565783,-4.485339883752142
1769251540824,123,-5,-5.6221051188526205,-4.076707383181033,-4.492486729265479
1769251540828,123,-5,-5.595670045781349,-4.094585021013201,-4.487109461661865
1769251540832,123,-5,-5.543851211174485,-4.162179554747199,-4.457883944858459
1769251540836,123,-5,-5.51098973553239,-4.110114484481939,-4.445482888615784
1769251540840,123,-5,-5.559385777678203,-4.085326202303867,-4.509383248845779
1769251540844,123,-5,-5.682683048715414,-4.090907652243876,-4.644808813805729
1769251540848,123,-5,-5.746458087481528,-4.099798449954674,-4.723384940664591
1769251540852,123,-5,-5.545736427066831,-4.2056408729066135,-4.546018385311687
1769251540856,123,-5,-4.978864499947365,-4.070112266395652,-4.010946610565169
1769251540860,124,-4,-4.189751525695142,-3.1634534198521025,-3.254448851768738
1769251540864,125,-3,-3.47687669375599,-2.0006561198656523,-2.5648430747327557
1769251540868,126,-2,-2.930585529713656,-1.2316096260981428,-2.0278150750536312
1769251540872,127,-1,-2.061464309215435,-0.1013436760871941,-1.1592508832917652
1769251540876,129,1,0.1536077282626977,1.8055538032531369,1.0519262966155107
1769251540880,132,4,4.594598729792183,4.916413775897249,5.475190225838119
1769251540884,138,10,11.01032260106875,10.961265849247546,11.85685679970561
1769251540888,146,18,17.480200588510936,18.73180645463194,18.282462848898327
1769251540892,150,22,20.959621475342697,22.981431578782814,21.718556895995135
1769251540896,148,20,18.801614533685843,20.59685164639653,19.529361572534587
1769251540900,139,11,10.354475099389768,12.144422207022863,11.069129462259903
1769251540904,126,-2,-2.4260832182517262,-1.3853774137648465,-1.709379585876274
1769251540908,111,-17,-15.785470789585736,-15.904725646511022,-15.062842044820847
1769251540912,102,-26,-25.90228140874872,-25.37767876982588,-25.183904918005904
1769251540916,98,-30,-30.496121030830604,-29.02043615103034,-29.80102427426927
1769251540920,99,-29,-29.46152568092697,-28.19334971798723,-28.80672771167633
1769251540924,104,-24,-24.398961580987823,-23.11259510788877,-23.78985301306843
1769251540928,111,-17,-17.56302021654373,-16.18187381333638,-16.991543357126552
1769251540932,117,-11,-10.908423384798445,-10.194438594665924,-10.359643734271698
1769251540936,122,-6,-5.626902066258377,-5.192173726196664,-5.088682549316499
1769251540940,126,-2,-2.154068440001474,-1.068157162238487,-1.623386742081566
1769251540944,128,0,-0.3912673661679571,0.7385387852161278,0.1262969716968993
1769251540948,128,0,0.0720251286033411,0.9244667222757474,0.5682153380654245
1769251540952,128,0,-0.2147638820729354,0.676122722820871,0.2552494632525919
1769251540956,127,-1,-0.7191277520935349,-0.0771179444125307,-0.2748572424742836
1769251540960,127,-1,-1.0602670658687892,-0.1797734786678417,-0.6387227207478086
1769251540964,127,-1,-1.0748979120598587,-0.1784942082055272,-0.6741253805156759
1769251540968,127,-1,-0.7889915268119758,-0.1825161474565231,-0.4095923780936412
1769251540972,128,0,-0.3288182326342732,0.7460675396708405,0.0273173830866322
1769251540976,128,0,0.1650358879354252,0.8493086230029068,0.4971787021694047
1769251540980,128,0,0.5807982978335546,0.8618090468155839,0.8905881760212955
1769251540984,129,1,0.8500082959922743,1.7764326337273753,1.140118567493396
1769251540988,129,1,0.9714501514992688,1.8113231394907197,1.2431085962344928
1769251540992,129,1,1.0387905987704436,1.7293363618031474,1.2908652814009356
1769251540996,129,1,1.213694332765242,1.861822314016068,1.4440484643689435
1769251541000,129,1,1.6187193674464415,1.816426476536368,1.8259469140348936
1769251541004,130,2,2.2236988573027365,2.8126757181979825,2.4075887757421333
1769251541008,131,3,2.8395994641483213,3.742540491465706,3.0008019675367468
1769251541012,131,3,3.246861745444515,3.7606102335163367,3.386780961385259
1769251541016,131,3,3.357722372967105,3.8384688899681567,3.4782102499929017
1769251541020,131,3,3.2803664957011662,3.792036063100552,3.3825052318978996
1769251541024,131,3,3.2371092128779897,3.823319429677886,3.32012971514819
1769251541028,131,3,3.3963777199126004,3.706418215833909,3.458229220080769
1769251541032,131,3,3.735481294786783,3.7639542595903777,3.7744879903149617
1769251541036,132,4,4.040150106226838,4.843452004040056,4.056020260530727
1769251541040,132,4,4.059352106305031,4.7452824526273725,4.053192247022123
1769251541044,131,3,3.7066067305101815,3.847538525875134,3.680578913103203
1769251541048,131,3,3.146668758297251,3.65658377881604,3.103143723899273
1769251541052,130,2,2.6988569087715533,2.77743181958185,2.63882878380649
1769251541056,130,2,2.638491613796157,2.8266662371953046,2.560435431123349
1769251541060,131,3,3.042901423441456,3.749849693628396,2.943685284988198
1769251541064,131,3,3.7703891982943185,3.80908844163184,3.6479007075782857
1769251541068,132,4,4.559052713066202,4.677870224657106,4.4140306235789755
1769251541072,133,5,5.174426895887022,5.717022480514281,5.009723091640345
1769251541076,133,5,5.527918858138596,5.8687462296507595,5.346289701746769
1769251541080,133,5,5.702785450752359,5.699369159326346,5.505299974362609
1769251541084,133,5,5.871538023635786,5.823734554804692,5.657214579918248
1769251541088,134,6,6.165212658365893,6.643267638636395,5.931739186194625
1769251541092,134,6,6.589365696617447,6.718015458449892,6.334901689398919
1769251541096,134,6,7.035039954332048,6.857984280609913,6.759979901979746
1769251541100,135,7,7.365308132448804,7.700737408624834,7.0720634078690185
1769251541104,135,7,7.522397800111205,7.778131877448724,7.213241551795596
1769251541108,135,7,7.585608718333961,7.678116459609572,7.260960637866851
1769251541112,135,7,7.72368871316674,7.630063163092856,7.382417104324853
1769251541116,135,7,8.057720223181668,7.963642383156468,7.698579629669021
1769251541120,136,8,8.539263715342717,8.550323964840894,8.161805811175677
1769251541124,136,8,8.955589145518935,8.92817874484595,8.560074944413218
1769251541128,137,9,9.072221691151878,9.484260386905651,8.659306491701475
1769251541132,136,8,8.79948131899624,8.79252537809222,8.370296513277768
1769251541136,135,7,8.242766878163696,7.803884445209165,7.798857296546722
1769251541140,135,7,7.600127037346351,7.64732899688756,7.142512409821407
1769251541144,134,6,7.005846952594712,6.874118873360505,6.533954827314877
1769251541148,134,6,6.450034822245582,6.431078077399843,5.962046320639553
1769251541152,133,5,5.816210560687374,5.915055554429604,5.310818520924585
1769251541156,132,4,4.979747917857435,4.578609943584896,4.457511280421752
1769251541160,131,3,3.887715368892779,3.8986352797082495,3.350650148005192
1769251541164,130,2,2.581854874417486,2.5947482148710295,2.031877846342231
1769251541168,128,0,1.1715709122977622,0.636817477714362,0.6092967521795449
1769251541172,127,-1,-0.2145654731201731,-0.2171723807072241,-0.789896297077985
1769251541176,126,-2,-1.4692229808453736,-1.42743920494447,-2.0587471440208596
1769251541180,124,-4,-2.5261821674812306,-2.997151300649035,-3.130084576459831
1769251541184,124,-4,-3.3648111609758953,-3.637718736574659,-3.982006263901355
1769251541188,123,-5,-4.000583312723869,-4.074948294366224,-4.629875035141058
1769251541192,123,-5,-4.460388400380818,-4.576945682887776,-5.10161853394077
1769251541196,122,-6,-4.7630663221999106,-5.070332536802133,-5.416758945141883
1769251541200,122,-6,-4.932369169187358,-5.360102211205446,-5.598592106414533
1769251541204,122,-6,-5.0284811709240005,-5.351696506871252,-5.706616978178779
1769251541208,122,-6,-5.146747338949752,-5.309598538899718,-5.836241099161666
1769251541212,122,-6,-5.362122245314191,-5.454351962610604,-6.062811092070586
1769251541216,121,-7,-5.665938065740214,-6.114595290895053,-6.377467093699958
1769251541220,121,-7,-5.959786197913272,-6.432036324011688,-6.68119934512962
1769251541224,121,-7,-6.115505904137299,-6.2364287257419955,-6.845818208822319
1769251541228,121,-7,-6.050605294197197,-6.493851421453569,-6.78969874729795
1769251541232,121,-7,-5.7667634257239655,-6.2663666365290975,-6.515545025027004
1769251541236,122,-6,-5.339057679595785,-5.311691473362247,-6.098567248287595
1769251541240,122,-6,-4.8797428346576,-5.289127008025457,-5.64986439945717
1769251541244,122,-6,-4.506113418194005,-5.377479127716511,-5.285298622711281
1769251541248,123,-5,-4.314665765517853,-4.408389867364968,-5.101298630094566
1769251541252,123,-5,-4.345189569469671,-4.34358082466389,-5.138937108484631
1769251541256,122,-6,-4.54977538860569,-5.268189046595022,-5.351074404412709
1769251541260,122,-6,-4.811152249325713,-5.3507876628952875,-5.619842743708731
1769251541264,122,-6,-5.010978975290145,-5.345007985092685,-5.826284340672753
1769251541268,122,-6,-5.086100292489315,-5.483494144998553,-5.9077083605211245
1769251541272,122,-6,-5.028033174493528,-5.248306099935776,-5.856321292333167
1769251541276,122,-6,-4.851802568907865,-5.407772648539892,-5.6868929524868514
1769251541280,122,-6,-4.583095103370384,-5.220912577768457,-5.424323622527045
1769251541284,123,-5,-4.2690531797814835,-4.514568644176718,-5.11559683615838
1769251541288,123,-5,-3.981747798157026,-4.354806539608848,-4.833277033708819
1769251541292,123,-5,-3.799749920967899,-4.3520289403852415,-4.656198956631236
1769251541296,123,-5,-3.782110382267202,-4.358812885429905,-4.643295812154896
1769251541300,123,-5,-3.946689332473016,-4.265245185720536,-4.812468655760983
1769251541304,123,-5,-4.254309513279152,-4.53763692273756,-5.124563198811549
1769251541308,122,-6,-4.609392053718582,-5.335712173024841,-5.483347805560793
1769251541312,122,-6,-4.888284203121439,-5.379768595409561,-5.764321956691444
1769251541316,122,-6,-4.979254399159326,-5.357572297270843,-5.856131335386906
1769251541320,122,-6,-4.805534305625455,-5.276439214022342,-5.683802910358911
1769251541324,123,-5,-4.333137324349524,-4.589876835206278,-5.214759341221271
1769251541328,123,-5,-3.5914197503067244,-4.267084517337041,-4.477655825164108
1769251541332,124,-4,-2.704652294011589,-3.500280286091921,-3.5945937274191757
1769251541336,125,-3,-1.8795021441130455,-2.211451734741976,-2.770927055825423
1769251541340,126,-2,-1.3044839485304571,-1.4944266841511689,-2.19577211092777
1769251541344,126,-2,-1.0137989338891813,-1.3745825810104273,-1.9045139909437996
1769251541348,126,-2,-0.8420342448004534,-1.5236950749353046,-1.7320398603026326
1769251541352,126,-2,-0.5353732087313485,-1.25267801076621,-1.4244120966792106
1769251541356,127,-1,0.0633217882509462,-0.4694389693790131,-0.8250816381975188
1769251541360,128,0,0.908648178555124,0.7216711450570683,0.0197615365456078
1769251541364,129,1,1.796238386824299,1.413173870721379,0.9062822887987751
1769251541368,129,1,2.493366959751911,1.6254613356657552,1.6034237023650206
1769251541372,130,2,2.850468025415718,2.6192578620281184,1.9623983011804755
1769251541376,130,2,2.837638311176391,2.594047187924932,1.9523461264164823
1769251541380,129,1,2.507304818087973,1.6653678679287296,1.6245445039070303
1769251541384,129,1,1.9178710888161117,1.429849314325483,1.0374145172803622
1769251541388,128,0,1.0811462252903732,0.5886986515188257,0.2032761577548161
1769251541392,127,-1,-0.012377060958997,-0.3613154527244089,-0.8874244693886375
1769251541396,126,-2,-1.3116849347950463,-1.4523719747378472,-2.18381657770209
1769251541400,124,-4,-2.6616003098791357,-3.297663531590981,-3.5300612381488383
1769251541404,123,-5,-3.8645989551108735,-4.651707311691409,-4.727938241982388
1769251541408,122,-6,-4.800340923488562,-5.330213690958485,-5.658088460776283
1769251541412,122,-6,-5.485799160940154,-5.49004102432245,-6.339685811344955
1769251541416,121,-7,-6.025977307343826,-6.303724606311886,-6.878183449527433
1769251541420,120,-8,-6.522480517502877,-7.50002731170539,-7.372501859495216
1769251541424,120,-8,-7.021645171398111,-7.456448161470881,-7.86595840341236
1769251541428,120,-8,-7.502812169280212,-7.576766111287041,-8.338077252222297
1769251541432,119,-9,-7.875095688997399,-8.24764893066661,-8.701086806074096
1769251541436,119,-9,-8.001981677398938,-8.554879582979298,-8.821232181064001
1769251541440,119,-9,-7.787689945424139,-8.277699809930576,-8.60289358007116
1769251541444,120,-8,-7.284979049027974,-7.70608807079396,-8.09688049791679
1769251541448,120,-8,-6.721237630489264,-7.36831242583854,-7.52839660200083
1769251541452,121,-7,-6.3830789418869145,-6.454423167207852,-7.18301750151022
1769251541456,121,-7,-6.422640311338564,-6.3682148598152555,-7.213031128519972
1769251541460,120,-8,-6.740428616971415,-7.48636708413619,-7.519748832765895
1769251541464,120,-8,-7.057062845069618,-7.546000771776929,-7.82540636170101
1769251541468,120,-8,-7.122910071974007,-7.546019419795283,-7.882990777557323
1769251541472,120,-8,-6.884097844808724,-7.302140488482855,-7.640604726977449
1769251541476,121,-7,-6.45920201962598,-6.4906704441534036,-7.215329615866592
1769251541480,121,-7,-5.939579451389735,-6.421201929268625,-6.6930879095672875
1769251541484,122,-6,-5.1577572699006975,-5.634947613999283,-5.900689133224663
1769251541488,124,-4,-3.5917432641890863,-3.4990552984526295,-4.314840038027147
1769251541492,127,-1,-0.5187492571266947,-0.3692845460841036,-1.217237409524885
1769251541496,131,3,4.569315307380149,3.6289193306479985,3.89215493972562
1769251541500,138,10,11.439891867455952,10.368414160513254,10.772704985664234
1769251541504,147,19,18.792276273176064,19.620899292411245,18.120406143073435
1769251541508,152,24,24.410281137746637,24.107484703967337,23.72523973429134
1769251541512,151,23,25.835757139508893,24.100209292866023,25.14287137700681
1769251541516,150,22,21.34920457912636,22.057934432744197,20.66490630926227
1769251541520,139,11,10.88622336514317,11.940751508411047,10.226662503496614
1769251541524,124,-4,-3.580851820683882,-4.047357816661709,-4.208754279340248
1769251541528,108,-20,-18.570549232878072,-19.22000054490221,-19.169452828395393
1769251541532,96,-32,-30.426134399276194,-31.542508884253536,-31.004182854284657
1769251541536,90,-38,-36.761722826568416,-37.333744432768945,-37.329332031657344
1769251541540,91,-37,-37.19485189465284,-36.54707728998949,-37.76212309634766
1769251541544,95,-33,-33.046815011954884,-32.711582707890976,-33.61943738310059
1769251541548,101,-27,-26.39285597403969,-26.457281169035703,-26.968172523361822
1769251541552,108,-20,-19.149590779984138,-19.4586842923721,-19.717245360171557
1769251541556,114,-14,-12.632691403561804,-13.392359783510646,-13.181056948352836
1769251541560,120,-8,-7.547050462932568,-7.545010378101171,-8.070716041285404
1769251541564,124,-4,-4.125896072271852,-3.7318957385408824,-4.6278703993073425
1769251541568,125,-3,-2.2330864867284212,-2.4609909678387947,-2.720333633461928
1769251541572,126,-2,-1.4521964571696295,-1.490646521211282,-1.9294026029337672
1769251541576,126,-2,-1.2455650384984716,-1.3894884225414064,-1.71282932966828
1769251541580,126,-2,-1.1620177082361165,-1.5527447807560657,-1.6172532550837682
1769251541584,127,-1,-0.9771635369497332,-0.7436857100900411,-1.419356511281601
1769251541588,127,-1,-0.6849906849472274,-0.4354134353988041,-1.1146553063995173
1769251541592,127,-1,-0.3785575996539001,-0.5910033136998512,-0.795763284513685
1769251541596,127,-1,-0.1291829137135791,-0.2706167750405859,-0.5325066846183852
1769251541600,128,0,0.0640461861294938,0.2539705158103,-0.3239330786473231
1769251541604,128,0,0.2571110347095455,0.4828101507454456,-0.1157169072605355
1769251541608,128,0,0.5069266983443454,0.3025391617979203,0.1478607134049427
1769251541612,128,0,0.8127876943606154,0.6416003056191544,0.466606008178009
1769251541616,129,1,1.099297915682167,1.4735265522075571,0.7663783883086688
1769251541620,129,1,1.2713468691811145,1.4693432955482293,0.9527874806789683
1769251541624,129,1,1.3036228331964423,1.2772188161283606,1.000399355525083
1769251541628,129,1,1.2811980887151009,1.490106973545538,0.9934828050696028
1769251541632,129,1,1.348378871850378,1.408397035493449,1.075316872437729
1769251541636,129,1,1.6047029637504306,1.6891802001979257,1.3451460532702335
1769251541640,130,2,2.0290798314907503,2.2181208266314116,1.7828521564839233
1769251541644,130,2,2.4925214333160723,2.5399570356849175,2.260710595763882
1769251541648,131,3,2.858260871345671,3.2071941810709563,2.6419582134170927
1769251541652,131,3,3.097816393062186,3.6456606606839768,2.896903129955067
1769251541656,131,3,3.320261085073957,3.4343077834822378,3.133940535901808
1769251541660,131,3,3.6697673014450425,3.4228198750068053,3.4979338674419305
1769251541664,132,4,4.174282196084565,4.370871910916089,4.017480081384304
1769251541668,133,5,4.69868889223151,5.326011652643342,4.556768944230224
1769251541672,133,5,5.062255331946363,5.521431730271133,4.934135567473669
1769251541676,133,5,5.20650313803271,5.513885081893362,5.091790562515626
1769251541680,133,5,5.246513433031852,5.30463381190927,5.146687825868899
1769251541684,133,5,5.366794405078577,5.508090662465515,5.283919043996322
1769251541688,134,6,5.678720020727614,6.142300465325293,5.612935916835765
1769251541692,134,6,6.171403420871794,6.715517608360157,6.1203291147296826
1769251541696,135,7,6.768899638282782,7.269044278816947,6.729982452905162
1769251541700,135,7,7.403773029219122,7.516646318599818,7.3770576694577805
1769251541704,136,8,8.03646083701626,8.311524685699679,8.024583377410092
1769251541708,137,9,8.638872048626057,9.26767111220934,8.644270940421153
1769251541712,137,9,9.194232255692704,9.65137764584524,9.216676986658918
1769251541716,138,10,9.71459751204262,10.206772413628087,9.751542786274731
1769251541720,138,10,10.232645470250256,10.651970220453157,10.281797171376455
1769251541724,139,11,10.754259214833066,11.058706992504971,10.815699166251187
1769251541728,139,11,11.222372513403831,11.592808589617311,11.298268122701522
1769251541732,140,12,11.553040926802735,12.246809015003164,11.645416567694436
1769251541736,140,12,11.731951824028112,12.619531848640063,11.840894459036084
1769251541740,140,12,11.872976790925131,12.199430210080545,11.996948899853798
1769251541744,140,12,12.149682266790007,12.472975280288953,12.287151814893807
1769251541748,141,13,12.633701759355263,13.203952145467426,12.78416246543402
1769251541752,141,13,13.186206661751156,13.56584245587269,13.349865052504466
1769251541756,142,14,13.520287902733502,14.343129601350324,13.69729043539833
1769251541760,142,14,13.400484366644234,14.379561098628404,13.590878871174043
1769251541764,141,13,12.813867897464595,13.32764747026484,13.018357806394173
1769251541768,140,12,11.963964051486354,12.269903354395398,12.184039489796586
1769251541772,139,11,11.098799853163731,11.54050842837784,11.335261315302368
1769251541776,139,11,10.33239184483671,11.293519924673742,10.5837797943894
1769251541780,138,10,9.602718981568808,10.46663423983034,9.86603184370503
1769251541784,137,9,8.763280693819631,9.164784019076684,9.036606429272094
1769251541788,136,8,7.702997693870984,8.451472335842796,7.98716163942336
1769251541792,135,7,6.412519054947741,7.306168487235504,6.710219127914692
1769251541796,133,5,4.985610911801043,5.519049128050595,5.299259495907528
1769251541800,132,4,3.579712236744604,4.231437186294508,3.90970718753207
1769251541804,131,3,2.3623360615825493,3.358655271227436,2.706678035925974
1769251541808,130,2,1.4597587097975864,2.261857517051279,1.815420203969146
1769251541812,129,1,0.9116495992121147,1.4422441797996468,1.2769446827527906
1769251541816,129,1,0.6441871929164202,1.399639099959385,1.020010110112597
1769251541820,129,1,0.4975044711294396,1.2999985171524635,0.886128736446075
1769251541824,129,1,0.3234571749992039,1.2937469049167738,0.7262651039920378
1769251541828,129,1,0.0945179652076673,1.2837615928231485,0.511128537339081
1769251541832,128,0,-0.0803681970160061,0.4093499440705495,0.3489006925532516
1769251541836,128,0,-0.0696434050001335,0.3986319476283047,0.3714071639377447
1769251541840,129,1,0.1327815392374374,1.2976867216306858,0.5848578819340275
1769251541844,129,1,0.3686679062230875,1.260599585640529,0.8308811772947458
1769251541848,129,1,0.4268588513938764,1.317188294832125,0.8989473792154397
1769251541852,129,1,0.2051770083246342,1.3337378979875307,0.6883400285305918
1769251541856,128,0,-0.2116463131389467,0.4601174003505139,0.2845980562398611
1769251541860,128,0,-0.609261547957126,0.1946472291407941,-0.0990516475058895
1769251541864,128,0,-0.7813421749528282,0.377093306588371,-0.2586448329165236
1769251541868,128,0,-0.6496013132726266,0.1557650354753825,-0.1173077250165133
1769251541872,128,0,-0.2989766547616397,0.5037177634317498,0.2409312018485692
1769251541876,129,1,0.0820966351189227,1.2441826305422652,0.6300244071465353
1769251541880,129,1,0.3185826100486038,1.3819965550875029,0.8767859819120969
1769251541884,129,1,0.3535688675026729,1.1987988835314896,0.9242030432785232
1769251541888,129,1,0.2748541839233445,1.2741343630418969,0.8581004609662881
1769251541892,129,1,0.2465003216403154,1.4192203680634805,0.8403561016955869
1769251541896,129,1,0.3883122032460133,1.2378839491149236,0.9904530032842418
1769251541900,129,1,0.6797289951873493,1.4288188660066048,1.289555263322122
1769251541904,130,2,0.9620872222488912,2.087467848115771,1.5806193449125674
1769251541908,130,2,1.0583320147396988,2.4053396777511313,1.686414052077223
1769251541912,130,2,0.9270886486367744,2.244201293847002,1.5645377714067117
1769251541916,129,1,0.7105262649770374,1.390005256431842,1.3570305799620357
1769251541920,129,1,0.6198911133541083,1.2526231966821126,1.2756908118392172
1769251541924,130,2,0.7656410110051501,2.241381703782382,1.4308183428436614
1769251541928,130,2,1.0939644086815123,2.257050350581593,1.767719081191327
1769251541932,130,2,1.4730182231335447,2.3555874608464387,2.154161461421727
1769251541936,131,3,1.8258707265882823,3.2754171989247385,2.513825077706327
1769251541940,131,3,2.183189786471692,3.300773707715308,2.878414897184889
1769251541944,131,3,2.619859914093321,3.206010142727111,3.3233614420929536
1769251541948,132,4,3.150525831356369,4.261356454315974,3.8626635853251736
1769251541952,133,5,3.69661125034708,5.356369933988555,4.416386047719742
1769251541956,133,5,4.157942144425072,5.233753797262739,4.883963861207291
1769251541960,133,5,4.505320689041176,5.312637271140397,5.2374316087460135
1769251541964,134,6,4.796529703140849,6.180137592438323,5.535870527566528
1769251541968,134,6,5.111207499321226,6.255035812513913,5.85866717424863
1769251541972,134,6,5.47290905116388,6.386131657801947,6.227904201581898
1769251541976,135,7,5.818191048972922,7.141781146562723,6.578974443501664
1769251541980,135,7,6.024714224189324,7.409871243737557,6.789865443277243
1769251541984,135,7,5.967389236850738,7.023862538841161,6.7371774224312135
1769251541988,134,6,5.561863306766683,6.423731877923677,6.337875841510348
1769251541992,134,6,4.786517453573424,6.198339325337391,5.569584321219942
1769251541996,133,5,3.6974052202547294,5.290022004547435,4.486377391482932
1769251542000,131,3,2.425552918049179,3.2703372857766313,3.2187575940604525
1769251542004,130,2,1.131386355127301,2.080097121899696,1.9288334248104415
1769251542008,129,1,-0.0599668259660042,1.428591293091384,0.7433706528076081
1769251542012,128,0,-1.0792173279746242,0.1113311157013696,-0.268853889463944
1769251542016,127,-1,-1.8763084379801696,-0.5884855115258021,-1.0598824223272565
1769251542020,127,-1,-2.3924408829143005,-0.8968280694659831,-1.5723846331442808
1769251542024,126,-2,-2.6019341640888887,-1.8063409523837044,-1.7801669365713946
1769251542028,126,-2,-2.5930034546776466,-1.6364654235070013,-1.7696257671154167
1769251542032,127,-1,-2.581544924364595,-0.923765557615527,-1.7551192172013232
1769251542036,126,-2,-2.794695351420932,-1.4661524351928803,-1.963320636036617
1769251542040,126,-2,-3.296257526748019,-2.1535524074999386,-2.458598996901687
1769251542044,125,-3,-3.908012513591565,-2.487717808087305,-3.0641390922074043
1769251542048,125,-3,-4.316033119988363,-3.048362506765132,-3.467616411728362
1769251542052,124,-4,-4.30220733705212,-3.4790538871674395,-3.4516885042446264
1769251542056,125,-3,-3.93024470912692,-2.9163674434166715,-3.079658017956077
1769251542060,126,-2,-3.5272866522041104,-1.774379775642994,-2.677322886690665
1769251542064,126,-2,-3.455673881340367,-1.81280266328957,-2.6046635340118844
1769251542068,125,-3,-3.856942171672581,-2.8631148239628335,-3.000622257079794
1769251542072,124,-4,-4.580587515514597,-3.547871330829913,-3.714876197150774
1769251542076,124,-4,-5.336845987909081,-3.99811087212045,-4.462902570124393
1769251542080,123,-5,-5.921390791958899,-4.592835708461906,-5.047582664675317
1769251542084,123,-5,-6.330995711706538,-5.10790872433188,-5.467495157885303
1769251542088,122,-6,-6.693376364532123,-5.523396597640743,-5.842575556570548
1769251542092,122,-6,-7.043815589624117,-5.933018975088007,-6.195488594058216
1769251542096,122,-6,-7.05717204688253,-5.644083283293585,-6.194359899090014
1769251542100,124,-4,-5.919048428868875,-3.925083759411161,-5.030939054876711
1769251542104,127,-1,-2.558906449803497,-0.852748311923051,-1.649942655822203
1769251542108,132,4,3.6634531472040015,4.283980689938441,4.575781209880908
1769251542112,140,12,12.089259468244,12.175766592357824,12.985345767411314
1769251542116,149,21,20.34635507754537,21.28082055171405,21.215447302919703
1769251542120,155,27,24.965251882942276,27.09542657950593,25.81041268386803
1769251542124,153,25,22.960926008955283,25.095501772501837,23.79723702058519
1769251542128,143,15,13.53056279412353,15.299676826724454,14.37807724500217
1769251542132,128,0,-1.2241006766656604,0.0648635047322034,-0.3500940495297779
1769251542136,111,-17,-17.08000284506883,-16.604070016410837,-16.176805558699204
1769251542140,99,-29,-29.558088997568255,-29.02260266298861,-28.63684776537303
1769251542144,93,-35,-35.79350451874054,-34.72021035772778,-34.87318152409712
1769251542148,94,-34,-35.40972213710373,-33.839024518632215,-34.5075696910377
1769251542152,100,-28,-30.099495173764012,-27.86899101443396,-29.222964003766563
1769251542156,107,-21,-22.418837409344636,-20.64136037620478,-21.56235798074819
1769251542160,114,-14,-14.63891967293426,-14.13611931577549,-13.78736227245724
1769251542164,120,-8,-8.200582809747143,-7.516335328873037,-7.3385714144476175
1769251542168,126,-2,-3.731764124381934,-2.1607713499775785,-2.8532526468928787
1769251542172,128,0,-1.2657385206968927,0.4772011099083744,-0.3762370487714357
1769251542176,129,1,-0.4227370298353461,0.967289350417474,0.4673995382084792
1769251542180,128,0,-0.5773173577629174,0.1972966114711334,0.3067981161224582
1769251542184,128,0,-1.0819432383766574,0.2051724979153519,-0.2041256058766851
1769251542188,128,0,-1.4853012881869154,0.0414726716845592,-0.6109274838557228
1769251542192,127,-1,-1.6203101854119657,-0.6665583739626448,-0.7472462793143162
1769251542196,128,0,-1.52535643316882,0.035890053130839,-0.6532758660681537
1769251542200,128,0,-1.2828446163577951,0.1355291141084535,-0.4122142811476323
1769251542204,128,0,-0.9014765861298888,0.223293895951095,-0.0322909262502606
1769251542208,129,1,-0.3186417044304312,1.029794253565908,0.5498964004359363
1769251542212,129,1,0.5036997497037072,1.3261648793280516,1.3722337720036508
1769251542216,131,3,1.494532286429028,3.011719338268998,2.3623212573108345
1769251542220,132,4,2.4840131931849543,4.153646576247291,3.3491328974342265
1769251542224,132,4,3.289916612658863,4.15701780894821,4.151081442407594
1769251542228,133,5,3.7950970968615247,5.112430307220815,4.652974179217939
1769251542232,133,5,3.9681790593270954,5.209714260905214,4.824540594681988
1769251542236,133,5,3.850953256902677,5.096485542202508,4.706876507994484
1769251542240,133,5,3.5446436484208697,5.070573689664826,4.399970912965852
1769251542244,132,4,3.188447291009051,4.1957587435308135,4.0426135466265425
1769251542248,132,4,2.9141339368471884,4.083099780398398,3.766660220606253
1769251542252,132,4,2.7934661280075006,4.216662034783309,3.643467462721292
1769251542256,132,4,2.814821268518652,4.053837365602686,3.660857039166743
1769251542260,132,4,2.9016268243887824,4.117376907921059,3.742865751961984
1769251542264,132,4,2.9561867862121747,4.110228662006691,3.793684782219751
1769251542268,132,4,2.912738023506421,4.165060364722904,3.7490019039979137
1769251542272,132,4,2.78891182279963,4.115261638069501,3.62585121132905
1769251542276,132,4,2.7066841575318277,4.11935245094517,3.5439901654331267
1769251542280,132,4,2.840436321338338,4.059094508221509,3.6759225055316103
1769251542284,132,4,3.290779364728514,4.119862981049711,4.122003875565603
1769251542288,133,5,3.966439710152293,5.175273976620238,4.79193873081103
1769251542292,134,6,4.590823616073796,6.05416926097519,5.410561685877788
1769251542296,134,6,4.864611460010331,6.188517390818872,5.680269478467395
1769251542300,134,6,4.675207985532839,5.949344934298364,5.489926739931522
1769251542304,133,5,4.192588858294775,5.218487568862161,5.009126740430776
1769251542308,133,5,3.7785873986865184,5.049806115491376,4.596782490570919
1769251542312,133,5,3.768675141938684,5.165399995348921,4.585025043171206
1769251542316,133,5,4.256801574706851,5.078818688993685,5.067167542951348
1769251542320,134,6,5.010586058158924,6.021187812640584,5.813338763835496
1769251542324,135,7,5.58676563139286,7.158982340068092,6.383395876324812
1769251542328,135,7,5.601767613364312,7.040830967334993,6.395272538932777
1769251542332,134,6,4.984146028032806,6.197757703453618,5.777294526830008
1769251542336,133,5,4.020721791463355,5.001160206730317,4.814922669358241
1769251542340,132,4,3.1616374794184217,4.085684429059643,3.956123025529264
1769251542344,132,4,2.7396763831307043,4.089520583874909,3.5316523052483464
1769251542348,132,4,2.8064102088263843,4.070900810696412,3.592938696888731
1769251542352,132,4,3.1698054106575015,4.195771025238065,3.95014515699604
1769251542356,133,5,3.566508550758688,4.948025952438902,4.342496280414518
1769251542360,133,5,3.833041343185682,5.142157807272911,4.607153605828735
1769251542364,133,5,3.965596122804169,4.983845494051724,4.7388868608104
1769251542368,133,5,4.042363366804459,5.175630666568339,4.814137580682572
1769251542372,133,5,4.083069713718702,5.085524657777706,4.851909250318801
1769251542376,133,5,3.9725405892616785,5.020098934484263,4.7372837921518105
1769251542380,133,5,3.5243012429539133,5.081977971614013,4.2845351094486706
1769251542384,132,4,2.634394246678642,3.978842891538868,3.3908615519532956
1769251542388,130,2,1.3867820243012026,2.2014006786133073,2.141338915416357
1769251542392,129,1,0.0154296334816506,1.024660056793074,0.7696663819186553
1769251542396,128,0,-1.2366045354476634,0.0660813484074807,-0.483183977888618
1769251542400,127,-1,-2.2420514290446993,-0.9654445978492197,-1.491860077076379
1769251542404,126,-2,-3.024337176115142,-2.0194620332794404,-2.27927536915353
1769251542408,125,-3,-3.70952343589669,-2.7739059518221274,-2.969222957869551
1769251542412,125,-3,-4.4323794369937195,-3.064130274661995,-3.695140027016121
1769251542416,124,-4,-5.239495328861856,-3.823535247629988,-4.504171143794488
1769251542420,123,-5,-6.049483257458709,-5.12420080711599,-5.31584233139869
1769251542424,122,-6,-6.710702007191447,-5.8636772989648165,-5.97871600802241
1769251542428,122,-6,-7.113058444889266,-5.9390661186020255,-6.382925759855425
1769251542432,122,-6,-7.252035222464698,-5.943515046322197,-6.524663997625304
1769251542436,122,-6,-7.197050187160512,-5.915854240442866,-6.473483651224242
1769251542440,122,-6,-7.019335880768169,-6.09124903701183,-6.29952348514735
1769251542444,122,-6,-6.757359533108791,-5.882405513010879,-6.040178914638875
1769251542448,123,-5,-6.430794003033419,-4.965381869706441,-5.715407466081836
1769251542452,123,-5,-6.06346886576521,-4.923075997483725,-5.350012785602267
1769251542456,123,-5,-5.6925228586658125,-4.944001147463194,-4.9813937009587255
1769251542460,124,-4,-5.366635982579365,-4.088532361209955,-4.657881994744461
1769251542464,124,-4,-5.132241325140893,-3.895989573851424,-4.425925432261685
1769251542468,124,-4,-5.010044062032375,-3.9916447622525206,-4.306554211960745
1769251542472,124,-4,-4.984347342977509,-3.887285415596572,-4.283919728055322
1769251542476,124,-4,-5.020133781714213,-4.010454426046325,-4.322352816355308
1769251542480,124,-4,-5.086525631505481,-4.026915732808494,-4.39062870492598
1769251542484,124,-4,-5.154004252803736,-3.9838616539254046,-4.459607170095342
1769251542488,124,-4,-5.168170924200657,-3.9260665406832698,-4.4754195562806185
1769251542492,124,-4,-5.04265514745555,-3.956731769046801,-4.351689669172698
1769251542496,124,-4,-4.703095811706856,-3.959607472429956,-4.013898104067513
1769251542500,125,-3,-4.1536918140747865,-3.092762393423927,-3.4667746029332904
1769251542504,126,-2,-3.5002738707291705,-1.9413563504710791,-2.81681038949304
1769251542508,126,-2,-2.9052947706222216,-1.978031104368936,-2.225702169599339
1769251542512,126,-2,-2.5152788205418086,-1.9331013553977532,-1.8381347188058188
1769251542516,127,-1,-2.4023609830990824,-0.9739019702794374,-1.7257401172597078
1769251542520,127,-1,-2.5276550246023515,-1.1350767397727668,-1.8512621911326816
1769251542524,126,-2,-2.743876041903186,-1.884539381573593,-2.068946416516543
1769251542528,126,-2,-2.8675567313908106,-2.0666348643570087,-2.1950138491679736
1769251542532,126,-2,-2.7898932434405133,-1.8544004840099664,-2.119626666156864
1769251542536,127,-1,-2.5285649200556097,-1.0614617304714518,-1.8602917985824396
1769251542540,127,-1,-2.169962567147733,-1.0745788787764516,-1.5037218970222197
1769251542544,127,-1,-1.7681245069694522,-0.9497709882494272,-1.1037874790186355
1769251542548,128,0,-1.3039970666021496,-0.0248000873750242,-0.6410746195123618
1769251542552,128,0,-0.7322892719682028,0.0856012831662049,-0.0705406635023828
1769251542556,129,1,-0.0565987308699651,0.977344217267893,0.6035502851198717
1769251542560,130,2,0.6409620716696507,1.8927472072982616,1.298865245934532
1769251542564,130,2,1.2419413694609551,2.04174769666749,1.8974739443378563
1769251542568,131,3,1.6728320119636306,2.9928539284812636,2.3265712837818837
1769251542572,131,3,1.963238377097224,3.0245040430424073,2.6160020518111526
1769251542576,131,3,2.2346870609936422,3.0273223958234903,2.8869682294840646
1769251542580,132,4,2.624460968550878,3.847369806725744,3.2761481824051906
1769251542584,132,4,3.1987276966935667,4.046823993701952,3.849178033970289
1769251542588,133,5,3.916247757538152,5.004242644367821,4.564697385400115
1769251542592,134,6,4.660260587645124,5.960528051989273,5.306409516092867
1769251542596,134,6,5.302330117570294,6.106328185041209,5.946621636913341
1769251542600,135,7,5.747060580679964,6.7228528710037745,6.390240587464666
1769251542604,135,7,5.937715202396011,7.189869654092045,6.58008708725906
1769251542608,135,7,5.8387353716768144,6.811598662367796,6.480017466662591
1769251542612,134,6,5.420360772700599,6.15620328931902,6.060149074974468
1769251542616,134,6,4.664565358969821,5.89195518979891,5.302647760243451
