timestamp_ms,ecg_u8_raw,ecg_counts_raw_int,ecg_counts_filt_monitor,ecg_counts_filt_diagnostic,ecg_counts_filt_st
1768620443848,134,6,5.7389341832223195,6.292718038088357,6.016902256226894
1768620443852,133,5,5.502418603535077,5.492482265474651,5.780126196369525
1768620443856,133,5,5.516206160281737,5.313511246565381,5.794171034083441
1768620443860,134,6,5.880132609135376,6.395672714726747,6.15842821713493
1768620443864,135,7,6.540477387474626,7.171203867746966,6.817901120962532
1768620443868,135,7,7.37117550902769,7.436340577361074,7.646135893918446
1768620443872,136,8,8.259970848022341,8.25962098780192,8.531916472020008
1768620443876,137,9,9.124252854053282,9.557509139278531,9.393836555433666
1768620443880,138,10,9.88308959588487,10.11443641506916,10.151378111012916
1768620443884,138,10,10.451954127168603,10.456400836216169,10.719782998075754
1768620443888,139,11,10.786605695950326,11.136512382798111,11.054124141669169
1768620443892,139,11,10.94593957101658,11.480515781740436,11.212437624056186
1768620443896,139,11,11.108924191763798,11.369562484384238,11.373542823685472
1768620443900,139,11,11.498440737161369,11.214050661485317,11.76112655864924
1768620443904,140,12,12.249763630675227,12.443560436059776,12.510983954340276
1768620443908,142,14,13.334162994190924,14.03225071282874,13.59375242009722
1768620443912,142,14,14.60333683605418,14.63388556218844,14.860348395723522
1768620443916,144,16,15.899158751502258,16.116307705565376,16.15296176582404
1768620443920,145,17,17.122975375473686,17.51062207110191,17.373961830443264
1768620443924,146,18,18.223258427175637,18.09464171625748,18.472260495663843
1768620443928,147,19,19.14697286922043,19.372370477886065,19.394218985763885
1768620443932,148,20,19.822279531132025,20.2741810165019,20.0671970718978
1768620443936,148,20,20.19212242651694,20.40572020342766,20.434263222262885
1768620443940,148,20,20.257068970531144,20.275619613205517,20.496886602454868
1768620443944,148,20,20.078467195512776,20.23373678716579,20.316714980007113
1768620443948,148,20,19.73639842434957,20.290354141912687,19.97296801321423
1768620443952,147,19,19.26843638888959,19.254861997808327,19.502318457954544
1768620443956,146,18,18.61875395635905,18.45714817406453,18.848931776994064
1768620443960,146,18,17.632962936974735,18.169681209515165,17.85884740615539
1768620443964,144,16,16.12501678165281,16.35454133284454,16.34640357604384
1768620443968,142,14,13.987946770168255,14.11182844917527,14.205318057289752
1768620443972,139,11,11.272424282235384,11.445368467559,11.487180228882362
1768620443976,136,8,8.183114983387439,8.186310199180408,8.39680446891245
1768620443980,133,5,5.009080258455783,5.477389339116569,5.222080711204968
1768620443984,130,2,2.0349685123361585,2.0026474166678616,2.2459482829562836
1768620443988,127,-1,-0.533182095413685,-0.5501534346783679,-0.3264550195153344
1768620443992,126,-2,-2.611309523050651,-1.8912997910485148,-2.410323073257808
1768620443996,123,-5,-4.24267731427799,-4.561834814420845,-4.046955674389662
1768620444000,122,-6,-5.561999207077502,-5.719609993257105,-5.3697185999999295
1768620444004,122,-6,-6.718388710076033,-5.88007325810371,-6.5284472308951145
1768620444008,120,-8,-7.785150635611473,-7.63384515958016,-7.598105048712654
1768620444012,119,-9,-8.72662117399772,-8.884425760491995,-8.54334426797958
1768620444016,118,-10,-9.464555682944994,-9.558588583889026,-9.28491657337226
1768620444020,118,-10,-9.979906884382956,-9.774605044117193,-9.80341340987114
1768620444024,118,-10,-10.339025255563984,-9.814772736113763,-10.166002311717293
1768620444028,117,-11,-10.623077928412924,-10.711359813197442,-10.454454625758366
1768620444032,117,-11,-10.846736010376404,-10.866291957917014,-10.683011887787224
1768620444036,117,-11,-10.947345879530229,-10.564424296926555,-10.788097447728884
1768620444040,117,-11,-10.8440969002091,-10.845888667020796,-10.688122239251117
1768620444044,117,-11,-10.510182846958282,-10.701443861228706,-10.356217639231485
1768620444048,118,-10,-9.998063579882418,-9.856183514386167,-9.846199201633404
1768620444052,119,-9,-9.397951646495788,-8.770151137824389,-9.250337048792057
1768620444056,119,-9,-8.779702626252554,-8.64605032928586,-8.638754883762793
1768620444060,119,-9,-8.195680445018446,-8.85950692071734,-8.061364774779449
1768620444064,120,-8,-7.738336030647058,-7.617051914753613,-7.608167918557336
1768620444068,121,-7,-7.545586376960112,-7.021934936359285,-7.417517051430807
1768620444072,120,-8,-7.6945799033316895,-7.594145138288043,-7.568935213241732
1768620444076,120,-8,-8.08237908692687,-7.856764872287982,-7.960673978233521
1768620444080,119,-9,-8.443902966586057,-8.700389437943102,-8.326681335262114
1768620444084,119,-9,-8.521562346210706,-8.749874853408954,-8.4081502825765
1768620444088,120,-8,-8.238561902812203,-7.941651306347829,-8.128614890750196
1768620444092,120,-8,-7.72260565687787,-7.652173495446713,-7.617057758461272
1768620444096,121,-7,-7.17556970301481,-6.859404955797434,-7.0756428728703575
1768620444100,121,-7,-6.7240850750560535,-6.702479084569739,-6.6296749061338
1768620444104,121,-7,-6.378781467813511,-6.791599659384484,-6.28841395381611
1768620444108,122,-6,-6.102791721450862,-5.9032491621140215,-6.015315645769881
1768620444112,122,-6,-5.889079162675598,-5.702218190232493,-5.804886938543743
1768620444116,122,-6,-5.76841338644785,-5.848910480700497,-5.688617563908182
1768620444120,122,-6,-5.761373682674992,-5.7174094149184755,-5.686244990508332
1768620444124,122,-6,-5.8348855313764,-5.826263055734825,-5.7637212213128795
1768620444128,122,-6,-5.901737534524728,-5.8715787062441525,-5.834031206119144
1768620444132,122,-6,-5.8645665788267864,-5.744360605915194,-5.80059465398813
1768620444136,122,-6,-5.6822713885591485,-5.839541843199492,-5.622505451753672
1768620444140,122,-6,-5.41599007323364,-5.738983870964271,-5.36068052299952
1768620444144,123,-5,-5.206268270306316,-4.847644582169297,-5.155843255970526
1768620444148,123,-5,-5.179388959757615,-4.853101281403108,-5.134370726573071
1768620444152,122,-6,-5.356022287857955,-5.7834435111610345,-5.315901442639225
1768620444156,122,-6,-5.642664089479896,-5.820878226947583,-5.60559840893161
1768620444160,122,-6,-5.897854169267359,-5.786728013844613,-5.862377817392117
1768620444164,122,-6,-5.996338886484984,-5.840037597862628,-5.963042907856605
1768620444168,122,-6,-5.853455305020672,-5.840409533715797,-5.824352450694914
1768620444172,122,-6,-5.43981177434467,-5.839981156406752,-5.416349368137522
1768620444176,123,-5,-4.806186321922057,-4.758140254184602,-4.788348624476788
1768620444180,124,-4,-4.086108400750222,-3.912940993519702,-4.072984671348783
1768620444184,124,-4,-3.445938317445061,-3.717522097957431,-3.436465751807628
1768620444188,125,-3,-3.0063984956377525,-2.9794063133735333,-2.999789726417585
1768620444192,125,-3,-2.7894031083275297,-2.7134685999717223,-2.785536012151233
1768620444196,125,-3,-2.7249684546059263,-2.9134523872409877,-2.724457839847013
1768620444200,125,-3,-2.7140561251698583,-2.801385647878184,-2.7176416362578952
1768620444204,125,-3,-2.7057210178596365,-2.826471515134244,-2.7135397056999397
1768620444208,125,-3,-2.7298404221275643,-2.911496358504997,-2.741469377278022
1768620444212,125,-3,-2.854827269071612,-2.747112215971076,-2.8699906093503804
1768620444216,125,-3,-3.1046008271171166,-2.96196119109851,-3.123494107420738
1768620444220,124,-4,-3.413905601609076,-3.739583867047766,-3.436676796398913
1768620444224,124,-4,-3.669920461530616,-3.948655981829543,-3.6961801930770704
1768620444228,124,-4,-3.800439458442471,-3.770950656054102,-3.829599689754771
1768620444232,124,-4,-3.820537112877779,-3.906295629537842,-3.8524634762953434
1768620444236,124,-4,-3.797673628056195,-3.839130454808159,-3.832815663491926
1768620444240,124,-4,-3.7796990574357503,-3.8656509883958328,-3.81872451572182
1768620444244,124,-4,-3.758525508247935,-3.90142647415669,-3.801832456042812
1768620444248,124,-4,-3.699072074450717,-3.7584028159591183,-3.7463467209478334
1768620444252,124,-4,-3.598858239947548,-4.004947467479302,-3.649106026162196
1768620444256,124,-4,-3.511097901988289,-3.6897165173920223,-3.56353209634148
1768620444260,125,-3,-3.49464316112206,-3.114797710252467,-3.549544878146767
1768620444264,124,-4,-3.535672854912999,-3.625971331120465,-3.5938416943947527
1768620444268,124,-4,-3.5359074121395087,-4.079871143863871,-3.597352976637196
1768620444272,124,-4,-3.3991929144029753,-3.675026747962961,-3.463226020347999
1768620444276,125,-3,-3.130216286695486,-3.0489284656182423,-3.1969346354008907
1768620444280,125,-3,-2.839294243670401,-2.7999675260481216,-2.9099248120126937
1768620444284,125,-3,-2.653830055361621,-2.9249224033217573,-2.7290090751462492
1768620444288,125,-3,-2.6282129497766675,-2.8491437717044343,-2.7066142742867467
1768620444292,125,-3,-2.7199753282562273,-2.8573317790556994,-2.7994263268058392
1768620444296,125,-3,-2.8242284424125397,-2.967665189921175,-2.904057408790169
1768620444300,125,-3,-2.8288650979877574,-2.8325100260441287,-2.9106293129011003
1768620444304,125,-3,-2.6696912751832564,-2.971086243654004,-2.7555366596658133
1768620444308,125,-3,-2.370462252736171,-2.7718428637664996,-2.4610944973144626
1768620444312,126,-2,-2.0384551756968827,-1.9818324401561451,-2.132711782363626
1768620444316,126,-2,-1.799000350689103,-1.8565900968368216,-1.8949479272119905
1768620444320,126,-2,-1.707373539698862,-1.9705283539479757,-1.8037158402272016
1768620444324,126,-2,-1.712397277339309,-1.852919726494202,-1.8093837281969587
1768620444328,126,-2,-1.7096022641598738,-1.9053910790481967,-1.8089447079285932
1768620444332,126,-2,-1.6459883351752778,-1.874846635022208,-1.749547729387969
1768620444336,126,-2,-1.5920937285340138,-1.970634392593632,-1.7002446325257106
1768620444340,126,-2,-1.7110979828747863,-1.902003727771855,-1.822375653551147
1768620444344,126,-2,-2.125639747766463,-1.9072936541510117,-2.2379455352180755
1768620444348,125,-3,-2.7772720599794285,-2.9121300856117465,-2.889279963541157
1768620444352,124,-4,-3.4093478214520645,-3.844138403516784,-3.5211352130980687
1768620444356,124,-4,-3.7162684994603032,-4.071227671778276,-3.829347174821743
1768620444360,124,-4,-3.5519341785019183,-3.7756600889490857,-3.668649096323485
1768620444364,125,-3,-3.0291902409305993,-3.091021865394495,-3.151099874707985
1768620444368,125,-3,-2.432552523721518,-2.695873156486461,-2.558706127312628
1768620444372,126,-2,-2.0144520561571064,-2.1304479373903464,-2.141600237556613
1768620444376,126,-2,-1.82525040185862,-1.774834606874296,-1.9504558970682544
1768620444380,126,-2,-1.698490058300128,-2.1315581426583003,-1.821876883174372
1768620444384,126,-2,-1.4058110843410971,-1.7305701655526562,-1.5307265586511942
1768620444388,127,-1,-0.8723821297902532,-1.0623235841018523,-1.002595846671632
1768620444392,127,-1,-0.2848984005122896,-0.8093627878789891,-0.4212858747531136
1768620444396,128,0,0.014356674035767,-0.0815822433981594,-0.1254119384676644
1768620444400,128,0,-0.2026117484745766,0.0986028307068662,-0.3416392098609537
1768620444404,127,-1,-0.815739046478746,-0.9282218324424858,-0.951620615134966
1768620444408,126,-2,-1.3732161131857872,-1.926808687062884,-1.5065917974331835
1768620444412,126,-2,-1.392351367576397,-1.9244851777712233,-1.5262378143877986
1768620444416,127,-1,-0.7307043388167846,-1.026738814948855,-0.8687144778458757
1768620444420,128,0,0.2723204450025736,0.061675204555885,0.1280589658955792
1768620444424,129,1,1.0105853862504417,1.071871921654178,0.8608148729339546
1768620444428,129,1,1.028200764522801,1.0757311255144313,0.8762257839805543
1768620444432,128,0,0.3280169461401399,0.016733616649297,0.1777800402940466
1768620444436,127,-1,-0.6514430111323364,-0.9895569862090744,-0.7976658120208229
1768620444440,126,-2,-1.3592819191161816,-1.9944375522935307,-1.5022641928433065
1768620444444,126,-2,-1.502569670643875,-1.8814168392822297,-1.6459138925656849
1768620444448,127,-1,-1.1941857883635647,-0.952833480231056,-1.3423588329694534
1768620444452,127,-1,-0.8036304031175641,-1.0152082059429255,-0.9589782439098712
1768620444456,127,-1,-0.667649123686535,-0.962890153551576,-0.828379017299772
1768620444460,127,-1,-0.8880479435893678,-1.0700919805314482,-1.0491293659366527
1768620444464,126,-2,-1.3260809572572465,-1.8122530471280371,-1.4828102906738012
1768620444468,126,-2,-1.7388465822502026,-2.014915721027943,-1.890464886179552
1768620444472,126,-2,-1.932524988743368,-2.0030795172015563,-2.082982663504552
1768620444476,126,-2,-1.8490684535422153,-1.9683260365007291,-2.0040555184149813
1768620444480,126,-2,-1.5785470522935814,-2.1285159278180306,-1.7409911571075232
1768620444484,126,-2,-1.3160437789110877,-1.7302127050856977,-1.4838018378015247
1768620444488,127,-1,-1.2654840639953595,-1.1306534741867318,-1.4330824140716325
1768620444492,126,-2,-1.5077592125696515,-1.902472217609168,-1.6706608506656777
1768620444496,126,-2,-1.90950351903742,-2.0926071274522946,-2.0676452137179577
1768620444500,126,-2,-2.1684023053114245,-2.0537687408544527,-2.326285396439415
1768620444504,125,-3,-2.012416503126877,-2.780224746278362,-2.1754183236329907
1768620444508,126,-2,-1.4354360600899916,-2.138231335552308,-1.6052945610191305
1768620444512,127,-1,-0.770569894486778,-0.8449364439305957,-0.9439601597954316
1768620444516,128,0,-0.4869060125432591,-0.2585254247980877,-0.6580872142519396
1768620444520,127,-1,-0.8320531261890862,-0.832587790701929,-0.997313997998043
1768620444524,126,-2,-1.618013178891416,-2.098384292137109,-1.779090766433944
1768620444528,125,-3,-2.3507557967739436,-2.775475363670214,-2.51501006416638
1768620444532,125,-3,-2.5962949924302556,-3.268579946288736,-2.7723118808325915
1768620444536,125,-3,-2.2450154777680416,-2.8319348060684986,-2.435233282024366
1768620444540,127,-1,-1.399674345432084,-1.267031462300351,-1.595520596908229
1768620444544,128,0,0.061029325932421,0.2934074860866729,-0.124149702665949
1768620444548,131,3,2.8477859975387467,2.8611938560356855,2.6859938944865664
1768620444552,136,8,8.091419939172454,7.996646045832371,7.950823846258528
1768620444556,144,16,16.504167580809657,15.979097923586922,16.366555192049447
1768620444560,154,26,27.288209414353112,25.80853247953315,27.13090048850436
1768620444564,164,36,37.60380690077623,36.32560859140454,37.41455811388872
1768620444568,172,44,43.280425223379154,43.69550064988966,43.06374308836439
1768620444572,170,42,40.70629038743373,42.18486088712948,40.47876719366962
1768620444576,158,30,28.88331263683882,29.680027915224883,28.66480616385146
1768620444580,137,9,10.280432872961075,9.06202618278046,10.086593105426829
1768620444584,116,-12,-10.173163638082354,-11.928276296531546,-10.336998217148032
1768620444588,100,-28,-27.32334713003104,-28.077234898683635,-27.466155301943203
1768620444592,90,-38,-37.836339985444255,-37.92588797920704,-37.97870706298353
1768620444596,88,-40,-40.970814002716125,-40.23329630906396,-41.1337079469845
1768620444600,90,-38,-38.02749547100183,-37.95900102328092,-38.21945706554638
1768620444604,96,-32,-31.22231833075395,-32.04323430490925,-31.435389230583596
1768620444608,105,-23,-22.76464286487859,-22.953576118957017,-22.981969402264145
1768620444612,113,-15,-14.430405847542504,-15.11205706526938,-14.638282516932248
1768620444616,120,-8,-7.464784691907846,-8.032352539647908,-7.659717734225288
1768620444620,126,-2,-2.551284168099002,-2.170404302153615,-2.738692214331925
1768620444624,128,0,0.2328553217338296,0.0609701309091832,0.0451723249345794
1768620444628,129,1,1.3612460522493686,0.9382531445150863,1.1692518006622596
1768620444632,129,1,1.597648285098094,0.964326778347888,1.402490261547681
1768620444636,129,1,1.618550004485937,0.9273983292088984,1.4230123892510087
1768620444640,130,2,1.7558735148296851,1.867384400489534,1.5600428207767292
1768620444644,130,2,2.0125077467556345,1.975179131716112,1.8133512593741932
1768620444648,130,2,2.2685619318327412,1.9761975957975777,2.0636418333655326
1768620444652,130,2,2.4628815120777494,1.9385620054923365,2.253667425836171
1768620444656,130,2,2.6258394046606317,1.9276552542539491,2.416636712643514
1768620444660,131,3,2.8187345135167057,2.892398759790346,2.612481593793272
1768620444664,131,3,3.093062036546782,2.8855124976221695,2.888738881146738
1768620444668,131,3,3.4933324420933456,3.02861288458147,3.2874688041167173
1768620444672,132,4,4.044276513974025,3.899525784785058,3.834373345422041
1768620444676,132,4,4.6963099060828055,3.9261416888520633,4.482468237748927
1768620444680,133,5,5.289971596992944,4.935479196949929,5.0736276855346505
1768620444684,134,6,5.614229142308795,5.757641723459589,5.396189574723811
1768620444688,133,5,5.542537265008421,5.154049378572853,5.322841884835962
1768620444692,133,5,5.133729883008424,4.735710284794028,4.912975827774202
1768620444696,132,4,4.603176100381988,4.1035018858601,4.382724354475923
1768620444700,132,4,4.190829241262076,3.739769248441146,3.9710214767598018
1768620444704,132,4,4.038207889357215,3.9196193356891658,3.816999692961883
1768620444708,132,4,4.149940684037221,3.977663888321053,3.92439780779046
1768620444712,132,4,4.423817282715274,3.873988729616204,4.193188571688358
1768620444716,132,4,4.702470682123167,3.991480199672955,4.468971540163354
1768620444720,133,5,4.839086474667093,4.805684380179945,4.605212208874066
1768620444724,133,5,4.779922460080126,4.84000326852806,4.5458079386095385
1768620444728,132,4,4.610510205850884,4.026433083562766,4.374644722758571
1768620444732,132,4,4.496840441855376,3.798679726961797,4.258512168534862
1768620444736,132,4,4.552642386176807,4.082395770790351,4.31238791504359
1768620444740,133,5,4.762878056023814,4.669812277074986,4.52083261794569
1768620444744,133,5,5.040447971394523,4.980474980069323,4.795703816737665
1768620444748,133,5,5.34130853242776,4.845779271843085,5.093329388024495
1768620444752,133,5,5.706585970739414,4.9586592416417155,5.456187312265828
1768620444756,134,6,6.2018185523327425,5.920735624971656,5.949995920813139
1768620444760,135,7,6.839292269037276,6.7932864722309,6.585750933093533
1768620444764,135,7,7.562904550273983,6.871996625428543,7.306545178655728
1768620444768,136,8,8.291112884301985,7.898187277018925,8.031594862753309
1768620444772,137,9,8.969662513140511,8.916168929626139,8.707771463994513
1768620444776,137,9,9.599079238965365,8.906399986441697,9.335577880487312
1768620444780,138,10,10.225045985392663,9.83254127027678,9.959556698690502
1768620444784,139,11,10.899646372817529,10.787845728919889,10.63092951971358
1768620444788,139,11,11.63870613195482,10.98206783194076,11.36612841823021
1768620444792,140,12,12.405611610637497,11.790899225514112,12.13004133135878
1768620444796,141,13,13.142478346418535,13.02781633195798,12.865366440930297
1768620444800,142,14,13.835524951474705,13.686439239398911,13.557342507752198
1768620444804,142,14,14.551903802932436,13.929170909566128,14.271823236266211
1768620444808,143,15,15.3877900568288,14.815225365329493,15.104544466241723
1768620444812,144,16,16.355199326780742,15.923700600169507,16.06786991011638
1768620444816,145,17,17.315509705614723,16.891814762530466,17.023896692543325
1768620444820,146,18,18.03741116950073,17.79686972718539,17.7421883898939
1768620444824,146,18,18.34611278842047,17.82721867861686,18.04842124828315
1768620444828,146,18,18.252038274626408,17.86281476912399,17.952527931776633
1768620444832,146,18,17.959417038245697,17.8696126479409,17.657937314870566
1768620444836,145,17,17.7353508009953,16.9074625886276,17.43182928263954
1768620444840,145,17,17.721654742727136,16.795219409835624,17.416493304577124
1768620444844,146,18,17.833222255229845,17.810508102860087,17.525996136627086
1768620444848,146,18,17.82869125091105,17.858134621168414,17.517217278437535
1768620444852,145,17,17.47761412348935,16.84058988013345,17.15974904608643
1768620444856,144,16,16.65704956210859,15.922961425001995,16.333474915784706
1768620444860,143,15,15.313794335791023,14.755449269173813,14.987932451632773
1768620444864,141,13,13.398145317200626,12.846369449268655,13.07274195655307
1768620444868,139,11,10.893882302902728,10.7986070168747,10.568063463984757
1768620444872,136,8,7.921578430248415,7.878293561710905,7.591905163754072
1768620444876,132,4,4.770013290410143,3.8659385501480856,4.434446880154508
1768620444880,129,1,1.7737366059250554,0.7876028574624636,1.433798270536835
1768620444884,127,-1,-0.8599434214853874,-1.186119137447275,-1.2013639874809474
1768620444888,125,-3,-3.0954035273827003,-3.1889477157871458,-3.4375531200883502
1768620444892,123,-5,-4.951962573115855,-5.144578633113838,-5.296604547789702
1768620444896,121,-7,-6.3855084946031715,-7.123210748558112,-6.734367676419918
1768620444900,120,-8,-7.320504784355768,-8.280915455447769,-7.673679951140292
1768620444904,120,-8,-7.791513531408276,-8.094429159626664,-8.1484866503937
1768620444908,120,-8,-8.019837355728816,-8.330610004961674,-8.380691881189119
1768620444912,119,-9,-8.32330302919414,-8.97552917931655,-8.688212056072762
1768620444916,119,-9,-8.92455829369709,-9.333638739560552,-9.292858443667155
1768620444920,118,-10,-9.80577231121571,-10.118613104903927,-10.176279610136705
1768620444924,117,-11,-10.715412961452806,-11.24849436427511,-11.087318063056276
1768620444928,116,-12,-11.327664294729834,-12.2251564043144,-11.70087111552692
1768620444932,116,-12,-11.447944956018784,-12.02853622729724,-11.82313821957156
1768620444936,117,-11,-11.11742786077964,-11.352868672030905,-11.496208456951155
1768620444940,117,-11,-10.54908957730404,-11.091863295666991,-10.933449539271356
1768620444944,118,-10,-9.969677723657249,-10.322991130571731,-10.36048038122122
1768620444948,118,-10,-9.506020070118264,-10.1470425191546,-9.901757979507906
1768620444952,118,-10,-9.182227088233883,-10.119230831065243,-9.579713714692152
1768620444956,119,-9,-8.976202085992457,-9.29013283375932,-9.37306790788475
1768620444960,119,-9,-8.848822433431614,-9.17532175105632,-9.245535849743098
1768620444964,119,-9,-8.732875252522382,-9.26686010557364,-9.132265470636217
1768620444968,119,-9,-8.544030832286708,-9.202604658837974,-8.948949439224132
1768620444972,119,-9,-8.246871248919794,-9.076564510574274,-8.658310942644873
1768620444976,120,-8,-7.914976608503592,-8.366367838199256,-8.331816159569547
1768620444980,120,-8,-7.696986711920676,-8.107163988801608,-8.116810060337432
1768620444984,120,-8,-7.685634704858001,-8.364906190808377,-8.105982869955508
1768620444988,120,-8,-7.792536191731904,-8.115881558573026,-8.212323630938531
1768620444992,120,-8,-7.751038670863994,-8.15172184192841,-8.17134413560775
1768620444996,120,-8,-7.282910035513569,-8.375131283283192,-7.706317824745115
1768620445000,121,-7,-6.3297224763726065,-7.037268672670602,-6.75867047649457
1768620445004,123,-5,-5.167343939318394,-5.530360021840951,-5.602717515984233
1768620445008,123,-5,-4.284115532557863,-4.89035978077059,-4.724836896501661
1768620445012,124,-4,-4.085184250222252,-4.430663726067506,-4.528949459358674
1768620445016,123,-5,-4.631531029485135,-5.131530213593237,-5.076249109627309
1768620445020,122,-6,-5.604032876447495,-6.277660206596064,-6.048844552048122
1768620445024,121,-7,-6.518196093668291,-7.358318484463361,-6.963420214040789
1768620445028,120,-8,-7.028980573560153,-7.996322718954194,-7.475688040583434
1768620445032,121,-7,-7.0985917498681355,-7.393926564675867,-7.548504492460572
1768620445036,121,-7,-6.9186532407614925,-7.144110333459569,-7.373717854145776
1768620445040,121,-7,-6.69075178171067,-7.319748493031959,-7.15178090433302
1768620445044,121,-7,-6.4758282496555575,-7.335125306156461,-6.94139809663748
1768620445048,121,-7,-6.220079487084307,-7.009356475276719,-6.6872928459349605
1768620445052,122,-6,-5.876587419996455,-6.426710502463816,-6.34327276498564
1768620445056,122,-6,-5.471713546125362,-6.093253256602949,-5.9380161466981765
1768620445060,123,-5,-5.061346011364641,-5.419669969627466,-5.529430177205757
1768620445064,123,-5,-4.654208073306447,-5.24715640357932,-5.126523254114643
1768620445068,123,-5,-4.208051525126252,-5.102399975213873,-4.685557809764513
1768620445072,124,-4,-3.712670781597198,-4.371185780752131,-4.194311795055925
1768620445076,124,-4,-3.263373666719525,-4.132256619383211,-3.7471534585076864
1768620445080,125,-3,-3.0202356420531262,-3.4340888849372293,-3.50488891119915
1768620445084,125,-3,-3.063349190974722,-3.2271135696649713,-3.5489385856829077
1768620445088,124,-4,-3.2816089197603824,-4.1452507876884095,-3.768605011696125
1768620445092,124,-4,-3.427598099057678,-4.366236896959045,-3.9160262111216704
1768620445096,124,-4,-3.314785990893789,-4.105294380572378,-3.804861342855576
1768620445100,125,-3,-2.9834770368979813,-3.5508031553427344,-3.476589107953546
1768620445104,125,-3,-2.6856489337799783,-3.035856746425538,-3.1835664302231574
1768620445108,125,-3,-2.7068732151330455,-3.427420312474208,-3.209624123822002
1768620445112,124,-4,-3.17242911835408,-4.055942639046694,-3.6776886480162303
1768620445116,124,-4,-3.96563476251114,-4.4623618535641505,-4.4706779034949005
1768620445120,123,-5,-4.785948697628758,-5.230052101712442,-5.2897552487553
1768620445124,122,-6,-5.30047762709707,-6.3061428126495835,-5.803785943351015
1768620445128,122,-6,-5.309026333987804,-6.249045617253993,-5.81335848654971
1768620445132,123,-5,-4.830213321648131,-5.149462184274967,-5.337526988533231
1768620445136,124,-4,-4.059315119834936,-4.512700257287975,-4.57154016188864
1768620445140,124,-4,-3.247911552052256,-4.077115351219968,-3.7654279035275184
1768620445144,125,-3,-2.605137336671401,-3.5705711452037514,-3.1258417620015297
1768620445148,125,-3,-2.257187596807241,-2.9287332486487823,-2.7779803348644485
1768620445152,126,-2,-2.2255503379138153,-2.5346318299481494,-2.744853487324975
1768620445156,125,-3,-2.405690411508557,-3.145254790046682,-2.924180682485681
1768620445160,125,-3,-2.5924512869867113,-3.4269999878132933,-3.111736497697276
1768620445164,125,-3,-2.584408215227127,-3.285703614154608,-3.105726038016824
1768620445168,125,-3,-2.3124637366808667,-3.160090135593705,-2.8365214602420745
1768620445172,126,-2,-1.8935281413069311,-2.399933996996928,-2.420682859025772
1768620445176,126,-2,-1.5639693836491482,-2.2198314434120996,-2.094026476848442
1768620445180,126,-2,-1.5389783796928431,-2.431908950153242,-2.0710762440544066
1768620445184,126,-2,-1.8900395904190317,-2.2573895649815747,-2.423068534479578
1768620445188,125,-3,-2.5125638321830337,-3.218118432903311,-3.045666199802419
1768620445192,124,-4,-3.1959416031489005,-4.387680767729964,-3.7287371202027906
1768620445196,124,-4,-3.741091120325966,-4.192541105916649,-4.273873181626177
1768620445200,124,-4,-4.041394567878367,-4.531509581993025,-4.57515963991381
1768620445204,123,-5,-4.086504357234033,-5.119870613551313,-4.622381361372997
1768620445208,124,-4,-3.9207333274288305,-4.399611872423281,-4.45917133441923
1768620445212,124,-4,-3.609511677797816,-4.230254475149664,-4.149996948783325
1768620445216,124,-4,-3.23296705187576,-4.342648751983832,-3.7745061583891863
1768620445220,125,-3,-2.885622472459109,-3.434872573547012,-3.427649362822829
1768620445224,125,-3,-2.6525076740286506,-3.175745726687624,-3.195376993138925
1768620445228,125,-3,-2.563763601391123,-3.4226793735079943,-3.108102746245684
1768620445232,125,-3,-2.5683797415685943,-3.175630515172165,-3.1139388384440836
1768620445236,125,-3,-2.5584542727525568,-3.44952047945226,-3.104063945131363
1768620445240,125,-3,-2.424346124830932,-3.3367462231289355,-2.9693012099899407
1768620445244,126,-2,-2.096289555799284,-2.254934328999173,-2.641367894110921
1768620445248,126,-2,-1.5607940823322393,-2.4061519444843427,-2.107412747457942
1768620445252,126,-2,-0.8748703238104953,-2.165220593177122,-1.4235812518303437
1768620445256,128,0,-0.1774895464162482,-0.5157572548197475,-0.7279236519305471
1768620445260,128,0,0.3407121228016878,-0.27060163009977,-0.2111383547599387
1768620445264,128,0,0.5184948698803482,-0.3278743916229658,-0.0346325555202575
1768620445268,128,0,0.3002192389800981,-0.358577320303195,-0.2535330406436298
1768620445272,127,-1,-0.2476793490312525,-1.225167625720827,-0.8010722420859051
1768620445276,127,-1,-0.9747488876126896,-1.500115979351671,-1.5275296990445244
1768620445280,126,-2,-1.702228185987825,-2.269227210343735,-2.255166791968335
1768620445284,125,-3,-2.277219467474771,-3.3592529166349263,-2.831152457447418
1768620445288,125,-3,-2.618441196979544,-3.318570010257925,-3.173515157341096
1768620445292,125,-3,-2.733680743041186,-3.301522762584317,-3.2896989767318288
1768620445296,125,-3,-2.694542566812933,-3.4529841767264973,-3.2514943096948863
1768620445300,125,-3,-2.591349163374597,-3.3083915775384365,-3.1492497193842697
1768620445304,125,-3,-2.506674530462851,-3.337858218047758,-3.065324773049043
1768620445308,125,-3,-2.512415881489193,-3.36249524779131,-3.071830132037547
1768620445312,125,-3,-2.6605264689680803,-3.260174876424066,-3.221359868836175
1768620445316,125,-3,-2.9510534295570356,-3.560279581639426,-3.513847230017003
1768620445320,124,-4,-3.303109381853671,-4.154915087296181,-3.8668545403550976
1768620445324,124,-4,-3.564360044418041,-4.543691461441496,-4.126528076363627
1768620445328,124,-4,-3.5588525955268633,-4.150097378077064,-4.117661068982814
1768620445332,125,-3,-3.1484205047720777,-3.492524759930278,-3.7050486324724705
1768620445336,125,-3,-2.3008533386324297,-3.38078442845158,-2.859108898364624
1768620445340,126,-2,-1.1607585413775166,-2.2769478692650416,-1.724585979216442
1768620445344,128,0,-0.0698867114550707,-0.5106666086578695,-0.6406774816185996
1768620445348,128,0,0.5351969488397783,-0.1249321830649236,-0.0397322218801559
1768620445352,128,0,0.3366418070401376,-0.6115779414912503,-0.2359599213186116
1768620445356,127,-1,-0.6613087101190684,-1.2368670197217693,-1.2254855173898618
1768620445360,126,-2,-2.0823072079189138,-2.448007542663899,-2.6379533061852243
1768620445364,124,-4,-3.345962551895549,-4.372657702436969,-3.90116666366892
1768620445368,123,-5,-3.981560960658258,-5.216078137071771,-4.548080658001066
1768620445372,124,-4,-3.87622361218075,-4.622950222192763,-4.4605077585209045
1768620445376,124,-4,-3.2238866480399695,-4.135613659066742,-3.820205555506024
1768620445380,126,-2,-2.130717452001013,-2.666243124681848,-2.7226412069572574
1768620445384,128,0,-0.1452566744769399,-0.0645810621139726,-0.7161230561545882
1768620445388,132,4,3.8272392961986257,3.374643002981199,3.281917462661274
1768620445392,138,10,10.913064508512916,9.811905652145208,10.380985273946951
1768620445396,148,20,21.141342677560633,19.422663196502427,20.600373048345347
1768620445400,159,31,32.52613600462338,30.72728974677161,31.957431688734587
1768620445404,169,41,41.211816392526295,40.62570767605827,40.60996638106792
1768620445408,172,44,42.9673938265265,43.525762227182994,42.342512431498974
1768620445412,164,36,35.34773937143565,35.72907795895666,34.72044778463784
1768620445416,147,19,19.212446806902317,18.308268164964517,18.60484132694122
1768620445420,125,-3,-1.4081892718672204,-3.084718817544826,-1.9828070692183233
1768620445424,106,-22,-21.047085069933942,-22.62270493766592,-21.59167839354592
1768620445428,92,-36,-35.077980221810826,-36.13800474601673,-35.61123086452888
1768620445432,87,-41,-41.281466513500376,-41.54451706915554,-41.827680969600465
1768620445436,88,-40,-40.07768024466684,-40.456125692476704,-40.652944405628205
1768620445440,94,-34,-33.67224865506912,-34.27871000575962,-34.276259497364364
1768620445444,103,-25,-24.840597217693592,-25.55087762655565,-25.459275934839297
1768620445448,111,-17,-15.984183142623769,-17.164680009346778,-16.600011919152884
1768620445452,119,-9,-8.68869970877284,-9.593501433349504,-9.291053779748085
1768620445456,124,-4,-3.6706277879440465,-4.403883827092523,-4.259833428048663
1768620445460,127,-1,-0.9090023618847508,-1.3868407028205685,-1.4928087177073588
1768620445464,128,0,0.1392719460267533,-0.4787599654510519,-0.4469250418671266
1768620445468,127,-1,0.2511594279566984,-1.2160419447046746,-0.3401347877765227
1768620445472,128,0,0.1244420342214203,-0.5785689743593099,-0.4703364241233319
1768620445476,128,0,0.1670472895889547,-0.3633935320350575,-0.4297228774052908
1768620445480,128,0,0.4813557513075488,-0.5209191211304861,-0.1186530243324878
1768620445484,129,1,0.9941525096860828,0.7069016099946343,0.3888042064436209
1768620445488,129,1,1.5919469728477704,0.5313221008577805,0.9819159343241664
1768620445492,129,1,2.1759771310368445,0.6928419756516896,1.5651531339580067
1768620445496,131,3,2.672650620282979,2.3593468458876745,2.0643707063467183
1768620445500,131,3,3.068808141855185,2.7033380228433215,2.462243178802005
1768620445504,131,3,3.4472172654905417,2.501561890379953,2.838425176707112
1768620445508,131,3,3.929954366615047,2.6922511630021937,3.316111902812203
1768620445512,132,4,4.533270193311147,3.541983839655759,3.9149229059207697
1768620445516,133,5,5.082122491450212,4.481860215529223,4.461537958829075
1768620445520,133,5,5.309052638539713,4.582714897900953,4.687463894868179
1768620445524,133,5,5.072814676497869,4.58377829213639,4.449670537613525
1768620445528,132,4,4.493696050029884,3.625399349212035,3.8680720791323377
1768620445532,131,3,3.869976776602134,2.5388015982225753,3.2419866269312947
1768620445536,131,3,3.4478011157893587,2.5329846485995224,2.8182112428274917
1768620445540,131,3,3.2586758388954777,2.4634596641608715,2.627348000281314
1768620445544,131,3,3.169017182701031,2.751952485038849,2.534482450858152
1768620445548,131,3,3.0724490463346963,2.4035884458081935,2.4335249197988897
1768620445552,130,2,3.021093294797592,1.748434727766711,2.3785749601058077
1768620445556,131,3,3.1733325809788675,2.3080817547956456,2.5293777606903793
1768620445560,131,3,3.630670665719574,2.6604721606365507,2.9863508131784764
1768620445564,132,4,4.332528277911701,3.5817498234439675,3.6863875448034777
1768620445568,133,5,5.095735622253688,4.5385912524638705,4.44503320915963
1768620445572,133,5,5.740785771459223,4.607185333959101,5.084056338451277
1768620445576,134,6,6.189873830297344,5.400118234615519,5.528198932836016
1768620445580,134,6,6.479915364088613,5.5782912804157485,5.81589190305258
1768620445584,134,6,6.718532271775527,5.642477687675534,6.054145468817422
1768620445588,135,7,7.036961646715812,6.489605057046974,6.372203785275928
1768620445592,135,7,7.55855424736072,6.625946079472071,6.891667369939567
1768620445596,136,8,8.362560751361759,7.342370446249764,7.69142292969361
1768620445600,137,9,9.42985794040489,8.653117614243689,8.753330536822089
1768620445604,138,10,10.600931576037055,9.533561241250323,9.91924752127478
1768620445608,139,11,11.600577037182283,10.620810125795613,10.914621021086168
1768620445612,140,12,12.150765860980744,11.457367188292242,11.461021623938253
1768620445616,140,12,12.120446293931176,11.46994393328895,11.426865219815422
1768620445620,139,11,11.609943210511933,10.539284047498876,10.912883255206692
1768620445624,138,10,10.90305041353452,9.606643191538051,10.203682724547782
1768620445628,138,10,10.32889990124746,9.583480882327434,9.62804461774278
1768620445632,138,10,10.143649012063486,9.440281828072427,9.44053822363654
1768620445636,138,10,10.4904352099218,9.492489219734548,9.783289154714447
1768620445640,139,11,11.401779536750334,10.489750777784508,10.689451634035054
1768620445644,140,12,12.794131255829816,11.662635461337546,12.076574357933197
1768620445648,142,14,14.465104462145572,13.505637733420764,13.7423109960331
1768620445652,144,16,16.13776206324684,15.511243776926712,15.409135369880998
1768620445656,145,17,17.557109068075185,16.389704384368635,16.822519337594613
1768620445660,146,18,18.58936922799633,17.575444731574674,17.85051750404968
1768620445664,147,19,19.269381050308077,18.583562324332735,18.529295422530495
1768620445668,147,19,19.77487389765592,18.542189726917965,19.03541601631021
1768620445672,148,20,20.334613042799347,19.494553128419017,19.59424203985774
1768620445676,149,21,21.093620849763894,20.364933896493422,20.347917215581152
1768620445680,149,21,21.979728269465394,20.594186812806186,21.224793526426403
1768620445684,150,22,22.64385323650436,21.568217143933065,21.879492676225244
1768620445688,150,22,22.553130196473106,21.52346868781439,21.782496431756325
1768620445692,149,21,21.247909064953344,20.514427132567228,20.47418606313643
1768620445696,147,19,18.631017934544797,18.309122558705113,17.85513932884505
1768620445700,142,14,15.0672349801396,13.642812701243937,14.288812367055668
1768620445704,138,10,11.179363574703244,9.495108268204582,10.398388940946964
1768620445708,135,7,7.486644382486919,6.603263428394059,6.702936520130242
1768620445712,132,4,4.180600555542024,3.4117907998117354,3.3921654280394837
1768620445716,129,1,1.1931056169504934,0.4230150774403147,0.396770764757399
1768620445720,126,-2,-1.5690809120534794,-2.487744258181114,-2.374639022784293
1768620445724,123,-5,-4.067469239826596,-5.407605263803723,-4.879859933261785
1768620445728,121,-7,-6.161908622577322,-7.498346210731855,-6.976837807485731
1768620445732,120,-8,-7.734953985828394,-8.517266761106438,-8.550007620685744
1768620445736,119,-9,-8.763938911603933,-9.61353457093728,-9.580509488842605
1768620445740,118,-10,-9.302602262702669,-10.4992210228154,-10.124406380384322
1768620445744,118,-10,-9.443457405770667,-10.377337728838144,-10.273594599677034
1768620445748,118,-10,-9.320109511816202,-10.605266804653844,-10.15927172752954
1768620445752,118,-10,-9.121553223745549,-10.37741575237122,-9.968096999133234
1768620445756,119,-9,-9.049582661975531,-9.77439827225944,-9.900649217170992
1768620445760,118,-10,-9.20574591303045,-10.341197516867195,-10.058660865473366
1768620445764,118,-10,-9.486868551278803,-10.552819051891063,-10.340558084402776
1768620445768,118,-10,-9.598662999049989,-10.485821104915306,-10.454494053260223
1768620445772,118,-10,-9.22595526833721,-10.468829201383004,-10.08700698358956
1768620445776,119,-9,-8.275120834516978,-9.715202912032534,-9.14413390274822
1768620445780,120,-8,-7.016573842321203,-8.355882501504464,-7.894439481850028
1768620445784,122,-6,-5.98545839673456,-6.614264814809292,-6.871288044923286
1768620445788,122,-6,-5.669095435201005,-6.40894165940229,-6.560905063567123
1768620445792,121,-7,-6.199469389797521,-7.60319005925578,-7.094735641871085
1768620445796,120,-8,-7.284018471832176,-8.544414340238093,-8.180753494171112
1768620445800,119,-9,-8.413421601618984,-9.569475026295402,-9.311652473937098
1768620445804,118,-10,-9.171824205730305,-10.388101197268965,-10.07382074036597
1768620445808,118,-10,-9.430269964698557,-10.684554654505371,-10.338896669637734
1768620445812,118,-10,-9.323478668912069,-10.290989772968498,-10.240235163320904
1768620445816,119,-9,-9.071287984601325,-9.907021052501747,-9.995618875378856
1768620445820,118,-10,-8.801325079682318,-10.169148061763975,-9.731293205050086
1768620445824,119,-9,-8.501909169857822,-9.865288935679231,-9.43556505499627
1768620445828,119,-9,-8.107952708258688,-9.187317875994172,-9.044549510604078
1768620445832,120,-8,-7.612653815253668,-8.818188341408156,-8.552880294303232
1768620445836,120,-8,-7.1000727571169655,-8.37233185108989,-8.04533207935561
1768620445840,121,-7,-6.681894897264794,-7.7005864423316766,-7.633454702174286
1768620445844,121,-7,-6.404339066363311,-7.391903472691916,-7.362700854977611
1768620445848,121,-7,-6.210556267463314,-7.648632542616085,-7.174938350744938
1768620445852,121,-7,-5.99040245914789,-7.394484157005987,-6.958873654124537
1768620445856,122,-6,-5.664425957749576,-6.76939614089689,-6.635246406233017
1768620445860,122,-6,-5.219080707575873,-6.3252921846702055,-6.1923398694521055
1768620445864,123,-5,-4.675184107282615,-5.788235661949205,-5.653010617433452
1768620445868,123,-5,-4.053910982480351,-5.270741315290593,-5.038792804799545
1768620445872,124,-4,-3.400806026855659,-4.787297325576571,-4.3934981443296905
1768620445876,124,-4,-2.840617749937298,-4.375897764607659,-3.839645128644797
1768620445880,125,-3,-2.5687514467172052,-3.717248618165672,-3.5719169668920765
1768620445884,125,-3,-2.7314252071620984,-3.444093454802643,-3.737542880783895
1768620445888,124,-4,-3.2773555821551863,-4.59282970063958,-4.286453892078327
1768620445892,123,-5,-3.932353628224186,-5.541916209376018,-4.944865614202545
1768620445896,123,-5,-4.353262188104548,-5.542489154825322,-5.36969726700238
1768620445900,123,-5,-4.349951711627746,-5.6492452374500886,-5.371056508677017
1768620445904,123,-5,-4.001967452026894,-5.429226097210964,-5.028567735524411
1768620445908,124,-4,-3.5870469644103173,-4.70923158610464,-4.619706068814494
1768620445912,124,-4,-3.382800539972821,-4.372145704636869,-4.4216446260254205
1768620445916,124,-4,-3.4914937969068873,-4.771206754436049,-4.535866874933426
1768620445920,123,-5,-3.813062120027933,-5.41015057258231,-4.861211947900746
1768620445924,123,-5,-4.162598771594992,-5.675316554899726,-5.21247900062698
1768620445928,123,-5,-4.404043383686226,-5.517657485532002,-5.455142280975504
1768620445932,123,-5,-4.481566727710208,-5.501031525879556,-5.5357748613480675
1768620445936,123,-5,-4.3623999539588905,-5.7404086587029415,-5.422531293148251
1768620445940,123,-5,-4.0013453775273415,-5.348207264872841,-5.068579051895792
1768620445944,124,-4,-3.389187678163207,-4.858599463518507,-4.462014108478302
1768620445948,124,-4,-2.6244105374596582,-4.266398855466184,-3.7001820777767658
1768620445952,126,-2,-1.900699988248797,-2.816720851331136,-2.978212214459526
1768620445956,126,-2,-1.390476301299883,-2.393397530964757,-2.4708424637644435
1768620445960,126,-2,-1.1324984976110637,-2.7222769192782943,-2.217475176748658
1768620445964,126,-2,-1.0456554969604994,-2.5165422997904963,-2.1355908105678605
1768620445968,126,-2,-1.058124327870711,-2.6058183184687382,-2.1519548810742184
1768620445972,126,-2,-1.2098497871291372,-2.517276386578275,-2.3067790676683275
1768620445976,126,-2,-1.612281575240739,-2.6365798032611143,-2.71274679419106
1768620445980,125,-3,-2.303788594989855,-3.548035832199715,-3.4084981370574643
1768620445984,124,-4,-3.1508858092318364,-4.663221233532869,-4.25934453412807
1768620445988,123,-5,-3.89760355720136,-5.535032557348133,-5.008249222805856
1768620445992,123,-5,-4.317503042755291,-5.549679984600905,-5.429434873799438
1768620445996,123,-5,-4.33559412802321,-5.6186533212744845,-5.449770070001286
1768620446000,123,-5,-4.036566992719138,-5.556776544860082,-5.155063646222479
1768620446004,124,-4,-3.583555905565794,-4.685587691618279,-4.707736209113879
1768620446008,124,-4,-3.1270578032390515,-4.551989753844728,-4.256417113097191
1768620446012,124,-4,-2.7590718737352633,-4.522516516552102,-3.8917137683258223
1768620446016,125,-3,-2.508519914967285,-3.661613306683828,-3.6426947497577022
1768620446020,125,-3,-2.344916605650029,-3.4819221320040876,-3.480009207366659
1768620446024,125,-3,-2.1842137014327707,-3.835432986971792,-3.320425672421076
1768620446028,125,-3,-1.9217039714295197,-3.379225889155974,-3.0595652314191093
1768620446032,126,-2,-1.4947609158555888,-2.7480963172880237,-2.635404960067143
1768620446036,126,-2,-0.9372596443304736,-2.3950762684989995,-2.08241414538229
1768620446040,127,-1,-0.3886477739409582,-1.7574729236272304,-1.5393036348774995
1768620446044,127,-1,-0.0494622522656287,-1.5975742749115702,-1.2045092667610315
1768620446048,127,-1,-0.0916612441248396,-1.6291151047175942,-1.2485043834600262
1768620446052,127,-1,-0.5492144078212218,-1.5348247359122995,-1.705958643809259
1768620446056,126,-2,-1.252500252191799,-2.569998817430071,-2.409171807709819
1768620446060,125,-3,-1.883766629806802,-3.606889695587749,-3.041466398097693
1768620446064,125,-3,-2.1558994863004384,-3.755038915949772,-3.3155931400795384
1768620446068,125,-3,-1.9944240923337924,-3.5131600849344826,-3.1569509322045235
1768620446072,126,-2,-1.5736644844693812,-2.657231571214552,-2.7400427273333907
1768620446076,126,-2,-1.1803203479578277,-2.41098555472209,-2.350931412242666
1768620446080,126,-2,-1.027033834503528,-2.800011990508537,-2.2005950271403085
1768620446084,126,-2,-1.1572205241595814,-2.5682259105127616,-2.3314826583324595
1768620446088,126,-2,-1.4748482414416977,-2.757765224234698,-2.648621002063196
1768620446092,125,-3,-1.835346849093499,-3.4155219417164853,-3.009417355657603
1768620446096,125,-3,-2.124267004281068,-3.6009310194694035,-3.300234837589162
1768620446100,125,-3,-2.2879735833367545,-3.659979686111556,-3.466556713542104
1768620446104,125,-3,-2.3161554805910436,-3.683425904624394,-3.4967335138031914
1768620446108,125,-3,-2.203161813981204,-3.743878945595589,-3.384743053253034
1768620446112,125,-3,-1.926120761973632,-3.3696726534501926,-3.108553763437328
1768620446116,126,-2,-1.4615003011372745,-2.6729272868387617,-2.6455308668827753
1768620446120,126,-2,-0.8306114618702516,-2.556340201356888,-2.016713649339278
1768620446124,127,-1,-0.1354011384307574,-1.8410021331064867,-1.3230195628447694
1768620446128,128,0,0.4636796180677809,-0.6235069630252092,-0.7246347264838078
1768620446132,128,0,0.835389520108563,-0.47299788211332,-0.3535852176126024
1768620446136,128,0,0.9625641129737336,-0.5822080728370256,-0.2275347805729935
1768620446140,128,0,0.9362824737571996,-0.6028369391440784,-0.2549021254612599
1768620446144,128,0,0.858000136879699,-0.8867006555184155,-0.3337252600389904
1768620446148,128,0,0.74856615841927,-0.5705969029718841,-0.4436169099990145
1768620446152,128,0,0.5541657832746412,-0.5422511469803869,-0.6391349143831193
1768620446156,127,-1,0.2314741757950371,-1.4862745791272796,-0.9633642198558314
1768620446160,127,-1,-0.1839938185222029,-1.689675789251822,-1.37974949303224
1768620446164,127,-1,-0.5903731798569658,-1.86636319647755,-1.7859520327751937
1768620446168,126,-2,-0.8911517056325302,-2.6089853515448627,-2.0861725704002834
1768620446172,126,-2,-1.0603882551301176,-2.50348885245816,-2.255627609814369
1768620446176,126,-2,-1.1536289320708473,-2.4898370454696264,-2.350316389619659
1768620446180,126,-2,-1.2643027540485945,-2.7001205532949757,-2.46282746869845
1768620446184,126,-2,-1.4661666694173323,-2.895215594582713,-2.665447137475705
1768620446188,125,-3,-1.781545609035012,-3.6223421293271616,-2.980172712866146
1768620446192,125,-3,-2.1761664964351146,-3.4839987861563064,-3.374344830614836
1768620446196,125,-3,-2.563064985694864,-3.4686708021688393,-3.76247330812799
1768620446200,124,-4,-2.8256047819533485,-4.743648396346373,-4.026581323811094
1768620446204,124,-4,-2.874397921524083,-4.8770043094750655,-4.074338016216418
1768620446208,125,-3,-2.6954359143474056,-3.6963546687982425,-3.891583763643016
1768620446212,125,-3,-2.3271878032386253,-3.388828224156049,-3.5208365776111497
1768620446216,125,-3,-1.7961042321294416,-3.536625711436191,-2.992601063434174
1768620446220,126,-2,-1.114877568674064,-2.674078692611374,-2.318614372293859
1768620446224,127,-1,-0.3666489399733676,-2.002305781508193,-1.57583515897424
1768620446228,127,-1,0.2438709940472694,-1.621298689185995,-0.9626272245440406
1768620446232,128,0,0.4936222800433363,-0.4310010199929343,-0.7017396527532624
1768620446236,128,0,0.3479394586568005,-0.4787369996567577,-0.8355730322112194
1768620446240,127,-1,0.0525087205350409,-1.7192695768719473,-1.1295368229825284
1768620446244,127,-1,-0.0533800352581812,-2.0309832262253726,-1.2499126827060911
1768620446248,127,-1,0.1197101339267021,-1.628156712229469,-1.1002401916609126
1768620446252,127,-1,0.273992047254403,-1.4102462237294926,-0.9601473601721052
1768620446256,127,-1,0.0579716500182332,-1.4306112636802275,-1.1647637583131027
1768620446260,128,0,-0.2849241484513882,-0.8158941559973751,-1.4727571649097997
1768620446264,129,1,0.4674980248943967,0.0810423995859124,-0.6857394956974417
1768620446268,132,4,4.012758289520656,3.0743182693617737,2.8670848029021756
1768620446272,136,8,11.070144258470178,8.108395433987633,9.899822109779253
1768620446276,143,15,19.877300618313452,13.884569695400703,18.669271908494917
1768620446280,153,25,26.11876797898349,25.09484569314199,24.88224830077413
1768620446284,160,32,25.046396027248367,29.91368842635426,23.799390849136635
1768620446288,142,14,14.657588637996472,14.291496540423562,13.418894386081988
1768620446292,122,-6,-2.534596153395003,-7.209182125447601,-3.745141069639793
1768620446296,104,-24,-20.700478649519795,-23.81506902202324,-21.86971520344807
1768620446300,93,-35,-33.962362489117496,-36.13500545871514,-35.09926141756702
1768620446304,89,-39,-39.2914637871624,-39.90299975945035,-40.42821037875475
1768620446308,91,-37,-37.274854804404455,-37.58542609005528,-38.44455575830234
1768620446312,96,-32,-30.828310683576692,-32.6098580754996,-32.0400907976248
1768620446316,104,-24,-23.16883180405108,-24.22849732322258,-24.40443907899609
1768620446320,112,-16,-16.366453730801705,-17.06288528435315,-17.59750564019229
1768620446324,115,-13,-11.043814400098894,-13.786278366159571,-12.2506540249841
1768620446328,119,-9,-6.963699191927169,-9.739581663686073,-8.143503306050084
1768620446332,124,-4,-3.777591857476829,-4.432055270057432,-4.942584284840196
1768620446336,127,-1,-1.3358894976933424,-1.4756195933845464,-2.504749037775122
1768620446340,128,0,0.44869035534259,-0.8886510246146996,-0.7364446843929291
1768620446344,128,0,1.7447104695620117,-0.9006553825933664,0.5457453667094148
1768620446348,129,1,2.6832725634519723,0.4035196891879367,1.4834493513733014
1768620446352,131,3,3.190586205070299,2.4179634432898975,1.999854899100521
1768620446356,131,3,3.0926477514016293,2.6295934203707914,1.9096661188041968
1768620446360,130,2,2.425196563999708,0.9467041376505466,1.242240319137992
1768620446364,128,0,1.5686112187954997,-0.68535670009195,0.3817938188240867
1768620446368,128,0,1.0174608852480287,-0.8156567484942974,-0.1701229933324586
1768620446372,128,0,1.0234152834039056,-0.353134594288314,-0.1605840509887157
1768620446376,129,1,1.4781931015721144,0.3599225605248231,0.2973907866396768
1768620446380,130,2,2.1145302535133763,1.1919005331557393,0.9325906884409636
1768620446384,130,2,2.7696708721417265,1.0963887398181609,1.5839366657816845
1768620446388,130,2,3.4391042327123067,1.3822638100531095,2.251821444446787
1768620446392,131,3,4.121179479040166,2.462793585027864,2.9365763986944216
1768620446396,132,4,4.685650968321467,3.4802768081362925,3.5047134212611266
1768620446400,133,5,4.938279957894827,4.08997126757839,3.7578060296785263
1768620446404,132,4,4.799407266880499,3.1960847941757655,3.616373294649
1768620446408,131,3,4.385686846578526,2.2835161218745945,3.201108786895148
1768620446412,131,3,3.919761951094589,2.5389372967747836,2.7371761081456376
1768620446416,131,3,3.5910960571424098,2.3753122306716117,2.4121011443846205
1768620446420,131,3,3.5024964090980664,2.1886192699777287,2.325224183904681
1768620446424,131,3,3.6933001011144286,2.148193045654114,2.5150176591375586
1768620446428,131,3,4.152764783862669,2.2779210740307207,2.9725302536036624
1768620446432,132,4,4.802572449894149,3.5630390899601876,3.621086074522239
1768620446436,133,5,5.501120448256584,4.280328605823709,4.319360098060389
1768620446440,133,5,6.097147545061398,4.319843910490401,4.915999177882211
1768620446444,134,6,6.497227649221968,5.02766641162144,5.317513451495989
1768620446448,134,6,6.703284877819884,5.374145630919251,5.525055593469607
1768620446452,134,6,6.8043159259254935,5.452689295399314,5.626463648641438
1768620446456,134,6,6.920978900440233,5.343711373624602,5.742351343500334
1768620446460,134,6,7.1227448518516665,5.295196992716175,5.943418893901431
1768620446464,135,7,7.37886281136126,6.041607193637682,6.199661102227956
1768620446468,135,7,7.601571629358819,6.376531908021892,6.422598445474354
1768620446472,135,7,7.753119727694533,6.39252450630895,6.573707095996327
1768620446476,135,7,7.90566297637993,6.40231987317635,6.725879228348369
1768620446480,135,7,8.182069322743082,6.231944837022495,7.003207749646092
1768620446484,136,8,8.638681433758922,7.116517130805363,7.4614103616747
1768620446488,137,9,9.21819666080633,8.310516904781977,8.040910748048619
1768620446492,137,9,9.813022456157212,8.409943812604581,8.633341612957478
1768620446496,137,9,10.351077110432234,8.386543054702106,9.168915229048942
1768620446500,138,10,10.817262851228945,9.227500094550436,9.63515807391894
1768620446504,139,11,11.231919462926342,10.141628915258222,10.052062087682929
1768620446508,139,11,11.647521449083332,10.276154756947886,10.46947149352354
1768620446512,139,11,12.153930172973906,10.433231046687988,10.97558679024226
1768620446516,140,12,12.840802283330964,11.328597041218451,11.660753038896647
1768620446520,141,13,13.725682150061074,12.29352952232468,12.54414120489132
1768620446524,142,14,14.71987004369872,13.07202010093932,13.537838488692604
1768620446528,143,15,15.678842486385255,14.361236399556937,14.49688834094076
1768620446532,144,16,16.50174872470363,15.325149685296449,15.31966770932873
1768620446536,144,16,17.19254032145625,15.398929046271888,16.009989599348117
1768620446540,145,17,17.82650852315477,16.234267652019323,16.643603404675403
1768620446544,146,18,18.456508139698578,17.11472691599924,17.27358387919632
1768620446548,146,18,19.05114220358697,17.358309819787348,17.86811254198471
1768620446552,147,19,19.52007566176376,18.27177761548405,18.33630718789839
1768620446556,147,19,19.7928805921145,18.477806666675292,18.607812640884937
1768620446560,147,19,19.869054806858703,18.07626172003668,18.682918170808787
1768620446564,147,19,19.79095133682722,18.357267432215796,18.604735107233093
1768620446568,147,19,19.570103092189427,18.04776213929568,18.384680066185233
1768620446572,146,18,19.139331080374017,17.629791994563405,17.954570137092922
1768620446576,146,18,18.369888784280977,17.055845126923288,17.18453330729249
1768620446580,144,16,17.130215200801445,15.503854365370564,15.94260454369856
1768620446584,143,15,15.336024780138043,13.932645570753772,14.145277604526692
1768620446588,140,12,12.965740948810437,11.469516281161008,11.77269051568574
1768620446592,137,9,10.05866943132163,8.207581022750166,8.865561345569505
1768620446596,134,6,6.732214905677292,5.43590535850115,5.540980501773671
1768620446600,131,3,3.2209478298243823,2.1420119593101217,2.03165826889312
1768620446604,127,-1,-0.1226320579091453,-1.7350757266304546,-1.3114235042818712
1768620446608,124,-4,-2.9321483504271546,-4.807898859838122,-4.121934462842418
1768620446612,122,-6,-5.003265037773823,-6.581136847383502,-6.1950375169616105
1768620446616,121,-7,-6.402622558592897,-7.738263465681754,-7.597251434887852
1768620446620,120,-8,-7.403266285756635,-8.750979262843703,-8.601113003190854
1768620446624,119,-9,-8.291036636627409,-9.761423790907129,-9.490830709982776
1768620446628,118,-10,-9.190378219597571,-10.865284800485744,-10.389453441694288
1768620446632,117,-11,-10.021220777634854,-11.459808177347965,-11.21776535626859
1768620446636,117,-11,-10.589674445246352,-11.969685805512714,-11.784599361210269
1768620446640,116,-12,-10.740226166938648,-12.440444524910053,-11.936302622498545
1768620446644,117,-11,-10.479047501482336,-12.116104176785052,-11.67828275327248
1768620446648,117,-11,-9.992826851815542,-11.479152432296724,-11.195022088449852
1768620446652,118,-10,-9.540097316018509,-10.870000118731369,-10.74371281987563
1768620446656,118,-10,-9.283228151459134,-10.613749289316274,-10.48695957298863
1768620446660,118,-10,-9.19214249138039,-10.73887108350298,-10.395475307332084
1768620446664,118,-10,-9.104297638571886,-10.888172688150163,-10.30722630916114
1768620446668,118,-10,-8.889080769318296,-10.62181800892643,-10.092094697059744
1768620446672,119,-9,-8.567137441024077,-9.828308659141411,-9.771406147730332
1768620446676,119,-9,-8.281466179027376,-9.602778873128624,-9.488218249362223
1768620446680,119,-9,-8.161124420388832,-9.796826757864434,-9.37041808063486
1768620446684,119,-9,-8.20733231374713,-9.798661547634662,-9.417785665806644
1768620446688,119,-9,-8.288178462626064,-9.729812506669576,-9.498157085147378
1768620446692,119,-9,-8.226202476701047,-9.739857420227802,-9.43506042111854
1768620446696,119,-9,-7.905397949586111,-9.694956775032937,-9.113651639716084
1768620446700,120,-8,-7.329776421334926,-8.706159307617767,-8.538605781223314
1768620446704,121,-7,-6.60807300485773,-7.880605775140037,-7.8187339777685185
1768620446708,121,-7,-5.893688225770832,-7.656948542349649,-7.106884246290057
1768620446712,122,-6,-5.334108000963297,-6.83561783140292,-6.549612155178505
1768620446716,122,-6,-5.0512853294502555,-6.606997868964784,-6.268247208685807
1768620446720,122,-6,-5.125946237062091,-6.801903089727808,-6.343545904093368
1768620446724,122,-6,-5.559368112960174,-6.77137649537124,-6.77700864427459
1768620446728,121,-7,-6.233104647753819,-7.771740083160298,-7.450103011206487
1768620446732,120,-8,-6.91726230710043,-8.754299060017367,-8.132956280983725
1768620446736,120,-8,-7.349242485351442,-8.676936338924747,-8.563882231045943
1768620446740,120,-8,-7.348372387784392,-8.754891473032792,-8.563635356053652
1768620446744,120,-8,-6.906145263949287,-8.783953235656758,-8.124222420527811
1768620446748,121,-7,-6.203062260559116,-7.774791927699723,-7.42508565573103
1768620446752,122,-6,-5.5291677381307,-6.7720562137311955,-6.754347710830809
1768620446756,122,-6,-5.134114668424862,-6.673280858291693,-6.359982060712364
1768620446760,122,-6,-5.090750352436975,-6.760729551386379,-6.314486151250106
1768620446764,122,-6,-5.260078947809819,-6.769817718422313,-6.480593249261135
1768620446768,122,-6,-5.379254966410764,-6.793010346514205,-6.5983321239123995
1768620446772,122,-6,-5.2222250783092825,-6.780991448578889,-6.443054594184544
1768620446776,122,-6,-4.746956349341494,-6.657320767296522,-5.971259294387382
1768620446780,123,-5,-4.1364359127058545,-5.795019047305686,-5.3633702918915
1768620446784,124,-4,-3.6825013607500305,-4.70171544923507,-4.910187206139295
1768620446788,124,-4,-3.576217575104431,-4.893488938998009,-4.803468354063497
1768620446792,123,-5,-3.7724228622044977,-5.685476815953185,-4.998929706926236
1768620446796,123,-5,-4.0500176940272565,-5.773886550544826,-5.275906517443642
1768620446800,123,-5,-4.209302826457709,-5.68669167439159,-5.435087664569566
1768620446804,123,-5,-4.22485548976611,-5.77642591742776,-5.451321921522552
1768620446808,123,-5,-4.229530691569218,-5.841564043352368,-5.457307774188961
1768620446812,123,-5,-4.360452109640913,-5.72672535611209,-5.589791340774535
1768620446816,123,-5,-4.606828444087947,-5.789240069386099,-5.837384354627313
1768620446820,122,-6,-4.794567271296408,-6.638513361581195,-6.024879418008319
1768620446824,122,-6,-4.727360453982007,-6.848549939765152,-5.955339432603059
1768620446828,123,-5,-4.354898986063709,-5.729435594206615,-5.580179972054951
1768620446832,124,-4,-3.80568447985761,-4.883419120792489,-5.031250306995809
1768620446836,124,-4,-3.2680672276843303,-4.632828179078014,-4.497921448438506
1768620446840,124,-4,-2.865675011213697,-4.7966387622093105,-4.100351202046022
1768620446844,124,-4,-2.64500504638781,-4.7097349901872585,-3.880451057193695
1768620446848,125,-3,-2.622583634549495,-3.8336776989504906,-3.8541526661634977
1768620446852,125,-3,-2.774668085802875,-3.836229850741555,-4.0014896809100975
1768620446856,124,-4,-2.97952786384253,-4.635843418127951,-4.2044861246125
1768620446860,124,-4,-3.039578297770785,-4.849942942949046,-4.265988532271768
1768620446864,124,-4,-2.831800918510144,-4.609228406799922,-4.061073036223188
1768620446868,125,-3,-2.4585822788683496,-3.987069027309904,-3.6904239268097254
1768620446872,125,-3,-2.229615115843868,-3.63497724875198,-3.4630031891612574
1768620446876,125,-3,-2.4536030929186343,-3.882617013142334,-3.6870861458214144
1768620446880,124,-4,-3.195646442616193,-4.585239346193491,-4.427473193315133
1768620446884,123,-5,-4.193974509214867,-5.898991064070239,-5.422819055781842
1768620446888,122,-6,-5.006406446784398,-6.713638893108925,-6.232293294131647
1768620446892,122,-6,-5.282541501634059,-6.868490725450531,-6.507029208784017
1768620446896,122,-6,-4.968080334125304,-6.696917197275382,-6.193499481042305
1768620446900,123,-5,-4.30375294052387,-5.708931941816406,-5.532058820481327
1768620446904,124,-4,-3.635418905243368,-4.854767939580141,-4.867048690740143
1768620446908,124,-4,-3.1887749053760652,-4.711252027723905,-4.421829414236934
1768620446912,124,-4,-2.97339929454478,-4.9153551034376415,-4.204254605464875
1768620446916,124,-4,-2.8530399201805468,-4.632250901559431,-4.079053922465741
1768620446920,125,-3,-2.6770072657957034,-3.774300205304699,-3.8991979174872498
1768620446924,125,-3,-2.358487962081482,-3.81557027012735,-3.580813688063633
1768620446928,125,-3,-1.8899514420655512,-3.721143366605911,-3.115386593662937
1768620446932,126,-2,-1.3444385349479102,-2.9449596328779646,-2.5722159349100195
1768620446936,126,-2,-0.8637647678284912,-2.578884304640539,-2.0908591594588235
1768620446940,127,-1,-0.5945385864758426,-1.8503375061913785,-1.8192170042289175
1768620446944,127,-1,-0.5904229154525309,-1.7371813220637389,-1.8134774511866212
1768620446948,126,-2,-0.7747720970108021,-2.787806057661567,-1.9975572214772872
1768620446952,126,-2,-1.0202410009441545,-2.93036387958796,-2.2428058726252993
1768620446956,126,-2,-1.2704663525863849,-2.535178547713542,-2.492168302507869
1768620446960,126,-2,-1.572088496170852,-2.9712936051146155,-2.7930361435491924
1768620446964,125,-3,-1.987793769628208,-3.5336782031749068,-3.2086873595753813
1768620446968,125,-3,-2.4929753144132847,-4.048772937922078,-3.713884994499595
1768620446972,124,-4,-2.9620990058298973,-4.673263585574171,-4.182206141465179
1768620446976,124,-4,-3.246292072419792,-4.774250612760762,-4.46484072763629
1768620446980,124,-4,-3.2625208209686636,-4.787924769988494,-4.479563388098898
1768620446984,124,-4,-3.0237322307693852,-4.6193795355394975,-4.2399022302540965
1768620446988,125,-3,-2.6018580168738965,-4.062569939772116,-3.8177581976914863
1768620446992,125,-3,-2.06752486670948,-3.589937309696493,-3.2833886532363348
1768620446996,126,-2,-1.4596756493800362,-2.944193250910472,-2.6752726367894812
1768620447000,126,-2,-0.8059611159409208,-2.55919375740517,-2.0207072436444764
1768620447004,127,-1,-0.1634252450648929,-1.8647226174171223,-1.3769018688983423
1768620447008,128,0,0.375698958035437,-0.8232683891495126,-0.8367737280803236
1768620447012,128,0,0.7309286375043804,-0.8182071996927084,-0.4811233504962733
1768620447016,128,0,0.8863212366032003,-0.7841572012886743,-0.3251974653209867
1768620447020,128,0,0.8912312337778565,-0.6354457973071539,-0.3187744024210157
1768620447024,128,0,0.8095952371367066,-0.8732483404561671,-0.3982839574156739
1768620447028,128,0,0.6701401242349219,-0.7239014422734937,-0.536525991611687
1768620447032,128,0,0.4567591455976705,-1.0117580904922336,-0.7505222347370613
1768620447036,127,-1,0.1308894794650841,-1.542591968284899,-1.0777528219459311
1768620447040,127,-1,-0.3412241267708398,-1.907246558648036,-1.5497587467889051
1768620447044,126,-2,-0.9636844925358335,-2.586604645470964,-2.1696644970476355
1768620447048,126,-2,-1.683420349355785,-3.0019712051108582,-2.88585383210952
1768620447052,125,-3,-2.378348479753719,-3.770746920404388,-3.578732032215121
1768620447056,124,-4,-2.898872056636386,-4.755512193064985,-4.099761422822867
1768620447060,124,-4,-3.1618637737902233,-4.741052571880092,-4.364472021757606
1768620447064,124,-4,-3.225835994823938,-4.688078262374291,-4.428931017194823
1768620447068,124,-4,-3.2631858944455145,-4.962427672824416,-4.464325765539312
1768620447072,124,-4,-3.4248871494511297,-4.761089310908047,-4.62301678961313
1768620447076,124,-4,-3.697509356710897,-4.824002988403258,-4.894313775770126
1768620447080,123,-5,-3.885055315923472,-5.648605660907666,-5.083172388243941
1768620447084,123,-5,-3.758520884268,-5.782269334415435,-4.95820639043739
1768620447088,124,-4,-3.2546288219686694,-4.8757125646157835,-4.452738579251399
1768620447092,125,-3,-2.530789270342372,-3.830881303759494,-3.723518775388315
1768620447096,126,-2,-1.8134038036687672,-2.7910520083886268,-3.0000940575831674
1768620447100,126,-2,-1.1996572140405737,-2.644409786700185,-2.3842851632867106
1768620447104,126,-2,-0.6302918343469925,-2.833840120230698,-1.819815754164354
1768620447108,127,-1,-0.0500292142416221,-1.7926699107350814,-1.2505027818058445
1768620447112,128,0,0.4704044518687691,-0.9432330085305308,-0.741189026361948
1768620447116,128,0,0.8749902285793159,-0.670526848288128,-0.3386649304007428
1768620447120,129,1,1.4812189671623388,0.2626625985365178,0.280940413346022
1768620447124,131,3,3.227397412661059,2.2060912800346824,2.0521791590395333
1768620447128,135,7,7.43253088300254,6.219714331795263,6.279831807134856
1768620447132,142,14,14.962216507425914,12.978497982074428,13.814306857817776
1768620447136,151,23,25.1683467141936,22.49652015929469,24.002945020696412
1768620447140,162,34,35.355047185922636,33.04456205926917,34.15914537022864
1768620447144,169,41,41.43537418584451,40.45542220223301,40.21212156303358
1768620447148,169,41,39.74096560096526,39.90526777025589,38.506934885752
1768620447152,157,29,29.03721008212427,28.250404320614223,27.814042161620037
1768620447156,138,10,11.445948569081484,9.20809194702447,10.25064640980122
1768620447160,118,-10,-8.393319435248497,-10.714270400786718,-9.55657225095075
1768620447164,101,-27,-25.419603713807746,-27.69867191835059,-26.562229241308447
1768620447168,91,-37,-36.21925041998264,-37.94167455752071,-37.36248209641819
1768620447172,88,-40,-39.95467701425754,-40.768664140822466,-41.117552917062625
1768620447176,90,-38,-37.913812521116114,-38.82964287859956,-39.10271750035973
1768620447180,95,-33,-32.296018241122646,-33.65627289563469,-33.50267613497851
1768620447184,102,-26,-25.11789751049639,-26.82622777063306,-26.326370751465916
1768620447188,109,-19,-17.755533266214464,-19.81423055019459,-18.952655104442268
1768620447192,116,-12,-11.047516956460168,-12.88031896369533,-12.229777472612287
1768620447196,122,-6,-5.545664506261369,-6.73804995997249,-6.718939203608848
1768620447200,126,-2,-1.5949328266449845,-2.755537204995258,-2.768476235284231
1768620447204,128,0,0.7529706268819889,-0.7709570409252914,-0.4266275122648602
1768620447208,129,1,1.783880045637953,0.1462427364124717,0.5988123330799252
1768620447212,129,1,1.9896249138193969,0.1709577961787744,0.803757927085224
1768620447216,129,1,1.83818191105424,0.214653692807426,0.6555673424257769
1768620447220,129,1,1.6259795195474651,0.3060403746963083,0.4469272334016315
1768620447224,129,1,1.498295237812884,0.1193225249305156,0.319897696830412
1768620447228,129,1,1.5525043037718254,0.2999174098409903,0.3717695637446898
1768620447232,129,1,1.874313003493532,-0.0035771060157108,0.6907754671965949
1768620447236,129,1,2.4626111574372405,0.410298496415721,1.2779243016656905
1768620447240,131,3,3.1530931195228216,2.10154268330123,1.9684594763790608
1768620447244,131,3,3.6711143813784615,2.29502092742029,2.485963193729694
1768620447248,131,3,3.802258709699397,2.1507455108769893,2.615725734360745
1768620447252,131,3,3.537299324491846,2.134484131748475,2.3501656047526875
1768620447256,130,2,3.075170010084086,1.2769146923489587,1.8894874630113527
1768620447260,130,2,2.6984250360012947,1.2180907944076336,1.5152801819715245
1768620447264,130,2,2.6226832162605307,1.1805999210625648,1.4407636081848918
1768620447268,130,2,2.907777730758081,1.2715771461812646,1.7242517325481126
1768620447272,131,3,3.4548325813029477,2.02761274589136,2.267527492077526
1768620447276,131,3,4.067464727610456,2.3802774680003336,2.8763110943508523
1768620447280,132,4,4.5440956534110235,3.083577153437004,3.35089870725044
1768620447284,132,4,4.768649320668521,3.3393279074727715,3.575784567684101
1768620447288,132,4,4.7639983203777465,3.081663075079981,3.573058944142806
1768620447292,132,4,4.679252400962981,3.2684768309722236,3.4902322717759744
1768620447296,132,4,4.710408702749527,3.0961822575183806,3.5217024891568585
1768620447300,132,4,4.990569847034473,3.3799508634609907,3.799926217648373
1768620447304,133,5,5.50693923296949,4.033468155693325,4.312911827776912
1768620447308,133,5,6.094891996381977,4.394069550223155,4.897647658472496
1768620447312,134,6,6.524623412399503,4.979267272122879,5.3253591564891485
1768620447316,134,6,6.6416575322028395,5.3541778275204495,5.4414493601123635
1768620447320,134,6,6.472954388753849,5.132260313586733,5.272551383165251
1768620447324,133,5,6.213092544431724,4.2511737299183805,5.013435413594479
1768620447328,133,5,6.091930827008372,4.210527973783136,4.893596329166488
1768620447332,134,6,6.232629121028966,5.157060053352985,5.034254589838168
1768620447336,134,6,6.611215731706052,5.1789253217437725,5.409564618234308
1768620447340,134,6,7.1163675419682715,5.308463519547958,5.90907720994285
1768620447344,135,7,7.626671493515444,6.045846574613996,6.414795593593197
1768620447348,135,7,8.05973795734267,6.452805758099792,6.847005259397185
1768620447352,136,8,8.411721439187978,6.8797019184176165,7.201231711094138
1768620447356,136,8,8.792501102081594,7.501427601658605,7.584277927729259
1768620447360,137,9,9.40617398770086,7.94659017304806,8.197746144164302
1768620447364,137,9,10.433229881607756,8.410423504596006,9.222044140900206
1768620447368,139,11,11.867516804793455,10.109615281038474,10.652386111703311
1768620447372,141,13,13.448351645686891,12.186577831233835,12.229062520312835
1768620447376,142,14,14.78145426971366,13.270782717023236,13.558171892228144
1768620447380,143,15,15.580628503857676,14.084108541305692,14.354312644002986
1768620447384,143,15,15.849662779404564,14.347458500211935,14.622561134052583
1768620447388,143,15,15.87298500834846,14.081256737547324,14.647766753585463
1768620447392,143,15,16.03535090944565,14.295345624676669,14.812991927101656
1768620447396,144,16,16.60591369314361,15.13188341133451,15.384160935466554
1768620447400,145,17,17.616571012278264,16.242932582170376,16.39093307641583
1768620447404,146,18,18.868317085609043,17.18593810100373,17.635369813146433
1768620447408,147,19,20.018699912469813,18.208627067225123,18.778872916375597
1768620447412,148,20,20.70198918600062,19.209799500225927,19.459142287791487
1768620447416,148,20,20.661773360635443,19.182537345105622,19.4199590375376
1768620447420,147,19,19.86188169170898,18.235212673418083,18.622272028410947
1768620447424,146,18,18.50706351199569,17.139580436710524,17.26765384321805
1768620447428,144,16,16.925562798656227,15.287471351994151,15.683601290921992
1768620447432,142,14,15.361053207395006,13.10068309533747,14.115485142241717
1768620447436,141,13,13.81981395020265,12.336801969817856,12.571182218612204
1768620447440,140,12,12.107706001684049,11.071980287510897,10.856278909558696
1768620447444,137,9,10.035436986968332,8.293760221017354,8.780571175755025
1768620447448,135,7,7.607600048113731,6.135404499637961,6.349233391631939
1768620447452,132,4,5.026946271464072,3.2344366937461646,3.7668009047122446
1768620447456,129,1,2.5339185686784145,0.2210370840924735,1.2741731359872157
1768620447460,128,0,0.2582368346189208,-0.80025405102146,-1.0010846307160428
1768620447464,126,-2,-1.7820239046443378,-2.834566594479689,-3.043465067634092
1768620447468,123,-5,-3.580802078221277,-5.742459014280337,-4.846802209688256
1768620447472,122,-6,-5.091835383163528,-6.891136846158232,-6.362318831092594
1768620447476,121,-7,-6.278856541352691,-7.653751463840301,-7.551881204315421
1768620447480,120,-8,-7.183698724880937,-8.919694648442725,-8.45773277548452
1768620447484,119,-9,-7.919799946369041,-9.693248228271644,-9.1949037141295
1768620447488,119,-9,-8.593330398285843,-9.902262047577048,-9.870665605521395
1768620447492,118,-10,-9.22658341764121,-10.73893427741776,-10.50711138715256
1768620447496,117,-11,-9.755510080143637,-11.799893866921671,-11.03896452015213
1768620447500,117,-11,-10.104698081869188,-11.785698508172608,-11.389890873745024
1768620447504,117,-11,-10.263594831155023,-11.774003848665888,-11.549889176643
1768620447508,117,-11,-10.28610432180998,-11.88410522899378,-11.574287984250102
1768620447512,117,-11,-10.223864667619178,-11.694051652397969,-11.51524831235129
1768620447516,117,-11,-10.076027013330538,-11.9205227753891,-11.37085557238977
1768620447520,117,-11,-9.809890173081156,-11.59767145356084,-11.107011838627995
1768620447524,118,-10,-9.420305051749922,-10.988475732099502,-10.718480251572114
1768620447528,118,-10,-8.956129300765095,-10.661698209904271,-10.255425481847007
1768620447532,119,-9,-8.48808755422009,-9.90264695136033,-9.78975427473573
1768620447536,119,-9,-8.06216044094844,-9.754619467690972,-9.367193945914096
1768620447540,119,-9,-7.692794367586911,-9.7103147054633,-9.0009403350877
1768620447544,120,-8,-7.393099351003794,-8.918117781595924,-8.703379413864402
1768620447548,120,-8,-7.191016470468396,-8.686871260505166,-8.502836487178431
1768620447552,120,-8,-7.104084577779928,-8.908408557861076,-8.417473180427693
1768620447556,120,-8,-7.104049643124953,-8.746302958274107,-8.41913440301666
1768620447560,120,-8,-7.116814802972254,-8.691547185140648,-8.433620216177157
1768620447564,120,-8,-7.0640615711183505,-8.985259730655063,-8.382870827381748
1768620447568,120,-8,-6.912701877982299,-8.538637944701446,-8.234203581320102
1768620447572,121,-7,-6.693380399031379,-8.137115577280078,-8.018024664492788
1768620447576,120,-8,-6.476292781808077,-8.45304909102814,-7.803477857857068
1768620447580,121,-7,-6.322435243567591,-8.022520608255975,-7.650805130026037
1768620447584,121,-7,-6.238188779009803,-7.64463392048108,-7.567021561959888
1768620447588,121,-7,-6.161574411330812,-7.846652456226052,-7.4915364759182275
1768620447592,121,-7,-6.003259383123048,-7.8851423421865645,-7.33558363126569
1768620447596,121,-7,-5.726950997741797,-7.629752651466135,-7.062255145714579
1768620447600,122,-6,-5.3996128825765375,-6.928917679330812,-6.737644096465556
1768620447604,122,-6,-5.150451976658906,-6.654935975683055,-6.490442166303065
1768620447608,122,-6,-5.064373818330635,-6.8842114580224445,-6.405390468255168
1768620447612,122,-6,-5.104618126836797,-6.824249117076975,-6.446080585836761
1768620447616,122,-6,-5.133353846088995,-6.692540331947857,-6.475579718037837
1768620447620,122,-6,-5.015333393121734,-6.891150675546604,-6.359320478346064
1768620447624,122,-6,-4.726566053331153,-6.648273150194322,-6.0730595079184235
1768620447628,123,-5,-4.382736335898006,-5.903809063754638,-5.73169861916324
1768620447632,123,-5,-4.155561387490179,-5.8027080575738825,-5.5064816724064976
1768620447636,123,-5,-4.136741847833648,-5.702464702530726,-5.4890167804525225
1768620447640,123,-5,-4.26472139677996,-5.919494427931875,-5.617643759308691
1768620447644,122,-6,-4.381282941386164,-6.5651254602644595,-5.734247058301454
1768620447648,123,-5,-4.365771051292131,-6.027339895411711,-5.719035664597985
1768620447652,123,-5,-4.223958464480878,-5.630847307592863,-5.578907290726781
1768620447656,123,-5,-4.061850216826745,-5.907226962573759,-5.419792207090914
1768620447660,123,-5,-3.987202224630569,-5.705125794372503,-5.347864231364555
1768620447664,123,-5,-4.02890678879716,-5.757269609411403,-5.390584686287584
1768620447668,123,-5,-4.122158409949991,-5.879478428682497,-5.483373810127748
1768620447672,123,-5,-4.151598439811295,-5.705100702120436,-5.5121893638369395
1768620447676,123,-5,-4.023123607137521,-5.903245710896673,-5.38376881436178
1768620447680,123,-5,-3.7287277533128815,-5.648732840779743,-5.090114978329864
1768620447684,124,-4,-3.3643888004606164,-4.844821992257465,-4.727251856830115
1768620447688,124,-4,-3.0825844175139983,-4.779417016956287,-4.447952160380779
1768620447692,124,-4,-3.011424786247277,-4.785907913119207,-4.379869124009547
1768620447696,124,-4,-3.199431808834445,-4.848480984650384,-4.569832793392116
1768620447700,123,-5,-3.610637340616097,-5.678219185205981,-4.980329541998776
1768620447704,123,-5,-4.140548868779347,-5.837438828929074,-5.507386642611363
1768620447708,123,-5,-4.62258254718054,-5.763521664535118,-5.986874449201653
1768620447712,122,-6,-4.8503345168382825,-6.787363082123192,-6.214447696321939
1768620447716,122,-6,-4.663870515092402,-6.875556141277437,-6.030176490315473
1768620447720,123,-5,-4.073693335802487,-5.597351558092476,-5.443169263897347
1768620447724,124,-4,-3.3097410647030303,-4.993393776380652,-4.6818572464281285
1768620447728,124,-4,-2.717302231217827,-4.512849654480792,-4.09039040863092
1768620447732,125,-3,-2.553855085547015,-4.0963411864523565,-3.925886417201462
1768620447736,124,-4,-2.829107734964569,-4.533544896678118,-4.198956238075063
1768620447740,124,-4,-3.3038704452163024,-4.960790036161784,-4.6719845838442415
1768620447744,123,-5,-3.655533203897392,-5.642860874218052,-5.023199971713159
1768620447748,123,-5,-3.6965008779464865,-5.803984928719184,-5.064664327346902
1768620447752,124,-4,-3.480314382047438,-4.848653782132954,-4.849247061187254
1768620447756,124,-4,-3.213045100576206,-4.708281268386153,-4.582662631955512
1768620447760,124,-4,-3.055976808200938,-4.8803031976204,-4.425940183639116
1768620447764,124,-4,-2.999958577914003,-4.63755922028868,-4.369618843449398
1768620447768,124,-4,-2.9135403827514312,-4.8772766272178725,-4.282235858143979
1768620447772,124,-4,-2.69910080621413,-4.703364583981267,-4.06669233996864
1768620447776,125,-3,-2.3984494045825286,-3.882966661211109,-3.7654560930587544
1768620447780,125,-3,-2.1499949554466,-3.6969510081412618,-3.5169677780646484
1768620447784,125,-3,-2.0475280588095677,-3.820312159969348,-3.414202537844298
1768620447788,125,-3,-2.042338387547111,-3.6939979410264208,-3.4076621845462216
1768620447792,125,-3,-1.9820510886426543,-3.8715068487687936,-3.345359701480387
1768620447796,125,-3,-1.748651485636426,-3.7157793605762626,-3.110775318373568
1768620447800,126,-2,-1.3720053768099878,-2.859869365633878,-2.7347795716285352
1768620447804,126,-2,-1.0237555760652834,-2.6516658387982215,-2.388006116959746
1768620447808,126,-2,-0.9000806314482412,-2.863880575642637,-2.264273486820734
1768620447812,126,-2,-1.0816719754901043,-2.6808796846422545,-2.443187547617802
1768620447816,126,-2,-1.464039856038981,-2.928338212851877,-2.821858201669148
1768620447820,125,-3,-1.8081276054084163,-3.624437022680412,-3.1636689606634634
1768620447824,125,-3,-1.8959961894188404,-3.899511326647929,-3.2512403288770586
1768620447828,125,-3,-1.6943633822607476,-3.5881292451574973,-3.049868643179531
1768620447832,126,-2,-1.3896348224166513,-2.9655274449427687,-2.7447309313020933
1768620447836,126,-2,-1.24170844858301,-2.625560589529713,-2.595904096606471
1768620447840,126,-2,-1.368496513160146,-2.939080761146295,-2.72181083750872
1768620447844,125,-3,-1.6528325394754413,-3.574412100284211,-3.0048103112504343
1768620447848,125,-3,-1.8552732520998512,-3.916546977949275,-3.204606393993046
1768620447852,125,-3,-1.8186012183114468,-3.6286922705094766,-3.1644150832015203
1768620447856,126,-2,-1.568810600580962,-2.946711080710283,-2.912005323505194
1768620447860,126,-2,-1.2386871221917954,-2.6168435917292285,-2.58124134037024
1768620447864,126,-2,-0.92533291891883,-2.880040194598874,-2.2682433479526107
1768620447868,126,-2,-0.6361381893553917,-2.6398305466985095,-1.978679398575513
1768620447872,127,-1,-0.3504759034494515,-1.8731823605492572,-1.6914482312649537
1768620447876,127,-1,-0.0976872864909115,-1.7269700760861546,-1.4364408312172092
1768620447880,127,-1,0.038924945692417,-1.778734915449126,-1.2970941278082413
1768620447884,127,-1,-0.0098957193163236,-1.7559409217770845,-1.3425882546872323
1768620447888,127,-1,-0.2224460484494943,-1.7369737140859025,-1.5521703059612904
1768620447892,127,-1,-0.4694386573487541,-1.8129986587089115,-1.797873579558442
1768620447896,126,-2,-0.5953658022569273,-2.7303065331982896,-1.9238333325470505
1768620447900,126,-2,-0.5552038688336824,-2.8049620565632747,-1.8830673413015184
1768620447904,127,-1,-0.4773755072683678,-1.6719477932470823,-1.8028780484854632
1768620447908,127,-1,-0.5574963962502497,-1.8877084388346863,-1.879697721736178
1768620447912,126,-2,-0.8613229217848353,-2.6024805516247476,-2.1804713018716924
1768620447916,126,-2,-1.237027512033971,-2.9754167138507563,-2.5535726771272724
1768620447920,125,-3,-1.439440821052593,-3.5132757606290452,-2.7536380900159183
1768620447924,126,-2,-1.3540299642569258,-2.9947610929916606,-2.6663450892340324
1768620447928,126,-2,-1.112803720533059,-2.5323459325911077,-2.423889774729555
1768620447932,126,-2,-0.9998318368588304,-2.96912851044336,-2.3099843552235058
1768620447936,126,-2,-1.225905325975798,-2.591338411563189,-2.534843431129359
1768620447940,126,-2,-1.7539713370627017,-2.8819584956268693,-3.0607651543956393
1768620447944,124,-4,-2.319287185693494,-4.668526640373292,-3.622108323062277
1768620447948,124,-4,-2.633938767253509,-4.799700124102785,-3.93092784959878
1768620447952,125,-3,-2.599512268555279,-3.746134719819322,-3.8912219281397022
1768620447956,125,-3,-2.342819550846772,-3.742518992315721,-3.6332977156150505
1768620447960,125,-3,-2.0736009525723125,-3.7712617405905866,-3.3674639889215023
1768620447964,125,-3,-1.930822055883802,-3.736213316699521,-3.228503842646603
1768620447968,125,-3,-1.9445644353925016,-3.79345141689529,-3.2405891277140055
1768620447972,125,-3,-2.080298105791953,-3.69057926725254,-3.366776969901055
1768620447976,125,-3,-2.2636798054481235,-3.8189387221541304,-3.5368263487150235
1768620447980,125,-3,-2.3625325044016066,-3.65562421827233,-3.6273550662724094
1768620447984,125,-3,-2.2015484121620563,-3.8513238248332824,-3.470223862227973
1768620447988,125,-3,-1.665642827643952,-3.732133309194188,-2.9489860772623713
1768620447992,126,-2,-0.8078899119496319,-2.6639670480307265,-2.105417498414469
1768620447996,127,-1,0.2275729488557774,-1.922786253436744,-1.069735497297886
1768620448000,129,1,1.5500204275476213,0.5764651729729078,0.272439020184708
1768620448004,133,5,3.8977203803551568,3.813992616653966,2.6502422152760063
1768620448008,135,7,8.554748174179535,6.669500875669424,7.330554189804676
1768620448012,143,15,16.503305102705976,13.89285139868702,15.282622129949967
1768620448016,153,25,27.16937316318422,24.57211398980872,25.93172339000308
1768620448020,164,36,37.73407150999237,35.114056553360676,36.46926178696373
1768620448024,172,44,43.8647471511601,43.239811836936134,42.57665089629997
1768620448028,171,43,41.76401499454802,42.28472089131178,40.467687318363986
1768620448032,158,30,30.342551901039812,29.126687411479004,29.058041818748663
1768620448036,138,10,12.048902808617092,9.407905944900806,10.79324749661019
1768620448040,118,-10,-8.22889686280782,-10.79756750171082,-9.45031783643222
1768620448044,101,-27,-25.433232184670487,-27.74298346850624,-26.63109627691013
1768620448048,91,-37,-36.329798789541165,-37.657222176092326,-37.52565923400516
1768620448052,88,-40,-40.199547533773824,-40.89385609418853,-41.41289535373294
1768620448056,89,-39,-38.235973009007616,-39.532295684784415,-39.47282062529406
1768620448060,95,-33,-32.41790137361957,-33.92178044369219,-33.669197797452156
1768620448064,102,-26,-24.658847228513515,-26.59699533965164,-25.90878782827658
1768620448068,110,-18,-16.51853473442,-18.815472686107036,-17.755587205066316
1768620448072,118,-10,-9.237174668148691,-10.70952355969284,-10.459967927213793
1768620448076,124,-4,-3.723407559168595,-4.727161271245823,-4.938389348609958
1768620448080,127,-1,-0.3857236552726675,-1.770643149646833,-1.599672993938308
1768620448084,128,0,0.9981019756388524,-0.7360604630690052,-0.2160465980716817
1768620448088,128,0,1.1520621872605954,-0.6679850051199139,-0.0585420840283972
1768620448092,128,0,0.9298791424689006,-0.832181297211878,-0.2740026781398619
1768620448096,128,0,0.9347769417892842,-0.5639376980644029,-0.264170183315509
1768620448100,129,1,1.3540757335359377,0.0218760659088139,0.1545239365068289
1768620448104,129,1,2.044063744952439,0.5256890796731581,0.8400498490031381
1768620448108,130,2,2.7374373380012726,1.0377188329023357,1.5308246058597
1768620448112,130,2,3.2290252939385957,1.5170226102935525,2.025861379332884
1768620448116,131,3,3.476805490580036,2.071671466176637,2.28175993397344
1768620448120,131,3,3.612318981898884,2.378831208720753,2.424813887289485
1768620448124,131,3,3.8542110641687266,2.1947694738347763,2.669897194740143
1768620448128,131,3,4.340228738911981,2.3458020191668796,3.1554613160570417
1768620448132,132,4,4.977467520284925,3.2770060397576017,3.7917355793254854
1768620448136,133,5,5.455039878642583,4.266657657449937,4.269797269379265
1768620448140,133,5,5.452874687385696,4.230664422608347,4.269584596555777
1768620448144,132,4,4.890130290403189,3.309239664138521,3.709925382080656
1768620448148,131,3,3.9988781799487687,2.2594455697231624,2.822922015883409
1768620448152,130,2,3.163663430523805,1.3687818882916434,1.9925025571525787
1768620448156,130,2,2.6742433094838987,1.1775996144444325,1.5067774004181376
1768620448160,130,2,2.5898507643482103,1.3527590440130766,1.4238144050934325
1768620448164,130,2,2.7852442868756886,1.1746926635869523,1.6191169157067835
1768620448168,130,2,3.0955176991376483,1.4189122852449252,1.9296347822679272
1768620448172,131,3,3.4333592832518836,2.204067462241305,2.2691531879076905
1768620448176,131,3,3.809370339320734,2.341685818017043,2.648163374520404
1768620448180,131,3,4.265554039886975,2.2256932738433575,3.1080697353389324
1768620448184,132,4,4.794150498424088,3.273046056886413,3.640181455930522
1768620448188,133,5,5.325490687459802,4.379121037872133,4.173714555247771
1768620448192,133,5,5.794671533928839,4.190009872702456,4.643688170363485
1768620448196,133,5,6.20269061052068,4.421667323800429,5.052637003754882
1768620448200,134,6,6.598883545496185,5.111698947806251,5.451332643563921
1768620448204,134,6,7.015814238810579,5.417875450462042,5.871780185827275
1768620448208,135,7,7.438570314256577,6.238350042278565,6.297257471187806
1768620448212,135,7,7.831178317811428,6.339816093072318,6.6910807440189926
1768620448216,135,7,8.173541876437774,6.283525654401643,7.034252573580991
1768620448220,136,8,8.471396742854353,7.253137559789766,7.333827766903807
1768620448224,136,8,8.750835975860529,7.283432070315648,7.615994001850115
1768620448228,136,8,9.058447912727155,7.383388426132354,7.926541825756894
1768620448232,137,9,9.46028425537412,8.216201777629074,8.330925164135447
1768620448236,137,9,10.022906747824123,8.40548325475079,8.89568747879131
1768620448240,138,10,10.780333640163487,9.13962194289253,9.654971786495093
1768620448244,139,11,11.711677227499482,10.40591237359037,10.58778251626093
1768620448248,140,12,12.750143076136824,11.27645567928033,11.627348808931712
1768620448252,141,13,13.815930219180798,12.326420486678424,12.694572241963597
1768620448256,142,14,14.845351756857887,13.32767695387273,13.726633447700875
1768620448260,143,15,15.801914787002335,14.175750631617245,14.686712241721878
1768620448264,144,16,16.678004599909936,15.427162226550958,15.5655020922899
1768620448268,145,17,17.489918368700973,16.22942870967815,16.378192599643366
1768620448272,145,17,18.25079672032635,16.412005851611532,17.13915229214302
1768620448276,146,18,18.926447402587954,17.24991409025534,17.816561469437126
1768620448280,147,19,19.424661330419365,18.223576007489225,18.318806870310393
1768620448284,147,19,19.65365464080237,18.44234227991473,18.55214304415742
1768620448288,147,19,19.595072124072527,18.16441933724901,18.495974140893946
1768620448292,146,18,19.29227279987365,17.569507832329517,18.19336197041715
1768620448296,146,18,18.743734025903414,17.012433837301593,17.644228055697596
1768620448300,145,17,17.818928143323934,16.53036812486112,16.71973036465002
1768620448304,144,16,16.31560563690766,15.10128313345712,15.218635235995272
1768620448308,141,13,14.138182205629434,12.556976524847911,13.045342536595616
1768620448312,139,11,11.447213972030012,10.17801218315939,10.359116304108156
1768620448316,136,8,8.637413259741761,7.392851474618958,7.552805976315302
1768620448320,133,5,6.130399501695834,4.162964963335154,5.047277173082808
1768620448324,131,3,4.118185474082991,2.48010079922054,3.0355177893594942
1768620448328,130,2,2.4576240652381696,1.2215161291267724,1.3756745879255483
1768620448332,128,0,0.8200285825214255,-0.4848711410088622,-0.2607356315861993
1768620448336,127,-1,-1.0126118956981252,-1.9453915413610268,-2.0920580978224312
1768620448340,124,-4,-2.9563038669153947,-4.498103002619267,-4.033789541612836
1768620448344,122,-6,-4.704267739527124,-6.866972183373515,-5.778104469000215
1768620448348,121,-7,-5.99053709096246,-7.374953342678069,-7.059363371871956
1768620448352,121,-7,-6.78446301553816,-7.892198316321953,-7.849134186224472
1768620448356,120,-8,-7.255572443558556,-8.525534048491597,-8.318839434506346
1768620448360,120,-8,-7.590321514814485,-8.898918540242448,-8.654301350841182
1768620448364,119,-9,-7.864160131719801,-9.509626530159816,-8.92845922924818
1768620448368,119,-9,-8.069345851930747,-9.650241513375857,-9.131746749436903
1768620448372,119,-9,-8.219853027705804,-9.66863971311836,-9.27844745530352
1768620448376,119,-9,-8.392719060223738,-9.668423100651973,-9.447147658130644
1768620448380,119,-9,-8.658713437417584,-9.81301391067407,-9.709666169646736
1768620448384,118,-10,-8.985681880250759,-10.546049933434698,-10.033831914838254
1768620448388,118,-10,-9.22922678347672,-10.6343292256662,-10.274969840063203
1768620448392,118,-10,-9.236897494704696,-10.642987043949043,-10.280770846156978
1768620448396,118,-10,-8.980556773723706,-10.68804631170209,-10.023264345060982
1768620448400,119,-9,-8.599680988443716,-9.792576862165612,-9.641384471640317
1768620448404,119,-9,-8.3081160440276,-9.5360713052409,-9.347774148507929
1768620448408,119,-9,-8.230530088781022,-9.67836651210408,-9.266234975909429
1768620448412,119,-9,-8.29933947850813,-9.52422312248271,-9.32976117939253
1768620448416,119,-9,-8.300208882813138,-9.858298881354733,-9.326022706299565
1768620448420,119,-9,-8.038014667911309,-9.560934869363178,-9.061727422470303
1768620448424,120,-8,-7.499899471843917,-8.79453419004193,-8.523750431955836
1768620448428,120,-8,-6.88918941624374,-8.384499170469276,-7.912921756381044
1768620448432,121,-7,-6.493374518131862,-7.80619624041388,-7.514294498562166
1768620448436,121,-7,-6.469959844719187,-7.569068618434036,-7.485481592977034
1768620448440,121,-7,-6.7081999036734175,-7.846712592342283,-7.718161599035488
1768620448444,120,-8,-6.8929247600911685,-8.502036384569946,-7.899220577496978
1768620448448,120,-8,-6.748842913565154,-8.659118090835516,-7.753246831232123
1768620448452,121,-7,-6.273709767984408,-7.517795853020647,-7.276576651517146
1768620448456,122,-6,-5.74675932153224,-6.820979666536984,-6.747451553439532
1768620448460,122,-6,-5.488471888971007,-6.6250623494678145,-6.4861651968982414
1768620448464,122,-6,-5.582607360609591,-6.661830600486036,-6.57647751016365
1768620448468,121,-7,-5.812588792203878,-7.567320563465158,-6.801867432547436
1768620448472,121,-7,-5.865452884620259,-7.517651934866498,-6.850007424400213
1768620448476,122,-6,-5.611064693089833,-6.8749734941294145,-6.591965603458523
1768620448480,122,-6,-5.204829995632971,-6.485516728922833,-6.183746215365649
1768620448484,123,-5,-4.9352661068606825,-5.846951937566855,-5.91276198065755
1768620448488,122,-6,-4.967909259377876,-6.32790356932184,-5.942455353110469
1768620448492,122,-6,-5.210889293427245,-6.801970030632723,-6.18006420403429
1768620448496,122,-6,-5.40093568010325,-6.534011999126361,-6.3637650672971136
1768620448500,122,-6,-5.321388761171652,-6.834117322108871,-6.279234366097737
1768620448504,122,-6,-4.974862420611943,-6.470220081678353,-5.930008933905927
1768620448508,123,-5,-4.583147196215975,-5.678888088007881,-5.536837293720707
1768620448512,123,-5,-4.418463856425657,-5.486703993520735,-5.370156575955724
1768620448516,123,-5,-4.5967683288271735,-5.787991834636068,-5.544713842898193
1768620448520,122,-6,-4.993231042096331,-6.61239098457819,-5.935683607885537
1768620448524,122,-6,-5.33628968741837,-6.641345828367863,-6.272625693474437
1768620448528,122,-6,-5.39017392265664,-6.513596918488901,-6.321044219779249
1768620448532,122,-6,-5.082493557479144,-6.644521926968885,-6.008898765075135
1768620448536,123,-5,-4.501553874149053,-5.594665019712493,-5.424035218946804
1768620448540,124,-4,-3.795966175947987,-4.80897345797138,-4.7147386766995005
1768620448544,124,-4,-3.0759945744595676,-4.420629397906809,-3.991273504366712
1768620448548,125,-3,-2.402256283659769,-3.729134891387333,-3.314005917361553
1768620448552,125,-3,-1.8553194264386983,-3.431127844999731,-2.7630125387766657
1768620448556,126,-2,-1.5852583272223408,-2.774620144889686,-2.4883168256899726
1768620448560,126,-2,-1.7502638771475798,-2.6304482895669623,-2.6485092624918685
1768620448564,125,-3,-2.3754417246553854,-3.563229016194751,-3.2686675856966674
1768620448568,124,-4,-3.2678375324747204,-4.604356909504548,-4.155175777682811
1768620448572,123,-5,-4.0876869590725855,-5.527918267221826,-4.968131635106868
1768620448576,123,-5,-4.534034000524225,-5.682666324157456,-5.407825857030116
1768620448580,123,-5,-4.506232537796658,-5.675977778409733,-5.375292114856023
1768620448584,123,-5,-4.134788479351032,-5.506640204888926,-5.001408125495286
1768620448588,124,-4,-3.6790921977415074,-4.65306410595669,-4.544055479813379
1768620448592,124,-4,-3.3712699470954965,-4.474862801876363,-4.232964255381856
1768620448596,124,-4,-3.302588705162628,-4.733586739591041,-4.157834596592748
1768620448600,124,-4,-3.4052032427029166,-4.59768080738432,-4.251489790082592
1768620448604,124,-4,-3.514337757738806,-4.552497883543813,-4.351895631087324
1768620448608,124,-4,-3.4610840768866784,-4.63380393300721,-4.2927731072565525
1768620448612,124,-4,-3.1575703708957685,-4.4297370058620285,-3.98635191598287
1768620448616,125,-3,-2.6494910635238034,-3.844196134140055,-3.475823944308536
1768620448620,125,-3,-2.1048847680944704,-3.3736707929162373,-2.926636280258806
1768620448624,126,-2,-1.7213576787821596,-2.8433444222343875,-2.536206566035363
1768620448628,126,-2,-1.5938905222727544,-2.263724124915662,-2.4014628865014336
1768620448632,126,-2,-1.6461407715708989,-2.841938326778184,-2.447552946842326
1768620448636,125,-3,-1.70315086643998,-3.413091777590144,-2.4990361662998883
1768620448640,126,-2,-1.655549697604548,-2.753953415056912,-2.4454772439169403
1768620448644,126,-2,-1.5584715212118168,-2.496928671041159,-2.3422348602168226
1768620448648,126,-2,-1.5642718343516069,-2.519902762958319,-2.342659016452328
1768620448652,126,-2,-1.7617052068831065,-2.6588401702294746,-2.53539292461383
1768620448656,125,-3,-2.0873748754017005,-3.5167568118335097,-2.8556054987897577
1768620448660,125,-3,-2.3874145291787734,-3.703070307339122,-3.148540866866258
1768620448664,125,-3,-2.5496745198940167,-3.465130260417886,-3.3030198075160135
1768620448668,125,-3,-2.573436980847989,-3.574527033324329,-3.320024208447666
1768620448672,125,-3,-2.5320573314070915,-3.5630760618385957,-3.273285506558391
1768620448676,125,-3,-2.49344211901919,-3.619728251751543,-3.2295270828020652
1768620448680,125,-3,-2.4790133455582706,-3.5991063503914,-3.209128072713412
1768620448684,125,-3,-2.4787001590590507,-3.5236249895804868,-3.202329445196344
1768620448688,125,-3,-2.485013351238115,-3.5236480754706885,-3.2025496927960773
1768620448692,125,-3,-2.507132957036712,-3.564511238389347,-3.218966251205535
1768620448696,125,-3,-2.5542272725568163,-3.6500969108788177,-3.2596579295693577
1768620448700,125,-3,-2.602634093014341,-3.5279461284827236,-3.300213759003754
1768620448704,125,-3,-2.574556094776762,-3.5998209400931325,-3.263696742939626
1768620448708,125,-3,-2.3567187434611747,-3.398220944488271,-3.0387116691774283
1768620448712,126,-2,-1.8689551022208089,-2.6957279095640763,-2.545929792486068
1768620448716,126,-2,-1.152629783530592,-2.493724181356229,-1.8253648289282776
1768620448720,127,-1,-0.4080908862420647,-1.6992279204493497,-1.0752743153602131
1768620448724,128,0,0.0839384425033333,-0.378610599873419,-0.5759480388613214
1768620448728,128,0,0.1349044041644425,-0.6220397169316478,-0.5173574529112164
1768620448732,127,-1,-0.2177389990715257,-1.4369323824398903,-0.8632311412058629
1768620448736,127,-1,-0.7455289696186691,-1.766803244462149,-1.3846862083898492
1768620448740,126,-2,-1.2123451548026685,-2.412922067732552,-1.8445179638799856
1768620448744,126,-2,-1.538900389618992,-2.6429759662656376,-2.163391728660874
1768620448748,126,-2,-1.8003507061440531,-2.3141231398384883,-2.417677850277052
1768620448752,126,-2,-2.077409965854942,-2.7346660781282948,-2.6889569939062747
1768620448756,125,-3,-2.3284979472944656,-3.4702099977719247,-2.9347811050668176
1768620448760,125,-3,-2.421495036532458,-3.7039372824181194,-3.0213956710410255
1768620448764,125,-3,-2.28374205356873,-3.343980199254163,-2.8760022385259956
1768620448768,126,-2,-1.9981657543001208,-2.5535759946781216,-2.583169766232129
1768620448772,126,-2,-1.7402702639821197,-2.4870024958881283,-2.31952058862958
1768620448776,126,-2,-1.6264713064343472,-2.7119114594135487,-2.2004215281701143
1768620448780,126,-2,-1.6234679129050686,-2.469474669312544,-2.1907020914465627
1768620448784,126,-2,-1.5874769173605712,-2.569111631571238,-2.1462919160754153
1768620448788,126,-2,-1.3804600901453026,-2.278527924077467,-1.930788008868664
1768620448792,127,-1,-0.9674880423153844,-1.730916135896692,-1.5110154872767732
1768620448796,127,-1,-0.4372636748583587,-1.4747945186608449,-0.975967858858324
1768620448800,128,0,0.0535206548098372,-0.7018821046094743,-0.4811836421485697
1768620448804,128,0,0.3703473400312767,-0.3368978602506322,-0.1594781955417137
1768620448808,128,0,0.4686597107088035,-0.4589409260774674,-0.0540239190572691
1768620448812,128,0,0.3992888726026951,-0.5241934483622062,-0.1139129447129705
1768620448816,128,0,0.2584725967437933,-0.6859930955440287,-0.244940209787831
1768620448820,128,0,0.1269880759893746,-0.4876015410909018,-0.3694336230510595
1768620448824,128,0,0.029451497643536,-0.5477814951728479,-0.4638271064306103
1768620448828,127,-1,-0.091298302619428,-1.1866017263806707,-0.5824730427937093
1768620448832,127,-1,-0.3780423861768374,-1.7806379125539729,-0.8642499892111508
1768620448836,127,-1,-0.9903052064449788,-1.4324093921124528,-1.4682059809949792
1768620448840,127,-1,-1.95091750736336,-1.732349344730042,-2.4201693256653467
1768620448844,124,-4,-3.0324385049323475,-4.313646643311846,-3.4946977837267847
1768620448848,123,-5,-3.8453167534164185,-5.334180552770897,-4.301101903058537
1768620448852,124,-4,-4.100113181919484,-4.654015314407037,-4.548704441614724
1768620448856,124,-4,-3.807369249498452,-4.5242292304917875,-4.249478247438482
1768620448860,125,-3,-3.231347415367954,-3.655681637198131,-3.669880905800347
1768620448864,125,-3,-2.6653634684180547,-3.3456071322228507,-3.1026172864235484
1768620448868,125,-3,-2.245320720793531,-3.285618447952202,-2.6798874228124054
1768620448872,126,-2,-1.932482085890957,-2.684885879581586,-2.3594585975432327
1768620448876,126,-2,-1.6184802028720524,-2.497316485751,-2.0330269254373885
1768620448880,127,-1,-1.227693094033723,-1.67152961232193,-1.6290689530570064
1768620448884,127,-1,-0.7547872993442222,-1.286140187759984,-1.1479471832797754
1768620448888,127,-1,-0.2652214860799473,-1.3223312891738015,-0.6589036295761606
1768620448892,128,0,0.1123915061907847,-0.643591517855838,-0.2895334363958177
1768620448896,128,0,0.2441377515830134,-0.523850856974915,-0.1668723262285484
1768620448900,128,0,0.1627227259191588,-0.663248695578549,-0.2479243512672428
1768620448904,128,0,0.3197902465335196,-0.2126833298828301,-0.0739743130053165
1768620448908,130,2,1.7305072876755645,1.589920543580808,1.366994191675574
1768620448912,134,6,5.7469440591812715,5.492614187055043,5.41322353858833
1768620448916,141,13,13.32735128238681,12.32510829168374,13.007008958114188
1768620448920,151,23,24.03147515486515,22.52054787000276,23.70125102891425
1768620448924,162,34,35.37492690489096,33.658347065600424,35.01838510099485
1768620448928,171,43,43.2369045358166,42.71040191163633,42.85309346642563
1768620448932,173,45,43.482597476651605,44.40340611307242,43.08564746240066
1768620448936,163,35,34.07577922416857,34.31316090245153,33.6878797265127
1768620448940,144,16,16.412554056409363,15.567120547757746,16.054151349148555
1768620448944,122,-6,-5.037821824562927,-6.433905550510341,-5.3575703945858715
1768620448948,102,-26,-24.630996348427384,-26.09307706122072,-24.91933939018744
1768620448952,90,-38,-37.87329828560986,-38.74196991715097,-38.150499965489814
1768620448956,85,-43,-42.91536293101215,-43.45039724603742,-43.203802643454495
1768620448960,88,-40,-40.61442213978575,-40.62096506959412,-40.92694562561192
1768620448964,95,-33,-33.4724434409537,-33.26830706978188,-33.806863033668456
1768620448968,103,-25,-24.291341158881224,-25.203229678554298,-24.633407732706853
1768620448972,112,-16,-15.279041659585443,-16.726616718877068,-15.611645229813965
1768620448976,120,-8,-7.800290196781604,-8.354330488870128,-8.11350364566613
1768620448980,126,-2,-2.4960839254758627,-2.8247563753957294,-2.7915988473009268
1768620448984,128,0,0.5579130410292978,0.0423353542653592,0.2707820674625181
1768620448988,130,2,1.7381401780802996,1.4339320292047375,1.4508017194921463
1768620448992,129,1,1.7106802081325865,0.6802882596897546,1.4206161041986662
1768620448996,129,1,1.1813293353150067,0.2563175642735016,0.8910225871469626
1768620449000,129,1,0.6645685691020647,0.583101930959733,0.3770588124311949
1768620449004,128,0,0.4009022319499709,-0.3082514800723088,0.1170329067714491
1768620449008,128,0,0.431397424980517,-0.2256219496115572,0.1501946916139529
1768620449012,129,1,0.7238241895674598,0.3911160915368201,0.4438723529864083
1768620449016,129,1,1.2437191797191702,0.5099510207668998,0.9640110913757388
1768620449020,130,2,1.940351329223076,1.3940038461257744,1.6609447350225723
1768620449024,130,2,2.695964159145551,1.890770139114382,2.4182922063169783
1768620449028,131,3,3.3227688388689254,2.591206662615142,3.0485626266894155
1768620449032,132,4,3.6541460713391127,3.606568825564934,3.383461971152041
1768620449036,132,4,3.672186945398763,3.2688836571200066,3.4029485337402856
1768620449040,131,3,3.539943208968096,2.6928131599316765,3.270022594336386
1768620449044,131,3,3.473910730360903,2.601045292920608,3.203419983791616
1768620449048,131,3,3.561186967901486,2.9002965603403483,3.2921489352882514
1768620449052,132,4,3.7059777351434535,3.3317182902100764,3.439738134642418
1768620449056,132,4,3.767062237148023,3.5250191685521286,3.502548797005291
1768620449060,132,4,3.7416086599014142,3.514615267307538,3.4765443713586976
1768620449064,131,3,3.788942324949198,2.734567561527018,3.5224872148616413
1768620449068,131,3,4.05417046559085,2.852885534194021,3.787526849967072
1768620449072,133,5,4.479321478660831,4.316111428774268,4.213526189607259
1768620449076,133,5,4.819120485745757,4.650459943403192,4.553284179167956
1768620449080,133,5,4.85997338648821,4.3364669530588085,4.592582210997786
1768620449084,132,4,4.62244320591593,4.011395806289663,4.353783489427953
1768620449088,132,4,4.354311328305032,3.5021471322604016,4.086478514694979
1768620449092,132,4,4.337647192028596,3.7356910044349654,4.072022286854826
1768620449096,133,5,4.691864774459553,4.236063699364318,4.427180816681142
1768620449100,133,5,5.321831366633892,4.8017176562621176,5.054997528739311
1768620449104,134,6,6.014238503319891,5.573249820853848,5.742882132651409
1768620449108,134,6,6.579083214091778,5.91817263138981,6.303300590504985
1768620449112,135,7,6.936566985206729,6.342311787741475,6.6586469187372845
1768620449116,135,7,7.121452628100342,6.651685206525778,6.844183598317102
1768620449120,135,7,7.238951348961969,6.439103966914802,6.963678703004109
1768620449124,135,7,7.41872582469537,6.940838764143627,7.144170661092776
1768620449128,136,8,7.78409206676513,7.575740003805663,7.50698725631108
1768620449132,136,8,8.41657296567447,7.652339110540753,8.134247191075872
1768620449136,137,9,9.30036401031482,8.430716822647737,9.013067105136612
1768620449140,138,10,10.288711269640364,9.646160670737672,9.998926644261251
1768620449144,139,11,11.165374229411553,10.802894258599826,10.874709167934157
1768620449148,140,12,11.795697175056452,11.67472259223234,11.503199849924757
1768620449152,140,12,12.238562492910187,11.584650043802098,11.942535737831072
1768620449156,140,12,12.691835056728795,11.523756794071732,12.392415999948955
1768620449160,141,13,13.30959601694602,12.57646081139126,13.008363293154511
1768620449164,142,14,14.075248690243416,13.92965726131889,13.77252754744736
1768620449168,143,15,14.85183627467241,14.511253159051034,14.545689228412314
1768620449172,143,15,15.52976294310773,14.812784410815436,15.218017101849076
1768620449176,144,16,16.10116356765002,15.275933262853384,15.78355622140905
1768620449180,144,16,16.60440581595111,15.871745034003371,16.282330915898683
1768620449184,145,17,17.036106964174145,16.672515410029842,16.711036053471112
1768620449188,145,17,17.341217955057747,16.73781940648703,17.013874451842984
1768620449192,145,17,17.48431489745352,16.686049012334703,17.154604934284684
1768620449196,146,18,17.516688284150682,17.30789685194945,17.18358704767307
1768620449200,145,17,17.556222193105032,17.0000605673318,17.218085955816537
1768620449204,145,17,17.66964949762402,16.428405121934336,17.32531583205527
1768620449208,145,17,17.744136381355837,17.136167472025928,17.39361982798377
1768620449212,146,18,17.48091599900679,17.200145060556103,17.124870667757076
1768620449216,144,16,16.559123103627044,15.872895229616818,16.198059677635968
1768620449220,143,15,14.855111640355718,14.451652568746804,14.48942093053732
1768620449224,140,12,12.532366211287211,11.961041144807671,12.16271162581096
1768620449228,137,9,9.923393763028589,8.686385543890662,9.550356727351373
1768620449232,135,7,7.3078579083432,6.5826140857248046,6.930756634389718
1768620449236,133,5,4.777234002726918,4.6160653335208774,4.393759357663977
1768620449240,130,2,2.2815535759524685,1.651124329153711,1.8895921813765664
1768620449244,127,-1,-0.2206190807799446,-1.1381765845848482,-0.6206187102381997
1768620449248,125,-3,-2.6559621344501725,-3.258293760071961,-3.061188368135274
1768620449252,123,-5,-4.841551587491039,-5.436410291147937,-5.249667339117921
1768620449256,121,-7,-6.570135692658338,-7.330427627211826,-6.981499233995494
1768620449260,120,-8,-7.715531509162515,-8.382356102312716,-8.13256539222468
1768620449264,119,-9,-8.30839453091365,-9.051599783824033,-8.733305343487498
1768620449268,119,-9,-8.542478867029732,-9.365922270087893,-8.975903575551298
1768620449272,119,-9,-8.694077927875492,-9.296681996873422,-9.135537721328683
1768620449276,119,-9,-8.987211615796834,-9.44573125453566,-9.436009205233692
1768620449280,118,-10,-9.485782944939908,-10.24249473906508,-9.941004335782448
1768620449284,117,-11,-10.085137418946188,-11.142264309097277,-10.54542817578969
1768620449288,117,-11,-10.596305236111338,-11.313194214050595,-11.060709583530947
1768620449292,117,-11,-10.844731451592702,-11.282813919874972,-11.313900668526792
1768620449296,117,-11,-10.724226764131831,-11.472316499969365,-11.200169751484664
1768620449300,117,-11,-10.218170824853198,-11.13107052488657,-10.702652742716811
1768620449304,118,-10,-9.417524356106664,-10.26153808609558,-9.91105708490893
1768620449308,119,-9,-8.519636020841892,-9.186566645785556,-9.021811439788909
1768620449312,120,-8,-7.773311956013308,-8.379485561998909,-8.283364435659571
1768620449316,120,-8,-7.379997094112931,-8.36533667282108,-7.89696969139172
1768620449320,120,-8,-7.404904101122387,-8.168440579568397,-7.92802947437736
1768620449324,120,-8,-7.746816353976742,-8.238579894413078,-8.276101906497079
1768620449328,119,-9,-8.184067001496704,-9.187059262365512,-8.720097380985157
1768620449332,119,-9,-8.481126946270548,-9.369671290367078,-9.024156385866586
1768620449336,119,-9,-8.501534557477315,-9.324569093936477,-9.051343830081082
1768620449340,119,-9,-8.254036222522341,-9.17618972693748,-8.811017194979346
1768620449344,120,-8,-7.843764906717702,-8.206128606916486,-8.409549813647176
1768620449348,120,-8,-7.384356156898857,-8.218705412073273,-7.960511209575286
1768620449352,120,-8,-6.95600768644456,-8.32333500165041,-7.542055112814864
1768620449356,121,-7,-6.623744232925302,-7.3320493532278,-7.217128548012952
1768620449360,121,-7,-6.446308834926227,-7.125261018289284,-7.044621732403877
1768620449364,121,-7,-6.427251154340506,-7.256255377591619,-7.030323218380311
1768620449368,121,-7,-6.461244026292663,-7.12294787624109,-7.071148285224029
1768620449372,121,-7,-6.36863268551098,-7.453070765152435,-6.987933171585932
1768620449376,121,-7,-6.027715688393137,-7.122578204361599,-6.657581515798266
1768620449380,122,-6,-5.497843113260928,-6.323732803965058,-6.137431730510506
1768620449384,122,-6,-5.0048896057008125,-6.0188512751336445,-5.6523668738779715
1768620449388,123,-5,-4.7693745264079785,-5.345277132863822,-5.4235453974841885
1768620449392,123,-5,-4.80907160777283,-5.24035002121631,-5.4699134948345325
1768620449396,122,-6,-4.900666599320777,-6.2730902594906315,-5.5684432604568475
1768620449400,122,-6,-4.761395640534509,-6.18381379407785,-5.436137539676933
1768620449404,123,-5,-4.3010274717757015,-5.063032178741928,-4.983455475034423
1768620449408,124,-4,-3.713285930919479,-4.366882258126763,-4.4053467334559
1768620449412,124,-4,-3.3285756451935633,-4.108571321156449,-4.03177442522103
1768620449416,124,-4,-3.3721329693346105,-4.460728510383144,-4.085406429091803
1768620449420,123,-5,-3.827609680907455,-4.908726434597172,-4.547834180307559
1768620449424,123,-5,-4.476908417715055,-5.347518485478114,-5.201830822216542
1768620449428,122,-6,-5.04371412311864,-6.06769726128427,-5.773956160217614
1768620449432,122,-6,-5.330656156989486,-6.335139284590413,-6.068748448221924
1768620449436,122,-6,-5.283170829179991,-6.276312407245458,-6.031085803224632
1768620449440,122,-6,-4.968379597780487,-5.969184568017731,-5.726192702845832
1768620449444,123,-5,-4.499529054133756,-5.373728905609984,-5.265980377841099
1768620449448,123,-5,-3.962881641784661,-4.916569614679544,-4.736655599853419
1768620449452,124,-4,-3.398294768466317,-4.546791281867429,-4.178836017123043
1768620449456,124,-4,-2.8381589238015397,-3.980185352947487,-3.625866370179311
1768620449460,125,-3,-2.3552804261682296,-3.256511875550842,-3.151228060915018
1768620449464,125,-3,-2.063384929016029,-3.0864899817322136,-2.8685172876860308
1768620449468,125,-3,-2.062282273291092,-3.126409198612338,-2.8764818449706047
1768620449472,125,-3,-2.3696961362600075,-3.3864199532141552,-3.191676929087625
1768620449476,124,-4,-2.8879980448451024,-4.0325897114970175,-3.7162988546388473
1768620449480,124,-4,-3.4280494741044887,-4.2550899042704575,-4.262136457498576
1768620449484,123,-5,-3.783836622824681,-4.994670380583072,-4.624350359101092
1768620449488,123,-5,-3.825330614731433,-5.245058117456046,-4.673643834935959
1768620449492,124,-4,-3.5568092183490716,-4.205108826385285,-4.414342767886202
1768620449496,124,-4,-3.102356519037576,-4.198822347711241,-3.9696189873176615
1768620449500,124,-4,-2.6325228468069293,-4.071308099917884,-3.5083799591705858
1768620449504,125,-3,-2.28190631202959,-3.126771235049002,-3.164220127514351
1768620449508,125,-3,-2.0967869984529326,-3.1300792367242836,-2.9842240088568817
1768620449512,125,-3,-2.031318054056345,-3.2619961332130702,-2.924504521144091
1768620449516,125,-3,-1.997153892443885,-3.1284584566501352,-2.898019489513675
1768620449520,125,-3,-1.9414905720319215,-3.113419526184559,-2.851473995360435
1768620449524,125,-3,-1.8963703882799985,-3.0495392487890043,-2.8150869045541973
1768620449528,125,-3,-1.951646015569482,-3.198163743977838,-2.8772697975710293
1768620449532,125,-3,-2.159622106306151,-3.153950987327602,-3.090684441241311
1768620449536,125,-3,-2.444113799021913,-3.215147072115081,-3.3807260301758975
1768620449540,124,-4,-2.608315500232699,-3.9957295107403894,-3.5514522533689807
1768620449544,124,-4,-2.468228893341516,-4.146230213414407,-3.418398626518117
1768620449548,125,-3,-2.011043745545668,-3.0755381253228578,-2.968319474529271
1768620449552,126,-2,-1.425865434786138,-2.24322912870666,-2.3906679590883573
1768620449556,126,-2,-0.96680615435891,-2.09968021342117,-1.939547928535139
1768620449560,126,-2,-0.7733758545195504,-2.0688807297024807,-1.753333752860301
1768620449564,126,-2,-0.8023055489201134,-2.08160270138761,-1.7877466364931662
1768620449568,126,-2,-0.9030907131292584,-2.1013174726929655,-1.8928416091134657
1768620449572,126,-2,-0.94779639252857,-2.193648965633607,-1.9423113977672488
1768620449576,126,-2,-0.9104186454700028,-2.109553351042801,-1.911199560220651
1768620449580,126,-2,-0.8552793901672682,-2.009309632614639,-1.8635817054673944
1768620449584,126,-2,-0.8633268593058514,-2.164544085725394,-1.8794298695267224
1768620449588,126,-2,-0.9590292125930492,-1.9578514072214053,-1.982113058655296
1768620449592,126,-2,-1.0919267244423103,-2.3430872670332192,-2.120190928390387
1768620449596,125,-3,-1.1812291766822631,-2.890417761089062,-2.2127732767645014
1768620449600,126,-2,-1.175046478951637,-2.209861500744095,-2.2097150494821847
1768620449604,126,-2,-1.0656694664012296,-1.9553424234568624,-2.1058966442384985
1768620449608,126,-2,-0.8653726305794487,-2.1298902218893874,-1.9139941442380553
1768620449612,126,-2,-0.6029826929670075,-2.1560319916122506,-1.659885097341373
1768620449616,126,-2,-0.3548257830712256,-2.019441313186334,-1.4167665052878218
1768620449620,127,-1,-0.236462652919112,-1.0738391836708383,-1.300684818863738
1768620449624,127,-1,-0.3084605392182318,-1.058114764006102,-1.375548089481424
1768620449628,126,-2,-0.4842296305370523,-2.0102920181202295,-1.5567127609887106
1768620449632,126,-2,-0.5731513038862248,-2.244993023281386,-1.6521962670579362
1768620449636,126,-2,-0.447721426871162,-1.8882777001900024,-1.5322612278841667
1768620449640,127,-1,-0.1630713490436994,-1.1935798104209776,-1.2516724547538192
1768620449644,127,-1,0.1030684928645708,-0.892777903467185,-0.9892701074168654
1768620449648,127,-1,0.2260444533596153,-1.1495656959416969,-0.8703884548024605
1768620449652,127,-1,0.2437009005649983,-1.101949985616023,-0.8569312271874188
1768620449656,127,-1,0.2956408370682253,-0.96368781344776,-0.8089528804198827
1768620449660,127,-1,0.4571164486900925,-1.1538630350656751,-0.6513550064662298
1768620449664,127,-1,0.6271663804927374,-0.8213956110173469,-0.485658587082362
1768620449668,128,0,0.5830830265385261,-0.2573224487445991,-0.5349529807255025
1768620449672,127,-1,0.1655599602553605,-0.9177674475478824,-0.9578458030217544
1768620449676,126,-2,-0.5661893101075008,-2.16052137471149,-1.693340749086911
1768620449680,125,-3,-1.3458242645068623,-2.919877328617821,-2.4740508853334955
1768620449684,125,-3,-1.8580042193407056,-3.0175272729609097,-2.98602496194797
1768620449688,125,-3,-1.9064457146289513,-3.0356932302341058,-3.0357936831351173
1768620449692,125,-3,-1.4862195107892724,-3.085556988823956,-2.61997691535816
1768620449696,126,-2,-0.7542414536422233,-1.9911651149527283,-1.8945738125920593
1768620449700,127,-1,0.0557169642192241,-1.0495199296995086,-1.0909748824247834
1768620449704,127,-1,0.7278027639481075,-0.8747812588794405,-0.4227965468333003
1768620449708,128,0,1.136198684727675,-0.1325514236324598,-0.0150513314573638
1768620449712,128,0,1.2787173093171484,0.0464395832414602,0.1287605835266305
1768620449716,128,0,1.268124282325521,-0.1223414800045774,0.1186390933767824
1768620449720,128,0,1.2765555806428086,0.135296231935498,0.1246076441752978
1768620449724,128,0,1.4376307158521606,-0.0606865846979778,0.2807043625118347
1768620449728,128,0,1.750225932024624,0.1215286849699086,0.5883882668098925
1768620449732,129,1,2.06249689762652,0.8103403782090072,0.8981106546447217
1768620449736,129,1,2.1796147815003915,1.136922591863523,1.0151052562540133
1768620449740,129,1,2.0283282130640607,0.9087555524191808,0.8644434411062022
1768620449744,128,0,1.7299002021828092,0.1786297191410375,0.5658047287264917
1768620449748,128,0,1.4943876931268718,-0.0622619785948801,0.3287164595456553
1768620449752,128,0,1.4180308152359251,0.0029014265929599,0.2496920993928294
1768620449756,128,0,1.3700324098903909,-0.0003851298687007,0.1986546404157309
1768620449760,128,0,1.082597867923475,0.0439250955093806,-0.0911394225766095
1768620449764,127,-1,0.3779923086440788,-0.8851497279473939,-0.7964787371799784
1768620449768,126,-2,-0.6544875529465536,-2.0225381466260135,-1.827986603144876
1768620449772,125,-3,-1.679326429373912,-2.951335921233489,-2.8511929567652223
1768620449776,124,-4,-2.3220148930118105,-4.076559989971876,-3.4930810084337054
1768620449780,124,-4,-2.4041721127560156,-3.794044139090605,-3.5761509714666504
1768620449784,125,-3,-2.0291707297243393,-3.037021597089528,-3.203347964654446
1768620449788,125,-3,-1.4664256821956825,-2.833276875145751,-2.642460186412999
1768620449792,126,-2,-0.946748579716256,-2.100999685345809,-2.122657536822388
1768620449796,126,-2,-0.5391123327515043,-1.9346164148144445,-1.7129686455576305
1768620449800,126,-2,-0.1876728034641055,-1.872741069827474,-1.3598050067806815
1768620449804,127,-1,0.1559379285023359,-0.9587483567124352,-1.017245006923435
1768620449808,127,-1,0.4367622770691665,-0.8315735350029807,-0.7397533909452574
1768620449812,127,-1,0.519625716880603,-1.1215786257455016,-0.6584810881946703
1768620449816,127,-1,0.3141049263544206,-0.8438283988628406,-0.8599604428693812
1768620449820,127,-1,-0.0914604873878123,-0.978921990262641,-1.256692054633148
1768620449824,126,-2,-0.4053450241728099,-1.788894523901832,-1.5631041931719776
1768620449828,126,-2,-0.2835825557022167,-1.9685378793782828,-1.4422585916670252
1768620449832,127,-1,0.4208083032078906,-0.9649812616337778,-0.7489306297720222
1768620449836,128,0,1.5256061940348378,0.0467970719593076,0.3413940168589104
1768620449840,129,1,2.6919313581461064,1.1365112280995646,1.5018770671223347
1768620449844,131,3,3.864992389117844,3.154606921204608,2.6862658103732677
1768620449848,133,5,5.667659869911169,5.116528228867032,4.514589549684001
1768620449852,136,8,9.318160506554172,7.959240137243327,8.191166373090683
1768620449856,142,14,15.868153747799182,14.186593680445156,14.751839462059344
1768620449860,151,23,25.075798591172205,22.988251879200376,23.948106946787572
1768620449864,160,32,34.68901053485586,32.406176517991646,33.534712603630375
1768620449868,168,40,40.878640546529134,39.85679940988968,39.69760844010016
1768620449872,168,40,39.896268369285416,40.25138370863548,38.70240442739522
1768620449876,158,30,30.117113199065574,29.864705514584813,28.93104748388226
1768620449880,139,11,13.179440874842502,11.280236219696231,12.01959059704615
1768620449884,119,-9,-6.575965507733246,-8.816766882547778,-7.701534288893095
1768620449888,102,-26,-24.033594069849705,-25.91304302213897,-25.131649933342604
1768620449892,91,-37,-35.404162698398224,-36.80185496700392,-36.49334155214697
1768620449896,88,-40,-39.35794245922904,-40.07382193530728,-40.45857159093784
1768620449900,90,-38,-36.841270137511415,-37.65834328796985,-37.96432441147914
1768620449904,97,-31,-30.0555398756538,-30.939354552098443,-31.197815953127733
1768620449908,105,-23,-21.38386399826325,-22.722323546062597,-22.53148648980929
1768620449912,113,-15,-12.772077233469195,-15.012331239768049,-13.909408776940497
1768620449916,121,-7,-5.561484760584275,-6.815254583619232,-6.680111199982388
1768620449920,127,-1,-0.4814727905218413,-0.888146572725738,-1.5836673957886864
1768620449924,129,1,2.3764201418342585,1.2596394258229413,1.2821228571402443
1768620449928,130,2,3.508408779582029,2.156828553222975,2.415369645258384
1768620449932,130,2,3.726996567782608,2.0869552159976874,2.6347785001645425
1768620449936,130,2,3.747671633053824,2.1793163111420824,2.6594294761303106
1768620449940,131,3,3.9038696274021945,3.136574171791219,2.821166303997738
1768620449944,131,3,4.168032261510623,3.2859893137557177,3.0891664673990573
1768620449948,131,3,4.386381954232538,3.1468523350569453,3.309209768194752
1768620449952,131,3,4.482628523148503,3.1376415684795056,3.407684425523067
1768620449956,131,3,4.4853575927153155,3.1364449700885886,3.4156132760483806
1768620449960,131,3,4.437895985262437,3.254127965237493,3.3759024520894663
1768620449964,131,3,4.33843178510533,3.1686775213297365,3.2841842970341357
1768620449968,131,3,4.1780850148766415,3.3364138766913207,3.12965245772913
1768620449972,131,3,4.013424148988424,2.932670863207119,2.969404784525961
1768620449976,130,2,3.9685856170272378,2.4055809824365135,2.929621443538361
1768620449980,131,3,4.145778157263153,2.9967972092486175,3.113403148306089
1768620449984,131,3,4.531674038101226,3.4920483123954886,3.5059879533237464
1768620449988,132,4,4.992680784293472,4.025434755059271,3.97198382764706
1768620449992,132,4,5.354556593492578,4.294367277289579,4.337611909811896
1768620449996,132,4,5.487670008880378,4.045682285610565,4.475673071399809
1768620450000,132,4,2.6468296675314886,12.802674375541754,12.794105026785347
1768620450004,132,4,2.6265396969679498,12.779909482018702,12.766330386775769
1768620450008,132,4,2.612453643782261,12.846526651356385,12.745251167512624
