timestamp_ms,ecg_u8_raw,ecg_counts_raw_int,ecg_counts_filt_monitor,ecg_counts_filt_diagnostic,ecg_counts_filt_st
1769251162248,122,-6,-5.104684920726863,-3.6173197635061776,-4.847425199311976
1769251162252,125,-3,-1.8015516788747936,-0.5771753928264651,-1.5411403738047822
1769251162256,131,3,4.557993959811198,5.385568711104023,4.808692217148704
1769251162260,140,12,14.686389369602534,14.40976868005212,14.901401404451994
1769251162264,151,23,27.471077098767935,25.673756280499543,27.62852838720215
1769251162268,165,37,39.50971021073038,39.32249756103797,39.604072551077024
1769251162272,174,46,46.19590975994152,48.50541488755473,46.23840000303353
1769251162276,172,44,44.06744178052966,46.225276301157265,44.07892506915025
1769251162280,159,31,32.95540095270403,33.54153098132947,32.957802054089676
1769251162284,141,13,16.362332781633995,15.478974583931622,16.369580784768647
1769251162288,124,-4,-0.292226847857135,-1.4966306320799054,-0.2823596240669683
1769251162292,113,-15,-12.391448988250996,-12.583323999933564,-12.398473747621818
1769251162296,108,-20,-18.064286240078445,-17.62732594712616,-18.11490039307205
1769251162300,108,-20,-18.335729449526617,-17.541818307307448,-18.44799205518415
1769251162304,111,-17,-15.768718224937116,-14.490778750714442,-15.94181766637856
1769251162308,113,-15,-12.75154113863189,-12.592549720380918,-12.967857826733685
1769251162312,114,-14,-10.517731087649125,-11.51081022543306,-10.754913731251504
1769251162316,116,-12,-9.209837866552071,-9.679883323177377,-9.45486234257598
1769251162320,117,-11,-8.507965524100001,-8.474106499703305,-8.764273754101792
1769251162324,118,-10,-8.139556730771721,-7.587562271120744,-8.422459030803394
1769251162328,118,-10,-7.9814153053929635,-7.516585785254026,-8.305356522605674
1769251162332,117,-11,-7.941353485632001,-8.616032697136122,-8.309609095736505
1769251162336,117,-11,-7.904399718789593,-8.530932152902809,-8.309640596316553
1769251162340,118,-10,-7.792512331942772,-7.624987181683474,-8.226065206451466
1769251162344,118,-10,-7.601131166693465,-7.441495824485459,-8.060723594518205
1769251162348,118,-10,-7.345572104722838,-7.692121358981019,-7.834859947162664
1769251162352,118,-10,-7.000795434666052,-7.451499983277902,-7.523755734482633
1769251162356,119,-9,-6.520546097737616,-6.689599927157461,-7.0777991441221015
1769251162360,119,-9,-5.906638986022724,-6.446392905405514,-6.496444518277864
1769251162364,120,-8,-5.23754199856136,-5.6427393173867575,-5.858859932838105
1769251162368,121,-7,-4.617569616865794,-4.494265833501767,-5.271403879967403
1769251162372,121,-7,-4.09934494736342,-4.685046879269931,-4.787166297098546
1769251162376,121,-7,-3.6620102720095695,-4.437564183704001,-4.383551615988077
1769251162380,122,-6,-3.259897527810714,-3.689095355585896,-4.013364509624685
1769251162384,122,-6,-2.8702412066499905,-3.424250874154412,-3.6547668291476274
1769251162388,123,-5,-2.478863347045742,-2.704480588784615,-3.295903465359542
1769251162392,123,-5,-2.0382942310440786,-2.517686128952011,-2.88996528192702
1769251162396,123,-5,-1.4796645227261094,-2.570550228900836,-2.3661744842946155
1769251162400,124,-4,-0.7857704397154764,-1.5842452720596794,-1.705467785615809
1769251162404,125,-3,-0.0339520152586483,-0.5008515370016702,-0.9859306224685702
1769251162408,126,-2,0.6617314551338433,0.3161941563413268,-0.3237498341737272
1769251162412,126,-2,1.251411311211375,0.4949799083591051,0.2309357228734496
1769251162416,126,-2,1.7743248803721356,0.3806926528736452,0.7193145832606755
1769251162420,127,-1,2.287020598941573,1.4732986149115583,1.1990815832002673
1769251162424,128,0,2.7966604197116824,2.452060023476052,1.6760785732240773
1769251162428,128,0,3.277146530079677,2.307242890504645,2.1225586886511003
1769251162432,128,0,3.724392737819919,2.5723496801655577,2.534794586563179
1769251162436,129,1,4.169480050291766,3.211057809226138,2.9453131758330224
1769251162440,129,1,4.64526233675778,3.711236174298594,3.3872488052244356
1769251162444,130,2,5.160193592863065,4.151537131390885,3.868049262810725
1769251162448,130,2,5.705561029309152,4.639174018125995,4.378462112852009
1769251162452,131,3,6.27535542785475,5.228337575181804,4.913285470763871
1769251162456,131,3,6.8749708279237245,5.522054814496261,5.4789548581652845
1769251162460,132,4,7.519444101206111,6.429317456099104,6.090306489971457
1769251162464,133,5,8.228590569185066,7.383251538485139,6.765901765685401
1769251162468,133,5,9.00874655796406,7.455426312633158,7.511296295823065
1769251162472,134,6,9.811297189745623,8.360242053624948,8.278282706564017
1769251162476,135,7,10.49713651970302,9.410511519518836,8.9285868087272
1769251162480,135,7,10.857883193260344,9.506470274502998,9.254280522636044
1769251162484,135,7,10.700380168739686,9.313953484794576,9.062205032041748
1769251162488,134,6,9.939490358487683,8.529659410619411,8.266872143371195
1769251162492,133,5,8.636600523236734,7.249887921316331,6.929257208470116
1769251162496,131,3,6.962808645343153,5.53604598850327,5.220667677267741
1769251162500,129,1,5.114396297689042,3.341863698640008,3.338240921264676
1769251162504,127,-1,3.241358375655774,1.5090918913953255,1.4321449118466698
1769251162508,126,-2,1.4425719203496954,0.3121629127976373,-0.4001167208308906
1769251162512,124,-4,-0.1860914355769485,-1.5232509376156012,-2.06411433192938
1769251162516,122,-6,-1.5333307672338563,-3.7234037903156487,-3.448045887508173
1769251162520,121,-7,-2.532398495631514,-4.394201406525254,-4.483278602393249
1769251162524,121,-7,-3.230553837665968,-4.762100779129648,-5.21611545987001
1769251162528,120,-8,-3.7592879062190656,-5.428062944785278,-5.778677595234382
1769251162532,120,-8,-4.206614409580819,-5.752934183557648,-6.259749548998777
1769251162536,119,-9,-4.514841173693206,-6.568664351223673,-6.601638854701996
1769251162540,119,-9,-4.510052190707559,-6.497048154746903,-6.630367317241413
1769251162544,120,-8,-4.0424160746169475,-5.741449747695593,-6.196649213704824
1769251162548,120,-8,-3.120571721235726,-5.36087996450211,-5.309758026278345
1769251162552,122,-6,-1.9353124502278056,-3.899860910644094,-4.160419325616729
1769251162556,123,-5,-0.755793990173718,-2.366368463658789,-3.01687081220628
1769251162560,124,-4,0.2227285421931725,-1.7854885103947051,-2.073019861781593
1769251162564,124,-4,0.9638260199466246,-1.4205789631850665,-1.3645688014330926
1769251162568,125,-3,1.5538854081683735,-0.6895752867673322,-0.8061915155801076
1769251162572,126,-2,2.0972599620002637,0.4019984470631592,-0.2957757617465568
1769251162576,126,-2,2.630182191525946,0.3755745609492167,0.2020151547391639
1769251162580,126,-2,3.0938612047812017,0.3737697788510452,0.6300020127860213
1769251162584,127,-1,3.366819159686276,1.500859657787414,0.8687585454012652
1769251162588,127,-1,3.344432919233541,1.3072910473993358,0.8137466015624844
1769251162592,126,-2,3.019924423902024,0.4578978109666911,0.4566451947689702
1769251162596,126,-2,2.4938739875419564,0.2885246448247502,-0.1030566927759055
1769251162600,125,-3,1.890164898736346,-0.5792542600812451,-0.7410056811060737
1769251162604,124,-4,1.2509024387291432,-1.5092121196029673,-1.413883060867536
1769251162608,124,-4,0.5154671367483834,-1.7461870892516536,-2.1819029669545325
1769251162612,123,-5,-0.3851389654386641,-2.4065242721612927,-3.114757969005745
1769251162616,122,-6,-1.4090994950586957,-3.9456931018685673,-4.171146435231199
1769251162620,120,-8,-2.394145397890606,-5.291054993376257,-5.188455593917975
1769251162624,120,-8,-3.1862793554732054,-5.874181435281288,-6.012652790198031
1769251162628,119,-9,-3.782088683823078,-6.342830754172215,-6.641515941855382
1769251162632,119,-9,-4.337341957679137,-6.803956495132155,-7.231754263500791
1769251162636,118,-10,-5.029707530625968,-7.585468377671058,-7.959383139434111
1769251162640,117,-11,-5.902462628955804,-8.630404937292543,-8.863691746516462
1769251162644,116,-12,-6.821834165906359,-9.62373624279468,-9.808452613249068
1769251162648,115,-13,-7.569388144909546,-10.520994919104112,-10.57861845434243
1769251162652,115,-13,-7.980428047820039,-10.683895414218512,-11.018382897197863
1769251162656,115,-13,-8.020997700028019,-10.642905186301109,-11.101005099901275
1769251162660,115,-13,-7.7585207335410145,-10.662062439298015,-10.890264550887425
1769251162664,115,-13,-7.238212118906589,-10.556523748809482,-10.41559302786741
1769251162668,116,-12,-6.284233752534397,-9.651775705189364,-9.484922554012176
1769251162672,119,-9,-4.277598531658852,-6.484873463201058,-7.478742500552364
1769251162676,124,-4,-0.1063908971996996,-1.8934568906380995,-3.3044217824615165
1769251162680,130,2,7.394799562007192,4.6168897584530395,4.1789336747135
1769251162684,140,12,18.419226887509858,14.11332670364243,15.1551102998155
1769251162688,151,23,31.10794252415649,25.689674626516688,27.777108507100955
1769251162692,164,36,41.45142293740916,38.17250702998645,38.05700492368135
1769251162696,170,42,44.8377570604857,44.43402608806565,41.398805507157576
1769251162700,163,35,38.633738012951376,37.26225572646619,35.174139515428884
1769251162704,146,18,24.06345606449145,20.351239448054784,20.603013949189307
1769251162708,127,-1,5.8916348651167265,1.4352366816087154,2.4387619356357084
1769251162712,111,-17,-10.00935633951068,-14.607495346425694,-13.462935181518624
1769251162716,102,-26,-19.583522592438168,-23.64838108425572,-23.060675573997447
1769251162720,101,-27,-22.146171172759495,-24.581679913297386,-25.672591429640505
1769251162724,104,-24,-19.84079288392153,-21.80681835431475,-23.430012744120916
1769251162728,107,-21,-15.751560851322797,-18.486398911699904,-19.396884570067513
1769251162732,110,-18,-12.13780250680372,-15.762958831893704,-15.816786919036629
1769251162736,111,-17,-9.808083348946973,-14.500081216742544,-13.49701137051208
1769251162740,113,-15,-8.582781472074052,-12.686535833826063,-12.27177558210381
1769251162744,115,-13,-8.052994886639205,-10.72291939253313,-11.75094189696524
1769251162748,115,-13,-7.95000703573899,-10.604620584463266,-11.675176958985666
1769251162752,114,-14,-8.077157775307041,-11.701882195748087,-11.841475522002922
1769251162756,113,-15,-8.184786861447716,-12.5380309581599,-11.985955281637686
1769251162760,114,-14,-8.038142989555624,-11.637381696396016,-11.86570137849313
1769251162764,115,-13,-7.571054162755181,-10.753624011063309,-11.418033953160764
1769251162768,115,-13,-6.9144359851412025,-10.624364558889072,-10.782229017071048
1769251162772,116,-12,-6.272914111018665,-9.706250449833512,-10.16654686397384
1769251162776,116,-12,-5.787155629441913,-9.548446813141982,-9.708348416383023
1769251162780,116,-12,-5.487816851703323,-9.611894206595757,-9.43340752484591
1769251162784,117,-11,-5.321859131829176,-8.778431873428522,-9.287891593165158
1769251162788,117,-11,-5.181897124653534,-8.62408193298939,-9.167773257043564
1769251162792,117,-11,-4.927706068327083,-8.75741745821011,-8.935866042238315
1769251162796,117,-11,-4.443437154361881,-8.471944329433411,-8.475871596010027
1769251162800,118,-10,-3.7271692815055726,-7.718862020177274,-7.78336917657821
1769251162804,119,-9,-2.926064034951918,-6.627219902293349,-7.00429155549593
1769251162808,120,-8,-2.2491245028339595,-5.840351767913855,-6.348530510570487
1769251162812,120,-8,-1.814171801329004,-5.542964941252715,-5.934895386686246
1769251162816,120,-8,-1.5680339772760283,-5.719816243399847,-5.709663844639431
1769251162820,120,-8,-1.3521110656495428,-5.457386656915648,-5.5130592175039235
1769251162824,121,-7,-1.0404877385505356,-4.88902277781153,-5.219359018727184
1769251162828,121,-7,-0.6160875212647523,-4.604987592478649,-4.813327326783995
1769251162832,122,-6,-0.1319944569786285,-3.792739922132287,-4.3495300907620065
1769251162836,122,-6,0.370576417853083,-3.494922531861919,-3.868319053416295
1769251162840,122,-6,0.8864536521243882,-3.672734552023509,-3.372326257648553
1769251162844,123,-5,1.4022322754897902,-2.6908578102373184,-2.873682336616385
1769251162848,124,-4,1.8682403574406057,-1.803982772269929,-2.4235724982889253
1769251162852,124,-4,2.244048253822106,-1.6435350876116148,-2.06457297632679
1769251162856,124,-4,2.5605759744623864,-1.620212968040728,-1.7656789499674548
1769251162860,124,-4,2.9072669763708276,-1.5891474971786792,-1.435720178033939
1769251162864,125,-3,3.3519305490503406,-0.7544491147858134,-1.0064721216590595
1769251162868,126,-2,3.8888063150842926,0.2233776712385098,-0.4851732170235414
1769251162872,126,-2,4.463565371330935,0.3228290769449558,0.0730983408611698
1769251162876,126,-2,5.024015663318905,0.4043048264448927,0.6175396143435421
1769251162880,127,-1,5.53999650453852,1.364734987267044,1.1193802491763734
1769251162884,128,0,6.0051609322121,2.2912807714820436,1.5715804053553777
1769251162888,128,0,6.445247945147824,2.14617778288274,1.9983889562128625
1769251162892,128,0,6.907458646740568,2.4105972736084995,2.4470093603741603
1769251162896,129,1,7.408275462282393,3.279985665613526,2.935066624966574
1769251162900,129,1,7.883323012222648,3.496129195413544,3.3983719837793656
1769251162904,130,2,8.200831583801605,4.120047299211205,3.7039533433230094
1769251162908,130,2,8.230469340196308,4.343928211817315,3.720745728332432
1769251162912,129,1,7.894905418999309,3.157359627975557,3.372470348967993
1769251162916,128,0,7.161758541340475,2.552579981871119,2.6282708930730827
1769251162920,128,0,6.019911455825099,2.175224938797312,1.4770530203288326
1769251162924,126,-2,4.500990241871211,0.444652222995014,-0.0506473324711769
1769251162928,124,-4,2.724912251211906,-1.9771299153543904,-1.8353877656698296
1769251162932,122,-6,0.8958551143098699,-3.562703956870056,-3.672836513540569
1769251162936,121,-7,-0.7679785556211183,-4.709101354188963,-5.345131987973901
1769251162940,119,-9,-2.115401467104807,-6.633403666324345,-6.701572098057683
1769251162944,118,-10,-3.1022719774187264,-7.688583002833511,-7.6974400640161456
1769251162948,118,-10,-3.7756367161918334,-7.901403045574472,-8.378489272428737
1769251162952,117,-11,-4.209801807435709,-8.616581964505034,-8.818542462036687
1769251162956,117,-11,-4.430285036887126,-8.70853383501374,-9.04394848269174
1769251162960,117,-11,-4.387289630056411,-8.637244322765367,-9.006046442550076
1769251162964,117,-11,-4.013634024246173,-8.690667502604475,-8.638050770792775
1769251162968,118,-10,-3.3240460630019526,-7.913611999876395,-7.954381384935793
1769251162972,119,-9,-2.458646531696878,-6.608250525549764,-7.094643170232765
1769251162976,120,-8,-1.6143758103096435,-5.756563869451334,-6.255049395008323
1769251162980,120,-8,-0.9162570110893502,-5.594500847132641,-5.559793122884939
1769251162984,121,-7,-0.3397608696804232,-4.745444397144917,-4.984384719650029
1769251162988,122,-6,0.2536442607218499,-3.875814589167252,-4.391698590022656
1769251162992,122,-6,0.9958469490603968,-3.653209524036485,-3.6513383809479016
1769251162996,123,-5,1.8872252828721257,-2.7416330911029236,-2.7629911652992707
1769251163000,124,-4,2.75510426821454,-1.6118638621178558,-1.8981705802581883
1769251163004,125,-3,3.3398054267746264,-0.7484183059058451,-1.3153161525293773
1769251163008,125,-3,3.4566894992930663,-0.8776617392532966,-1.1983681064145024
1769251163012,124,-4,3.109220718087083,-1.6752861864955548,-1.5440024583518537
1769251163016,124,-4,2.467004239289799,-1.7459125657571302,-2.1837637532817284
1769251163020,123,-5,1.7381160939459268,-2.617282460395485,-2.910903152469266
1769251163024,122,-6,1.0383483239760862,-3.755152985356135,-3.609727158125432
1769251163028,122,-6,0.3459245224908402,-3.872518432261886,-4.300832406866486
1769251163032,121,-7,-0.4343459737560752,-4.691602819519668,-5.078451559237008
1769251163036,120,-8,-1.351617755389803,-5.782067362919326,-5.992013749116863
1769251163040,119,-9,-2.337525816659179,-6.557098244735007,-6.974001437173397
1769251163044,118,-10,-3.252744947996725,-7.870253406777877,-7.885270699681632
1769251163048,117,-11,-4.01540229349681,-8.725032103325676,-8.64330838210154
1769251163052,117,-11,-4.6892751050168275,-8.881462205500757,-9.311483519084604
1769251163056,116,-12,-5.436354771363835,-9.608215181578554,-10.052401785328568
1769251163060,115,-13,-6.366201379937212,-10.740052961316657,-10.976709527981257
1769251163064,114,-14,-7.419511599147233,-11.714046597289125,-12.02529585111846
1769251163068,113,-15,-8.39510344406116,-12.876637253842675,-12.995403764637851
1769251163072,112,-16,-9.096263658389672,-13.768774863548202,-13.68770107071074
1769251163076,112,-16,-9.464379357674522,-13.72213162466549,-14.042372341983423
1769251163080,112,-16,-9.585216956282274,-13.646809803650688,-14.147877097421745
1769251163084,112,-16,-9.579379886842863,-13.81518791723492,-14.13106201428428
1769251163088,112,-16,-9.497622639033985,-13.786796387053966,-14.048015582650727
1769251163092,112,-16,-9.31396617562601,-13.89176623590819,-13.871046468459769
1769251163096,112,-16,-8.966738846081931,-13.623494519125506,-13.527564494937126
1769251163100,113,-15,-8.298321649848655,-12.735315359152152,-12.846183849857551
1769251163104,115,-13,-6.832905543578432,-10.772193667224588,-11.346585036243624
1769251163108,119,-9,-3.5871086593157973,-6.777804890130946,-8.057220345370585
1769251163112,125,-3,2.6960370565942604,-1.000815312248128,-1.7423768293926516
1769251163116,133,5,12.663830041583196,7.553087952281292,8.2311284371426
1769251163120,145,17,25.186334162962076,18.999513751317767,20.737142413007057
1769251163124,157,29,36.86292295124054,31.55848142723957,32.39212617300729
1769251163128,167,39,43.054097850153994,40.813949570990985,38.574133247161754
1769251163132,164,36,40.23715186952581,38.40538776178014,35.7703590522317
1769251163136,150,22,28.24310500041589,24.03802238241458,23.812871334501427
1769251163140,131,3,10.722227930006104,5.4684344077411575,6.343767931151628
1769251163144,114,-14,-6.619271809837727,-11.93818384921374,-10.947509090682807
1769251163148,102,-26,-18.863341241598462,-23.644203173689917,-23.160909224599113
1769251163152,98,-30,-23.993045002141383,-28.014107457874868,-28.286915313386817
1769251163156,99,-29,-23.1449776662284,-26.559097310810692,-27.45341268878927
1769251163160,104,-24,-19.20409936941642,-21.946166003701467,-23.52650597530271
1769251163164,107,-21,-14.919579192811971,-18.65134050667158,-19.23815375594736
1769251163168,109,-19,-11.75475758755046,-16.93610795829484,-16.0455952669232
1769251163172,111,-17,-9.898197344613823,-14.73717564706239,-14.145350622839016
1769251163176,113,-15,-8.955260732634164,-12.814524289309768,-13.159642632823722
1769251163180,114,-14,-8.541757969417603,-11.758528424450605,-12.718409573717702
1769251163184,114,-14,-8.421262707959848,-11.85096553487072,-12.586329303485062
1769251163188,113,-15,-8.392706242421049,-12.785668111749333,-12.550838988897562
1769251163192,113,-15,-8.263654139050372,-12.848156986126238,-12.406797692219412
1769251163196,114,-14,-7.955607133592778,-11.725751265812338,-12.07295769834054
1769251163200,115,-13,-7.548126617302083,-10.865006955394566,-11.636075358221031
1769251163204,115,-13,-7.163944574261802,-10.783562460686404,-11.226408413093637
1769251163208,115,-13,-6.82970763261011,-10.872434568679346,-10.870910157967772
1769251163212,115,-13,-6.477138471194749,-10.765010318773951,-10.496425824060678
1769251163216,116,-12,-6.057551555886522,-9.82706923258884,-10.05129736845415
1769251163220,117,-11,-5.606229317119363,-8.773486557950715,-9.572632418807956
1769251163224,117,-11,-5.182721894358843,-8.915164979299998,-9.123069183832044
1769251163228,117,-11,-4.783410557741417,-8.74652634467008,-8.699256389299379
1769251163232,118,-10,-4.344839183459408,-7.915955305357716,-8.235515143534379
1769251163236,118,-10,-3.826835745946595,-7.688649791101127,-7.69015210017305
1769251163240,119,-9,-3.266887729179691,-6.926441353106786,-7.10153857406472
1769251163244,120,-8,-2.739971818587609,-5.789802728403314,-6.546498221599003
1769251163248,120,-8,-2.273690626756486,-5.874236977703898,-6.052968200139679
1769251163252,120,-8,-1.820619825934272,-5.843389378228617,-5.5720578454458085
1769251163256,121,-7,-1.3176218278562026,-4.725915957129917,-5.039572643114591
1769251163260,122,-6,-0.7559372341158346,-3.978662383428206,-4.44755138485351
1769251163264,122,-6,-0.1833329393938672,-3.6699067798997063,-3.845085324129024
1769251163268,123,-5,0.3487323868629712,-3.0938206180915624,-3.283627965156265
1769251163272,123,-5,0.8262444628257364,-2.5721605391105475,-2.776101752898473
1769251163276,124,-4,1.270343552114324,-2.0891790258915384,-2.3007229594081973
1769251163280,124,-4,1.711301567951561,-1.57519215437934,-1.827626793397327
1769251163284,125,-3,2.167614617109394,-1.1283192320975273,-1.3390694400051866
1769251163288,125,-3,2.6405196073678106,-0.6223559580492748,-0.8341152588920551
1769251163292,126,-2,3.1198210671345574,-0.0880005917898629,-0.3227230247831154
1769251163296,126,-2,3.5937772483903956,0.4103567067573248,0.1837758035785288
1769251163300,127,-1,4.05690306521255,0.9060587150500324,0.6801797160067626
1769251163304,127,-1,4.511843361480017,1.3795915597173152,1.1691660783227975
1769251163308,128,0,4.9659145334798085,1.8514582724468087,1.6577837056260716
1769251163312,128,0,5.426724062504082,2.4101322941990952,2.1531828009745557
1769251163316,129,1,5.899539344847186,2.89268564374501,2.660375597105779
1769251163320,129,1,6.383794271296099,3.3951387177780674,3.179130637853638
1769251163324,130,2,6.866300826801289,3.8997031419560786,3.696996338587849
1769251163328,130,2,7.316883245666496,4.283451605104194,4.184142804012732
1769251163332,131,3,7.695417398290058,4.9838924976328505,4.599898477620723
1769251163336,131,3,7.9651386562632895,5.261920269646095,4.906584923796405
1769251163340,131,3,8.090827872141688,5.036991563583573,5.068616389712108
1769251163344,131,3,8.014578784786012,5.220907870982056,5.028416239508151
1769251163348,131,3,7.63988365309631,4.9639891094787,4.690033805466788
1769251163352,130,2,6.86223582516782,4.249500804374403,3.949561770914391
1769251163356,129,1,5.639550147782709,3.0072267834556454,2.7654959148642884
1769251163360,127,-1,4.05073735294747,1.232240456410303,1.2167620802332904
1769251163364,126,-2,2.2948643500389183,0.0530651148888212,-0.4985134425102422
1769251163368,124,-4,0.6214867276690108,-1.9276313339641729,-2.132029266611008
1769251163372,122,-6,-0.7760473468719393,-3.848445901821932,-3.4910549770360184
1769251163376,122,-6,-1.83875336002372,-3.943601601801583,-4.516299450100814
1769251163380,121,-7,-2.62963013120323,-4.804153799789876,-5.269535118482084
1769251163384,120,-8,-3.2360745967934994,-5.96307092896704,-5.836318330791247
1769251163388,120,-8,-3.665496966929468,-5.886723448973705,-6.223050639695721
1769251163392,120,-8,-3.811626592682545,-5.967156796858665,-6.324816635147463
1769251163396,120,-8,-3.5134119738824205,-5.807091175017351,-5.983516462961686
1769251163400,121,-7,-2.678214558234793,-4.984899988656238,-5.108309519510261
1769251163404,122,-6,-1.4010165454339751,-3.775344426850795,-3.7931377410300295
1769251163408,124,-4,0.0132417775085496,-2.110489308184217,-2.340162551579976
1769251163412,125,-3,1.1779564357403962,-0.7635531661613788,-1.1339674712990946
1769251163416,126,-2,1.8462048660202977,-0.0426846986830331,-0.4216195209275872
1769251163420,126,-2,2.068771053880348,0.2283684652311666,-0.1539209693149952
1769251163424,126,-2,2.150557036764111,0.0089346977587942,-0.0273258411019319
1769251163428,126,-2,2.415156809672334,0.0496706190059801,0.2813080003468444
1769251163432,127,-1,2.9527722812833943,1.0969338853934651,0.8619854289639526
1769251163436,128,0,3.5534471151109694,2.029985601500787,1.504419382054902
1769251163440,128,0,3.871704292220884,2.189693508000608,1.8634383799538872
1769251163444,128,0,3.671449525908944,1.986655601344496,1.7045229246578324
1769251163448,127,-1,2.952212862771217,1.0669309312777222,1.0291251707049331
1769251163452,126,-2,1.8905085490387743,0.0222225403667932,0.0142242707052533
1769251163456,125,-3,0.6944510490865421,-0.8874277229856102,-1.1337998325622525
1769251163460,124,-4,-0.4891094197404371,-1.924060502024937,-2.270739536711898
1769251163464,123,-5,-1.5703486519450078,-2.886233630797644,-3.3080522287665453
1769251163468,122,-6,-2.481856507821612,-4.122877797020951,-4.177159697516883
1769251163472,121,-7,-3.1903052303293897,-4.798497754603651,-4.842324909945804
1769251163476,121,-7,-3.745344283458396,-5.100664888303608,-5.351891843834563
1769251163480,120,-8,-4.287944711103308,-5.71381110911965,-5.847865839688486
1769251163484,120,-8,-4.971279028329106,-6.098926269587508,-6.485713669904801
1769251163488,119,-9,-5.841966490354067,-6.970280558354617,-7.312897601019612
1769251163492,118,-10,-6.786927556690286,-7.960054002899387,-8.2137563022185
1769251163496,117,-11,-7.60737262578277,-8.993924282040265,-8.985150927466439
1769251163500,116,-12,-8.16448422242621,-9.793643864124146,-9.487538525777142
1769251163504,117,-11,-8.462469968998352,-9.056360614139424,-9.731847148757796
1769251163508,117,-11,-8.595863645998461,-9.022988306251316,-9.822627642303026
1769251163512,116,-12,-8.637492799543885,-9.956028320612198,-9.835421925819052
1769251163516,116,-12,-8.584649355035662,-10.027658074194369,-9.756571093695449
1769251163520,116,-12,-8.333938461874508,-9.75238560151424,-9.464696011188666
1769251163524,118,-10,-7.535168419295292,-8.153044554495139,-8.600222074873106
1769251163528,121,-7,-5.338888873071857,-4.884947938279419,-6.323227093994117
1769251163532,126,-2,-0.3980228827180319,-0.1849630887690274,-1.30917225826964
1769251163536,133,5,8.446428421608703,7.232116976747442,7.583051476037841
1769251163540,144,16,20.893463700464537,17.940843416678163,20.05217624834714
1769251163544,158,30,34.227174900041035,32.14246327925947,33.3970716664417
1769251163548,171,43,43.80496611463107,44.829592533335585,42.99297365354733
1769251163552,173,45,45.212081430534184,47.0124743506063,44.43748575247541
1769251163556,163,35,36.86310942361077,37.01291210045332,36.14977870857428
1769251163560,146,18,21.202418167288247,20.019965912238924,20.56940446360309
1769251163564,128,0,3.5562239649505023,2.0431701435988563,3.0075897571675094
1769251163568,114,-14,-10.620158996735256,-12.052783413313009,-11.099563254798095
1769251163572,107,-21,-18.293737069013424,-19.016180685452852,-18.73080153528953
1769251163576,107,-21,-19.70941061436008,-18.895229729044768,-20.127303121546404
1769251163580,110,-18,-17.34404545819374,-16.149537505226498,-17.74904008250091
1769251163584,112,-16,-13.993713197473763,-13.854390532811715,-14.372462201124977
1769251163588,114,-14,-11.36018230422472,-12.232268634599038,-11.68883412004529
1769251163592,115,-13,-9.818293317334213,-10.834641707060207,-10.077882754082486
1769251163596,117,-11,-9.037398345861616,-9.05634961665809,-9.22537715125947
1769251163600,118,-10,-8.654477713497208,-8.063770974659842,-8.784075928434529
1769251163604,118,-10,-8.49881827376895,-7.945929258457109,-8.587049144641718
1769251163608,118,-10,-8.461833672787343,-8.236436524109228,-8.516370116968476
1769251163612,117,-11,-8.377131562939603,-8.767460198968271,-8.392879347882824
1769251163616,118,-10,-8.08743207706096,-8.173820930685041,-8.054369047459986
1769251163620,119,-9,-7.571086382190312,-6.938514201205429,-7.484543696044569
1769251163624,120,-8,-6.944595051999525,-6.142055413282307,-6.807844859186439
1769251163628,120,-8,-6.345402365515008,-6.065602479425243,-6.1635506428883575
1769251163632,120,-8,-5.841552413588482,-5.9462235468715265,-5.615186504003149
1769251163636,121,-7,-5.439437393411899,-5.004080501211841,-5.165303459173278
1769251163640,122,-6,-5.117673141919925,-4.152083461826682,-4.793954258331128
1769251163644,122,-6,-4.820443177912413,-3.943583272846973,-4.448954165653159
1769251163648,122,-6,-4.4562567932142025,-4.326406228504502,-4.0393545378017475
1769251163652,122,-6,-3.9607961225804256,-3.667390279026101,-3.498234539629686
1769251163656,124,-4,-3.367402208603113,-2.3144482151947456,-2.8573752455540857
1769251163660,124,-4,-2.7802831561312407,-1.8799428388208617,-2.222344763511979
1769251163664,125,-3,-2.261601043482763,-1.2078878906764965,-1.6570930537022857
1769251163668,125,-3,-1.765145946968557,-1.1577651672057754,-1.1150932112591887
1769251163672,125,-3,-1.20078988216689,-0.7840046110430507,-0.5047098347104613
1769251163676,127,-1,-0.554840082882446,0.7081889608016412,0.1880376598802786
1769251163680,127,-1,0.0749079170406673,1.1434553893913693,0.8642125113232109
1769251163684,128,0,0.5680141394083105,1.6881746364922914,1.4027399148431634
1769251163688,128,0,0.8962596760521755,1.9511651492694244,1.7762270183881506
1769251163692,128,0,1.152260496520467,2.051659006198024,2.0783352940865716
1769251163696,129,1,1.4771876433071505,2.860181812084684,2.4500974245396714
1769251163700,129,1,1.9600028163863223,2.979223683463001,2.9793758140616493
1769251163704,130,2,2.5860241191035587,3.8162563151675792,3.650606853077374
1769251163708,131,3,3.2609857353301512,4.808083632651483,4.369575884339056
1769251163712,131,3,3.8798260732545806,5.144997625680663,5.0320921713962
1769251163716,132,4,4.383568622597929,5.752578733797208,5.580166921214567
1769251163720,132,4,4.7701816845263005,6.066438132755332,6.011996386333997
1769251163724,133,5,5.073062538024198,6.699822392201791,6.360236785572229
1769251163728,133,5,5.340866686183026,6.897572104105432,6.672686488541778
1769251163732,133,5,5.630344828314424,7.023262607910419,7.006083740662731
1769251163736,134,6,5.999581416112041,7.844572146226881,7.419251161630928
1769251163740,134,6,6.491305469458525,7.968693947095523,7.955409914845656
1769251163744,135,7,7.1109254637823325,8.754809742471963,8.619466152762094
1769251163748,136,8,7.810548605846352,9.82753057903396,9.362414420578396
1769251163752,136,8,8.485023429379444,10.056946028444855,10.078621908335489
1769251163756,137,9,8.980613024359364,10.769470717024191,10.61523546531074
1769251163760,137,9,9.122825422657131,11.061456590954023,10.799273755311203
1769251163764,137,9,8.773474783136468,10.577263245942106,10.493201237846948
1769251163768,136,8,7.904294910814416,10.03386512109302,9.667909450598003
1769251163772,135,7,6.638817041570354,8.770685016986336,8.445516399077743
1769251163776,133,5,5.211898761264079,7.051793464120985,7.060370143783385
1769251163780,132,4,3.851439491428384,5.766648866557034,5.741103641827308
1769251163784,131,3,2.661568661976609,4.813974700454487,4.5926676152636405
1769251163788,130,2,1.6016335162526023,3.821068958345661,3.574125434099834
1769251163792,129,1,0.5776408618403144,2.8947447921764526,2.5903519718610415
1769251163796,128,0,-0.4389435662572833,1.961081271640232,1.612391613154009
1769251163800,127,-1,-1.3733586494083123,0.7737105219227041,0.7164068546430844
1769251163804,126,-2,-2.1157213693541546,-0.1722407824329037,0.0144410932379961
1769251163808,126,-2,-2.6086119199917532,-0.2611221521386384,-0.4357561598157655
1769251163812,126,-2,-2.848401064568666,-0.0173432186903119,-0.6330268220758821
1769251163816,126,-2,-2.805486528389324,-0.1734188441376973,-0.5506178617007742
1769251163820,126,-2,-2.3870620682605614,-0.1023714238379454,-0.0957672944216123
1769251163824,127,-1,-1.5312569667953684,0.6582078650541292,0.7960903530835859
1769251163828,128,0,-0.3514894922553202,1.8862309026220156,2.013689166050483
1769251163832,130,2,0.8493974192889358,3.799343914374334,3.25352595539732
1769251163836,131,3,1.7595623335322756,5.0101679110990895,4.201858612706978
1769251163840,131,3,2.279444437444723,4.661982416073442,4.758909137277842
1769251163844,131,3,2.5664995288872743,4.870399858370828,5.08358139277968
1769251163848,132,4,2.8628530975603725,5.621485223742484,5.418433390300632
1769251163852,132,4,3.2792443200804287,6.044177115629299,5.8725770943485385
1769251163856,133,5,3.7241805327016064,6.77295036448666,6.352988756721534
1769251163860,133,5,4.002986420490702,6.85824832050338,6.6656170284008684
1769251163864,133,5,3.9688345800159537,6.642574281012411,6.665546604807425
1769251163868,133,5,3.604804184842895,6.782894076311606,6.336820244142255
1769251163872,132,4,3.001153847404054,5.878765152309666,5.769123274264203
1769251163876,131,3,2.26962002696726,4.9168421319686075,5.073251111608008
1769251163880,131,3,1.4689058701252018,4.710931907395321,4.307478377484847
1769251163884,130,2,0.598185830165632,3.7310866023001217,3.4709013590828843
1769251163888,129,1,-0.3469594448486734,2.6435402820687903,2.5590383021297867
1769251163892,128,0,-1.3218205785418768,2.014628310898801,1.616651768908844
1769251163896,127,-1,-2.243992212123168,0.7536785795438852,0.7265929389087802
1769251163900,126,-2,-3.062367157328902,-0.1365950462859708,-0.0593382902623706
1769251163904,126,-2,-3.812883460326387,-0.4607954253587709,-0.7768366582967352
1769251163908,125,-3,-4.594665626026671,-1.2435307414394083,-1.5256980446331403
1769251163912,124,-4,-5.477771130448327,-2.0663556063431106,-2.377130198194929
1769251163916,123,-5,-6.427753236149072,-3.231598441798975,-3.2973835840770045
1769251163920,122,-6,-7.318436492645288,-4.127770205042482,-4.159761901274437
1769251163924,122,-6,-8.017142026682572,-4.5522629278415705,-4.829516227888677
1769251163928,121,-7,-8.462875188656607,-5.184968952933102,-5.24281296047317
1769251163932,121,-7,-8.677145654105031,-5.128039107506472,-5.420250271058719
1769251163936,121,-7,-8.716187518861137,-5.204934550976036,-5.422194348581609
1769251163940,121,-7,-8.62381281750914,-5.150446909129829,-5.30085793528082
1769251163944,122,-6,-8.436465264762845,-4.614504227153515,-5.098272847620114
1769251163948,121,-7,-8.225365893995018,-5.14258030655774,-4.880104308494243
1769251163952,121,-7,-8.070652039981873,-5.200452080109327,-4.710245146379933
1769251163956,122,-6,-7.842744141547479,-4.143657894312778,-4.44484977077326
1769251163960,124,-4,-6.834379719682559,-2.218849100094377,-3.378709178843189
1769251163964,128,0,-3.603096462699503,1.36855102804787,-0.0886388705919132
1769251163968,133,5,3.4876570828596245,6.898404932909218,7.04021756512482
1769251163972,143,15,14.96810850065468,16.67249685793358,18.530389525146457
1769251163976,157,29,28.97495133076898,31.052248507547745,32.52830905231388
1769251163980,172,44,41.198764731020695,45.49845414149455,44.74259763311747
1769251163984,179,51,46.64784211090196,52.64674412210472,50.197417702633565
1769251163988,174,46,42.37927907644256,47.5185985963976,45.95829949919382
1769251163992,159,31,29.366564933371237,32.95171340569466,32.997377724482284
1769251163996,141,13,12.13000612551046,14.735734733040063,15.822715502564048
1769251164000,125,-3,-3.65762482663556,-1.2384691556216674,0.0877687258732629
1769251164004,116,-12,-13.980018295854672,-10.49248009727276,-10.207228453408362
1769251164008,113,-15,-17.95823941907768,-13.35482380782038,-14.185544471229152
1769251164012,114,-14,-17.36106709110282,-12.132706218240129,-13.60200258392664
1769251164016,116,-12,-14.87626323541432,-10.31088001235138,-11.122956248354974
1769251164020,117,-11,-12.496703894048188,-9.23911801612518,-8.726444218415022
1769251164024,119,-9,-10.93410425690085,-7.551564647659364,-7.125361849574264
1769251164028,120,-8,-10.015389171589137,-6.278371577577591,-6.161671324224763
1769251164032,121,-7,-9.3813966927975,-5.249065003524516,-5.493140172105152
1769251164036,122,-6,-8.879022817894962,-4.231608600010478,-4.973446045326618
1769251164040,122,-6,-8.530887871258527,-4.389144448185429,-4.618957027213744
1769251164044,122,-6,-8.347288158801812,-4.427060505977859,-4.427917478062561
1769251164048,122,-6,-8.247864055830393,-4.388319508313826,-4.312349312774445
1769251164052,122,-6,-8.126502567779788,-4.190081422231497,-4.167689017571945
1769251164056,123,-5,-7.9267740854173,-3.2983121433424767,-3.944570938371142
1769251164060,123,-5,-7.637606954321467,-3.4178443613350837,-3.6370665031026874
1769251164064,123,-5,-7.250851319408966,-3.3919358965699944,-3.2363597295306703
1769251164068,124,-4,-6.758414060411037,-2.4547972799685733,-2.730342146994569
1769251164072,124,-4,-6.1869635477508425,-2.132847096662209,-2.14326069010157
1769251164076,125,-3,-5.605084858572659,-1.4102254539394057,-1.5448331710587015
1769251164080,126,-2,-5.074914538133689,-0.3547057543998355,-0.9995178359656054
1769251164084,126,-2,-4.599680721235986,-0.4749795698171133,-0.5107771176881213
1769251164088,126,-2,-4.13230118023953,-0.4106118771713101,-0.0296115117307729
1769251164092,127,-1,-3.6332415736628536,0.8411284442743545,0.4845708484678819
1769251164096,128,0,-3.0999773988836328,1.515523528411995,1.0327956580261946
1769251164100,128,0,-2.536504203116289,1.7267198400922408,1.609049152804736
1769251164104,129,1,-1.9256491401700964,2.377762551737768,2.230662864838806
1769251164108,129,1,-1.263829755403721,2.7395963643295413,2.903146177329728
1769251164112,130,2,-0.6176437246285191,3.654155649182212,3.5609833801095343
1769251164116,131,3,-0.1111537066552492,4.657634980138945,4.079274503193123
1769251164120,131,3,0.1702838394329227,4.54853003845564,4.371546718584809
1769251164124,131,3,0.2660824449166664,4.521955403610382,4.47749703053115
1769251164128,131,3,0.3237783544440462,4.573021467034827,4.545673325076788
1769251164132,131,3,0.4955882420627249,4.793703944052666,4.728251600962656
1769251164136,132,4,0.8466151747030584,5.460477250410595,5.089064494913231
1769251164140,132,4,1.3432527886117325,5.749703490939395,5.593616706004971
1769251164144,133,5,1.9041674368048689,6.233740602477893,6.161173544902571
1769251164148,133,5,2.455640338338525,6.905768229997586,6.71936546010523
1769251164152,134,6,2.9587781326784133,7.348409405391357,7.230011591391658
1769251164156,134,6,3.4127953275983884,7.928699426739299,7.692018858584163
1769251164160,135,7,3.846900972622008,8.215111356310086,8.13386989490296
1769251164164,135,7,4.305658989231432,8.731682286487455,8.599543101163393
1769251164168,136,8,4.829931899757963,9.428690162114282,9.129587246797591
1769251164172,136,8,5.437569051647404,9.704373091979129,9.741844485300916
1769251164176,137,9,6.109665539768013,10.63937324346665,10.417830585683385
1769251164180,138,10,6.789081442862592,11.365508817826395,11.101224289337988
1769251164184,138,10,7.394878171771272,11.638749799599491,11.711778694163028
1769251164188,139,11,7.848681422845576,12.433148440343556,12.170844057817597
1769251164192,139,11,8.100537218630954,12.686299481263516,12.427109858991116
1769251164196,139,11,8.13425697102467,12.626727292421329,12.463202482725858
1769251164200,139,11,7.9379482383162525,12.307728034798284,12.26760358948495
1769251164204,138,10,7.460270192584805,11.721808180768496,11.79061707539748
1769251164208,138,10,6.609180272568086,11.252514148035855,10.94136313945083
1769251164212,136,8,5.327660939958977,9.896640504339535,9.662396544004327
1769251164216,135,7,3.697820572082846,8.32440849855691,8.034624928809063
1769251164220,133,5,1.966688383969923,6.60691316291117,6.304665136630126
1769251164224,131,3,0.4361436823131099,4.385645886273035,4.774883690174139
1769251164228,130,2,-0.7107693392985839,3.534787130356469,3.628248820215908
1769251164232,130,2,-1.4967396381723028,3.6266531176214016,2.840970580011292
1769251164236,129,1,-2.0766501875624224,2.516810730055264,2.25783748958096
1769251164240,128,0,-2.5865511485044683,1.407863574700544,1.7444778153986318
1769251164244,128,0,-3.0500660188704143,1.5458500030128608,1.2792139373035187
1769251164248,128,0,-3.3857782068983058,1.2980461719020568,0.9434201866578572
1769251164252,127,-1,-3.470193958455357,0.8954004055813463,0.858947443815826
1769251164256,128,0,-3.2088940495993308,1.1507475644006462,1.1187624531203784
1769251164260,128,0,-2.589982569909747,1.8062923229727017,1.7341137856007762
1769251164264,130,2,-1.6972380898080666,3.050513340863908,2.6212398174055416
1769251164268,130,2,-0.6797578652949476,3.787181679503159,3.632054836129892
1769251164272,131,3,0.2950022954686132,4.369918943643437,4.600921140810306
1769251164276,132,4,1.0849969747592236,5.627357736937343,5.386864312731659
1769251164280,133,5,1.6201869358777112,6.329992476435608,5.919075447187697
1769251164284,133,5,1.9404208363372897,6.428494303458022,6.235800680959548
1769251164288,133,5,2.175824869507831,6.431298992307571,6.466292461805636
1769251164292,133,5,2.449760595614866,6.648450851750065,6.7338079512941205
1769251164296,134,6,2.7691808729110763,7.340672179495824,7.045294437472071
1769251164300,134,6,2.996584722447822,7.5878964066188175,7.263639103160563
1769251164304,134,6,2.9285495190572504,7.099512292132697,7.186651287297922
1769251164308,133,5,2.422783483280973,6.767676985098002,6.673179570437495
1769251164312,133,5,1.49524869205552,6.2283476233995625,5.739042162470808
1769251164316,131,3,0.3316464856395716,4.756562134718097,4.568980189198587
1769251164320,130,2,-0.8047648215881267,3.1373559730483898,3.425577656703102
1769251164324,129,1,-1.7205978906467814,2.4844861195810584,2.501627390627559
1769251164328,129,1,-2.3882982368440833,2.40170922621901,1.823740134060373
1769251164332,128,0,-2.9213777792793834,1.4863926410736972,1.2782642395600936
1769251164336,127,-1,-3.472032849379517,0.5489806949327081,0.7148135910604236
1769251164340,127,-1,-4.1454079389661835,0.2341384703445719,0.0306940151230736
1769251164344,126,-2,-4.969142446438855,-0.6052957634859677,-0.8012057962537025
1769251164348,125,-3,-5.896350649499793,-1.5764956940381607,-1.736144269012803
1769251164352,124,-4,-6.824103074675344,-2.557968857164291,-2.6742763033010526
1769251164356,123,-5,-7.6313314757752835,-3.4240504107269647,-3.49594829851533
1769251164360,123,-5,-8.231033214752202,-3.858660561125739,-4.112142362431111
1769251164364,122,-6,-8.609460059338488,-4.524437621397373,-4.504324595763757
1769251164368,122,-6,-8.821488134166646,-4.722236570059767,-4.723688163718084
1769251164372,122,-6,-8.935618867975021,-4.4250398625772105,-4.840945713149668
1769251164376,122,-6,-8.968407736783146,-4.586656364802761,-4.881361315969559
1769251164380,122,-6,-8.879999167592826,-4.761085901150239,-4.813842646645659
1769251164384,122,-6,-8.656349604146037,-4.627741559485018,-4.623710705425651
1769251164388,122,-6,-8.378767567375004,-4.703917653641973,-4.378945376090778
1769251164392,122,-6,-8.101011251136912,-4.435287783207474,-4.116122103883324
1769251164396,124,-4,-7.47412515747961,-2.6216588777277625,-3.4806809556729035
1769251164400,127,-1,-5.3846153102672,0.2263106610476599,-1.3724137249063335
1769251164404,131,3,-0.1356740627102191,4.384392713886112,3.882868636153936
1769251164408,139,11,9.505175097015876,12.18261976113062,13.5034949010429
1769251164412,151,23,22.83539490593771,24.74074468502055,26.7903130437237
1769251164416,167,39,36.5000977820056,40.07931698856261,40.40375955561664
1769251164420,178,50,45.524217617277856,51.59495475007557,49.38523812239482
1769251164424,179,51,45.83396139268872,51.860000995168065,49.67234611005589
1769251164428,167,39,36.672127180412424,40.66829038198877,40.511558283435015
1769251164432,151,23,21.18148358946955,24.11385699461573,25.038714228491543
1769251164436,134,6,4.720798685416741,7.6637374648672125,8.59544684504404
1769251164440,122,-6,-7.914651086685419,-4.911735059163817,-4.041750835786474
1769251164444,116,-12,-14.568648627621387,-10.62355945511835,-10.724991361053412
1769251164448,116,-12,-15.990931962554498,-10.769463532573742,-12.196356952853456
1769251164452,117,-11,-14.522894486046251,-9.627577091392205,-10.778631655115523
1769251164456,118,-10,-12.384373649686031,-8.603486027498299,-8.673511314033213
1769251164460,119,-9,-10.709539969839811,-7.758084117617746,-7.008494316004096
1769251164464,120,-8,-9.642123507079042,-6.735673063628453,-5.936329627808631
1769251164468,122,-6,-8.955785670058344,-4.705997485803824,-5.248891807943109
1769251164472,123,-5,-8.499243638643668,-3.758551528721706,-4.808267813838012
1769251164476,122,-6,-8.233591429059944,-4.5264023133635005,-4.57384140316834
1769251164480,122,-6,-8.10542061004558,-4.890645733068748,-4.478854133240419
1769251164484,122,-6,-8.02036603614539,-4.581749422443137,-4.417612327671152
1769251164488,123,-5,-7.9064404679434,-3.918885916352973,-4.318435176184
1769251164492,123,-5,-7.725299442992873,-3.5667729787072213,-4.151544082589882
1769251164496,123,-5,-7.419873424752729,-3.801546134600791,-3.8661977692252583
1769251164500,123,-5,-6.914699344528315,-3.643386285325726,-3.385578819266107
1769251164504,124,-4,-6.208239821786023,-2.846618391774685,-2.7029728431548903
1769251164508,125,-3,-5.4388199502817205,-1.6952045387219434,-1.9543732730621173
1769251164512,126,-2,-4.804987155017887,-0.8128283369589333,-1.3404425801038418
1769251164516,126,-2,-4.394584471836007,-0.6389346737894233,-0.9516647884534896
1769251164520,126,-2,-4.106015843626778,-0.8236980880605373,-0.6860613545065795
1769251164524,126,-2,-3.7585521586372126,-0.7261554405532351,-0.3606617923799804
1769251164528,127,-1,-3.2776059849255845,0.1913833087131697,0.0995619560605982
1769251164532,128,0,-2.7551191908908597,1.2221956866404209,0.6004872225657867
1769251164536,128,0,-2.330168651695814,1.3304405129721144,1.00136855212361
1769251164540,128,0,-2.0361342929683017,1.0952592069747338,1.270223087241244
1769251164544,128,0,-1.778845537397353,1.3893506268812756,1.5040364617477064
1769251164548,129,1,-1.4429213816283255,1.9633387996800913,1.8189005009339003
1769251164552,129,1,-0.9901117203004056,2.4929163906932534,2.2508878911851617
1769251164556,130,2,-0.4560882547562366,2.9594169103634136,2.7618568320509977
1769251164560,130,2,0.1172243860742492,3.4588894507595045,3.3097393186870914
1769251164564,131,3,0.7199305732199632,3.9673706350417266,3.886722123139147
1769251164568,131,3,1.3478953865612755,4.331672627065569,4.4905958709773275
1769251164572,132,4,1.964526066790312,5.135660040109448,5.084525460065238
1769251164576,133,5,2.516987030597221,6.214929822551923,5.613893277643917
1769251164580,133,5,2.9968829387244544,6.2361525047755535,6.069444044158643
1769251164584,133,5,3.4666304965920505,6.062013485228807,6.514564376971292
1769251164588,134,6,4.010647012854628,7.265182407357626,7.0346235906617585
1769251164592,135,7,4.665329894915284,8.12413017323745,7.66539451902383
1769251164596,135,7,5.398935884838932,8.205660294104778,8.373989984897602
1769251164600,136,8,6.143362821882093,9.225485394196005,9.092362048971736
1769251164604,137,9,6.835183894566608,9.979135752229126,9.758260397085929
1769251164608,137,9,7.440672951376667,10.346971575085808,10.338957949405376
1769251164612,138,10,7.963237880364604,10.974858075241462,10.837817319672435
1769251164616,138,10,8.434822049298516,11.341145960436796,11.28582181544359
1769251164620,139,11,8.890752273693005,12.048707383595714,11.717295296362009
1769251164624,139,11,9.329740383028962,12.089745253225033,12.130699634655157
1769251164628,139,11,9.674418750994828,12.212469141111583,12.449029051226857
1769251164632,140,12,9.767368336788437,13.051090841544864,12.515218825409464
1769251164636,139,11,9.42687870384491,12.259716786282544,12.147935457239267
1769251164640,138,10,8.536954995798677,11.059604096239452,11.231875909769553
1769251164644,137,9,7.114927571122301,10.052375275679408,9.78488147063749
1769251164648,135,7,5.322328895064975,8.174578461469611,7.968182631791091
1769251164652,133,5,3.418922601162107,6.076007218169551,6.040748931284892
1769251164656,131,3,1.6764444619699983,4.198320795686863,4.273664641972078
1769251164660,130,2,0.2861943201511141,3.0846044211380534,2.8577768358595015
1769251164664,129,1,-0.6937506503993818,1.9763775520872953,1.8509038015523247
1769251164668,128,0,-1.3290233239248503,1.199078142831402,1.187783728452307
1769251164672,128,0,-1.7550623800511218,1.026518862270454,0.7341354316287285
1769251164676,127,-1,-2.1121505302830585,0.2078285805652804,0.3507980163976827
1769251164680,127,-1,-2.4891222984498955,0.0383515166293846,-0.0510903267908735
1769251164684,127,-1,-2.88431433099723,-0.0385793514491821,-0.470978699168163
1769251164688,126,-2,-3.2012894007057264,-0.8304688086261187,-0.8132421796079425
1769251164692,126,-2,-3.299397568825014,-0.977495098807342,-0.9369334844921492
1769251164696,126,-2,-3.0808492046124023,-0.8168612641428425,-0.7438608537851028
1769251164700,127,-1,-2.5491660812865886,0.0163849246202967,-0.2381400652518972
1769251164704,128,0,-1.793263726648514,0.9330836881263184,0.4905872669137041
1769251164708,128,0,-0.928799625747894,1.1563850772418625,1.3273439169482577
1769251164712,129,1,-0.0610515965769317,1.9891638318461848,2.1683966653940776
1769251164716,130,2,0.7208192468372989,3.193424959603329,2.924972422431635
1769251164720,131,3,1.357059179484777,3.947470742685468,3.536254419057426
1769251164724,131,3,1.8431356040334976,3.9594427132351537,3.996942772547617
1769251164728,131,3,2.225406885422198,4.093176816327435,4.353681967100762
1769251164732,132,4,2.5529079347562,4.9885602472891994,4.655698687613286
1769251164736,132,4,2.8286984250607037,5.191853049618532,4.905547908589929
1769251164740,132,4,2.9985321119749653,4.868534940866347,5.0486913350409734
1769251164744,132,4,2.971598997167036,5.030896671747394,4.9947635211978785
1769251164748,132,4,2.6583378089937812,4.943866066175936,4.654785635208047
1769251164752,131,3,2.017785205086751,4.10728732613328,3.988176758769817
1769251164756,130,2,1.0925793448915084,3.038980803310287,3.037976310614708
1769251164760,129,1,0.0030945981244965,1.9710989589554373,1.9246404196977032
1769251164764,128,0,-1.0982339552040288,0.892687168570748,0.7996624387490971
1769251164768,127,-1,-2.0830641747488654,0.0249767892982624,-0.2101983657659956
1769251164772,126,-2,-2.8911978078821843,-1.0085716521649863,-1.0454528130355398
1769251164776,125,-3,-3.5548692349343867,-1.8783364154759592,-1.7372596074894182
1769251164780,125,-3,-4.1893337774817425,-2.160297268243837,-2.3987915031431735
1769251164784,124,-4,-4.93334361423336,-3.0140707182709576,-3.167400032780291
1769251164788,123,-5,-5.856165557039842,-4.133176341827394,-4.112871082144
1769251164792,122,-6,-6.889951264191505,-4.875261968774576,-5.1696678471005875
1769251164796,121,-7,-7.846045924248251,-6.059319990737753,-6.151434762066237
1769251164800,120,-8,-8.521126568910649,-7.025116538923566,-6.854697709583034
1769251164804,120,-8,-8.827835895431212,-7.175352960060643,-7.1887711381514325
1769251164808,120,-8,-8.850339726779385,-7.053854467350302,-7.233755044774019
1769251164812,120,-8,-8.77433686231153,-6.94753247584355,-7.174887541427294
1769251164816,120,-8,-8.748452771812572,-7.072111812023826,-7.166541829694143
1769251164820,120,-8,-8.799944818942278,-7.020804790893163,-7.244941529371484
1769251164824,120,-8,-8.878767546687953,-7.256854915856838,-7.36373130607592
1769251164828,119,-9,-8.966911188362257,-8.014824074038355,-7.496377666287326
1769251164832,119,-9,-9.0710134219334,-8.010135547337397,-7.632514587644406
1769251164836,120,-8,-8.954920251783756,-7.072913153656932,-7.524810547893302
1769251164840,122,-6,-7.740296675711415,-5.02723626571931,-6.3016381918823035
1769251164844,126,-2,-3.844523982497301,-1.328274150119424,-2.4016413439666726
1769251164848,132,4,4.273513252755162,5.035357264168003,5.6971973308718145
1769251164852,143,15,16.692094817160545,15.904373168898594,18.070338674796737
1769251164856,158,30,30.909666973056368,30.956634243675552,32.22913563026362
1769251164860,172,44,42.229961517840614,44.95829691966628,43.49509865221669
1769251164864,177,49,45.91298758462605,49.55793033534337,47.14183042709121
1769251164868,169,41,39.876474663416225,42.12532675870572,41.093082147327024
1769251164872,154,26,26.05947767062959,26.63415173073768,27.284311666171128
1769251164876,136,8,9.42732058165324,9.183114119201758,10.66657513817916
1769251164880,123,-5,-4.695950372016554,-4.265227126639207,-3.455688408589163
1769251164884,115,-13,-13.170473499790347,-12.176676795322406,-11.95575056027906
1769251164888,113,-15,-15.950240815694164,-14.06157658717133,-14.785004491948094
1769251164892,115,-13,-15.139211949213678,-12.316571380647742,-14.030519835897184
1769251164896,115,-13,-13.196180763307837,-11.89898336437193,-12.130898931121813
1769251164900,116,-12,-11.604091612986227,-11.354322214627995,-10.558336463746608
1769251164904,117,-11,-10.657022393581457,-10.00594826108696,-9.611931809462575
1769251164908,118,-10,-10.05647526139859,-9.336854512946111,-9.009636708816776
1769251164912,119,-9,-9.552678989921493,-8.029324752496414,-8.517335750803582
1769251164916,120,-8,-9.142990230724156,-7.312215273040975,-8.136158540690504
1769251164920,119,-9,-8.904361361753129,-7.990401290202636,-7.933570849923184
1769251164924,119,-9,-8.81748722389977,-8.371186010845499,-7.876804149883299
1769251164928,119,-9,-8.777609261489237,-8.015430839702066,-7.855387349660067
1769251164932,120,-8,-8.691736763167334,-7.372190326479909,-7.781832045304005
1769251164936,120,-8,-8.5001107695958,-7.083359763651596,-7.605661196506936
1769251164940,120,-8,-8.13336544364761,-7.2242721723156444,-7.260872907784782
1769251164944,120,-8,-7.530026531189582,-7.220286664711013,-6.681827669748155
1769251164948,121,-7,-6.7300406532741786,-6.119808932615564,-5.903478901973707
1769251164952,123,-5,-5.908418973104903,-4.4045112858561355,-5.100706805882347
1769251164956,123,-5,-5.260997934716238,-4.030955374737649,-4.472300936287693
1769251164960,123,-5,-4.848095413970596,-4.41215709012206,-4.079522921367522
1769251164964,123,-5,-4.567431565393479,-3.9919271407253487,-3.818171673811381
1769251164968,124,-4,-4.273049659774292,-3.439274036235304,-3.5410951355567297
1769251164972,124,-4,-3.895936792273173,-3.1047710929202084,-3.1809313770046597
1769251164976,125,-3,-3.451947302776632,-2.388902002905724,-2.755834094823478
1769251164980,125,-3,-2.9723339248420326,-2.122292306350366,-2.2968664815776707
1769251164984,125,-3,-2.464024754837177,-2.2804816868045408,-1.808495594953531
1769251164988,126,-2,-1.9345807065675915,-1.2526495956499653,-1.2967033205075829
1769251164992,127,-1,-1.4186392327189528,-0.2618008632574271,-0.7971661502898555
1769251164996,127,-1,-0.9528829441043258,-0.3780272208249018,-0.3484128565560043
1769251165000,127,-1,-0.5341454963339589,-0.0754248456000283,0.0524326821724354
1769251165004,128,0,-0.1207668110304474,0.5281684888871223,0.4480263896372418
1769251165008,128,0,0.3269930471436717,0.975753883228312,0.878668310047219
1769251165012,129,1,0.8188380169328544,1.4064844732918569,1.353742052704122
1769251165016,129,1,1.3435860011971623,1.934410242380141,1.86177768838602
1769251165020,130,2,1.894748833900384,2.5674653447504547,2.396560931012735
1769251165024,130,2,2.4821668274345474,2.8106967408266943,2.968204720094924
1769251165028,131,3,3.121952092313265,3.687609687979145,3.592409205607181
1769251165032,132,4,3.8182522448636824,4.605362606729558,4.272583727272942
1769251165036,132,4,4.550225225114724,4.725546848830661,4.987853760746835
1769251165040,133,5,5.2701932455845695,5.707570846205878,5.691430084293382
1769251165044,134,6,5.921098487825691,6.625208899012656,6.327152911695023
1769251165048,134,6,6.47426735500043,6.83807499667331,6.866427160203586
1769251165052,135,7,6.960799832162493,7.382045480019846,7.339595818167931
1769251165056,135,7,7.458935302282086,7.941738957982485,7.823873912149637
1769251165060,136,8,8.030844986951521,8.39954444037254,8.380973625323618
1769251165064,136,8,8.6463978145637,8.919400218369923,8.981340103477406
1769251165068,137,9,9.151944831659923,9.481808434844211,9.472275335877075
1769251165072,137,9,9.324040672778043,9.686685246154342,9.630447705654106
1769251165076,137,9,8.99002392905514,9.614511885726694,9.282473915391863
1769251165080,136,8,8.131514632731133,8.637578091254754,8.409893501572771
1769251165084,134,6,6.883309454712659,6.669500627458144,7.148735478364638
1769251165088,133,5,5.43103572934974,5.647388972637856,5.6855094182856405
1769251165092,132,4,3.91196294392597,4.5086257799482645,4.1561992120733695
1769251165096,130,2,2.4081659862031293,2.7254972947126572,2.640466902290669
1769251165100,129,1,0.9998443702814058,1.5022116876668086,1.2179286924758292
1769251165104,127,-1,-0.2241984943113513,-0.264640702376121,-0.0204397687682555
1769251165108,126,-2,-1.2284360553794813,-1.459864736920483,-1.036775017153165
1769251165112,126,-2,-2.076084170188282,-1.44523224271038,-1.894631673668369
1769251165116,125,-3,-2.8701885301396093,-2.328045963877421,-2.6993358989276235
1769251165120,124,-4,-3.632983240831495,-3.5382372226245407,-3.474061938829503
1769251165124,123,-5,-4.256412667993026,-4.213174397799761,-4.109135685791966
1769251165128,123,-5,-4.581087486532663,-4.650183093019951,-4.443427999759077
1769251165132,123,-5,-4.516545001608822,-4.233363902414796,-4.387167921812104
1769251165136,124,-4,-4.084754571984988,-3.6085874834048415,-3.964672161771314
1769251165140,124,-4,-3.3735601109270084,-3.2925323506679325,-3.2648992709048783
1769251165144,125,-3,-2.4816062354807613,-2.4900353426268773,-2.385160112604027
1769251165148,126,-2,-1.512149425960568,-1.4983029459092907,-1.426600722546766
1769251165152,127,-1,-0.5860880960851358,-0.3659819766212318,-0.5093549223131189
1769251165156,128,0,0.1815687630163385,0.4305815251377189,0.2507286417141221
1769251165160,128,0,0.7396497666570359,0.6869265022482154,0.8011930729993235
1769251165164,129,1,1.1350094282422507,1.424170609445527,1.188176436407852
1769251165168,129,1,1.47664259252148,1.542528216607418,1.5208421919595017
1769251165172,129,1,1.8449301565102951,1.5335826842810445,1.880320400596868
1769251165176,130,2,2.21547033970221,2.505932330990712,2.2427665912198416
1769251165180,130,2,2.4653383850506145,2.593833085565978,2.48503664248943
1769251165184,130,2,2.462308443722402,2.419724591070203,2.4741998221319808
1769251165188,130,2,2.161017102810243,2.5183516143006113,2.164631720413084
1769251165192,129,1,1.622181048640042,1.460196478033399,1.6177915547179282
1769251165196,128,0,0.9439825758048316,0.5901560117791631,0.932969110592282
1769251165200,128,0,0.1804681572927383,0.4523081046178416,0.164329960919664
1769251165204,127,-1,-0.6681789542589378,-0.4872859978828767,-0.6892224530337114
1769251165208,126,-2,-1.5932787168919922,-1.651950423885122,-1.6205008049422136
1769251165212,125,-3,-2.5288535930227782,-2.412561617050065,-2.5637806130580287
1769251165216,124,-4,-3.385592298034944,-3.576585893980777,-3.428501256180689
1769251165220,123,-5,-4.137451464789605,-4.413188348102429,-4.186900798985306
1769251165224,123,-5,-4.861608397742807,-4.673706655166897,-4.915392016760061
1769251165228,122,-6,-5.670496322729977,-5.549256539218043,-5.727285642487495
1769251165232,121,-7,-6.587069850872701,-6.544238007863383,-6.647490254526048
1769251165236,120,-8,-7.486140854054336,-7.5042207186016014,-7.552444951503302
1769251165240,119,-9,-8.172143089674751,-8.501911243360448,-8.246440855460047
1769251165244,119,-9,-8.53219082933133,-8.666446704494682,-8.614051128387825
1769251165248,119,-9,-8.6241497853993,-8.594016455930316,-8.709361942955491
1769251165252,119,-9,-8.614458648727762,-8.574620360389492,-8.697029861108334
1769251165256,119,-9,-8.621364550129334,-8.479135042545076,-8.698885934786535
1769251165260,119,-9,-8.614954071536966,-8.600386809421273,-8.693484557821334
1769251165264,119,-9,-8.48192437870822,-8.609277613120348,-8.574387846233568
1769251165268,119,-9,-8.200784932438133,-8.729682269458642,-8.31701563362765
1769251165272,119,-9,-7.91599504088537,-8.479549366813735,-8.051347507089563
1769251165276,120,-8,-7.707953041828198,-7.60261692477336,-7.841944580817514
1769251165280,121,-7,-7.110668489700362,-6.5267592248558985,-7.220235909262136
1769251165284,124,-4,-4.797254205939865,-3.736948653800299,-4.875208399577436
1769251165288,129,1,1.0137453347368508,1.3326563023887354,0.9514092009522042
1769251165292,137,9,11.287616474684732,9.417978164589998,11.212488221707329
1769251165296,150,22,24.723173390133766,22.4765662003476,24.613333796569627
1769251165300,165,37,37.371871161794395,37.36588454140827,37.22352038685078
1769251165304,174,46,44.12456576899768,46.29254435622754,43.951372707285934
1769251165308,171,43,41.46405164207321,43.225550908677135,41.28978658927044
1769251165312,157,29,29.67291355833156,29.38355366373123,29.52202601694395
1769251165316,139,11,12.87428791094899,11.442271788183666,12.760960362404823
1769251165320,123,-5,-3.172236075587511,-4.661050066397297,-3.2530285328554047
1769251165324,113,-15,-14.00692416570758,-14.626621702939108,-14.078592546069174
1769251165328,110,-18,-18.26931706024301,-17.818284194570364,-18.360421572423952
1769251165332,111,-17,-17.493542317786563,-16.606334037240813,-17.620377389405437
1769251165336,114,-14,-14.459310379272663,-13.642588246158068,-14.616725670004657
1769251165340,116,-12,-11.43895614576189,-11.726491834553109,-11.60527358221782
1769251165344,117,-11,-9.398761743240897,-10.572383866675606,-9.550579402989134
1769251165348,119,-9,-8.27857703305262,-8.94738926566044,-8.405281654666277
1769251165352,120,-8,-7.706728823091446,-7.4639798242715,-7.81515810166036
1769251165356,121,-7,-7.452732850536195,-6.903384930625181,-7.559319680115642
1769251165360,120,-8,-7.427890510935888,-7.514820921174007,-7.545138132621271
1769251165364,120,-8,-7.51108127721789,-7.843937527141424,-7.639471783056195
1769251165368,120,-8,-7.506187291568116,-7.706161338041281,-7.637008789001267
1769251165372,120,-8,-7.262200203985646,-7.713856169091368,-7.386934153856989
1769251165376,121,-7,-6.781087523576525,-6.7597960380597595,-6.898395026882155
1769251165380,122,-6,-6.183988744155703,-5.681816946336173,-6.298829179567314
1769251165384,122,-6,-5.588980575807586,-5.77787086912511,-5.7059487042106785
1769251165388,122,-6,-5.044494021767692,-5.7644519599116455,-5.16277769745848
1769251165392,123,-5,-4.563994843315719,-4.721426940669794,-4.679169334430881
1769251165396,124,-4,-4.166649569334849,-3.812544295923233,-4.276380411029104
1769251165400,124,-4,-3.8470166656084506,-3.691069154748336,-3.9532969099280817
1769251165404,124,-4,-3.5356146706255767,-3.823119420337395,-3.641295457000608
1769251165408,124,-4,-3.146417428761332,-3.749797377557632,-3.251351778157277
1769251165412,125,-3,-2.675383853889205,-2.788810061566067,-2.7772120250378665
1769251165416,126,-2,-2.216120569998023,-1.8078602673666049,-2.3137897564834824
1769251165420,126,-2,-1.8531477367957143,-1.7492296819386235,-1.9478543574318872
1769251165424,126,-2,-1.5580141389877509,-1.822312043080914,-1.6506714312095747
1769251165428,126,-2,-1.2184549243037588,-1.7765791925065495,-1.307958118315198
1769251165432,127,-1,-0.7642831523538351,-0.8511589661381704,-0.849225518599207
1769251165436,128,0,-0.238219846049513,0.2430892284971728,-0.3192031066324201
1769251165440,128,0,0.259551448396544,0.0984473513503267,0.1807236271294374
1769251165444,128,0,0.6717834129107596,0.3344164780286247,0.594857996663448
1769251165448,129,1,1.0230463254227118,0.9705163596547166,0.949977021478486
1769251165452,129,1,1.389340190042382,1.364573318589577,1.3220680856328584
1769251165456,130,2,1.8547974326547765,1.9689841457697683,1.7933167196598228
1769251165460,130,2,2.4815125823912503,2.320628621617019,2.424407737208127
1769251165464,131,3,3.2810693772077872,3.0839481604877323,3.227174524923504
1769251165468,132,4,4.193812881313753,4.135592296662385,4.142828764615519
1769251165472,133,5,5.106833609510906,5.16910576459181,5.058959958219473
1769251165476,134,6,5.915402840176443,6.080687711302492,5.871324777314786
1769251165480,134,6,6.583824738522281,6.200659612680584,6.544987692606024
1769251165484,135,7,7.159670153017596,7.11106772761926,7.1276112354268175
1769251165488,136,8,7.739623621122657,8.092254790668314,7.714564422055073
1769251165492,136,8,8.411641940654238,8.106205325082735,8.392124493924761
1769251165496,137,9,9.190991867693628,9.14428681146059,9.175189557604908
1769251165500,138,10,9.971784636656231,10.049832292571272,9.95903509662231
1769251165504,138,10,10.533749083422729,10.246237270455582,10.524794035240449
1769251165508,139,11,10.627820065223982,10.854295598781396,10.623847840793092
1769251165512,138,10,10.1043337481104,10.335516981250084,10.106118238444209
1769251165516,137,9,8.997486881586674,8.801578306964874,9.005453815324032
1769251165520,135,7,7.49942783357633,7.411653877923914,7.514013470827624
1769251165524,134,6,5.84582550773166,5.773627464411282,5.867180048804978
1769251165528,132,4,4.2082085241796205,4.29825490737943,4.235642042235886
1769251165532,131,3,2.667722736921874,2.850046674229432,2.700031272004639
1769251165536,129,1,1.2586146084165497,1.1898011668635968,1.2952598357145548
1769251165540,128,0,0.0153355200880334,0.056390741710536,0.0571266035497715
1769251165544,127,-1,-1.020385113182905,-1.0311213996901865,-0.9720163864533792
1769251165548,126,-2,-1.8215668350046688,-1.8509130979625548,-1.7659762160179744
1769251165552,126,-2,-2.39277251677028,-2.147170330614659,-2.330674208707298
1769251165556,125,-3,-2.766560473935199,-2.783340208547105,-2.6991733216227543
1769251165560,125,-3,-2.9892619245783054,-3.0748763775034123,-2.9170106106566394
1769251165564,125,-3,-3.105531471934334,-2.935112615020478,-3.0276188908032444
1769251165568,125,-3,-3.139867180227488,-3.003761852659524,-3.05493135071127
1769251165572,125,-3,-3.0788790016933367,-3.0769418697466357,-2.986038790440834
1769251165576,125,-3,-2.871216995443601,-2.842755519947212,-2.770796428754682
1769251165580,126,-2,-2.4567331527156284,-2.1455630205804286,-2.3500832813410084
1769251165584,126,-2,-1.8160541179360337,-1.8365446141012955,-1.7043719498552266
1769251165588,127,-1,-1.0116914222323907,-1.249892659790859,-0.8949138211482421
1769251165592,128,0,-0.1806211863549979,0.1959883116499563,-0.057652438431677
1769251165596,129,1,0.5398175290634373,0.7833113031954633,0.6699603654775086
1769251165600,129,1,1.1073762988857507,1.191204547766777,1.24499228128614
1769251165604,130,2,1.6044240269777088,1.7910360962772351,1.7494840108867735
1769251165608,130,2,2.1615144748136084,1.9940458881156724,2.3139782543882204
1769251165612,131,3,2.834248962735245,2.99574600816918,2.993805903635791
1769251165616,132,4,3.5381833759255352,3.8325437459546783,3.704039431345521
1769251165620,132,4,4.091900681945432,4.1991136995133065,4.2632809195442745
1769251165624,133,5,4.323629085786095,4.624967928941142,4.500578801968313
1769251165628,132,4,4.154848082818903,4.169978197979363,4.338321342068986
1769251165632,132,4,3.612626138650551,3.7075684506717232,3.803658912508792
1769251165636,131,3,2.788051077626046,3.1102214292616086,2.98696430717509
1769251165640,130,2,1.78762315047714,1.8668240358246275,1.99411348565512
1769251165644,129,1,0.7073725398916688,0.8802269630872444,0.9211348875832164
1769251165648,128,0,-0.3703252001174522,-0.1144493926466287,-0.1493747494024937
1769251165652,127,-1,-1.374037276323699,-1.1091315664598405,-1.1460668919635952
1769251165656,126,-2,-2.253082747911534,-2.0749012453375513,-2.0185573321124988
1769251165660,125,-3,-3.0026202579751384,-3.016300641665594,-2.76207734089534
1769251165664,125,-3,-3.680331952941388,-3.3050997516185756,-3.433838658397372
1769251165668,124,-4,-4.3857277375070085,-3.9606327145576863,-4.132401999132209
1769251165672,123,-5,-5.203330198846271,-5.372719545671958,-4.941774700529186
1769251165676,122,-6,-6.1411590591440435,-5.800615161113993,-5.87113765997475
1769251165680,122,-6,-7.099426589013458,-6.379038611210358,-6.82292934540827
1769251165684,120,-8,-7.89771832421089,-7.994530778714148,-7.617054594234647
1769251165688,120,-8,-8.367054154991022,-8.313778639117587,-8.081181257896308
1769251165692,120,-8,-8.45500054286585,-8.118181267028586,-8.15863926412639
1769251165696,120,-8,-8.25323199592372,-8.044238452229823,-7.941340717560798
1769251165700,121,-7,-7.917470097999374,-7.240226104367738,-7.591950834281886
1769251165704,121,-7,-7.564075372507106,-7.136084625716644,-7.235898441353626
1769251165708,121,-7,-7.253743679356171,-7.298067534286592,-6.936075932142636
1769251165712,121,-7,-7.05043731939368,-7.149018744535886,-6.746268422013608
1769251165716,121,-7,-6.989938168144892,-7.091050093599521,-6.68492530262923
1769251165720,122,-6,-6.814106441796004,-6.2256148901160575,-6.483740492698692
1769251165724,124,-4,-5.605048156663495,-4.19056436462296,-5.233139409364123
1769251165728,128,0,-1.7813661452814329,-0.3436679847263728,-1.3744625245400446
1769251165732,134,6,6.107004503598612,5.891810503402759,6.522900529301989
1769251165736,144,16,17.954973787067875,15.767540794377965,18.352410208860643
1769251165740,158,30,31.04986660378916,29.938723686435168,31.416430295388373
1769251165744,171,43,40.5851814592275,42.53848266065844,40.927435569598146
1769251165748,173,45,41.953086104061455,44.89396185259129,42.29104778746349
1769251165752,163,35,33.497159087136104,34.508045570272856,33.85609944322586
1769251165756,145,17,17.761557949293884,17.052116488555313,18.16192881612343
1769251165760,128,0,0.2588240282520315,-0.4408852264120804,0.7051222935671233
1769251165764,114,-14,-13.422352161503731,-14.083482067355217,-12.94631491522055
1769251165768,108,-20,-20.25753614581188,-20.40783804545829,-19.78050150856507
1769251165772,109,-19,-20.63392866155771,-19.205649261726656,-20.18046964532668
1769251165776,113,-15,-17.224835164440627,-15.275138375258727,-16.80141413903602
1769251165780,116,-12,-12.987088432194296,-12.29136644878186,-12.57932886285681
1769251165784,118,-10,-9.701556099963348,-10.278816745369944,-9.283964382103296
1769251165788,120,-8,-7.750372400926541,-8.285479970750657,-7.302848927091033
1769251165792,122,-6,-6.771191657952934,-6.336594372925201,-6.291532204690223
1769251165796,123,-5,-6.351929440440682,-5.212935511226447,-5.854884380675774
1769251165800,123,-5,-6.26828594531048,-5.45668814111713,-5.772094621973434
1769251165804,122,-6,-6.374031186182754,-6.162334979001555,-5.886364127223072
1769251165808,122,-6,-6.495995310901699,-6.452600515723986,-6.011119365322966
1769251165812,122,-6,-6.481627700715976,-6.190291073784647,-5.9890980097367
1769251165816,123,-5,-6.2830374843065755,-5.410298006020197,-5.777739771391989
1769251165820,123,-5,-5.944529909043334,-5.358245011976249,-5.428946563985336
1769251165824,123,-5,-5.518332201815336,-5.3019144118592845,-4.997443959713564
1769251165828,124,-4,-5.018203316997029,-4.397220615335392,-4.494060836756293
1769251165832,124,-4,-4.45002485109311,-4.2306173889038465,-3.9210404857055408
1769251165836,125,-3,-3.8568971213524383,-3.4894473195397944,-3.3208879409677716
1769251165840,126,-2,-3.3090379441251674,-2.282432705252149,-2.765805624811594
1769251165844,126,-2,-2.847429643355138,-2.5180873560039956,-2.298310669004936
1769251165848,126,-2,-2.452106621176097,-2.177341771835704,-1.897853680057065
1769251165852,127,-1,-2.0741166379145466,-1.507554857106126,-1.5141145669052705
1769251165856,127,-1,-1.6883400929466377,-1.2894450900176495,-1.12182033237525
1769251165860,128,0,-1.3037265975294978,-0.5029565306531838,-0.7309088507137047
1769251165864,128,0,-0.9298749830960668,-0.4314105805471502,-0.3515193958656835
1769251165868,128,0,-0.5529945721471909,-0.2466689990934552,0.0306620439060917
1769251165872,129,1,-0.1524807867415065,0.4647732472323052,0.4367791697495513
1769251165876,129,1,0.2686050068089021,0.7168271608694785,0.8634271964654434
1769251165880,130,2,0.6807974940620236,1.4039996489151854,1.280592534749344
1769251165884,130,2,1.0557730907392897,1.5969204887715596,1.660362836324306
1769251165888,130,2,1.393232432649175,1.6897267510418437,2.0035130962396437
1769251165892,131,3,1.7273170710114334,2.4490405021187573,2.344362982090479
1769251165896,131,3,2.1182257633506127,2.7277454236757523,2.741822972132919
1769251165900,132,4,2.632917093178765,3.2556262611124698,3.2615334626363324
1769251165904,132,4,3.307356170572312,3.763846772057686,3.9396977156483546
1769251165908,133,5,4.103665566969926,4.387143185090334,4.739880996553403
1769251165912,134,6,4.9090256432946715,5.773945007171652,5.550239332392416
1769251165916,135,7,5.604332335697725,6.30402205295268,6.25135867851991
1769251165920,135,7,6.157774008042456,6.620898635720553,6.8104965278250615
1769251165924,136,8,6.657160494522191,7.356532735707564,7.314899301507469
1769251165928,136,8,7.243335361327434,7.689023432327913,7.905605798104688
1769251165932,137,9,7.996859700512519,8.484811428781516,8.66382661438714
1769251165936,138,10,8.873050591762901,9.485611910056749,9.545200199754897
1769251165940,139,11,9.739915455490298,10.42097653003782,10.417235728826851
1769251165944,140,12,10.480865952602048,11.456025071186216,11.16266391466434
1769251165948,140,12,11.058087685233977,11.551427403776596,11.743851164852536
1769251165952,140,12,11.468975252832369,11.56072363946426,12.158937634024133
1769251165956,141,13,11.648604808431598,12.35529500082761,12.342969227885138
1769251165960,141,13,11.441896981410348,12.500490023943316,12.140115226454547
1769251165964,140,12,10.692950254397513,11.29020619452341,11.39464878830054
1769251165968,138,10,9.367408035523711,9.690124261216532,10.073518513154337
1769251165972,137,9,7.599760186827031,8.332365484060679,8.311570327368148
1769251165976,135,7,5.642399522591354,6.549302456753457,6.359670532630016
1769251165980,133,5,3.7602688586705857,4.241515932678027,4.481391603008303
1769251165984,131,3,2.124023809029061,2.4851953851179283,2.84804053135432
1769251165988,130,2,0.7578639364032929,1.4634707518681924,1.4853476542312525
1769251165992,129,1,-0.4133524912856319,0.4613148430527458,0.3184114427042328
1769251165996,128,0,-1.4465314591078005,-0.5908225487142775,-0.7106938842826624
1769251166000,127,-1,-2.302308297349423,-1.7178893103364872,-1.5631087883406605
1769251166004,126,-2,-2.890843991333115,-2.5828596596572884,-2.1483209017723133
1769251166008,126,-2,-3.1948337111269955,-2.5569006434188912,-2.4484236010581264
1769251166012,126,-2,-3.331170406039388,-2.556133938462619,-2.5808651439375416
1769251166016,126,-2,-3.472040592068336,-2.6382358211868073,-2.718752171430869
1769251166020,126,-2,-3.696503584448795,-2.7168014142059356,-2.9408292001533805
1769251166024,125,-3,-3.919843427247909,-3.656485417347872,-3.1608345010234653
1769251166028,125,-3,-3.967531242926181,-3.5564578624942804,-3.2034443903008296
1769251166032,126,-2,-3.7154969387613854,-2.5983963546515083,-2.9459535449402905
1769251166036,126,-2,-3.1690420817529104,-2.6557465887615757,-2.3959344891047025
1769251166040,127,-1,-2.436209512614792,-1.7435065371328693,-1.6621232211240922
1769251166044,128,0,-1.6509272064224647,-0.6870675334687593,-0.8767543604514693
1769251166048,128,0,-0.915432888387,-0.6333500721769056,-0.139569945650585
1769251166052,129,1,-0.28067879488695,0.4628704871538593,0.4994952346118961
1769251166056,130,2,0.2577485828296108,1.200919424674309,1.0435675352643805
1769251166060,130,2,0.7607425552573731,1.3710980287031411,1.5513128289520537
1769251166064,131,3,1.321167217926264,2.128150760138868,2.114476102619085
1769251166068,131,3,1.9951001517299776,2.463477007561546,2.789733611329797
1769251166072,132,4,2.7254202851945033,3.3264726600240295,3.5212131804800033
1769251166076,133,5,3.330476348874725,4.275720950589308,4.127988180430273
1769251166080,133,5,3.588641806564625,4.267000116262867,4.3884699019451245
1769251166084,133,5,3.3644214796436893,4.140345112545933,4.166936163020109
1769251166088,132,4,2.68210309039455,3.397425310339088,3.4874257925660164
1769251166092,131,3,1.696888085816803,2.2983603902911316,2.504967776424364
1769251166096,130,2,0.5943988993282887,1.295850693894109,1.405247605741059
1769251166100,129,1,-0.5024848595767586,0.1742148428553369,0.3113325171090511
1769251166104,128,0,-1.5566591528865996,-0.8104947572022851,-0.7399046155161098
1769251166108,127,-1,-2.569283454325059,-1.744140462195713,-1.7504833944252258
1769251166112,126,-2,-3.5215080824789595,-2.615975119999357,-2.7021442260439987
1769251166116,125,-3,-4.372567416207172,-3.833816684604858,-3.553268541036421
1769251166120,124,-4,-5.119034603310693,-4.747000781049354,-4.298532339547542
1769251166124,124,-4,-5.839572702047138,-4.946320199410131,-5.015678704451862
1769251166128,123,-5,-6.6467893978254935,-5.700509041742052,-5.818641456866205
1769251166132,122,-6,-7.56983096025844,-6.7041547182029975,-6.739003193984135
1769251166136,121,-7,-8.488494529496894,-7.804966188752273,-7.657808369401909
1769251166140,120,-8,-9.204556459287152,-8.817380037945334,-8.375671120275616
1769251166144,120,-8,-9.594025719449135,-8.947562630674307,-8.765592873593848
1769251166148,120,-8,-9.693867678482748,-8.776326879586748,-8.861465226573976
1769251166152,120,-8,-9.64291693465374,-8.668879043707708,-8.801568890769015
1769251166156,120,-8,-9.54701004732586,-8.906656677058612,-8.69617755815154
1769251166160,120,-8,-9.409663115260818,-8.745758063173,-8.557420817544934
1769251166164,121,-7,-9.194457842550577,-8.124828469886491,-8.35474633368936
1769251166168,120,-8,-8.943539017835326,-8.641719546531615,-8.124576633956345
1769251166172,120,-8,-8.780135691747063,-8.879267659167464,-7.972917648750659
1769251166176,121,-7,-8.651492706122312,-7.725119862288287,-7.831906990003083
1769251166180,123,-5,-7.889509916055696,-5.986158141390193,-7.036132351989106
1769251166184,126,-2,-5.012736308784205,-2.968172878212592,-4.12527684990749
1769251166188,131,3,1.6916812530844734,2.1693849128563647,2.5906164098884226
1769251166192,140,12,12.7635446780969,11.222890997543212,13.644439832740096
1769251166196,154,26,26.21340360653246,25.16408496916151,27.05845416901499
1769251166200,168,40,37.53826712072398,39.06296259762303,38.348936983390814
1769251166204,174,46,41.68214926489801,44.89447346696254,42.47554106957984
1769251166208,167,39,35.93962381374951,38.24230681111958,36.74065934233199
1769251166212,151,23,21.793611778510424,21.949403625156123,22.625733333406068
1769251166216,132,4,4.289256934491669,3.411812506489137,5.163192292707734
1769251166220,118,-10,-10.664479873989045,-11.283718908897931,-9.759145726483451
1769251166224,110,-18,-19.22836248622043,-18.65032885507782,-18.32000967787849
1769251166228,110,-18,-20.99335490784241,-19.210320397814225,-20.111861716784972
1769251166232,112,-16,-18.256337036475237,-16.665739083727164,-17.414185969183706
1769251166236,116,-12,-14.107652906422857,-13.065582432376008,-13.293107819537964
1769251166240,119,-9,-10.737648485059369,-9.9999779506014,-9.92459275588243
1769251166244,120,-8,-8.844540698894072,-8.875225073585302,-8.010386314983933
1769251166248,121,-7,-8.078869512531561,-8.127329429327137,-7.217627742221009
1769251166252,122,-6,-7.832883217627148,-6.686890887492913,-6.955957471324684
1769251166256,123,-5,-7.723271346331735,-6.256821943323962,-6.84903720357124
1769251166260,122,-6,-7.614526289414901,-6.8227229212503975,-6.754641834087461
1769251166264,122,-6,-7.456407835432456,-7.098486140098146,-6.609105787499445
1769251166268,122,-6,-7.212817762661331,-6.957075014356158,-6.367883635933569
1769251166272,123,-5,-6.892505230060823,-5.849860564605497,-6.0420841868318975
1769251166276,124,-4,-6.5467332946106085,-5.286237828610102,-5.691109606050711
1769251166280,123,-5,-6.20246634240414,-5.7747253717665465,-5.346539260575206
1769251166284,124,-4,-5.827337862029613,-5.268684852329156,-4.973868958588455
1769251166288,124,-4,-5.378012752616649,-4.750758329374414,-4.52566525427892
1769251166292,125,-3,-4.859311851071189,-4.165420459986895,-4.006152688715412
1769251166296,126,-2,-4.31217783397601,-3.0465168858842664,-3.4588458678793397
1769251166300,126,-2,-3.759014312669744,-3.071458288325239,-2.907524794242234
1769251166304,126,-2,-3.1974645372204034,-3.0590540363627747,-2.3480739138025064
1769251166308,127,-1,-2.655274692398854,-1.9313504335082456,-1.8061408884301715
1769251166312,128,0,-2.213934585250276,-1.1229865812742974,-1.363842359995241
1769251166316,128,0,-1.9398650541335856,-1.1121196230386703,-1.0899136379875745
1769251166320,128,0,-1.7948225607845814,-1.1176464634363104,-0.9467863295269384
1769251166324,128,0,-1.6426039973424935,-1.0409165065016768,-0.7964088247022835
1769251166328,128,0,-1.3589131606651224,-0.9917167009558449,-0.5127028979697237
1769251166332,129,1,-0.9265274155713804,-0.1400353073436689,-0.0792739771329811
1769251166336,130,2,-0.4137428519405863,0.8505944978923838,0.4330709299814845
1769251166340,130,2,0.1269651698174645,0.8268459455970629,0.971012295420417
1769251166344,130,2,0.7099179343669006,0.9854648297685508,1.550949506697736
1769251166348,131,3,1.3600594503382153,1.9170467143071377,2.200100728623715
1769251166352,132,4,2.038602454053854,2.893843975281906,2.8792121296152295
1769251166356,133,5,2.660176845503528,3.740234304193766,3.500636989971726
1769251166360,133,5,3.182384288149926,3.880976103365141,4.021067146759711
1769251166364,133,5,3.652953559668176,3.867891295121791,4.4894814279321675
1769251166368,134,6,4.160909877731882,4.983659545010677,4.996118048363918
1769251166372,135,7,4.75637759487345,5.763967200207117,5.590785884770635
1769251166376,135,7,5.422610174272964,5.791136094815312,6.255852553601753
1769251166380,136,8,6.110551118113717,6.800365844041103,6.942038633226462
1769251166384,137,9,6.791388298130341,7.848598770025035,7.620911850476002
1769251166388,137,9,7.481701876821296,7.989491071128731,8.30954458089477
1769251166392,138,10,8.220344378135353,8.642612407243194,9.047056533810272
1769251166396,139,11,9.016111214028507,9.902474649525544,9.841958676660903
1769251166400,140,12,9.814604851700029,10.578163257604372,10.639183809371447
1769251166404,140,12,10.510889100170496,11.053307146866578,11.333447897025136
1769251166408,141,13,10.987698959873295,11.70191211337224,11.807729855225698
1769251166412,141,13,11.14676802998916,11.865980725125002,11.96422857350428
1769251166416,141,13,10.921590668298505,11.62477004198404,11.73685277746598
1769251166420,140,12,10.27813881433061,10.776864691512795,11.091794530772678
1769251166424,139,11,9.218271710101243,9.816401432706416,10.0306396679434
1769251166428,138,10,7.796165454355583,8.863238199832356,8.606941125799864
1769251166432,136,8,6.132615452511947,6.651027612122267,6.941322503350047
1769251166436,134,6,4.394994514626678,4.761943796616249,5.201651373504159
1769251166440,133,5,2.7416008590801386,3.600642812733614,3.546481672705463
1769251166444,131,3,1.274413362072182,1.907356276267752,2.077291790446456
1769251166448,130,2,0.0354788788575759,0.7505361599646743,0.8356831085572325
1769251166452,129,1,-0.9677441063638555,-0.3363452149632726,-0.1704847718364499
1769251166456,128,0,-1.742320786967603,-1.2816893461803498,-0.9475350548842948
1769251166460,128,0,-2.304529908427063,-1.4556953087459057,-1.5116368335266972
1769251166464,127,-1,-2.678121248057572,-2.0547981188119415,-1.887097538450957
1769251166468,127,-1,-2.892068730625081,-2.381359491776004,-2.103364142389021
1769251166472,127,-1,-2.982519702776615,-2.238092816893061,-2.1965700456729618
1769251166476,127,-1,-2.995065874998929,-2.4640488374833938,-2.2120641114345885
1769251166480,127,-1,-2.9755354031779784,-2.348952512671413,-2.195502317072298
1769251166484,127,-1,-2.947483246931054,-2.174120332568572,-2.1702985312468734
1769251166488,127,-1,-2.8912267501093227,-2.3887216630906605,-2.1165832537703397
1769251166492,127,-1,-2.741784352278432,-2.210658129828184,-1.9693579090287303
1769251166496,128,0,-2.408465818775484,-1.6472503297567131,-1.6382429968186427
1769251166500,128,0,-1.8066510809394307,-1.1546315788200738,-1.0388984041927771
1769251166504,129,1,-0.8937694968986037,-0.4723960601837342,-0.1286461736305655
1769251166508,130,2,0.2996284817828155,0.875936592619325,1.0621058355922215
1769251166512,132,4,1.661147455101648,2.4657525273320138,2.420679591046336
1769251166516,133,5,3.018719208193938,3.570285737063455,3.774634779280438
1769251166520,134,6,4.177743011562772,4.62402694195974,4.9295213985497925
1769251166524,135,7,4.954287286815769,5.616829161065273,5.702013402071381
1769251166528,135,7,5.206452623884986,5.808643635215424,5.950743066592422
1769251166532,135,7,4.872008864360049,5.384952850381842,5.613633481841656
1769251166536,134,6,4.001171880835624,4.654419359876258,4.740677564805836
1769251166540,133,5,2.7579162240623036,3.4201657833072674,3.495402973978007
1769251166544,131,3,1.3718158070810738,1.8021122164223995,2.1069211586590653
1769251166548,130,2,0.052323997807977,0.551598050381515,0.7843227532333397
1769251166552,129,1,-1.0906661763070191,-0.426094604113967,-0.3626874757257339
1769251166556,128,0,-2.0725618871200555,-1.5779786738759327,-1.3493539702015271
1769251166560,127,-1,-2.992580364011337,-2.4463118749489063,-2.2743301743251227
1769251166564,126,-2,-3.953377474077555,-3.338915702708224,-3.2395656837184075
1769251166568,125,-3,-4.989685800288636,-4.427720547782023,-4.279205203868437
1769251166572,124,-4,-6.046405515504279,-5.449385865402424,-5.337869275071162
1769251166576,123,-5,-7.016244611951133,-6.6831494991688585,-6.3088314277150825
1769251166580,122,-6,-7.805240676954742,-7.349636759435051,-7.100035163620634
1769251166584,122,-6,-8.375393243752592,-7.53140363747611,-7.675696253939119
1769251166588,121,-7,-8.74297028622137,-8.267245681870895,-8.051953636968065
1769251166592,121,-7,-8.955224074783592,-8.686444767186314,-8.272154616210399
1769251166596,121,-7,-9.069232440853057,-8.519035975406652,-8.38823061129348
1769251166600,121,-7,-9.126750424128112,-8.558346269119191,-8.440677759846414
1769251166604,121,-7,-9.125436589652534,-8.41699221801947,-8.432818686799386
1769251166608,121,-7,-9.029213591344424,-8.379878699201464,-8.338486837284753
1769251166612,121,-7,-8.853078848324403,-8.710402452116071,-8.179116164536554
1769251166616,121,-7,-8.758846879816785,-8.498464201043033,-8.111944055986074
1769251166620,121,-7,-8.998390978536612,-8.699153405086209,-8.373022158453384
1769251166624,120,-8,-9.58721121861428,-9.29612680464529,-8.961200614432979
1769251166628,121,-7,-9.83018266178265,-8.566405627033056,-9.178761868733478
1769251166632,123,-5,-8.112417132859612,-6.5914871801935355,-7.427983064215182
1769251166636,128,0,-2.431556619706388,-1.6803798031011037,-1.7318788476391762
1769251166640,137,9,8.254692489413035,7.436574331245421,8.93812160713258
1769251166644,150,22,22.561600918165187,20.509999483522392,23.204762698195687
1769251166648,166,38,36.3194249445079,36.60636518909024,36.91875304875332
1769251166652,177,49,44.12207286549605,47.133175257317944,44.69275626043415
1769251166656,174,46,42.18877723704619,44.512962388618504,42.75554276639883
1769251166660,161,33,30.687553597386987,31.0951113608107,31.274968661874713
1769251166664,142,14,13.815004307478144,12.747224364512714,14.43753639265967
1769251166668,126,-2,-2.480815933237527,-3.687646477107117,-1.8276774440480936
1769251166672,116,-12,-13.55924701455602,-13.558836081477512,-12.89951568112564
1769251166676,113,-15,-17.963940704028026,-16.714559400714787,-17.3284419552823
1769251166680,114,-14,-17.22290954639224,-15.77121310996387,-16.630176582647415
1769251166684,116,-12,-14.172996366450032,-13.418387147690584,-13.61810559499748
1769251166688,119,-9,-11.176773084971895,-10.759090035309566,-10.636527403501908
1769251166692,120,-8,-9.275035155334932,-9.449747051685785,-8.724556875456834
1769251166696,121,-7,-8.406301570675158,-8.945383100126012,-7.8344694744002
1769251166700,122,-6,-8.105176153033252,-7.500064411756587,-7.519199692673296
1769251166704,123,-5,-8.010101647953379,-6.8415365348159245,-7.427682627003879
1769251166708,122,-6,-7.948268969663381,-7.423672823677752,-7.383689384710076
1769251166712,122,-6,-7.816734423294789,-7.812941768205299,-7.27138030266912
1769251166716,122,-6,-7.538482457446143,-7.655343538633056,-7.002941664173179
1769251166720,123,-5,-7.117388748262716,-6.755047491259162,-6.5820990612954
1769251166724,124,-4,-6.641024242944496,-5.769926287605986,-6.104678688855251
1769251166728,124,-4,-6.181775944482546,-5.49508948300972,-5.649916676424559
1769251166732,124,-4,-5.724294817146782,-5.890406742868547,-5.201520715054367
1769251166736,124,-4,-5.225135111310359,-5.527461598189447,-4.710589624467724
1769251166740,126,-2,-4.719928323224169,-3.995224868787171,-4.210220112117829
1769251166744,126,-2,-4.315814596832119,-3.571768594053653,-3.809993446335192
1769251166748,126,-2,-4.062776260371353,-3.799696034895559,-3.5627723137069935
1769251166752,126,-2,-3.8693678065657497,-3.647214701963754,-3.376546240506531
1769251166756,126,-2,-3.5783949473635697,-3.784369876731814,-3.0917353768891607
1769251166760,127,-1,-3.119077592245927,-2.8457605475261447,-2.63721195968445
1769251166764,128,0,-2.564002166853967,-1.7130632309059948,-2.0876805363704074
1769251166768,128,0,-2.040020023756955,-1.837822978216897,-1.5713387233332852
1769251166772,128,0,-1.6068427050684393,-1.5653856329830664,-1.1464181958125597
1769251166776,129,1,-1.2278157732995985,-1.0101399550921089,-0.7738637117126785
1769251166780,129,1,-0.8313421391085096,-0.6065308260104798,-0.3817923405956821
1769251166784,130,2,-0.3734374091973491,-0.0648552871513327,0.0716804789690623
1769251166788,130,2,0.15340309957322,0.4597690597789525,0.5920378084126576
1769251166792,131,3,0.7408067880952578,1.0763044957806498,1.1710995145062664
1769251166796,131,3,1.3682864136978077,1.282394184723158,1.790325611072455
1769251166800,132,4,1.989245074516857,2.0577523768351065,2.4045130541107604
1769251166804,133,5,2.5400306244346265,3.1902325480253775,2.9495294927444067
1769251166808,133,5,2.9863809619076385,3.1386405289403196,3.3898518465907
1769251166812,133,5,3.360202392375192,3.3381227764539307,3.7569602155502526
1769251166816,134,6,3.7377294704366895,3.9578729405292257,4.127437509110333
1769251166820,134,6,4.1776782278597935,4.32864672907401,4.5601209079449605
1769251166824,135,7,4.682352788511434,4.847754479290167,5.05712819751162
1769251166828,135,7,5.214394446350034,5.417127858652952,5.581354920256628
1769251166832,136,8,5.745034828438086,6.002662175484993,6.104844762451174
1769251166836,136,8,6.287330030914954,6.219145739809771,6.6410342800972515
1769251166840,137,9,6.889109493349502,7.029386563829169,7.2368424284183455
1769251166844,138,10,7.5934227228606765,8.049944775652548,7.933857614754697
1769251166848,138,10,8.38850362276449,8.18705637782365,8.720072825671846
1769251166852,139,11,9.172172948749278,9.131607563704767,9.494731588878684
1769251166856,140,12,9.763558547750868,10.071093535444655,10.078398915042955
1769251166860,140,12,9.980407540243986,10.072148363889353,10.288657259551067
1769251166864,140,12,9.741548409315207,9.977678384203609,10.042940353962802
1769251166868,139,11,9.10874144460895,9.168586632603375,9.40209828174362
1769251166872,138,10,8.220830895841605,8.095523032834436,8.505544243766801
1769251166876,137,9,7.173362425284333,7.04957635906212,7.450028340131683
1769251166880,136,8,5.9592190910847895,6.021570973964037,6.228620369831045
1769251166884,135,7,4.535353115149584,4.98707664006662,4.797151696849598
1769251166888,133,5,2.9507541781789635,3.0728891190185315,3.203789854066664
1769251166892,131,3,1.3942852132561252,1.1491485967016175,1.6382060534696432
1769251166896,130,2,0.0960868894087723,-0.0985192260725713,0.3320494943848027
1769251166900,129,1,-0.8273860856974704,-0.855213387832819,-0.5980772050227785
1769251166904,129,1,-1.4329058522382514,-1.2306021788283243,-1.2106177691419924
1769251166908,128,0,-1.86580651596147,-1.7228913721964767,-1.6525779844797657
1769251166912,128,0,-2.2307252591307076,-2.1696227761490574,-2.0282848539593155
1769251166916,127,-1,-2.548696363672325,-2.812685249834315,-2.3566837320636096
1769251166920,127,-1,-2.820074464188184,-3.2368404070845247,-2.636567398949633
1769251166924,127,-1,-3.088282092253156,-2.8872582629292514,-2.9120526444953847
1769251166928,127,-1,-3.405799857414866,-3.117178877810808,-3.237459808922032
1769251166932,126,-2,-3.7350261262001303,-3.862534431616739,-3.5756238539785135
1769251166936,126,-2,-3.911031013337382,-4.158622298581779,-3.7602425466459266
1769251166940,126,-2,-3.7309233086054623,-4.005852997034559,-3.5876257554459254
1769251166944,127,-1,-3.0952196708959123,-3.1248093200982163,-2.9597674912163017
1769251166948,128,0,-2.0786811698983807,-1.9682472530274888,-1.9535392558873137
1769251166952,129,1,-0.8892938636266045,-1.03468397119125,-0.7767071154850292
1769251166956,130,2,0.2316197969978943,-0.1004627511914222,0.332209210404307
1769251166960,131,3,1.1052950590254014,0.892848147545791,1.196865724380442
1769251166964,132,4,1.683712944302027,1.8813942759490576,1.7688198840351768
1769251166968,132,4,2.0720433471271464,2.021313058562968,2.1507895162672943
1769251166972,132,4,2.471271966946625,1.8758236092571683,2.5417572109612867
1769251166976,133,5,3.044270029172765,2.945525871530487,3.104273875072625
1769251166980,134,6,3.786590188266986,3.7468426140444935,3.8348884888577457
1769251166984,134,6,4.501974312945624,3.98286603168107,4.538738603869024
1769251166988,135,7,4.909153292727797,4.886885086955262,4.935357860479689
1769251166992,135,7,4.810538840167819,4.930309267391312,4.826955111598213
1769251166996,134,6,4.205531848548489,3.821115599224829,4.212436536180684
1769251167000,133,5,3.2657242176523344,2.7823109178635317,3.263391218574961
1769251167004,132,4,2.1984582902662417,1.8952982308998536,2.1872869504871537
1769251167008,131,3,1.1206054567604415,0.9455605167630052,1.1004779733869712
1769251167012,130,2,0.0433923741731474,-0.2016802781419999,0.0132283631240202
1769251167016,129,1,-1.0484014070067451,-1.102350661592869,-1.0900394108020932
1769251167020,128,0,-2.127055574240326,-2.406110799440279,-2.1807564878180985
1769251167024,126,-2,-3.1379505165940085,-3.941566499171935,-3.2029964728443865
1769251167028,126,-2,-4.069383853220284,-4.288400954178598,-4.144648442933069
1769251167032,125,-3,-4.978839085393305,-4.994721716768924,-5.063878835876876
1769251167036,124,-4,-5.931773054487475,-6.406733813999972,-6.02673605228438
1769251167040,123,-5,-6.915534290807566,-7.17726694665095,-7.020458970557215
1769251167044,122,-6,-7.820255869767442,-8.217491484165212,-7.935302648382171
1769251167048,121,-7,-8.506042182786732,-9.09433052257878,-8.6324923796021
1769251167052,121,-7,-8.893501475192371,-9.181807028518676,-9.033544753742875
1769251167056,121,-7,-9.00240936530105,-9.35697520879001,-9.156628441946072
1769251167060,121,-7,-8.918640929039814,-9.251882214857709,-9.083300958672924
1769251167064,121,-7,-8.731535407436438,-9.239321966116202,-8.899905605027762
1769251167068,121,-7,-8.49659836382515,-9.112985139301385,-8.665722836970733
1769251167072,122,-6,-8.247966087943045,-8.200020896418895,-8.425373191114767
1769251167076,122,-6,-8.05425267588723,-8.441064539316,-8.255778638435343
1769251167080,121,-7,-8.076855911731087,-9.214473764291494,-8.313760875156936
1769251167084,121,-7,-8.52284846860112,-9.371841398561566,-8.788604328347011
1769251167088,120,-8,-9.362484368386756,-10.003513153350482,-9.633213942809496
1769251167092,121,-7,-9.861918040171266,-9.38937325622394,-10.113139970730057
1769251167096,123,-5,-8.333599368581227,-7.27999728643583,-8.559859091604109
1769251167100,127,-1,-2.6623200226784203,-3.4817717389821095,-2.8824719681031614
1769251167104,136,8,8.27136432685514,5.865000792169246,8.027154912732165
1769251167108,151,23,23.04674597653235,20.708324621452206,22.756076445731924
1769251167112,167,39,37.37318880091144,36.85097467335424,37.0322627367385
1769251167116,178,50,45.74542663892526,47.44048101443817,45.368231672914874
1769251167120,176,48,44.3590805484934,45.64881790042613,43.97009878579625
1769251167124,163,35,33.37843996987977,32.61965622357753,33.00285344869499
1769251167128,145,17,16.931822661258096,14.811419290586052,16.584039885060957
1769251167132,129,1,0.8250766167370065,-1.2733540168017732,0.4995298582522816
1769251167136,119,-9,-10.438570009677347,-11.40308776616826,-10.7664986553738
1769251167140,115,-13,-15.438919436883776,-15.478165622467763,-15.79906012469884
1769251167144,115,-13,-15.595178243362842,-15.295793725521316,-16.004285213335216
1769251167148,117,-11,-13.51825805089917,-13.41010371744226,-13.97052071872221
1769251167152,118,-10,-11.310267247196462,-12.140085113717117,-11.78297331790982
1769251167156,119,-9,-9.825372754894463,-11.615899115944712,-10.294902532338568
1769251167160,120,-8,-8.97100440597516,-10.276792855464556,-9.427882862361304
1769251167164,122,-6,-8.404253031509851,-8.566458674629333,-8.85714638606553
1769251167168,122,-6,-7.958525381041971,-8.248070189600803,-8.424944272594033
1769251167172,122,-6,-7.636282265708869,-8.358175212231918,-8.12811061941484
1769251167176,122,-6,-7.433776997235028,-8.47608199311173,-7.94991019491951
1769251167180,122,-6,-7.269949407490979,-8.41621100796192,-7.80109709301175
1769251167184,123,-5,-7.044859686684568,-7.514935925073863,-7.583846482478922
1769251167188,123,-5,-6.70710842256359,-7.367719508824381,-7.254183035748483
1769251167192,123,-5,-6.26501644197931,-7.323153776102705,-6.824822460339411
1769251167196,124,-4,-5.769746377727254,-6.567767834614946,-6.345437131471167
1769251167200,124,-4,-5.298749497509992,-6.338378881146305,-5.889772496330632
1769251167204,125,-3,-4.924954988599458,-5.701610161154545,-5.529261324195097
1769251167208,125,-3,-4.666326954553245,-5.200193946904325,-5.283061986909708
1769251167212,125,-3,-4.458896625763185,-5.635271164670641,-5.088571866214188
1769251167216,125,-3,-4.19805159933898,-5.255045978464986,-4.841119113712406
1769251167220,126,-2,-3.8233941734925874,-4.714203589086733,-4.479730714076764
1769251167224,126,-2,-3.3647947720267797,-4.402281036063165,-4.034557914836588
1769251167228,127,-1,-2.902591477567687,-3.525281766272414,-3.586726254861745
1769251167232,127,-1,-2.487531905397761,-3.459697083028181,-3.186822891353725
1769251167236,127,-1,-2.106375717519568,-3.4075310023472416,-2.8202302969067876
1769251167240,128,0,-1.7200302734159183,-2.682397834476814,-2.446889337896594
1769251167244,128,0,-1.3152106336746725,-2.4249259601855986,-2.0544121303493967
1769251167248,129,1,-0.903699660997624,-1.641459936236564,-1.6564345270548553
1769251167252,129,1,-0.4808659069078079,-1.351951261666516,-1.248803206152541
1769251167256,129,1,-0.0113541075586058,-1.6345507103677972,-0.7946500857416643
1769251167260,130,2,0.532477428330266,-0.4553910704455099,-0.2648756284448956
1769251167264,131,3,1.133382218048557,0.2636074486702564,0.3228239996810684
1769251167268,131,3,1.7472308455762748,0.5919686579889374,0.9228350683903206
1769251167272,132,4,2.351567141469483,1.3849587991544916,1.5122754136618537
1769251167276,132,4,2.959845816684619,1.506406606699724,2.1055343413711225
1769251167280,133,5,3.587696751996492,2.414704986777054,2.718965875429238
1769251167284,134,6,4.221347281993823,3.2806873210376297,3.3383686140600233
1769251167288,134,6,4.829747266503213,3.546210292356365,3.932025945219438
1769251167292,135,7,5.402117601380617,4.339773195394453,4.489420038500356
1769251167296,135,7,5.964832265786425,4.50466091100587,5.037704682501974
1769251167300,136,8,6.563417799074353,5.338328247822664,5.622411626105817
1769251167304,137,9,7.232821048689821,6.333594746037299,6.277583403202534
1769251167308,137,9,7.975420109800405,6.386019235686117,7.005011320810288
1769251167312,138,10,8.746362956664882,7.481087108371197,7.760302179563164
1769251167316,139,11,9.450215349476826,8.253648643762666,8.448827877153924
1769251167320,139,11,9.963857103801756,8.562879853674223,8.947681959627614
1769251167324,140,12,10.182387923104136,9.037687391184438,9.151552899093552
1769251167328,139,11,10.056300714669346,8.618241483359082,9.010476982748978
1769251167332,139,11,9.591547436342026,8.192801284758424,8.530318199121911
1769251167336,138,10,8.819002186134812,7.446306674833283,7.742238015822009
1769251167340,137,9,7.767919686430287,6.358772204102465,6.675919046068479
1769251167344,136,8,6.47063689381571,5.130182504366841,5.363911745251227
1769251167348,134,6,4.992153085266139,3.5314855920512236,3.8708942114339098
1769251167352,133,5,3.4509778817439907,2.1411204109037034,2.3146568935958616
1769251167356,131,3,1.9996456513087744,0.4906782683201431,0.8473815824963422
1769251167360,130,2,0.7642479893703003,-0.7818435230609049,-0.4042150730299152
1769251167364,129,1,-0.2171599516410931,-1.7604174275332929,-1.4010543409490015
1769251167368,128,0,-1.0013608223705155,-2.639044871069643,-2.199858044260255
1769251167372,128,0,-1.673653123896921,-2.773533923811158,-2.887090521031458
1769251167376,127,-1,-2.2641682529769476,-3.637005415445892,-3.4937238871997995
1769251167380,126,-2,-2.735585527773735,-4.737258230463458,-3.9817109421416066
1769251167384,126,-2,-3.06030144295914,-4.841355558841832,-4.322263739422458
1769251167388,126,-2,-3.2934389892985148,-4.6293061531727755,-4.570677917463558
1769251167392,126,-2,-3.541521135550692,-4.851350584877645,-4.83458541972601
1769251167396,125,-3,-3.849732527596012,-5.611405573942503,-5.1592543070256145
1769251167400,125,-3,-4.128882306958165,-5.833186857849294,-5.454210491712841
1769251167404,125,-3,-4.197985885292821,-5.802971095411618,-5.537614273549973
1769251167408,125,-3,-3.900881590175269,-5.727179186408794,-5.254263254764969
1769251167412,126,-2,-3.200003734100126,-4.819335873209582,-4.568617811603684
1769251167416,127,-1,-2.18959957150377,-3.6922050786649807,-3.5759718088356065
1769251167420,128,0,-1.0427531412404167,-2.8170463720642953,-2.448211611118619
1769251167424,129,1,0.0578278347036352,-1.892591608896021,-1.365542804339138
1769251167428,130,2,0.975858223009133,-0.6833754222715112,-0.4628134439831581
1769251167432,131,3,1.6655110516686928,0.0467947954371958,0.2132573103420834
1769251167436,131,3,2.1943399455568016,0.4147622310047365,0.7281851906815158
1769251167440,132,4,2.7098908767529957,0.994065242970319,1.2283926155996334
1769251167444,132,4,3.33786702329449,1.239431684639114,1.8399225653882565
1769251167448,133,5,4.0696222804370805,2.1246524720790543,2.554749695989942
1769251167452,134,6,4.732253548334054,3.167033620040641,3.1999323557836052
1769251167456,134,6,5.076999262435965,3.2619350695389517,3.526644943354398
1769251167460,134,6,4.919164230813736,3.0615497667023694,3.351080160455503
1769251167464,133,5,4.225149021888939,2.124480899629791,2.6409321658724285
1769251167468,132,4,3.10497352802033,1.146367369683611,1.5063875342940212
1769251167472,131,3,1.7486546289941896,0.1078846238860309,0.1361835599756933
1769251167476,129,1,0.3573414997183655,-1.7363311579261544,-1.269958635550746
1769251167480,128,0,-0.9142595815121468,-2.9962262369250565,-2.5578919531001434
1769251167484,127,-1,-2.000557970794821,-3.879037053263789,-3.6619724743306055
1769251167488,126,-2,-2.9363898179548,-4.935461799736476,-4.616687124597701
1769251167492,125,-3,-3.825360062984767,-5.847549647431667,-5.524575705373522
1769251167496,124,-4,-4.778528125568585,-6.842198780738823,-6.494923934127657
1769251167500,123,-5,-5.849267461459432,-7.941108081204559,-7.580027931632348
1769251167504,122,-6,-6.987114211259352,-9.017356314259231,-8.730595720930177
1769251167508,121,-7,-8.0351784654301,-9.855870644872134,-9.792743469303538
1769251167512,120,-8,-8.79500318497937,-10.993116302092838,-10.570393481441656
1769251167516,119,-9,-9.145887426400746,-11.726545926116094,-10.942408295883771
1769251167520,120,-8,-9.139227279144226,-11.131878644051492,-10.956884224104918
1769251167524,120,-8,-8.973031472649598,-10.8856234324092,-10.807529320434288
1769251167528,120,-8,-8.845053433637807,-11.061943706616727,-10.689761155923769
1769251167532,120,-8,-8.807006750792372,-10.844086451993824,-10.658022515739171
1769251167536,120,-8,-8.759986572654533,-10.91063836565889,-10.621641336892928
1769251167540,120,-8,-8.61420534356462,-11.049819419027957,-10.499442711417863
1769251167544,120,-8,-8.478981402058341,-10.978000162817803,-10.4011074533151
1769251167548,120,-8,-8.668638274366177,-11.106188453974148,-10.62872932808552
1769251167552,119,-9,-9.386956889962208,-11.770304576820983,-11.367995758837337
1769251167556,119,-9,-10.193053802057264,-12.120819254042306,-12.169111731152173
1769251167560,120,-8,-9.641070155698817,-10.83079371639482,-11.596843419102765
1769251167564,124,-4,-5.597251949272583,-7.314895245275984,-7.54163701610412
1769251167568,131,3,3.5613998886413025,0.2066196333135335,1.600294534193119
1769251167572,144,16,17.36879733866752,12.89138386425662,15.362664032999849
1769251167576,160,32,32.45874123344819,29.125425869374283,30.395759163854336
1769251167580,174,46,43.525157560641446,42.9420791684652,41.413824820636194
1769251167584,177,49,45.89463525466507,45.70894746588816,43.75740892100795
1769251167588,167,39,38.17888066881429,36.17876705879332,36.04223807561497
1769251167592,151,23,23.16797934243611,19.68912298420021,21.051200607017464
1769251167596,133,5,6.310718785011156,2.338691297119317,4.215535638997057
1769251167600,121,-7,-7.1605324589594535,-10.323981849857256,-9.252704295434253
1769251167604,114,-14,-14.577574257996792,-16.96010952764631,-16.695861300960324
1769251167608,113,-15,-16.369649543601213,-18.134205195597087,-18.536438088129884
1769251167612,115,-13,-14.865220938276227,-16.141465444608826,-17.083299730924416
1769251167616,116,-12,-12.501855671469954,-14.870035301433468,-14.754387306614875
1769251167620,117,-11,-10.664656269180098,-14.308721878060917,-12.927243669007607
1769251167624,118,-10,-9.6113166852894,-12.897139898684156,-11.86792773402452
1769251167628,120,-8,-9.064430779178084,-11.328887163120392,-11.316393391978172
1769251167632,120,-8,-8.758167720561744,-10.951918987942728,-11.020094596226052
1769251167636,120,-8,-8.585006583073874,-11.189507131558026,-10.871857915812502
1769251167640,120,-8,-8.47938182751344,-11.057783678617668,-10.795887766761126
1769251167644,120,-8,-8.328582890987981,-11.154298751688469,-10.668741357223231
1769251167648,120,-8,-8.02300206046667,-11.144648122650889,-10.377839382158731
1769251167652,121,-7,-7.545697054012218,-10.152120334515352,-9.911382519784045
1769251167656,122,-6,-6.972134475316061,-9.127448281407052,-9.351701054193477
1769251167660,122,-6,-6.385243713856441,-9.147840110817052,-8.783604764333202
1769251167664,122,-6,-5.819507813959195,-9.137606115224028,-8.237892542410261
1769251167668,123,-5,-5.290377575006847,-8.164793021005252,-7.72617709571309
1769251167672,124,-4,-4.835090857797804,-7.23657028350499,-7.286076346928749
1769251167676,124,-4,-4.485451871516973,-7.086272864821612,-6.952299595527412
1769251167680,124,-4,-4.2121926712921685,-7.296364139763379,-6.696638421412567
1769251167684,124,-4,-3.932716919287532,-6.988002160719499,-6.434832009514011
1769251167688,125,-3,-3.5834521916373077,-6.396100438379138,-6.101861554615132
1769251167692,125,-3,-3.167142073873012,-6.041393187557444,-5.701311893174671
1769251167696,126,-2,-2.7217244003505368,-5.371359955902627,-5.27284031354097
1769251167700,126,-2,-2.261035144933344,-5.077326930460986,-4.830341254095702
1769251167704,126,-2,-1.7680095906706723,-5.231476680510367,-4.355076996874871
1769251167708,127,-1,-1.2427911331380876,-4.243488598501723,-3.8462037703996
1769251167712,128,0,-0.728999558185202,-3.1945709552887136,-3.3483744022143425
1769251167716,128,0,-0.2725104212477214,-3.363544474187451,-2.9088422697222276
1769251167720,128,0,0.1360395980681976,-3.073713829584282,-2.5179424644483976
1769251167724,129,1,0.5617360637658315,-2.3423642522349226,-2.1092024451210243
1769251167728,129,1,1.0719034545788513,-2.1550373216213616,-1.6149076313066986
1769251167732,130,2,1.6918960902746298,-1.340717767844394,-1.0108736229327675
1769251167736,131,3,2.4074786489788877,-0.3124121062504852,-0.3124798426542461
1769251167740,131,3,3.1896542175612,-0.1333296297598356,0.451701968893571
1769251167744,132,4,4.001964181995785,0.5929344722645582,1.2465990972084056
1769251167748,133,5,4.793200274371713,1.935555701077874,2.0214257594000498
1769251167752,134,6,5.510550442477955,2.4348311705839936,2.722375742432634
1769251167756,134,6,6.135813814989932,2.9026630600017893,3.3304529541154206
1769251167760,135,7,6.702168098415979,3.5716059671588773,3.8794517931984656
1769251167764,135,7,7.266141687880458,3.810700394505949,4.427017569499506
1769251167768,136,8,7.865129995133644,4.71682986057516,5.010508595222289
1769251167772,137,9,8.50425896856155,5.526366369612764,5.633785748267646
1769251167776,137,9,9.170159866856377,5.829155986288275,6.282579895674309
1769251167780,138,10,9.830142073208805,6.509757494697974,6.924714376501493
1769251167784,138,10,10.402540366885624,6.877878880981478,7.479574425702599
1769251167788,139,11,10.742386977336192,7.53733722588107,7.802404100463106
1769251167792,139,11,10.688147757160133,7.701519409526228,7.731193588761325
1769251167796,138,10,10.147138469378245,6.554865629184806,7.173269132469737
1769251167800,137,9,9.147392641930008,5.749945770960067,6.157294280068754
1769251167804,136,8,7.816205682822961,4.554990852397749,4.810709477177855
1769251167808,134,6,6.312619618321504,2.8152155695546144,3.291659066424929
1769251167812,133,5,4.765551651812089,1.373251512468896,1.727919323466157
1769251167816,131,3,3.247332496340441,-0.1683976086630327,0.191596188226945
1769251167820,130,2,1.7834573619925158,-1.5950439177853282,-1.29074775471947
1769251167824,128,0,0.3826732683002574,-3.1590880190072745,-2.708789092168609
1769251167828,127,-1,-0.9308406593432146,-4.524259834809374,-4.037713913823149
1769251167832,126,-2,-2.0958621721451016,-5.346716235080034,-5.217345402825414
1769251167836,125,-3,-3.016802557597365,-6.478483657362153,-6.15385240226471
1769251167840,124,-4,-3.605637166261907,-7.383936875456105,-6.759965503546986
1769251167844,124,-4,-3.851523172164929,-7.393532873090483,-7.024010397110414
1769251167848,124,-4,-3.863936056587291,-7.378901654868913,-7.054021789001456
1769251167852,124,-4,-3.835094260863116,-7.519520599805364,-7.041570409006408
1769251167856,124,-4,-3.929446383236474,-7.361398497257346,-7.151786794771365
1769251167860,124,-4,-4.177583379824745,-7.580180108802125,-7.416363742997819
1769251167864,123,-5,-4.46314934153138,-8.24498587459643,-7.718975780442917
1769251167868,123,-5,-4.621875899069108,-8.600634387036964,-7.894212823862652
1769251167872,123,-5,-4.567245941328316,-8.334045834469542,-7.854932624071735
1769251167876,124,-4,-4.323156750807689,-7.5927345730605325,-7.626027340904916
1769251167880,124,-4,-3.9408086288121047,-7.425234851838379,-7.260089146709289
1769251167884,124,-4,-3.408539683195265,-7.438013083386805,-6.745463801118659
1769251167888,125,-3,-2.6679103906987027,-6.505820347990941,-6.022483995971218
1769251167892,126,-2,-1.718024679210478,-5.436665277397681,-5.089343812676248
1769251167896,127,-1,-0.6842117581882268,-4.580216121316756,-4.071593869534523
1769251167900,128,0,0.2366722612164967,-3.4522534852179527,-3.166895380628576
1769251167904,129,1,0.9158738558136778,-2.5091819450369357,-2.5043050076017224
1769251167908,129,1,1.3897031466395429,-2.480410067928754,-2.046782543858879
1769251167912,129,1,1.816646096797516,-2.526510350513905,-1.6349959927598543
1769251167916,130,2,2.328396714134928,-1.5317563547122506,-1.1378735409152607
1769251167920,131,3,2.911366794897346,-0.5545373510654366,-0.5708645849797473
1769251167924,131,3,3.413040377197286,-0.4606318279930339,-0.0872526451742425
1769251167928,131,3,3.6387665589093983,-0.6035673094927878,0.1197666163339226
1769251167932,131,3,3.448869651134165,-0.4416720242588943,-0.0875935681914277
1769251167936,131,3,2.8112383757885255,-0.7052482305888519,-0.7409856967185731
1769251167940,129,1,1.8062217579074216,-2.3791817760297778,-1.760620860855752
1769251167944,128,0,0.5852082913670256,-3.7570217926982825,-2.995767622904946
1769251167948,127,-1,-0.6956310019193837,-4.294443922086093,-4.291248281971333
1769251167952,126,-2,-1.9223816175171875,-5.886730596146575,-5.534413824737399
1769251167956,124,-4,-3.0346371705195883,-7.24139417034601,-6.665073776097374
1769251167960,124,-4,-4.024295377341999,-7.932162777063769,-7.6735351745051315
1769251167964,122,-6,-4.932527702695903,-9.2446178570245,-8.598806515975566
1769251167968,122,-6,-5.821468319766446,-9.868439170653334,-9.502261201394404
1769251167972,121,-7,-6.711679196024943,-10.391062533436804,-10.405708976517865
1769251167976,120,-8,-7.53242403231588,-11.748688647145327,-11.24054637285443
1769251167980,119,-9,-8.149847956525242,-12.522176792132996,-11.87453505874326
1769251167984,119,-9,-8.470591588789645,-12.64963061018616,-12.214628599759546
1769251167988,119,-9,-8.530317601684377,-12.607072926807447,-12.294802138372788
1769251167992,119,-9,-8.477847765114731,-12.618172758927717,-12.260012581132887
1769251167996,119,-9,-8.461493541745714,-12.650099903604064,-12.254836939896538
1769251168000,119,-9,-8.512903140407808,-12.599300870819876,-12.311851274037172
1769251168004,119,-9,-8.530008002275778,-12.69229023935197,-12.336775291336467
1769251168008,119,-9,-8.391436032585677,-12.600602321864429,-12.218247305055002
1769251168012,119,-9,-8.129289771868574,-12.672336477045835,-11.990949748435938
1769251168016,119,-9,-7.994571776703698,-12.671139088692062,-11.894964448208812
1769251168020,119,-9,-8.24936554699877,-12.567816103290808,-12.173509418717012
1769251168024,119,-9,-8.687926275238272,-12.868848933691568,-12.609462863189083
1769251168028,120,-8,-8.189990211360168,-11.404971857936102,-12.090901606007712
1769251168032,124,-4,-4.8274989953868985,-7.984489270121426,-8.713695851584806
1769251168036,129,1,3.1278883155632595,-2.345546856017485,-0.7705048388405991
1769251168040,141,13,15.626217262293611,9.052698444130993,11.686325446693782
1769251168044,156,28,29.791472365379505,24.44037656343592,25.79621035913922
1769251168048,169,41,40.563895045012295,37.27470333010603,36.51985994585142
1769251168052,173,45,43.123413501570646,41.19017051372053,39.051749779247345
1769251168056,164,36,35.69132388091076,32.48904027375799,31.61821261404694
1769251168060,147,19,20.74827251025981,14.977247056548476,16.694600500205045
1769251168064,129,1,3.7414386635556576,-2.4747509701974852,-0.2877823315290659
1769251168068,117,-11,-9.8298101953619,-14.89305244633434,-13.850664979896294
1769251168072,110,-18,-16.995431487528467,-21.535012172901823,-21.037730013643355
1769251168076,110,-18,-18.07559353296064,-21.746931323009942,-22.16499686485459
1769251168080,113,-15,-15.556503640242957,-18.897883564140763,-19.69881990919663
1769251168084,115,-13,-12.19931405391126,-16.703796090588526,-16.378549441309822
1769251168088,117,-11,-9.682608874339454,-14.808586688989594,-13.873162995659223
1769251168092,118,-10,-8.367156219237323,-13.592162522719798,-12.550502471866416
1769251168096,119,-9,-7.868750057846008,-12.7214118372719,-12.04329334610906
1769251168100,120,-8,-7.718950162995271,-11.976009268842054,-11.897800322181933
1769251168104,120,-8,-7.642448172366398,-11.747395213243514,-11.842251108935567
1769251168108,120,-8,-7.492243497302691,-11.842998694781802,-11.721558184394295
1769251168112,119,-9,-7.154141286155023,-12.548812469356836,-11.40947353398856
1769251168116,120,-8,-6.5929743705893085,-11.778627698559657,-10.864538919367147
1769251168120,122,-6,-5.929011543919588,-9.977595163828145,-10.210192054945278
1769251168124,122,-6,-5.370970217395388,-9.854633671366123,-9.662621261305564
1769251168128,122,-6,-5.033581498061192,-9.819759277507842,-9.340433632857392
1769251168132,122,-6,-4.834872826685958,-9.5592604921633,-9.159526935770351
1769251168136,122,-6,-4.584480451428277,-9.808877797636216,-8.925522220062021
1769251168140,123,-5,-4.163176806686298,-8.999097372681135,-8.518103628782992
1769251168144,124,-4,-3.609598838198174,-7.9228640354884465,-7.97816449411201
1769251168148,124,-4,-3.048008637446672,-7.847522758029073,-7.432215019879205
1769251168152,124,-4,-2.5598590888666393,-7.493233765113649,-6.9612953904522845
1769251168156,125,-3,-2.136780433861676,-6.953458048778275,-6.554803159939398
1769251168160,125,-3,-1.738775228334153,-6.871651491291308,-6.171422100470856
1769251168164,126,-2,-1.3661807288471075,-6.194220944601703,-5.812406882466666
1769251168168,126,-2,-1.0575309625436509,-5.58967252411199,-5.518138266975955
1769251168172,126,-2,-0.8236244822809813,-5.8015459338224815,-5.299975522020587
1769251168176,126,-2,-0.603110471737854,-5.6352665962136665,-5.095342139272774
1769251168180,127,-1,-0.2950944598663744,-5.285851550083018,-4.802072377098078
1769251168184,127,-1,0.1670202959014473,-4.8666802334970365,-4.353954169952935
1769251168188,128,0,0.7768106167404403,-3.966855409236498,-3.758930669357154
1769251168192,128,0,1.4787917622841291,-3.4418709720775817,-3.073125436501845
1769251168196,129,1,2.216254587496032,-3.0049170749038936,-2.3521020055064312
1769251168200,130,2,2.957680561901867,-2.009445033387762,-1.6257522054200633
1769251168204,131,3,3.698246729134042,-1.222350994873908,-0.8986251769029803
1769251168208,131,3,4.456143161434293,-0.6843333099924909,-0.1538907907842439
1769251168212,132,4,5.266648621305161,0.2964145473486901,0.6421222308418657
1769251168216,133,5,6.160241304920361,1.2060265948518365,1.519609162878889
1769251168220,134,6,7.1251451952775415,1.7280270195455696,2.468070114023938
1769251168224,135,7,8.085774742418794,2.9174737170271863,3.4133678147053956
1769251168228,136,8,8.936090447315586,4.1531226392052725,4.249591745259272
1769251168232,136,8,9.621538675681393,4.4261641793069835,4.921159512595136
1769251168236,137,9,10.199047696881212,5.080461289175408,5.484299604923797
1769251168240,138,10,10.802865710840866,5.747968466203812,6.073705949899755
1769251168244,138,10,11.527195328283256,5.824327834314367,6.784218630068068
1769251168248,139,11,12.325118213615983,7.169925377894803,7.568306253388258
1769251168252,140,12,13.018289882943026,8.449798961903511,8.246185213393444
1769251168256,140,12,13.403682064595204,7.984800452164862,8.61479182662759
1769251168260,140,12,13.348077835760352,7.81581092036064,8.543029532763757
1769251168264,140,12,12.797086476793528,7.601986839363783,7.978355696277347
1769251168268,138,10,11.741027850475083,6.378088958608483,6.910155961244256
1769251168272,137,9,10.214821509788615,5.223404845047822,5.370634046778848
1769251168276,135,7,8.329599426669905,3.210439354910365,3.4698093295166466
1769251168280,133,5,6.267932465444831,0.5024952845919699,1.39214975219007
1769251168284,131,3,4.217793688113478,-1.199993110832874,-0.6719195415261057
1769251168288,129,1,2.309372950795913,-2.8402078645900293,-2.592390913420381
1769251168292,127,-1,0.6221021613681359,-4.5970137382677345,-4.292429819559337
1769251168296,126,-2,-0.7671082304473389,-5.909878814434175,-5.696838002986959
1769251168300,125,-3,-1.785398590948573,-7.535921802548303,-6.73153119024595
1769251168304,124,-4,-2.4369914307815073,-8.211550488334163,-7.39831751889164
1769251168308,124,-4,-2.853379311382351,-7.918871586068554,-7.82811949582138
1769251168312,123,-5,-3.2255410472896404,-8.488220587465118,-8.213479729632333
1769251168316,123,-5,-3.657562725110816,-9.01757773096214,-8.659643223160893
1769251168320,123,-5,-4.087624738462649,-9.54289939842972,-9.103888403794862
1769251168324,122,-6,-4.362583686538124,-10.286988874587363,-9.391653464382536
1769251168328,122,-6,-4.390581438820794,-9.943164665814653,-9.431772623828085
1769251168332,122,-6,-4.2171454292957,-9.378641761636118,-9.272356418019836
1769251168336,123,-5,-3.962500346146845,-9.197697190781724,-9.034554602120789
1769251168340,123,-5,-3.710599500625275,-9.379688369189198,-8.799317572593441
1769251168344,123,-5,-3.469019796497858,-9.637668063162891,-8.570381571796034
1769251168348,123,-5,-3.2004191431988604,-8.611088391993416,-8.311003691964789
1769251168352,124,-4,-2.8413760471161034,-7.6897595800224945,-7.9628027772216114
1769251168356,124,-4,-2.2966406429346637,-7.907380590656451,-7.433770289596972
1769251168360,125,-3,-1.4897690595334792,-7.695986680411334,-6.64464971506678
1769251168364,126,-2,-0.476557342022529,-6.534809041074877,-5.646164027016944
1769251168368,127,-1,0.5233538848739747,-4.685726354783328,-4.6572598516224755
1769251168372,128,0,1.284200000772794,-3.663829081607028,-3.907732081205429
1769251168376,128,0,1.791148039426431,-3.849157408967676,-3.415128567419157
1769251168380,129,1,2.261565184384601,-3.8970700139446217,-2.9597647682783315
1769251168384,129,1,2.9100015246594015,-3.4529317929689096,-2.323444327733019
1769251168388,130,2,3.69871116879611,-1.829995699108671,-1.5446690538185124
1769251168392,131,3,4.347687733232331,-0.4821489624559305,-0.908088480084038
1769251168396,131,3,4.584532801164557,-0.9791612514610346,-0.6882282554187635
1769251168400,131,3,4.348335518785598,-1.9024238609783888,-0.94210062476446
1769251168404,130,2,3.7460536061391414,-2.5721084441607633,-1.557395113926627
1769251168408,129,1,2.873484199514458,-2.8103867820753656,-2.4383450597985763
1769251168412,128,0,1.7518436982561154,-3.4103125119406776,-3.5691290514127334
1769251168416,127,-1,0.4373398555322594,-5.02827443276229,-4.897312681275771
1769251168420,126,-2,-0.8883943828809318,-6.948226307599355,-6.238702995248189
1769251168424,124,-4,-2.0125822777088205,-8.693570392635557,-7.375662784035839
1769251168428,123,-5,-2.875837456044076,-8.769929414263066,-8.249031795128365
1769251168432,123,-5,-3.614306682261757,-8.36194810449794,-9.000257689725379
