timestamp_ms,ecg_u8_raw,ecg_counts_raw_int,ecg_counts_filt_monitor,ecg_counts_filt_diagnostic,ecg_counts_filt_st
1770452916148,131,3,3.955580409144196,0.4236326382408122,0.0873200608022668
1770452916152,131,3,3.896530223796711,-0.0417227200729071,0.0233083250679442
1770452916156,130,2,3.5079123531943868,-0.57217050900582,-0.3678559023194538
1770452916160,130,2,2.816903627127666,-0.8786238221101548,-1.0587677507274182
1770452916164,129,1,2.0346576745615903,-1.7737760263854443,-1.840570092173642
1770452916168,128,0,1.4257285434215523,-2.816896782807172,-2.451197094897614
1770452916172,128,0,1.1381640159363875,-2.8589847805586257,-2.7428602941419395
1770452916176,128,0,1.1116308196999516,-2.666521071769834,-2.77391237043083
1770452916180,128,0,1.1370167607166022,-2.8446599732355717,-2.7512864473752567
1770452916184,128,0,1.0271926368755375,-2.716663715933843,-2.8617702676897836
1770452916188,128,0,0.7628419238448712,-2.8983169221299327,-3.126380826995313
1770452916192,127,-1,0.4876596152016508,-3.734756079013064,-3.4033714409143903
1770452916196,127,-1,0.3477596221295467,-3.806288681084504,-3.54691734739312
1770452916200,127,-1,0.3135535101212947,-3.667051972882407,-3.5851922520489428
1770452916204,127,-1,0.1599491437055802,-3.8807597680829025,-3.7417377754335046
1770452916208,127,-1,-0.3478977363261384,-3.692262447314643,-4.250939678882007
1770452916212,126,-2,-1.2143986717355948,-4.926467178035245,-5.117665436180805
1770452916216,124,-4,-2.1476837837179104,-6.645941897824737,-6.050798631449615
1770452916220,124,-4,-2.755081059222846,-6.7491312421103515,-6.658684576355901
1770452916224,124,-4,-2.8465595067712903,-6.852718599688339,-6.752403446133092
1770452916228,124,-4,-2.590235432643217,-6.578663559630178,-6.500299418884152
1770452916232,125,-3,-2.392945763435184,-6.117190181156784,-6.307935550977922
1770452916236,124,-4,-2.604283485551048,-6.376019791959326,-6.522917088344162
1770452916240,124,-4,-3.272142557862574,-7.071980344920688,-7.191837560308221
1770452916244,122,-6,-4.125991225071818,-8.474643189046468,-8.044421545980395
1770452916248,122,-6,-4.780255131162719,-8.915861133504952,-8.696915399396229
1770452916252,122,-6,-4.982418394704456,-8.78074257066784,-8.899156689350278
1770452916256,122,-6,-4.7207577110536665,-8.655286026754037,-8.640473116382353
1770452916260,123,-5,-4.1516008000902715,-7.840802483782732,-8.075844740919928
1770452916264,123,-5,-3.454073621855749,-7.612406618728578,-7.38180351378124
1770452916268,124,-4,-2.740252189836645,-6.811227321167856,-6.669109683958254
1770452916272,125,-3,-2.0592813613836496,-5.809021885513763,-5.9880203368575025
1770452916276,125,-3,-1.4481184289232192,-5.653023776975957,-5.377502028155638
1770452916280,126,-2,-0.9667915273739718,-4.820173500761623,-4.898129900692204
1770452916284,126,-2,-0.6901514446300994,-4.580561553534137,-4.6234016362141785
1770452916288,126,-2,-0.664746880389139,-4.866071445462192,-4.598530548741394
1770452916292,126,-2,-0.8609147525982335,-4.655639711422677,-4.794439381084735
1770452916296,126,-2,-1.1588850228219456,-4.879506836238271,-5.093200345214949
1770452916300,125,-3,-1.4003654471029705,-5.495459866338107,-5.33706237720947
1770452916304,125,-3,-1.4933834729135078,-5.942484623196632,-5.4324395719933225
1770452916308,125,-3,-1.4873011021744138,-5.423862515410825,-5.427193050338229
1770452916312,126,-2,-1.5238987537362336,-5.093431129891876,-5.4637732370172
1770452916316,125,-3,-1.6838415043222823,-5.43785168119453,-5.6244088908417496
1770452916320,125,-3,-1.8817109287969445,-5.874620930469295,-5.823586152874004
1770452916324,124,-4,-1.9361182896370008,-6.611429372689554,-5.878392031463399
1770452916328,125,-3,-1.7542044047458272,-5.641287767985453,-5.695698742023833
1770452916332,126,-2,-1.4391086507022144,-4.925538635625124,-5.380582907953958
1770452916336,125,-3,-1.2136440562725668,-5.5158687479610915,-5.1576090554102585
1770452916340,126,-2,-1.2460502176105868,-4.820600349655054,-5.194002710466947
1770452916344,125,-3,-1.5430357379113184,-5.624121004512368,-5.493216570854434
1770452916348,124,-4,-1.9809910165551277,-6.623039818030646,-5.929380491509099
1770452916352,125,-3,-2.406391362340023,-5.900376283049479,-6.3503629023337
1770452916356,124,-4,-2.698495630546214,-6.5067348284485576,-6.639530339260144
1770452916360,124,-4,-2.774201823335267,-6.818539166723431,-6.716696908695579
1770452916364,124,-4,-2.6013624364851187,-6.585489938939624,-6.548681389447378
1770452916368,124,-4,-2.251717494731091,-6.6612810540548635,-6.203447256253032
1770452916372,125,-3,-1.9215428272376105,-5.833412101891389,-5.8742757308957785
1770452916376,125,-3,-1.8348407135617943,-5.499012090222562,-5.785126843891719
1770452916380,125,-3,-2.0650073050848063,-5.872270719633483,-6.011581945040028
1770452916384,124,-4,-2.4337473714464855,-6.421273682129527,-6.377682163319172
1770452916388,124,-4,-2.6145567977259585,-6.912095524002895,-6.558081084844067
1770452916392,124,-4,-2.3891900881724,-6.4629675415182355,-6.334351675625783
1770452916396,125,-3,-1.851073395292056,-5.885098651851802,-5.798827766099483
1770452916400,125,-3,-1.3720419968777575,-5.417346835141606,-5.322080076409504
1770452916404,126,-2,-1.3335192884616411,-4.868493946644171,-5.284694122388369
1770452916408,125,-3,-1.8208911691382696,-5.463922647240725,-5.771426540242662
1770452916412,124,-4,-2.5291974998219757,-6.873183823978088,-6.476597394541277
1770452916416,123,-5,-2.9677656770847443,-7.450173094762131,-6.90986558167826
1770452916420,124,-4,-2.798523904444605,-6.791064135430354,-6.735973637406408
1770452916424,125,-3,-2.0370020179864428,-5.493527497006784,-5.974232020274647
1770452916428,126,-2,-0.9970395154040126,-4.7817612574930255,-4.939161832972419
1770452916432,126,-2,-0.0912755537840297,-4.569923579506861,-4.039452722964253
1770452916436,127,-1,0.3427626055850807,-3.6870344692476538,-3.6076349114250537
1770452916440,127,-1,0.1381750151163361,-3.555096807921564,-3.809098122711602
1770452916444,126,-2,-0.6504224340627762,-4.685752027461529,-4.591672316261391
1770452916448,125,-3,-1.742092471804659,-5.5628683573096165,-5.677859102156835
1770452916452,124,-4,-2.7169978783431334,-6.76795521470336,-6.649809516444869
1770452916456,123,-5,-3.1965719489505795,-7.451675276919215,-7.129186680243857
1770452916460,124,-4,-3.029225807525678,-6.758004829480711,-6.963450971310751
1770452916464,124,-4,-2.366292806264668,-6.440865023479557,-6.302326047485003
1770452916468,125,-3,-1.5740633385134413,-5.780375372563144,-5.510685315198037
1770452916472,126,-2,-1.0275666618840793,-4.523193566843775,-4.963243355297275
1770452916476,126,-2,-0.9084825713206108,-4.675077410655731,-4.84219298039814
1770452916480,125,-3,-1.1378131876025774,-5.513385343120431,-5.068807135433049
1770452916484,125,-3,-1.4827997241495852,-5.628297351081319,-5.41038011024758
1770452916488,125,-3,-1.736653462092856,-5.5892299863782355,-5.660912915522217
1770452916492,125,-3,-1.8191764412861149,-5.654580862204299,-5.741495581270886
1770452916496,125,-3,-1.7474088926408824,-5.532032931847704,-5.669418386229765
1770452916500,125,-3,-1.5572341660077984,-5.6110811060817705,-5.4792787310618
1770452916504,125,-3,-1.2737436037415144,-5.500788739990074,-5.194820479516672
1770452916508,126,-2,-0.9398472223913864,-4.697578833615676,-4.8589530131528385
1770452916512,126,-2,-0.642662572264658,-4.491300323778138,-4.559593923554948
1770452916516,126,-2,-0.4942772947257283,-4.691853011472324,-4.409062008149913
1770452916520,126,-2,-0.5784552608416387,-4.379506436240066,-4.490768059041357
1770452916524,126,-2,-0.9010045841137792,-4.740533296354484,-4.810621337556312
1770452916528,125,-3,-1.3774227504310887,-5.405069972470413,-5.284810942704043
1770452916532,125,-3,-1.8740540845916227,-5.752005475439126,-5.779934118381217
1770452916536,124,-4,-2.2832240779705355,-6.4057906803012425,-6.187599328515983
1770452916540,124,-4,-2.574312904064587,-6.604988172957445,-6.47640388323885
1770452916544,124,-4,-2.768357980815405,-6.513603456388925,-6.667650728000514
1770452916548,124,-4,-2.8513138597856567,-6.571505342006581,-6.74815635659194
1770452916552,124,-4,-2.715872630651134,-6.570480647481056,-6.610496021593812
1770452916556,124,-4,-2.2135003394320365,-6.536931396421279,-6.104893759129767
1770452916560,125,-3,-1.2881103340946185,-5.44485027741762,-5.1749975289691
1770452916564,127,-1,-0.0624806704618481,-3.64535776388174,-3.945657893792439
1770452916568,128,0,1.2119863991518445,-2.3868192588593615,-2.6705421323346776
1770452916572,129,1,2.2867883972805636,-1.7382209988731254,-1.5972553800428015
1770452916576,129,1,3.0039476477524025,-1.311952083778129,-0.8799807446236985
1770452916580,130,2,3.303013563909636,-0.6729012838857225,-0.576613101829611
1770452916584,130,2,3.219568434366478,-0.3592052541740256,-0.6530577604750318
1770452916588,130,2,2.9170874626129866,-0.6457926061076416,-0.9493668894049851
1770452916592,129,1,2.680193841411081,-1.4181920834200867,-1.1826425365447846
1770452916596,129,1,2.7889574648569733,-1.613375159910848,-1.0718974854674088
1770452916600,130,2,3.330342390367706,-0.3413980977374335,-0.5287902241513858
1770452916604,131,3,4.108167552898329,0.3538393810190903,0.2508153461279199
1770452916608,131,3,4.744318220860333,0.6791603001221387,0.8886162297511859
1770452916612,132,4,4.900840038257526,1.3327990164981225,1.046852410433686
1770452916616,131,3,4.464407765196544,0.6103769171675735,0.6129029836038984
1770452916620,130,2,3.578308466643879,-0.4995191033139257,-0.2690303818000692
1770452916624,129,1,2.5255072644674836,-1.494144060455877,-1.3155884455542046
1770452916628,128,0,1.570134019223533,-2.366072314456785,-2.263727808119001
1770452916632,128,0,0.872247752055143,-2.616758270750311,-2.9558388514116567
1770452916636,127,-1,0.4946426399451389,-3.360201163478374,-3.3311098193465356
1770452916640,127,-1,0.4254674768333613,-3.5702359783598245,-3.4009048601786205
1770452916644,127,-1,0.5556227312160378,-3.3141212516678724,-3.271348088924282
1770452916648,127,-1,0.6510048751100423,-3.5642235104043767,-3.173431624151562
1770452916652,127,-1,0.4157414223429458,-3.2945863022058015,-3.4025594547059055
1770452916656,127,-1,-0.3310312203492659,-3.71665693987593,-4.142155717550987
1770452916660,125,-3,-1.4871539336112538,-5.147665032617601,-5.292883817077604
1770452916664,124,-4,-2.6860205065840788,-6.7348490044993055,-6.48831385706837
1770452916668,122,-6,-3.5400898453882013,-8.063323123642501,-7.339002720487749
1770452916672,123,-5,-3.918330315312907,-7.757277991235931,-7.713070468965251
1770452916676,123,-5,-4.001620123259567,-7.19873599896217,-7.792665820021432
1770452916680,123,-5,-4.068142024000911,-7.646933989730916,-7.856778386053832
1770452916684,122,-6,-4.230347949706896,-8.197405448089825,-8.016090790529871
1770452916688,122,-6,-4.37435077865528,-8.55374283001401,-8.15440156067292
1770452916692,122,-6,-4.3209045779720405,-8.233826102406201,-8.093295555453764
1770452916696,123,-5,-4.008480857912597,-7.656512207799837,-7.7753163183405825
1770452916700,123,-5,-3.5141028687774645,-7.166892259307695,-7.280495633101873
1770452916704,124,-4,-2.9126699528301216,-6.622282713012882,-6.681666218396446
1770452916708,124,-4,-2.1151662152806963,-6.1011041205492615,-5.883566320061773
1770452916712,126,-2,-0.8113389862115986,-4.640549191537775,-4.57091909256744
1770452916716,128,0,1.4551476920144593,-2.2026661630436153,-2.288618636362552
1770452916720,132,4,5.1111545017180395,1.4338532255663168,1.382789501705533
1770452916724,137,9,10.31048452667689,6.8092103362793885,6.5890572203731175
1770452916728,143,15,16.671625130810188,12.54078479103286,12.946374253149624
1770452916732,149,21,23.128461072556476,18.70484907073067,19.393785323558696
1770452916736,155,27,28.090531091430325,24.560020191546116,24.349265398620243
1770452916740,157,29,30.002379147342268,26.63661480788152,26.263154147588413
1770452916744,155,27,28.095752520300223,24.70538196446895,24.36748940953217
1770452916748,150,22,22.87620513149654,19.61962294449645,19.163853846308477
1770452916752,142,14,15.95913733913016,11.688005514831968,12.262414155080917
1770452916756,135,7,9.288174634847586,4.6142821602133335,5.602463912222893
1770452916760,131,3,4.220542439445952,0.6581243516663022,0.5388619152346981
1770452916764,128,0,1.0617886003395105,-2.225454248461119,-2.622175474592252
1770452916768,126,-2,-0.7240760527543513,-4.422848143825407,-4.412553813180157
1770452916772,125,-3,-1.899003795390914,-5.204277661952466,-5.588801484124875
1770452916776,124,-4,-2.9212325717043983,-6.505652703335395,-6.605924867530067
1770452916780,122,-6,-3.821072566929915,-8.15827351208347,-7.495128080204307
1770452916784,122,-6,-4.439874371688258,-8.343813816477404,-8.101884940350352
1770452916788,122,-6,-4.731376891359467,-8.270176798072573,-8.384504275628927
1770452916792,122,-6,-4.850273148001623,-8.285826041004015,-8.499593976458808
1770452916796,122,-6,-5.003615597439084,-8.426307914055025,-8.652106458249953
1770452916800,121,-7,-5.260923444911361,-9.163562566648912,-8.907273663978016
1770452916804,121,-7,-5.513048732950416,-9.30167072064099,-9.153176012792464
1770452916808,121,-7,-5.5925583409675355,-9.251050286878474,-9.22337346944165
1770452916812,121,-7,-5.4222461969686755,-9.2496744281008,-9.044286173090772
1770452916816,122,-6,-5.065383297490854,-8.451819814108923,-8.682113038844175
1770452916820,122,-6,-4.6656816072462695,-8.041479792724544,-8.280170326743727
1770452916824,122,-6,-4.358612974294905,-8.428873665857674,-7.970660233917684
1770452916828,122,-6,-4.224883417634523,-8.01485910162618,-7.831416242738006
1770452916832,123,-5,-4.27953165257569,-7.486420820908081,-7.877736605886033
1770452916836,122,-6,-4.460135024273326,-8.150661056176926,-8.049830102455784
1770452916840,122,-6,-4.625602128891555,-8.292021331260948,-8.2086281042392
1770452916844,122,-6,-4.606838655946267,-8.129956939065561,-8.184831396581089
1770452916848,122,-6,-4.300458535667773,-8.254564127301284,-7.873587077207846
1770452916852,123,-5,-3.7334702889601985,-7.206605493372443,-7.3009400764373344
1770452916856,124,-4,-3.0381766326482085,-6.375425417356729,-6.599311925486413
1770452916860,124,-4,-2.3577896493105284,-6.021286457810061,-5.912430773000504
1770452916864,125,-3,-1.7681933915336834,-5.337379870779031,-5.316506429650682
1770452916868,125,-3,-1.2780168373608392,-5.010482114317909,-4.82041900762295
1770452916872,126,-2,-0.8859161785332309,-4.401868164836464,-4.422958430830343
1770452916876,126,-2,-0.623648309068768,-4.123934183903566,-4.155322879709593
1770452916880,126,-2,-0.5384618869890232,-4.224019882976071,-4.063573342506479
1770452916884,126,-2,-0.628197024139315,-4.0685507037697235,-4.145079609759281
1770452916888,126,-2,-0.7849589255622301,-4.241806473420122,-4.293192025236424
1770452916892,126,-2,-0.8100542638553467,-4.1247682561586725,-4.311059951486056
1770452916896,126,-2,-0.5253076642544545,-4.33294503568784,-4.020916885709302
1770452916900,126,-2,0.0781974100813108,-3.976148960958848,-3.4126367746778756
1770452916904,128,0,0.7841254542134546,-2.2345680156397725,-2.7014239685423513
1770452916908,128,0,1.273248486447334,-2.0464081144180004,-2.206380837795269
1770452916912,128,0,1.3504158229020828,-2.2677149709372593,-2.12273191290591
1770452916916,128,0,1.0890045736844298,-2.127458219078952,-2.3766429249247794
1770452916920,127,-1,0.771299058006655,-3.149349102068833,-2.685462521291757
1770452916924,127,-1,0.6823193835036009,-2.989500916196156,-2.764977503950753
1770452916928,128,0,0.931166360485336,-2.229114910171137,-2.5080175949820123
1770452916932,128,0,1.4286315719082308,-2.0528157646272365,-2.005192846121388
1770452916936,129,1,1.9991662295972232,-1.2435447033190026,-1.4311600377518403
1770452916940,129,1,2.5009573730368313,-1.0367470323582322,-0.9248842471407284
1770452916944,129,1,2.8631375052589028,-0.9958681247513804,-0.55509681864508
1770452916948,130,2,3.0621669877099165,-0.2251092994447141,-0.3461834670884998
1770452916952,130,2,3.110822837727,0.0666027494832284,-0.288194124324395
1770452916956,130,2,3.073133956685637,-0.3714059695943006,-0.3186268334452045
1770452916960,129,1,3.049584453899253,-0.7869587192506065,-0.3358502914126888
1770452916964,130,2,3.110072779319944,-0.2609911959171862,-0.2682561763050772
1770452916968,130,2,3.2360497124315835,0.1438606316187658,-0.1344382301695899
1770452916972,130,2,3.335357547235131,-0.2551900365382997,-0.0278813656480423
1770452916976,130,2,3.311814761078091,0.0031167639771894,-0.0453384183089227
1770452916980,130,2,3.1216064662433243,-0.0703647204710393,-0.2295565054886283
1770452916984,129,1,2.7795462045354937,-1.0014339558800938,-0.5640721415219914
1770452916988,129,1,2.3363095852021365,-0.9797925676716536,-0.9977895028636548
1770452916992,129,1,1.8679022626262165,-1.1287425925943966,-1.4561677915097229
1770452916996,128,0,1.482081252971185,-2.009450041955041,-1.8334188992563805
1770452917000,128,0,1.3001203171292786,-2.027831340981689,-2.008778985644883
1770452917004,128,0,1.3881624013217717,-1.9997616910395637,-1.9147879915756425
1770452917008,128,0,1.6842223301673582,-1.9077863684536152,-1.6117958375555494
1770452917012,129,1,2.0038005943473203,-1.1508337925539287,-1.2839984270192186
1770452917016,129,1,2.149663672040107,-0.8841022415055457,-1.1296280559317635
1770452917020,129,1,2.045596547515381,-1.147337513640612,-1.225629979414833
1770452917024,128,0,1.7723304986974553,-1.7868032875908813,-1.490801025532734
1770452917028,128,0,1.470094359308716,-2.1220589975682196,-1.7842654788344785
1770452917032,128,0,1.2061458677869967,-1.8063839854392876,-2.0392528964508148
1770452917036,128,0,0.9350017359346257,-2.193475426778326,-2.3023198352275163
1770452917040,127,-1,0.572175546960864,-2.7563547510392192,-2.6580568240430775
1770452917044,127,-1,0.090779322077774,-3.141459812872909,-3.1322593786636994
1770452917048,126,-2,-0.4500307492936726,-3.730574656354829,-3.664680163552586
1770452917052,126,-2,-0.9564361275186116,-4.098401337362916,-4.161330775795808
1770452917056,125,-3,-1.377684351748723,-4.843742432432296,-4.572297920351014
1770452917060,125,-3,-1.7449931618385293,-5.027874719324368,-4.930349774079842
1770452917064,125,-3,-2.141742171737392,-4.8362335752916765,-5.320116672638535
1770452917068,124,-4,-2.636803761271652,-5.9832890954514255,-5.809813089763473
1770452917072,123,-5,-3.245673736769102,-6.770551123865363,-6.412232224961581
1770452917076,123,-5,-3.9388901625960417,-7.084361134513498,-7.095651615852406
1770452917080,122,-6,-4.649542332293138,-7.744439965760093,-7.7938478304686365
1770452917084,122,-6,-5.248504801098487,-8.04856814906856,-8.380680965920455
1770452917088,121,-7,-5.54129605231513,-8.740168413921246,-8.66398961142299
1770452917092,121,-7,-5.357576481590172,-8.910898881103613,-8.473370689740307
1770452917096,122,-6,-4.698921185865227,-7.89357522510049,-7.808844130175064
1770452917100,123,-5,-3.805670863750468,-6.8398898948738935,-6.909199994809127
1770452917104,124,-4,-3.04450192677817,-5.94058610842,-6.139946002356179
1770452917108,124,-4,-2.678834296506874,-5.742689220281935,-5.7638167701676455
1770452917112,124,-4,-2.696856491144238,-5.892189032752908,-5.769584092608985
1770452917116,124,-4,-2.8301636501581733,-5.792573053580421,-5.8909046772222045
1770452917120,124,-4,-2.7528427451801276,-5.914888840987175,-5.8038149393989915
1770452917124,124,-4,-2.3237418898613504,-5.779228363133895,-5.3672387735024
1770452917128,125,-3,-1.6972833138511827,-4.846155950315829,-4.734130150790031
1770452917132,126,-2,-1.2078973697481528,-3.7224755108625582,-4.237484829428719
1770452917136,126,-2,-1.1056035425592403,-3.872497779970302,-4.126461099180327
1770452917140,125,-3,-1.3579623371442366,-4.80068231301974,-4.368096434955627
1770452917144,125,-3,-1.6846505844232584,-4.807831921707128,-4.682410407252588
1770452917148,125,-3,-1.7827623719130528,-4.7862481293480235,-4.768222631947106
1770452917152,125,-3,-1.5455266799567606,-4.674750576156977,-4.5207497147594395
1770452917156,126,-2,-1.1145727527827145,-3.854346580424033,-4.082048005095219
1770452917160,126,-2,-0.7611988302200877,-3.739767145866776,-3.722015831994897
1770452917164,126,-2,-0.7098657766448964,-3.830118164205025,-3.6633067245185207
1770452917168,126,-2,-1.025859830331111,-3.7014057471270663,-3.9701534149551874
1770452917172,125,-3,-1.6188211314753105,-4.678720218796668,-4.551901755517022
1770452917176,124,-4,-2.3269951206082826,-5.777934428135644,-5.247350631781245
1770452917180,124,-4,-2.9941102442183105,-5.721983146255557,-5.9021350096184655
1770452917184,124,-4,-3.4763403451530075,-5.825604905237743,-6.374585565892393
1770452917188,123,-5,-3.616942301886659,-6.610569357224323,-6.5076044491661476
1770452917192,123,-5,-3.2842171209407134,-6.714180873172953,-6.166290143822613
1770452917196,124,-4,-2.479356718365615,-5.635775399819199,-5.34971028130316
1770452917200,126,-2,-1.3915591017324314,-3.8207020325463046,-4.2491919592218625
1770452917204,127,-1,-0.3121590077641999,-2.638874869326075,-3.159912117031275
1770452917208,127,-1,0.5080959140985939,-2.7611948253778635,-2.3331146354261003
1770452917212,127,-1,0.911657346714295,-2.45794017245956,-1.92285735040647
1770452917216,128,0,0.7912766154065201,-1.8511527389375184,-2.0331407427973187
1770452917220,127,-1,0.0815681223293973,-2.5094700744419667,-2.729539852393548
1770452917224,126,-2,-1.1514524681499765,-3.8979841174603895,-3.948637344917586
1770452917228,124,-4,-2.6247475318744957,-5.416397143485579,-5.409706598968017
1770452917232,123,-5,-3.8966453560448207,-6.7350741651756225,-6.671668719141313
1770452917236,122,-6,-4.578760897011709,-7.51569413141582,-7.345091530322794
1770452917240,122,-6,-4.556693273643951,-7.726828263113636,-7.313948978265456
1770452917244,123,-5,-4.040093645523699,-6.660989949305944,-6.787130319002849
1770452917248,124,-4,-3.386554437601956,-5.496180975879437,-6.122738696277174
1770452917252,124,-4,-2.839337685033193,-5.6790899765572895,-5.564707764694016
1770452917256,124,-4,-2.405508811054773,-5.426277091731144,-5.120049685519737
1770452917260,125,-3,-1.9688809033508552,-4.799988288236796,-4.672393489615936
1770452917264,125,-3,-1.5029514633203565,-4.4893237411341715,-4.195651534952319
1770452917268,126,-2,-1.1615971224183952,-3.565866427804138,-3.844111404904292
1770452917272,126,-2,-1.1600010996665102,-3.5759192880490502,-3.83236682074134
1770452917276,125,-3,-1.5644132959232948,-4.409777290474388,-4.225500696575275
1770452917280,125,-3,-2.187985625061229,-4.805906498097397,-4.8364932118053785
1770452917284,124,-4,-2.6887093440310528,-5.360714041316771,-5.324650587759003
1770452917288,124,-4,-2.7964202825535187,-5.633339680891015,-5.421200091351093
1770452917292,124,-4,-2.49680218988611,-5.415543318571434,-5.111963229037164
1770452917296,125,-3,-2.028395771816487,-4.48068001696,-4.634614759036982
1770452917300,126,-2,-1.6871331433435393,-3.7120616304172978,-4.2838888781537285
1770452917304,125,-3,-1.5956231294037768,-4.314718416006395,-4.181057271025352
1770452917308,125,-3,-1.6342414400399143,-4.672402715123162,-4.205902975898576
1770452917312,125,-3,-1.5823948867877324,-4.219590256775304,-4.139435005116246
1770452917316,126,-2,-1.3261514829966672,-3.6697333017542535,-3.870829459495915
1770452917320,126,-2,-0.956105942317389,-3.4017965029896473,-3.4920582932020734
1770452917324,126,-2,-0.7062634857270216,-3.5533013546943533,-3.2350316277861
1770452917328,126,-2,-0.8009124140174735,-3.37137318469969,-3.320792642504805
1770452917332,126,-2,-1.2997190469616955,-3.4070012491186743,-3.807760137488362
1770452917336,125,-3,-2.021249771547937,-4.462618759453622,-4.51528046975163
1770452917340,124,-4,-2.6065608744287907,-5.474906141469386,-5.0854661083336286
1770452917344,124,-4,-2.7066727080854056,-5.432759541024073,-5.170544353797682
1770452917348,125,-3,-2.1719262457356323,-4.389434118052111,-4.623001218418695
1770452917352,126,-2,-1.1155443748988616,-3.3054421417439745,-3.55786270510311
1770452917356,127,-1,0.1595610054871385,-2.4994451351536497,-2.276974880574702
1770452917360,128,0,1.2870106109926054,-1.3374550416151778,-1.142854316016829
1770452917364,129,1,1.958041855334471,-0.5136981719483091,-0.4609335268390806
1770452917368,129,1,2.0393200775476177,-0.2243597504736958,-0.3645493412852802
1770452917372,129,1,1.6682374166924558,-0.3770494060551601,-0.7189732582261472
1770452917376,128,0,1.2424588800364111,-1.3634092843455257,-1.1291943003856209
1770452917380,128,0,1.242461495346396,-1.3722113480255935,-1.1159162191106065
1770452917384,129,1,1.9568028084287636,-0.4127795184175644,-0.3907293136893517
1770452917388,130,2,3.289193948241243,0.7654897162274383,0.950383485360944
1770452917392,132,4,4.788563619819978,2.735934354910098,2.4573785957738736
1770452917396,133,5,5.88569967263785,3.597392250495263,3.562940173630995
1770452917400,133,5,6.181767976269609,3.74126859306194,3.870078421379406
1770452917404,133,5,5.618129689487089,3.5473367280735366,3.320632496029375
1770452917408,131,3,4.452625693919131,1.875752691593907,2.171164745739194
1770452917412,130,2,3.090315976211498,0.7365004173217522,0.8244665523955903
1770452917416,129,1,1.888287287075588,-0.3131958119478204,-0.3644030472371957
1770452917420,128,0,1.040863961357393,-1.2761543163258602,-1.201702700298284
1770452917424,128,0,0.5728677250238188,-1.3373254742424443,-1.661106790692172
1770452917428,127,-1,0.3937872637244691,-2.1784713801706914,-1.83043889676814
1770452917432,127,-1,0.3579740191094269,-2.0886255372830016,-1.8538272183200135
1770452917436,128,0,0.3175299443764552,-1.4202679676716543,-1.8802630429732252
1770452917440,127,-1,0.1696362503752845,-2.068422262552163,-2.0148481560796583
1770452917444,127,-1,-0.126175559540737,-2.4944877225312703,-2.2989473294160447
1770452917448,126,-2,-0.5804596044698238,-2.899212422244795,-2.7421293134168465
1770452917452,126,-2,-1.2176013642124217,-3.319506023246795,-3.367581783370286
1770452917456,125,-3,-2.0673289137527284,-4.050152863827416,-4.204900401920946
1770452917460,124,-4,-3.099371783088042,-5.38770616110533,-5.224429475063376
1770452917464,123,-5,-4.168839672859172,-6.08073760376431,-6.281643966896715
1770452917468,122,-6,-5.040645689679873,-7.218403295949488,-7.141005915823011
1770452917472,121,-7,-5.494068666305976,-7.938986772539835,-7.58092443480853
1770452917476,122,-6,-5.43695032054339,-7.281336031236881,-7.509202922956633
1770452917480,122,-6,-4.944378640825693,-7.117273431882968,-7.002661317337834
1770452917484,123,-5,-4.195513377733856,-6.229644292905601,-6.243087402898565
1770452917488,124,-4,-3.3631100455794023,-5.0061500412175945,-5.404079741792341
1770452917492,124,-4,-2.534590147128171,-5.057350385539436,-4.570047148581359
1770452917496,125,-3,-1.6857170846746332,-4.061289996787735,-3.7113235405704703
1770452917500,127,-1,-0.6551471270539226,-2.2543405365576685,-2.6632619896040186
1770452917504,128,0,0.9119796794477932,-0.9996157977937994,-1.0732152664028227
1770452917508,131,3,3.5635903200958596,1.8483426045136488,1.600346766474889
1770452917512,135,7,7.83060166879593,6.195428447035395,5.882683228193878
1770452917516,140,12,13.79166135344762,10.777424153914716,11.851320042138596
1770452917520,147,19,20.669308337136453,17.98837423681361,18.73170820411222
1770452917524,155,27,26.84819145797432,25.887519434058007,24.912707599585485
1770452917528,158,30,30.475893440028248,28.98030528101289,28.546048799108902
1770452917532,157,29,30.343073799414128,28.229214355159534,28.425734017761304
1770452917536,154,26,26.479904563530017,24.73227156827762,24.582265345715893
1770452917540,147,19,20.10190668060993,18.16131043753152,18.227297018221172
1770452917544,140,12,12.981284240227431,10.789048487187548,11.127713139437738
1770452917548,133,5,6.651343288457403,4.2016086456685064,4.8137631395077936
1770452917552,129,1,1.899001506665786,0.1677663387258761,0.0720703682060515
1770452917556,127,-1,-1.2318048627450635,-2.1764742421385934,-3.0523453805559404
1770452917560,124,-4,-3.07491766229566,-4.761953857582283,-4.890895740046682
1770452917564,123,-5,-3.991745058295276,-6.2955554358267465,-5.801005570827709
1770452917568,122,-6,-4.284298653319473,-6.514206782739569,-6.081350217707727
1770452917572,123,-5,-4.281673512783467,-6.097119674593053,-6.061326682422113
1770452917576,123,-5,-4.343449198647451,-5.767569381062615,-6.104375432391919
1770452917580,123,-5,-4.689418448530322,-6.097974769600818,-6.434298116769962
1770452917584,122,-6,-5.232177611148797,-6.892576476848505,-6.964713322865849
1770452917588,121,-7,-5.637651590116272,-7.7728084107307405,-7.359643079035582
1770452917592,121,-7,-5.616123122269634,-7.799746383052792,-7.327139251354657
1770452917596,122,-6,-5.1945821912799035,-6.89783357398322,-6.893681993672798
1770452917600,123,-5,-4.711852481476705,-5.918800648568531,-6.398744694531803
1770452917604,123,-5,-4.532692003786516,-5.935615104739632,-6.20706811786069
1770452917608,122,-6,-4.740327959001473,-6.66725489539682,-6.401019414258288
1770452917612,122,-6,-5.076826910202732,-6.797700157336135,-6.722620696139937
1770452917616,122,-6,-5.167669696693915,-6.8174227648458485,-6.7988226854843665
1770452917620,122,-6,-4.8294122517287335,-6.868325748654988,-6.4477260447550755
1770452917624,123,-5,-4.209531754958268,-5.901645846980925,-5.816894020603789
1770452917628,124,-4,-3.6529506708936914,-4.5726448396656805,-5.2498219365648495
1770452917632,124,-4,-3.4131660311916687,-4.840517581573877,-4.998026718699926
1770452917636,123,-5,-3.454969622864119,-5.647208742798611,-5.025277369085552
1770452917640,124,-4,-3.506858301040378,-4.963054720226432,-5.061261225733258
1770452917644,124,-4,-3.296097733594207,-4.674893164327188,-4.83576594274928
1770452917648,124,-4,-2.76288127705417,-4.716624412749571,-4.290193646139498
1770452917652,125,-3,-2.098118633399819,-3.5717869066518197,-3.6143958795814832
1770452917656,126,-2,-1.5899506344828125,-2.843474973335192,-3.0950023081093914
1770452917660,126,-2,-1.3953874108621325,-2.6520899919986807,-2.888466617768213
1770452917664,126,-2,-1.4156746364431985,-2.8842344542280607,-2.895642038249889
1770452917668,125,-3,-1.3831147381672182,-3.4101520073945215,-2.848033318403969
1770452917672,126,-2,-1.0824342095409498,-2.764830540543041,-2.5306666552659696
1770452917676,127,-1,-0.5018407560676654,-1.5693400278221274,-1.934274434787154
1770452917680,128,0,0.2088736624217016,-0.7884003151879915,-1.2113186108923584
1770452917684,128,0,0.8854072831389198,-0.6699451711014648,-0.5256759354505864
1770452917688,128,0,1.4242402215989114,-0.4837808318364631,0.0225519096981541
1770452917692,129,1,1.7408453752878137,0.3439835848965042,0.3516583976567395
1770452917696,129,1,1.7317664346737625,0.4867082235733693,0.357899242436817
1770452917700,129,1,1.3450913537462097,0.2058001901505717,-0.0127815944018543
1770452917704,128,0,0.7012562293932044,-0.4758227260815024,-0.6413808065670725
1770452917708,127,-1,0.1134933661036335,-1.6485337186489586,-1.2148202496186284
1770452917712,127,-1,-0.0565893063535852,-1.3554436583764835,-1.3714440962150627
1770452917716,128,0,0.3851037222742099,-0.7305702129733724,-0.917222211412874
1770452917720,128,0,1.3372471415015346,-0.4440902593567597,0.0469376298207313
1770452917724,130,2,2.4572260230256795,1.312694198052593,1.1791151242430638
1770452917728,131,3,3.3654429544476367,2.629697451627792,2.099909247838754
1770452917732,131,3,3.8597014494601134,2.4735350499276625,2.6071098934159935
1770452917736,131,3,3.983034597621816,2.5132756603090636,2.7442758663919613
1770452917740,131,3,3.907640808985172,2.4812989155041887,2.684077781362805
1770452917744,131,3,3.762888261656129,2.4504808285566173,2.5550436768689697
1770452917748,131,3,3.5721030588848683,2.671841384015545,2.378722908024492
1770452917752,131,3,3.3278767989429925,2.432312984365703,2.1470778426303063
1770452917756,130,2,3.083131830068464,1.7529327251986304,1.914548457652263
1770452917760,130,2,2.936317245799582,1.2816167199340829,1.781287541937965
1770452917764,130,2,2.93287719652815,1.834225382852086,1.7921232549214294
1770452917768,131,3,3.008899610510163,2.3598389190721756,1.8811349740743255
1770452917772,130,2,3.0415056959000877,1.8429681882927973,1.9255556678382424
1770452917776,130,2,2.9435196779962363,1.4865768598839244,1.8410705714996771
1770452917780,130,2,2.7179760451572372,1.5927844164659213,1.6323315252607582
1770452917784,130,2,2.459788839404645,1.7398333558173,1.3915801831617485
1770452917788,130,2,2.3196082313910944,1.4487213203638278,1.2652863186116925
1770452917792,129,1,2.4167274858091665,0.987145735536436,1.3723267289506844
1770452917796,130,2,2.718758852819627,1.32699579871336,1.6844411807880628
1770452917800,130,2,2.9971047758510254,1.9729053829353544,1.9769819975321683
1770452917804,131,3,2.961136214838037,2.4016740696254963,1.9587797966216156
1770452917808,130,2,2.5019595515891204,1.9509151332283832,1.5168882819153398
1770452917812,129,1,1.814306661288992,0.5802877566594131,0.8430111759196279
1770452917816,128,0,1.2364707352222093,-0.1961488127134032,0.2762204316380754
1770452917820,128,0,0.926026217739959,-0.3295159713646387,-0.0227794636185278
1770452917824,128,0,0.6868067928590912,-0.2463069955807846,-0.2480754410651382
1770452917828,128,0,0.147134416364834,-0.1771434848037238,-0.7719438767136126
1770452917832,127,-1,-0.851186393733113,-1.271150560031287,-1.754469823685349
1770452917836,125,-3,-2.0251026750757477,-3.184082226493641,-2.9134724869736104
1770452917840,124,-4,-2.8301848957822284,-4.2884562509153925,-3.7039491307277426
1770452917844,124,-4,-2.9107857039316483,-4.126449916971698,-3.7698335416189352
1770452917848,125,-3,-2.4130146141677957,-3.159661867747855,-3.2580852597386953
1770452917852,126,-2,-1.8709400517206407,-2.1709163272298095,-2.703795445661769
1770452917856,126,-2,-1.7708040542085173,-2.1714487345020523,-2.5924269522941006
1770452917860,125,-3,-2.185527556061625,-3.2389734561226304,-2.994202727524268
1770452917864,124,-4,-2.7846897327066897,-4.029045490209224,-3.5765944757894115
1770452917868,124,-4,-3.1666547265685088,-4.14458802432779,-3.939169627456322
1770452917872,124,-4,-3.183996767953117,-4.022828368609475,-3.9387371199452974
1770452917876,125,-3,-2.987993970746662,-3.2301592202308917,-3.7300648653517694
1770452917880,125,-3,-2.81491528019567,-3.0624038717207074,-3.548227998614902
1770452917884,124,-4,-2.766337429570617,-4.107993541921202,-3.4893684830230915
1770452917888,124,-4,-2.781559902305483,-3.931920499569407,-3.4885314804267744
1770452917892,125,-3,-2.7587550941769936,-3.087675934581098,-3.4455754443940747
1770452917896,125,-3,-2.6483767952750847,-3.081689362498461,-3.316781650923972
1770452917900,125,-3,-2.446250305273606,-3.04954018758198,-3.1014994825446593
1770452917904,125,-3,-2.166218735583815,-3.0643834964813457,-2.8113835156648763
1770452917908,125,-3,-1.861095542299048,-2.7983527545401268,-2.4944885681655116
1770452917912,126,-2,-1.6410340086784658,-2.131524271130292,-2.2588649568957875
1770452917916,126,-2,-1.6106169117191302,-1.8851263341200737,-2.2109283470068117
1770452917920,126,-2,-1.758631355465216,-2.1408149329401107,-2.342185123115925
1770452917924,125,-3,-1.9296302539316084,-2.867763171617961,-2.4980261661270955
1770452917928,125,-3,-1.9397193621324904,-2.8539161378536413,-2.493990622235228
1770452917932,126,-2,-1.7382405404861323,-1.9768311598203343,-2.2790597826711765
1770452917936,126,-2,-1.4589940692805377,-1.861060878048184,-1.9867399400060048
1770452917940,126,-2,-1.314572255965382,-2.0871521314565116,-1.8285457294949556
1770452917944,126,-2,-1.4278017956591282,-1.770981577709792,-1.926180608206
1770452917948,126,-2,-1.7314496319243282,-1.8668706406134925,-2.2126553185457913
1770452917952,125,-3,-2.0089795924007596,-2.820712311225132,-2.4730120397323443
1770452917956,125,-3,-2.0520189891259575,-2.8708271595512813,-2.5006083796723777
1770452917960,126,-2,-1.818884617536837,-1.9658228500667945,-2.254466645456244
1770452917964,126,-2,-1.4675166601335918,-1.7578934785093123,-1.8912975850860383
1770452917968,126,-2,-1.2393969510976186,-1.779877730300607,-1.6497988840059352
1770452917972,126,-2,-1.289269983502907,-1.7624345362451264,-1.68297820723336
1770452917976,126,-2,-1.57776425037398,-1.8013828786321608,-1.9530873786645395
1770452917980,126,-2,-1.8909547419023929,-1.914966758059997,-2.24958966682173
1770452917984,125,-3,-1.986801034204096,-2.670615543336642,-2.33159629212455
1770452917988,125,-3,-1.788736949346012,-2.773708424857576,-2.120525013804091
1770452917992,126,-2,-1.4701559908876018,-1.5962085943725026,-1.7878035921789244
1770452917996,127,-1,-1.3187007679974567,-0.8681943527566265,-1.621324067606906
1770452918000,127,-1,-2.062605076112209,-3.5475053485954247,-4.508222824391259
1770452918004,126,-2,-2.1956827159212935,-4.329912203772453,-4.640371671914366
1770452918008,125,-3,-2.4281220986363268,-5.424622443100876,-4.872101219080094
1770452918012,125,-3,-2.4319778802155687,-5.3285974451396925,-4.873359408317906
1770452918016,126,-2,-2.0634214042521224,-4.336284498014728,-4.501162810192106
1770452918020,127,-1,-1.5162312165469516,-3.53389219024251,-3.952196325422552
1770452918024,127,-1,-1.1491049634471682,-3.2803329966403836,-3.5859834144660057
1770452918028,127,-1,-1.179619416543644,-3.4979899822656764,-3.617305612119403
1770452918032,126,-2,-1.530807169147374,-4.174024124232677,-3.966018577899144
1770452918036,126,-2,-1.9320698938972525,-4.493447516049803,-4.361922811032319
1770452918040,126,-2,-2.1445178536316627,-4.344916342416425,-4.569920456221004
1770452918044,126,-2,-2.115093066844091,-4.433368625193874,-4.539975478633894
1770452918048,126,-2,-1.9703496540365797,-4.345176211078243,-4.397562314770646
1770452918052,126,-2,-1.895233248531635,-4.236752801284452,-4.323704466876184
1770452918056,126,-2,-1.9941745266287416,-4.47381363749407,-4.420292377416545
1770452918060,126,-2,-2.2127888670853375,-4.284156677755197,-4.634073405456762
1770452918064,126,-2,-2.364516783576453,-4.519089112134907,-4.781455773219232
1770452918068,125,-3,-2.261875332426229,-5.1968695311527835,-4.676721316305837
1770452918072,126,-2,-1.876012684367335,-4.352810201225378,-4.2909356876136755
1770452918076,127,-1,-1.3930617407977937,-3.3488116154731897,-3.8094086775980016
1770452918080,127,-1,-1.09812362275464,-3.3580673371340346,-3.5159047809065025
1770452918084,127,-1,-1.1717059299817283,-3.464182347168261,-3.588876488757638
1770452918088,126,-2,-1.5628095015049088,-4.162247211697139,-3.976040101504616
1770452918092,126,-2,-2.0217740294664797,-4.439281028474623,-4.429250505115748
1770452918096,126,-2,-2.244237004097404,-4.145157567935078,-4.647646467274891
1770452918100,126,-2,-2.02983264838742,-4.623514965165658,-4.432854739995143
1770452918104,126,-2,-1.3853166852397374,-4.08698076851692,-3.79022112454841
1770452918108,128,0,-0.5248253523566909,-2.56639713884614,-2.9310236107714935
1770452918112,128,0,0.2517035483556278,-1.9848416396680113,-2.153850362205058
1770452918116,129,1,0.7434674092402933,-1.5728770655596265,-1.660194966457588
1770452918120,129,1,0.9682136977365112,-1.194969096249096,-1.4333746355997392
1770452918124,129,1,1.1223707287887443,-1.4426589970735186,-1.277017791445996
1770452918128,129,1,1.4171633651799889,-1.2552471687399716,-0.9793635646998736
1770452918132,130,2,1.9296988090982563,-0.1757019118082152,-0.4635729111865552
1770452918136,131,3,2.584204502658938,0.5498209094424011,0.1931358879826474
1770452918140,131,3,3.246853179963373,0.8130180183193316,0.8555912062286861
1770452918144,132,4,3.815156401866365,1.486517146674024,1.42159187337021
1770452918148,132,4,4.217142056402036,1.893421387181655,1.8213602167984937
1770452918152,132,4,4.356736417945648,1.6758105928348332,1.9614976375358733
1770452918156,132,4,4.1133819160759995,1.7230554847027255,1.7222390223737063
1770452918160,132,4,3.448965418359578,1.7182764693728387,1.063341885925896
1770452918164,131,3,2.5342796969206933,0.5292068637663276,0.1525053167939725
1770452918168,129,1,1.7250573498412691,-1.037468524235392,-0.6556989197240581
1770452918172,129,1,1.3282817741243254,-1.4668510547811295,-1.0532650437941742
1770452918176,129,1,1.3321390633405366,-1.0057739582128054,-1.050865751941154
1770452918180,130,2,1.3643827348491686,-0.5901819317865373,-1.0203088506568192
1770452918184,129,1,0.9550945103126426,-1.0723789070820304,-1.4305412164558289
1770452918188,128,0,-0.1027992396192625,-2.4589501981653408,-2.4868133656951916
1770452918192,126,-2,-1.5868772865708165,-4.024165766078031,-3.96604902173628
1770452918196,125,-3,-2.9891388635724847,-5.411840224163667,-5.3623829922628365
1770452918200,124,-4,-3.843995844186811,-6.167305544377833,-6.213667089594201
1770452918204,124,-4,-4.004817580492871,-6.403178589436494,-6.37493342404608
1770452918208,124,-4,-3.698047459715219,-6.162079943059898,-6.07138395483684
1770452918212,125,-3,-3.3402370130958143,-5.2496590175761915,-5.716880522743477
1770452918216,125,-3,-3.2553124877955604,-5.228248676300745,-5.632927754927228
1770452918220,124,-4,-3.491543811858712,-6.250220477465345,-5.86649878396483
1770452918224,124,-4,-3.8521910579377394,-6.347308093389576,-6.221439859842789
1770452918228,124,-4,-4.077978554862253,-6.128900925374305,-6.44118692793187
1770452918232,124,-4,-4.018940722047345,-6.3449410103536845,-6.379080006690053
1770452918236,124,-4,-3.689287769039817,-6.018884259234728,-6.050891321876406
1770452918240,125,-3,-3.212087528411444,-5.495295707590219,-5.578576803981438
1770452918244,125,-3,-2.7119231506265766,-5.004675315039367,-5.083667122908017
1770452918248,126,-2,-2.204456288810526,-4.502627061285292,-4.578140546003948
1770452918252,126,-2,-1.516277417977988,-3.92864252020441,-3.8859704695644455
1770452918256,128,0,-0.2663220323332784,-2.4141760751270573,-2.6265429646290457
1770452918260,130,2,2.054844326552326,-0.0587249449779183,-0.2946611771441927
1770452918264,134,6,5.878379247110949,3.607265177234392,3.535000039717974
1770452918268,139,11,11.24781229163639,8.891116335382627,8.902585607962738
1770452918272,145,17,17.54102172193378,14.714683386369796,15.187504007688254
1770452918276,151,23,23.443235792504748,20.949016967775165,21.080151968154265
1770452918280,156,28,27.323205757924107,25.634331449389745,24.954547571494167
1770452918284,156,28,27.91188785365715,25.91969538010201,25.54422446456063
1770452918288,153,25,24.91752861310632,22.589678185287006,22.556564996798233
1770452918292,147,19,19.18652696282786,17.013866420026144,16.83465374471919
1770452918296,140,12,12.296756647954588,9.676941706534654,9.952742234040816
1770452918300,133,5,5.839137553907964,2.9590008291673406,3.499697044215329
1770452918304,129,1,0.8276042966801151,-1.3239533564351715,-1.5108721418586533
1770452918308,126,-2,-2.452279805661126,-4.166288578514884,-4.7928309400948725
1770452918312,124,-4,-4.192907089178518,-6.174173964611168,-6.537279917893494
1770452918316,123,-5,-4.730838718694953,-7.157425689615849,-7.0786951837519885
1770452918320,123,-5,-4.417167081472961,-7.135157713274774,-6.766323395219371
1770452918324,124,-4,-3.689923294464817,-6.21700977528777,-6.038014017630708
1770452918328,125,-3,-3.113460027694428,-5.2384323512276705,-5.459435899239389
1770452918332,125,-3,-3.2071634726779505,-5.0842143589910265,-5.5509851528695435
1770452918336,124,-4,-4.147702804984461,-6.247410288381599,-6.488871409165455
1770452918340,122,-6,-5.608854557906835,-7.9926301583709165,-7.945993749220814
1770452918344,121,-7,-6.919782079478924,-9.35371018626373,-9.252154977292266
1770452918348,120,-8,-7.463649506708618,-10.043633469133749,-9.792882128074533
1770452918352,121,-7,-7.043667205388697,-9.268560358829134,-9.373369355399806
1770452918356,122,-6,-5.971495648105902,-8.01709565139621,-8.304715358003156
1770452918360,123,-5,-4.840440195169101,-7.194706679446338,-7.177348805471845
1770452918364,124,-4,-4.15811839751814,-6.138138764832709,-6.496071756530249
1770452918368,124,-4,-4.082910326085043,-6.214589595337825,-6.4184401249358425
1770452918372,123,-5,-4.411967296912934,-7.122047557461458,-6.742679409962018
1770452918376,123,-5,-4.78603752053569,-7.079801523573367,-7.1113931879364305
1770452918380,123,-5,-4.934145293323442,-7.147205216741694,-7.2554975589157475
1770452918384,123,-5,-4.78402664463469,-7.108597465721745,-7.104204491532248
1770452918388,124,-4,-4.403782957107236,-6.24492938323281,-6.72585128261875
1770452918392,124,-4,-3.885133137643521,-6.05639585463997,-6.210346614555208
1770452918396,124,-4,-3.2969036655555986,-6.1265763335420225,-5.6233834361041355
1770452918400,125,-3,-2.7217765525426665,-5.07009760134252,-5.0457807392446306
1770452918404,126,-2,-2.2742857604530937,-4.1453600430703474,-4.593410706473756
1770452918408,126,-2,-2.0276229957945735,-4.192142416723003,-4.3427188852229275
1770452918412,126,-2,-1.9177350722385615,-4.072845687972756,-4.231585070151807
1770452918416,126,-2,-1.757733819425258,-4.093714813222574,-4.072125149753419
1770452918420,126,-2,-1.388902037575345,-4.087330794844809,-3.703209812817239
1770452918424,127,-1,-0.835786928004622,-3.064378937605121,-3.148308055714463
1770452918428,128,0,-0.3046034500942083,-2.2729297007576537,-2.6148625969812787
1770452918432,128,0,-0.0102779663118668,-1.930009771324677,-2.3195355193465996
1770452918436,128,0,0.0072613097300005,-2.2439546340275025,-2.3021998990521313
1770452918440,127,-1,-0.0963007824137312,-2.9076547035076503,-2.405366174671098
1770452918444,128,0,-0.1170778024555611,-2.215347237778865,-2.4236972481107673
1770452918448,128,0,0.0399361929634982,-2.0794286267667967,-2.2625691067670757
1770452918452,128,0,0.337120915948754,-2.095106975043658,-1.9614185412920313
1770452918456,129,1,0.7031002270090778,-1.039015752892703,-1.593520034811344
1770452918460,129,1,1.1244495762904037,-1.1201964410851983,-1.172890407752888
1770452918464,129,1,1.6220837321249526,-0.9630315039217848,-0.6771929648092097
1770452918468,130,2,2.1381995098412947,-0.2909996536707351,-0.1617555843639007
1770452918472,130,2,2.480274833639206,0.1330628035030439,0.1822816179997641
1770452918476,131,3,2.4373362799941685,0.7945207444703817,0.1432440367160938
1770452918480,130,2,1.9991542638749635,0.0128871417289844,-0.2906590594953888
1770452918484,129,1,1.45967370194494,-1.0176205328818115,-0.8264083149103296
1770452918488,129,1,1.2590942334876265,-1.2637718725747384,-1.0242593979080343
1770452918492,129,1,1.664345257784624,-0.792238314704877,-0.6180015396884793
1770452918496,131,3,2.552427125286326,0.6869519216355708,0.2690767811261767
1770452918500,131,3,3.4775174007808247,1.2179899536654508,1.1925263051844135
1770452918504,132,4,3.9673590670310417,1.7285529401855984,1.682443299013596
1770452918508,132,4,3.827417921945997,2.0740304396710316,1.5454283789377607
1770452918512,131,3,3.2424954370282073,0.8461321101502091,0.9653400670498732
1770452918516,130,2,2.615539071160361,0.1077000320739427,0.3432828524945113
1770452918520,130,2,2.2720969712383736,-0.1707308236860043,0.0032667706666396
1770452918524,130,2,2.260027113097735,0.1211336431431131,-0.0077072756951663
1770452918528,131,3,2.389330091531484,0.7539668786013685,0.1207064273335445
1770452918532,130,2,2.443246056421111,0.149932259108237,0.1737073949369094
1770452918536,130,2,2.3545202091894746,-0.1291873924120639,0.086369426136555
1770452918540,130,2,2.211227026349931,0.0576547688690372,-0.0528269904186486
1770452918544,130,2,2.1341192778232347,-0.0663328694754699,-0.1251196719495275
1770452918548,130,2,2.159019867338413,-0.0278769066423867,-0.0969569584286833
1770452918552,130,2,2.210956429746652,-0.0329816068331338,-0.0438159304387604
1770452918556,130,2,2.164851720447626,0.087023227764055,-0.0896515153047996
1770452918560,130,2,1.9327014592786216,-0.156939766264017,-0.321114610900733
1770452918564,129,1,1.5131759521515655,-0.8047918391619002,-0.7388276062065684
1770452918568,129,1,0.976712411280825,-1.281396532812808,-1.2723216812944838
1770452918572,128,0,0.4124389067033542,-1.7185930269259633,-1.832843466241861
1770452918576,128,0,-0.1133120705197019,-2.212464913490083,-2.3546534792687073
1770452918580,127,-1,-0.5633444169437087,-2.847643893874721,-2.801377961931343
1770452918584,127,-1,-0.9174899915414796,-3.0482361780561056,-3.1537327815582517
1770452918588,127,-1,-1.1722799997569089,-3.0751018585801932,-3.4083173668061257
1770452918592,126,-2,-1.3645757746063514,-3.7924640049464418,-3.600519260270324
1770452918596,126,-2,-1.5928617108768268,-4.221290026550925,-3.8269167577685903
1770452918600,126,-2,-1.9814470750320872,-3.715772789187963,-4.211597740695751
1770452918604,126,-2,-2.573661981810792,-4.236384861568886,-4.79945056652777
1770452918608,124,-4,-3.242155610963211,-5.806097973842896,-5.464343985840169
1770452918612,124,-4,-3.734063646269721,-6.0337345176814345,-5.953224040676294
1770452918616,124,-4,-3.846448355277304,-5.979236524264491,-6.062751999002248
1770452918620,124,-4,-3.5844260918684725,-5.9019525865071145,-5.798507141492714
1770452918624,125,-3,-3.162291519776691,-5.047258025009774,-5.375426728891922
1770452918628,125,-3,-2.8502955492481648,-4.935191283006333,-5.063268769445563
1770452918632,125,-3,-2.7959211463874274,-4.887077023066475,-5.007651443558597
1770452918636,125,-3,-2.953926752801125,-5.112542206820594,-5.161507322931344
1770452918640,124,-4,-3.1555813422396715,-5.741257767595254,-5.35646747251829
1770452918644,125,-3,-3.2330624654882913,-5.185012380190739,-5.427834054857557
1770452918648,125,-3,-3.0966883204638496,-4.740223591717045,-5.289139331047056
1770452918652,125,-3,-2.7468162518719383,-5.052625462298225,-4.940372641472677
1770452918656,125,-3,-2.2689697101093156,-4.944561186567585,-4.4631722090900094
1770452918660,126,-2,-1.8207091084190803,-3.861703237357755,-4.011970794119881
1770452918664,127,-1,-1.563210524722089,-3.0847600555448733,-3.748680499549232
1770452918668,126,-2,-1.5485710507923247,-3.729207539072342,-3.728396993202192
1770452918672,126,-2,-1.672490617530332,-4.090193414308077,-3.84877999471573
1770452918676,126,-2,-1.7674820948272192,-3.8543905959475455,-3.942235725405171
1770452918680,126,-2,-1.7614433423876716,-3.9605542143605335,-3.935409890390654
1770452918684,126,-2,-1.7472952883250903,-3.955430507426155,-3.919746230794593
1770452918688,126,-2,-1.889209755725608,-3.764129644711146,-4.058357514192699
1770452918692,126,-2,-2.2407102485077175,-4.080438400927539,-4.404699069075141
1770452918696,125,-3,-2.6376826397111657,-4.801204621086361,-4.795677002045721
1770452918700,125,-3,-2.781348715167395,-5.056595023766505,-4.934151502879374
1770452918704,125,-3,-2.468027480960447,-4.78673991797421,-4.617948484167955
1770452918708,126,-2,-1.783272133919375,-3.880442852668701,-3.93304108838532
1770452918712,127,-1,-1.09011712779441,-2.94111182612124,-3.24101854813669
1770452918716,127,-1,-0.8019356047441597,-2.9008052738501897,-2.9523512526317033
1770452918720,127,-1,-1.100218998104855,-3.009745107202385,-3.2460887004708066
1770452918724,126,-2,-1.7999206379945178,-3.7362617725108582,-3.9372947942948486
1770452918728,125,-3,-2.4589650280436897,-4.946235141562269,-4.587021191475891
1770452918732,125,-3,-2.65857132906576,-4.766905840324874,-4.780800252429751
1770452918736,126,-2,-2.266991119886648,-4.113685138160479,-4.389114355620538
1770452918740,126,-2,-1.519830245294366,-3.753818803393745,-3.645427788234025
1770452918744,127,-1,-0.8766299876605856,-2.972259728965261,-3.004100293565818
1770452918748,127,-1,-0.7421007408892137,-2.657488521754158,-2.8660322073975184
1770452918752,127,-1,-1.2080143801071104,-3.0208314991508125,-3.3237123894073015
1770452918756,126,-2,-1.9735500007280693,-3.86230216696146,-4.080264145842923
1770452918760,125,-3,-2.520782622739198,-4.9755616875700195,-4.621075757730997
1770452918764,125,-3,-2.4567347241477746,-4.750468516389988,-4.553717347603474
1770452918768,126,-2,-1.7872945427717026,-3.7618216648453826,-3.882902345120819
1770452918772,127,-1,-0.9116157605132378,-2.953283121024752,-3.0068185598278734
1770452918776,128,0,-0.3365573615941205,-1.8294773109948217,-2.4317477317473446
1770452918780,128,0,-0.3383642439527168,-2.0908484365990443,-2.4324202280602996
1770452918784,126,-2,-0.8344428798608254,-3.5463964289040986,-2.923849387071503
1770452918788,126,-2,-1.5274584302189325,-3.956770420610156,-3.608174543368494
1770452918792,126,-2,-2.1389673403871075,-3.705186208305708,-4.210276968721423
1770452918796,126,-2,-2.5180205133542115,-4.035403073582671,-4.583799236151751
1770452918800,125,-3,-2.6061372841307024,-4.908257627669507,-4.6714172099231845
1770452918804,125,-3,-2.3977567640391815,-4.655253416747467,-4.464344615309171
1770452918808,126,-2,-1.97108970465788,-3.861747470755643,-4.036799997332574
1770452918812,126,-2,-1.513368790368647,-3.716101174962665,-3.574752897052541
1770452918816,127,-1,-1.245219893145367,-3.021372653257567,-3.300393334097374
1770452918820,127,-1,-1.2703246966549528,-2.898254973585423,-3.319542354063211
1770452918824,126,-2,-1.483292941425027,-3.6435501162142345,-3.527634085906792
1770452918828,126,-2,-1.6401580908796267,-3.857839476425297,-3.680270368149116
1770452918832,126,-2,-1.551153742254182,-3.65284003563201,-3.587342095438852
1770452918836,127,-1,-1.2351741682511777,-3.073668641226756,-3.268125295847349
1770452918840,127,-1,-0.905338924911683,-2.8065103220307197,-2.936045100590656
1770452918844,127,-1,-0.8039483836309608,-2.718517848336789,-2.832719109637493
1770452918848,127,-1,-1.025397118785029,-2.773833316257422,-3.0511116655813724
1770452918852,126,-2,-1.4589687748939757,-3.665903161296641,-3.479512574188252
1770452918856,126,-2,-1.874723631677103,-4.0746280943905395,-3.888492543508212
1770452918860,126,-2,-2.065176244661578,-3.733421894127304,-4.072438833399124
1770452918864,126,-2,-1.93574269229079,-3.798590823388931,-3.9384833931951064
1770452918868,126,-2,-1.509727968951554,-3.6569794491365526,-3.510090576667994
1770452918872,127,-1,-0.8860363416674837,-2.7187445958367116,-2.8849648269034476
1770452918876,128,0,-0.1926621160086085,-2.050560186230152,-2.1897033627666045
1770452918880,128,0,0.4523035253294609,-1.6587456610418827,-1.5415039719123058
1770452918884,129,1,0.9770379677236732,-0.9316018745464092,-1.0119227227865586
1770452918888,129,1,1.3896510272541045,-0.4149757854197109,-0.5931904590486967
1770452918892,130,2,1.79088735482506,0.0041437279293812,-0.1853123995627212
1770452918896,130,2,2.334206296633621,0.3129654469650464,0.3642112061141289
1770452918900,131,3,3.126850033764425,0.9629936948654408,1.1614402596846296
1770452918904,132,4,4.123593740609946,2.4902019455793214,2.160199213531216
1770452918908,133,5,5.091542183080179,3.2022446809757454,3.128096183268624
1770452918912,133,5,5.685337716870085,3.39056767036968,3.722149051046457
1770452918916,134,6,5.60903395181703,4.008660393452438,3.649036375910008
1770452918920,133,5,4.792635864568955,3.2112206289106,2.8395168869693976
1770452918924,131,3,3.4810810864732913,1.349611460845888,1.5369283792034336
1770452918928,130,2,2.1522550815465675,0.2828608643593056,0.2163542384940149
1770452918932,129,1,1.2791771206334457,-0.5487640908521629,-0.6514930545333457
1770452918936,129,1,1.068424166189683,-1.127867488319046,-0.8604755949307907
1770452918940,129,1,1.3402521171951502,-0.5159879785309056,-0.5887604909289998
1770452918944,130,2,1.6358345104145886,0.0084093724453508,-0.2928134669018425
1770452918948,129,1,1.49263171879239,-0.2780491553016724,-0.4334819705918518
1770452918952,129,1,0.7122576710664011,-0.9950520563349108,-1.208787467400168
1770452918956,127,-1,-0.5502161817116346,-2.6539890130714108,-2.464535308877112
1770452918960,126,-2,-1.9129387099340267,-3.948228314795609,-3.8203668587018136
1770452918964,125,-3,-2.9960426695872786,-4.565072272664542,-4.897465746637852
1770452918968,124,-4,-3.5943964934253128,-5.617231702423746,-5.490739349597633
1770452918972,124,-4,-3.711121344651741,-5.670227299234323,-5.603206651760387
1770452918976,125,-3,-3.4765961674780708,-4.898548929490898,-5.366031693166107
1770452918980,125,-3,-3.045459783949638,-4.735735122682364,-4.934423723858838
1770452918984,125,-3,-2.5613871159702075,-4.713216952539838,-4.450273487332127
1770452918988,125,-3,-2.193422229870933,-4.45370164311211,-4.079135241209759
1770452918992,126,-2,-2.1399815600467305,-3.799138742913484,-4.017979281010083
1770452918996,126,-2,-2.5088131795766566,-3.7350793846181674,-4.377391362882328
1770452919000,125,-3,-3.1458327603021603,-4.884907629854751,-5.007990896674253
1770452919004,124,-4,-3.6132380943577087,-5.54160616238672,-5.47403107254539
1770452919008,124,-4,-3.413699999027796,-5.569262689639186,-5.275741865788817
1770452919012,125,-3,-2.2986427898621127,-4.695245784511689,-4.160028183362269
1770452919016,128,0,-0.3687091843611394,-1.7395854872537966,-2.224925104186954
1770452919020,131,3,2.1512746310480444,1.0911718524066627,0.3037785495074931
1770452919024,133,5,5.242425586661638,3.5584383746212387,3.404341813461393
1770452919028,137,9,9.151023995088693,7.316326950325827,7.320627426286853
1770452919032,141,13,14.030835592994974,11.459039934014294,12.204877200706786
1770452919036,147,19,19.448477385534787,17.13429589604315,17.6225435310826
1770452919040,153,25,24.23206540481721,23.2593001810168,22.40187915905351
1770452919044,155,27,26.89618494733802,25.433842605289385,25.060803159209264
1770452919048,154,26,26.40105821690228,24.421531591655445,24.565292499608823
1770452919052,151,23,22.73650288874157,21.388572086651056,20.90902811800728
1770452919056,145,17,16.960498904560612,15.180894890097978,15.148455945962858
1770452919060,138,10,10.6930387514052,8.290540129971486,8.897440817488498
1770452919064,133,5,5.386823109751438,3.4626694629235097,3.6016259632774292
1770452919068,130,2,1.791559485922786,0.4087440004469067,0.0066706161409084
1770452919072,128,0,-0.1449710994750077,-1.5368530347030689,-1.937769484296644
1770452919076,127,-1,-1.0028141865041524,-2.9120532210605528,-2.80423774129357
1770452919080,126,-2,-1.4906897240408998,-3.5439030686602457,-3.2933780863307778
1770452919084,126,-2,-2.1226967768331115,-3.688261007990421,-3.916935756467955
1770452919088,125,-3,-3.0435640431975255,-4.421747030207747,-4.824332421237168
1770452919092,124,-4,-4.0280243617490825,-5.669709974786022,-5.7972662200041345
1770452919096,123,-5,-4.669673115379652,-6.790216303531809,-6.433113914733555
1770452919100,123,-5,-4.686935072587179,-6.584643222668267,-6.449608790859985
1770452919104,124,-4,-4.157386585222748,-5.648530584012914,-5.92135918222485
1770452919108,124,-4,-3.504570340697851,-5.393119439347664,-5.269111402320862
1770452919112,125,-3,-3.234183784278005,-4.702464343181168,-4.997030832043923
1770452919116,125,-3,-3.6056858038328983,-4.728044238457597,-5.364146507634613
1770452919120,123,-5,-4.476426456701149,-6.620049254731738,-6.228004515281584
1770452919124,122,-6,-5.424167571695867,-7.59571451093346,-7.167497982052843
1770452919128,122,-6,-6.035395583976357,-7.378390232802209,-7.771586518905896
1770452919132,122,-6,-6.132329902731464,-7.725639393055519,-7.8649406892918305
1770452919136,122,-6,-5.803402825845048,-7.639661253795515,-7.536023628526583
1770452919140,123,-5,-5.279851712223636,-6.696396066891346,-7.013270183141661
1770452919144,123,-5,-4.784814190832442,-6.496668718540721,-6.516556189654595
1770452919148,123,-5,-4.4421518826195,-6.4272866449354185,-6.1688081782206
1770452919152,124,-4,-4.256026297242588,-5.685836374515644,-5.9761470805498895
1770452919156,124,-4,-4.133262479224195,-5.6025859877636455,-5.848034954535738
1770452919160,124,-4,-3.932075854671076,-5.757524380891432,-5.643258678661331
1770452919164,124,-4,-3.533693764110162,-5.347967273208653,-5.241469921013161
1770452919168,125,-3,-2.90724300672266,-4.602928426554863,-4.610668842097764
1770452919172,126,-2,-2.119354652175841,-3.4374573761884726,-3.8184928024110394
1770452919176,127,-1,-1.2863300513990694,-2.839418163816745,-2.982927702099521
1770452919180,127,-1,-0.5281961942395346,-2.4916320712479196,-2.223923676798784
1770452919184,128,0,0.0333499513182856,-1.5697746332743472,-1.6611029450459884
1770452919188,128,0,0.2694100379481993,-1.390891906811954,-1.4213607185667378
1770452919192,128,0,0.0936804455829981,-1.5827040526237484,-1.5910505687121026
1770452919196,128,0,-0.4400859558131779,-1.688402271893612,-2.11845639934283
1770452919200,127,-1,-1.0887778772342325,-2.588407363289448,-2.7624757191913147
1770452919204,126,-2,-1.5120807852662896,-3.470700542446987,-3.18294269695438
1770452919208,126,-2,-1.4798055742511906,-3.446642787225694,-3.1483735678311353
1770452919212,127,-1,-1.033497945979119,-2.509933410595755,-2.6994609120726114
1770452919216,128,0,-0.4483611830113002,-1.6961523739489763,-2.1116818229220864
1770452919220,128,0,-0.0153614140026059,-1.5746245300026036,-1.6762859056155135
1770452919224,128,0,0.1691922810597051,-1.4360595207038744,-1.488979523078911
1770452919228,128,0,0.2348298143340481,-1.5069656745807505,-1.419312566714574
1770452919232,128,0,0.3882135723773584,-1.3767492072113747,-1.2604621154650206
1770452919236,129,1,0.7332264535677884,-0.8229003121699623,-0.9095695551318306
1770452919240,129,1,1.2104180101872075,-0.3680001558102319,-0.4278940744828341
1770452919244,130,2,1.682603216898086,0.3457048638576607,0.0459775574764225
1770452919248,130,2,2.061537357053104,0.7422379431014168,0.4244358609893917
1770452919252,130,2,2.3457181478200027,0.3953055864882386,0.7089924002981256
1770452919256,130,2,2.5483451734888356,0.4395048628825158,0.9157640710729642
1770452919260,131,3,2.6295917104072664,1.4308822467378646,1.0044885399532932
1770452919264,131,3,2.542919118557691,1.5442780195786514,0.9249635137150328
1770452919268,130,2,2.3445316864677976,0.5856993504794081,0.7302711822478378
1770452919272,130,2,2.202200401999704,0.5538210077012335,0.5884754739406461
1770452919276,130,2,2.2436916383611387,0.3437196379779201,0.6299792135364677
1770452919280,130,2,2.3917014962774794,0.5311256531693365,0.7795184264442059
1770452919284,131,3,2.384910703768903,1.5226201780977058,0.7760141924950132
1770452919288,130,2,2.00701961429071,0.5795875459779238,0.4026662530359266
1770452919292,129,1,1.3241887631488258,-0.3787521864804026,-0.2746598487467573
1770452919296,129,1,0.7021551182958539,-0.7187996970387891,-0.8908468295190592
1770452919300,128,0,0.5666512960496125,-1.371624235905762,-1.0216444506073163
1770452919304,129,1,1.092297887269017,-0.5153948897577081,-0.493824543183279
1770452919308,130,2,2.0621452163834753,0.6227085540251647,0.4758896438093314
1770452919312,131,3,3.0035997152054645,1.63479450167518,1.4170266526795878
1770452919316,132,4,3.494909527210125,2.258126033497786,1.9103874682189528
1770452919320,131,3,3.4137132763620928,1.707893972333954,1.8345028258131528
1770452919324,131,3,2.9568816692739253,1.403044291062515,1.384544268811582
1770452919328,130,2,2.4433048177365264,0.766437876220079,0.8764331366209903
1770452919332,130,2,2.0659001012632823,0.4937893253117587,0.5014925901796201
1770452919336,130,2,1.7742360324476771,0.4523372720053713,0.2104183276139972
1770452919340,129,1,1.3571913860866107,-0.4612684189927292,-0.2055598079771066
1770452919344,129,1,0.6508308865947005,-0.4128231878377617,-0.909279747815526
1770452919348,128,0,-0.2915730061188264,-1.3565459594243163,-1.8479470869896748
1770452919352,126,-2,-1.210643057004741,-3.4073997585910543,-2.7626417758463857
1770452919356,126,-2,-1.8360491502969216,-3.561798801613963,-3.383088853298533
1770452919360,126,-2,-2.0968764645215106,-3.455380570114079,-3.639291999454278
1770452919364,126,-2,-2.1541529224181533,-3.366628667625455,-3.69397448294924
1770452919368,126,-2,-2.2407212629978175,-3.3609163716190307,-3.780287815172261
1770452919372,125,-3,-2.4814348308996426,-4.401389018009344,-4.020983697152733
1770452919376,125,-3,-2.852942324784693,-4.526799078464018,-4.390182145093966
1770452919380,125,-3,-3.269199074821296,-4.478607003923226,-4.801390078678308
1770452919384,124,-4,-3.663602383233475,-5.297626883314432,-5.18976448220286
1770452919388,124,-4,-3.987127353908907,-5.391456134738057,-5.508495940109141
1770452919392,124,-4,-4.158415692481638,-5.334543982665822,-5.677283800232434
1770452919396,124,-4,-4.055280627307069,-5.602240839818277,-5.5731773364328365
1770452919400,124,-4,-3.5912882628258593,-5.343272639486116,-5.107716496218339
1770452919404,125,-3,-2.8218712714551497,-4.426646605706615,-4.334877960532582
1770452919408,126,-2,-1.966799598243079,-3.190713104840672,-3.475140972886406
1770452919412,127,-1,-1.298744988566019,-2.5263063380379935,-2.803410856725126
1770452919416,127,-1,-0.9843383207609008,-2.392409171371653,-2.487598273924192
1770452919420,127,-1,-1.0220124518452305,-2.5274461197681153,-2.524891657653808
1770452919424,126,-2,-1.3221451623480858,-3.2182116372419625,-2.8231340867699863
1770452919428,126,-2,-1.8213843193018369,-3.346275003275964,-3.3178958171344597
1770452919432,126,-2,-2.4890309051157433,-3.3421733803051574,-3.979910720786574
1770452919436,125,-3,-3.2196307923720986,-4.554878858688642,-4.705816173303788
1770452919440,124,-4,-3.7625549484556378,-5.3430040599467965,-5.2455010224283765
1770452919444,124,-4,-3.822791877943045,-5.3714234267029894,-5.303112743261098
1770452919448,124,-4,-3.2805137460318714,-5.151396439206402,-4.758525523200465
1770452919452,126,-2,-2.328594344572804,-3.505762529710265,-3.8054218838388327
1770452919456,127,-1,-1.384004881974692,-2.3425486195306644,-2.8609760630095766
1770452919460,127,-1,-0.8310639569833883,-2.5679706509662523,-2.307644509750067
1770452919464,127,-1,-0.7946512949976723,-2.0947630157577057,-2.2676961959860447
1770452919468,127,-1,-1.0971925080439324,-2.414588389736729,-2.5631033582026
1770452919472,126,-2,-1.3999923777623635,-3.216780743311448,-2.857947940412142
1770452919476,127,-1,-1.4151848114900545,-2.555468023947533,-2.8682595811529867
1770452919480,127,-1,-1.0617194348157168,-2.3838013609307716,-2.5146380309016196
1770452919484,127,-1,-0.4972504298843648,-2.1951777320065236,-1.952656918808112
1770452919488,128,0,-0.0266506528338419,-1.3319212363722357,-1.4832384932668374
1770452919492,128,0,0.0675032164969008,-1.2339071301618711,-1.3864788721987131
1770452919496,128,0,-0.3058184609244547,-1.525656399680591,-1.753954301969727
1770452919500,127,-1,-0.9762503586368384,-2.38201368652442,-2.417724647240626
1770452919504,126,-2,-1.6029420341667815,-3.1728585086740653,-3.0391969829561267
1770452919508,126,-2,-1.8815730226146976,-3.3306124142744338,-3.314959041964938
1770452919512,126,-2,-1.7298179122204869,-3.1851567329375134,-3.1621703269512142
1770452919516,127,-1,-1.3236272281693675,-2.5447418593931355,-2.7554708252561197
1770452919520,127,-1,-0.966117705044736,-2.330031484668524,-2.396854916472531
1770452919524,127,-1,-0.8888193034494049,-2.205262689794248,-2.317591018793314
1770452919528,127,-1,-1.123514032063638,-2.2841880259371057,-2.5496810438369004
1770452919532,126,-2,-1.522385218359827,-3.183935528720788,-2.945104725558763
1770452919536,126,-2,-1.8900528336649425,-3.5220588557627748,-3.3080132778872047
1770452919540,126,-2,-2.1060837210815277,-3.311222691365915,-3.5185451077416676
1770452919544,126,-2,-2.140067934601393,-3.199723896317799,-3.548245311707519
1770452919548,126,-2,-1.9839761600368473,-3.276178481788331,-3.3906790192889753
1770452919552,126,-2,-1.6181439519548042,-3.128505811325251,-3.025479545497951
1770452919556,127,-1,-1.0743499341387512,-2.5843865986946284,-2.4817784536548024
1770452919560,127,-1,-0.518623863250776,-2.178129397536989,-1.923541329755578
1770452919564,128,0,-0.2174372597161084,-1.345568685885543,-1.6177609823666794
1770452919568,128,0,-0.3601599958917592,-1.0703805352114528,-1.7560281546902237
1770452919572,127,-1,-0.8857044384997181,-2.3198865170357887,-2.278448211598091
1770452919576,126,-2,-1.5003022642380752,-3.362268479783711,-2.890422296162063
1770452919580,126,-2,-1.8995625639308549,-3.368541080003224,-3.2865779456490953
1770452919584,126,-2,-1.99728987320706,-3.1395370866227936,-3.381273330681429
1770452919588,126,-2,-1.9556391069209431,-3.214918862068296,-3.3378188232358306
1770452919592,126,-2,-2.009274394303641,-3.155465222450063,-3.390754983671926
1770452919596,126,-2,-2.258486489004965,-3.4858453639097564,-3.638826772394493
1770452919600,125,-3,-2.6050945519135476,-4.25758836312964,-3.982457109417133
1770452919604,125,-3,-2.857287147469922,-4.1925575238171415,-4.229933974587589
1770452919608,125,-3,-2.8875923687834133,-4.149124808704401,-4.255285051999336
1770452919612,125,-3,-2.707350868282898,-4.143144436921316,-4.071633887524045
1770452919616,126,-2,-2.4157475912398625,-3.50318984858987,-3.779036680018736
1770452919620,126,-2,-2.09387272620711,-3.205481452177376,-3.45769441008773
1770452919624,126,-2,-1.7509271923986145,-3.2372670125193395,-3.114258287919954
1770452919628,126,-2,-1.3639799736446792,-3.0519632278106643,-2.723541447551447
1770452919632,127,-1,-0.9448275243858332,-2.199686896084307,-2.298073099719272
1770452919636,128,0,-0.5372312834468815,-1.4211996969749472,-1.885332602432928
1770452919640,128,0,-0.1464883796599605,-1.2731557851163142,-1.493481109842134
1770452919644,128,0,0.2883615546204618,-1.135778861156904,-1.060077211943475
1770452919648,128,0,0.812599071615097,-1.1362049160786831,-0.5356223122491581
1770452919652,129,1,1.3590047839339938,-0.0425171989670756,0.0145391529571834
1770452919656,131,3,1.7897410342396745,1.4066694613644948,0.4502192790522017
1770452919660,130,2,2.068529921476926,0.980748935142036,0.7323566458598623
1770452919664,130,2,2.3609993697131624,0.5637895970536309,1.0271293421690308
1770452919668,130,2,2.910138685516525,1.2702263922520354,1.5796591031129743
1770452919672,132,4,3.791446378016704,2.508387046507792,2.464980619145396
1770452919676,133,5,4.795451264724615,3.960242369711202,3.470673786366971
1770452919680,134,6,5.54351213155575,4.425136562021713,4.217073889017165
1770452919684,133,5,5.711522313627021,4.143354900684834,4.383222831507617
1770452919688,133,5,5.18132003412482,3.734751001184347,3.855035983744929
1770452919692,132,4,4.063354485114304,3.0056352376510387,2.7434687878097517
1770452919696,131,3,2.6403275849323813,1.5983652250871818,1.3278357744836722
1770452919700,129,1,1.273088530742716,-0.2771791014191169,-0.0347874324275605
1770452919704,128,0,0.275835987624453,-1.009885830192174,-1.0312598702758389
1770452919708,128,0,-0.2094394183099151,-1.2216198435700631,-1.5175912521896828
1770452919712,127,-1,-0.2731106793583001,-1.885441639194575,-1.58109184407845
1770452919716,128,0,-0.1814874285708734,-1.5788339005290484,-1.486821546111608
1770452919720,128,0,-0.2169190761312263,-0.9480079403180536,-1.5188553298517118
1770452919724,128,0,-0.5100814536097429,-1.4226021646652114,-1.8101344657133525
1770452919728,126,-2,-0.997811551997728,-2.7150411390172353,-2.2970133097462537
1770452919732,126,-2,-1.5473325030258789,-3.4280007385474396,-2.8441276042470007
1770452919736,126,-2,-2.112798287343089,-2.9576287048537413,-3.4048152634442745
1770452919740,126,-2,-2.745687221589495,-3.5204496469523825,-4.033002301198898
1770452919744,124,-4,-3.456387061762031,-4.85437165348816,-4.741881375987723
1770452919748,124,-4,-4.109848584474424,-5.215132379568726,-5.396218053539922
1770452919752,123,-5,-4.499609161964411,-5.98726768364762,-5.786386281941981
1770452919756,123,-5,-4.535312089473967,-6.2740324847571785,-5.818986448770204
1770452919760,124,-4,-4.341370813103464,-5.228529774688356,-5.6187970020082485
1770452919764,124,-4,-4.143359626670888,-5.030250134148442,-5.4154998553557725
1770452919768,124,-4,-4.037017895175097,-5.115722929102318,-5.309074001291126
1770452919772,124,-4,-3.8699643139996978,-4.99049113614844,-5.146844695599656
1770452919776,124,-4,-3.3599213355473116,-5.317539071254928,-4.640883448369335
1770452919780,125,-3,-2.3149467198137588,-4.063835362237256,-3.593074875863179
1770452919784,128,0,-0.6907465644573889,-1.1945357099269445,-1.9585662719936705
1770452919788,130,2,1.598179763869234,1.086641857493845,0.3422737778601941
1770452919792,133,5,4.861059085691429,3.8219860782564945,3.6118908116389017
1770452919796,137,9,9.462107732908116,7.881338413128731,8.212477988400543
1770452919800,142,14,15.295577459322187,12.814895863161103,14.041060193341124
1770452919804,149,21,21.361879266950996,19.913649715265137,20.101524662601268
1770452919808,155,27,25.96152709512472,26.088436068106848,24.696385386551963
1770452919812,156,28,27.528986245736856,26.734625503166612,26.262150175417126
1770452919816,153,25,25.532841741372085,24.07392043217088,24.270121818910713
1770452919820,149,21,20.77178842848304,19.55204301373364,19.51953152516924
1770452919824,142,14,14.879065606592436,13.251585928953435,13.639744751393902
1770452919828,137,9,9.43140815481786,7.799994960067899,8.201366931381312
1770452919832,133,5,5.269896860186707,4.055092019343361,4.041326086620629
1770452919836,131,3,2.399776205176372,1.8488303796880907,1.1651887820042968
1770452919840,129,1,0.3815722794646508,-0.2788778431285288,-0.8618120685424078
1770452919844,126,-2,-1.1947476331283815,-2.81350208204199,-2.4430939998326497
1770452919848,125,-3,-2.507408155389542,-4.188852468803698,-3.752785997260301
1770452919852,124,-4,-3.590044815934009,-4.843934646039144,-4.82631302381111
1770452919856,124,-4,-4.468601295532549,-5.274661514259945,-5.695781249783903
1770452919860,123,-5,-5.167949505537479,-6.0952265541738315,-6.391101069500349
1770452919864,122,-6,-5.6409367538201085,-6.982116025206746,-6.865108771124787
1770452919868,122,-6,-5.773798948723456,-7.010345988398229,-7.000199958443563
1770452919872,122,-6,-5.505286422565829,-6.954944587222275,-6.7316451209487225
1770452919876,123,-5,-4.93976115227929,-6.168724135952353,-6.163388688819135
1770452919880,124,-4,-4.32353709616539,-5.118308374161558,-5.54370924528406
1770452919884,124,-4,-3.8907252922245,-4.9797146176354,-5.108568452709899
1770452919888,124,-4,-3.71832176094363,-4.959490449630298,-4.9350995838824705
1770452919892,124,-4,-3.720933517005006,-4.998853846413228,-4.936801209894278
1770452919896,124,-4,-3.776606102643642,-5.082562523166638,-4.990844537031639
1770452919900,124,-4,-3.8512069928888817,-5.158730164887812,-5.0632907595906635
1770452919904,124,-4,-3.9992120007959073,-4.925754188316834,-5.209361477857777
1770452919908,124,-4,-4.248527054988973,-4.964029603518393,-5.457018212583111
1770452919912,123,-5,-4.49958649795966,-6.002346266847701,-5.705768436769661
1770452919916,123,-5,-4.557252074186751,-6.0089815772938575,-5.760103002543072
1770452919920,124,-4,-4.274898583633226,-5.23204185760767,-5.474943077735504
1770452919924,124,-4,-3.678323014879957,-4.785772614005904,-4.878115862290539
1770452919928,125,-3,-2.968716531967008,-4.102060078059188,-4.170459794674695
1770452919932,125,-3,-2.412923317109424,-3.81239718974626,-3.61582632750747
1770452919936,126,-2,-2.192777825327033,-3.200908445803539,-3.3933970190799565
1770452919940,126,-2,-2.292020647801942,-2.983120468174421,-3.487136956637985
1770452919944,125,-3,-2.491585306298022,-4.021654844633067,-3.680690921894618
1770452919948,125,-3,-2.501328109582566,-3.8221860571741137,-3.6870259324493615
1770452919952,126,-2,-2.15967539458675,-3.0664195881597,-3.3460726958925906
1770452919956,126,-2,-1.561796822783132,-2.92523880834416,-2.7516549857904495
1770452919960,127,-1,-1.015440601960583,-2.2134611823679062,-2.207868841688952
1770452919964,127,-1,-0.8396056974331643,-1.7537254460445202,-2.030510097551722
1770452919968,127,-1,-1.1280607028670653,-2.0845014996307567,-2.3133684549799183
1770452919972,126,-2,-1.640588560414778,-2.754175561990901,-2.8194602190241937
1770452919976,126,-2,-1.9235112417509104,-3.240843317670571,-3.0986987812342255
1770452919980,126,-2,-1.60636844035437,-2.837467232840071,-2.7815527182869646
1770452919984,127,-1,-0.6741068332712012,-2.0881240959385012,-1.8508777113298225
1770452919988,128,0,0.4982898587687636,-0.7428452107666579,-0.6791307444957762
1770452919992,130,2,1.4011020252419393,0.9775651405687164,0.2244523355132035
1770452919996,130,2,1.7524718549762648,0.9805753733874036,0.5770727227786812
1770452920000,129,1,1.6717913582284265,0.0498828729986968,0.4981015262214332
1770452920004,129,1,1.517203550624392,-0.0291577733463268,0.346786474171743
1770452920008,129,1,1.54913761843778,0.3141200851207475,0.383493181752448
1770452920012,130,2,1.7391279584654096,0.8718293914644453,0.5773551319729044
1770452920016,130,2,1.8778632564067723,1.2023715855417634,0.7163859434976252
1770452920020,130,2,1.830656456630858,0.7950836392685168,0.6660652425852414
1770452920024,129,1,1.6649448391093338,0.2878098028900373,0.4974360842088463
1770452920028,129,1,1.541687855932783,0.0030713667234485,0.3755111341454107
1770452920032,129,1,1.5250480432966034,0.2027155681966526,0.3649655797727889
1770452920036,130,2,1.5410169241491372,0.9590376711610752,0.3878887117965917
1770452920040,130,2,1.5265607491721531,1.0188057407444304,0.3765460183908102
1770452920044,129,1,1.5701965035193728,0.150311574757284,0.4184289408041268
1770452920048,129,1,1.8410665785081668,0.0844109431047532,0.685812258842065
1770452920052,130,2,2.3592984348923167,1.2102025509010734,1.20260982245413
1770452920056,131,3,2.8756481966498773,1.9571545353516648,1.7209242286994022
1770452920060,131,3,3.037775430767484,2.0962073061303976,1.8872665817417995
1770452920064,131,3,2.7187580458998086,2.089649928588039,1.5727337144898088
1770452920068,130,2,2.194106670172526,1.1276122198854068,1.0514226406723066
1770452920072,129,1,1.9663882275290665,0.2175250719374264,0.8255095270390895
1770452920076,130,2,2.351555301876211,0.96526944378406,1.2111624481170993
1770452920080,131,3,3.1762498626863738,2.1902162556061997,2.035250984823774
1770452920084,132,4,3.8640266326609902,2.9893804739206833,2.7216431560045513
1770452920088,132,4,3.857610369452934,3.2579556678618005,2.7140635396355055
1770452920092,131,3,3.0320391093207872,2.08294825908272,1.8893253061298865
1770452920096,129,1,1.7651641149700878,0.1276034497967035,0.6266211869843727
1770452920100,128,0,0.6330909596625505,-0.889994862384422,-0.4989019686208529
1770452920104,128,0,0.012107600528677,-0.9274948388411426,-1.1144851002098084
1770452920108,128,0,-0.0916800112654754,-0.7708065914493829,-1.2173896400507878
1770452920112,128,0,0.0863797457977673,-0.8867918021401491,-1.0427172090748795
1770452920116,128,0,0.3031262984104486,-0.8727026755911851,-0.8296067213210951
1770452920120,128,0,0.4254398708310096,-0.818468814973291,-0.7071343258274123
1770452920124,128,0,0.393570273353533,-1.0206367931655058,-0.734778206160017
1770452920128,128,0,0.1513627389094163,-0.5976752710054551,-0.9720424708804032
1770452920132,128,0,-0.3500684254013002,-1.0852309677401504,-1.4710419047968797
1770452920136,126,-2,-1.0952230772631126,-2.6117577581487965,-2.216357236331072
1770452920140,126,-2,-1.9804084436870713,-3.036327753041834,-3.102033108610886
1770452920144,125,-3,-2.8539706093937167,-3.8114873696575,-3.974617345834572
1770452920148,124,-4,-3.575991932974683,-4.721507173683846,-4.694038810640455
1770452920152,124,-4,-4.053686097270573,-5.007089558829148,-5.16829724080926
1770452920156,123,-5,-4.250155427669238,-5.563156545144254,-5.361743766307924
1770452920160,124,-4,-4.180325469150038,-5.14232407785487,-5.290879806410328
1770452920164,124,-4,-3.904590799356332,-4.594034610342677,-5.01670049850684
1770452920168,124,-4,-3.530466010791346,-4.977320907942298,-4.6448025676869955
1770452920172,124,-4,-3.2136145044416664,-4.6927889151597,-4.3275731850069405
1770452920176,125,-3,-3.1132488042094737,-3.829771691554363,-4.223077418103654
1770452920180,125,-3,-3.2799754604809412,-3.897239791203437,-4.384335974899183
1770452920184,124,-4,-3.5601740911955564,-4.724761320437448,-4.661103486384077
1770452920188,124,-4,-3.652482093799747,-4.921459667240541,-4.753079534402342
1770452920192,124,-4,-3.328414535853569,-4.619901675718437,-4.430205605148724
1770452920196,125,-3,-2.6404926770871815,-3.9626811588273014,-3.7429376771415113
1770452920200,126,-2,-1.9108332055048476,-2.6381463137946684,-3.0125866756106254
1770452920204,127,-1,-1.4804823915724352,-2.0145590149780968,-2.5804526525477876
1770452920208,126,-2,-1.4302321124894457,-2.5674891369098836,-2.5275868163940833
1770452920212,126,-2,-1.5245231753845534,-2.9850854694403424,-2.6186613605933946
1770452920216,126,-2,-1.4284728033849068,-2.5600905114660018,-2.519706875076908
1770452920220,127,-1,-1.001905036347364,-1.986914556108149,-2.091774225201397
1770452920224,127,-1,-0.420653132160199,-1.6371875634033333,-1.5109108041447292
1770452920228,128,0,-0.0376404839088202,-0.8894431836560155,-1.1289034556424584
1770452920232,128,0,-0.1075623762416502,-0.6887352329087246,-1.1989065392865632
1770452920236,127,-1,-0.597675033680952,-1.798660445963283,-1.687135730439013
1770452920240,126,-2,-1.2304664766330875,-2.7442301277630365,-2.31613627395359
1770452920244,126,-2,-1.7053861842864553,-2.798798039206423,-2.786944463999097
1770452920248,126,-2,-1.8967244513105193,-2.726579257353581,-2.9761545340432987
1770452920252,126,-2,-1.8717186228792724,-2.8063508929818664,-2.9517882434302396
1770452920256,126,-2,-1.7589469323592122,-2.6744897475384652,-2.8404742703045205
1770452920260,126,-2,-1.6184497691188595,-2.8152037068525457,-2.6993888597844204
1770452920264,126,-2,-1.4193554768781764,-2.7077245070598783,-2.496980324638693
1770452920268,127,-1,-1.1080090134599136,-1.7716830408566155,-2.181781675776684
1770452920272,127,-1,-0.6874007473689805,-1.7467894122649898,-1.7592992214633785
1770452920276,127,-1,-0.2525626370712596,-1.7106142666011934,-1.324869525317491
1770452920280,128,0,0.0341543945717197,-0.7188858891188434,-1.0391476449600665
1770452920284,128,0,0.0217628059688425,-0.8154470639293114,-1.0512857194678922
1770452920288,127,-1,-0.3351383301728038,-1.5745170952169505,-1.4059772064121592
1770452920292,127,-1,-0.931118170781882,-1.98536453343969,-1.9984730791085057
1770452920296,126,-2,-1.5511462330820711,-2.3833923916252084,-2.6152470014753204
1770452920300,126,-2,-1.9770972833596416,-3.059746650136459,-3.0392041185171683
1770452920304,125,-3,-2.101488306111621,-3.4105624192582824,-3.1626672756999117
1770452920308,126,-2,-1.9827778459129064,-2.932681911362194,-3.0435188026672613
1770452920312,126,-2,-1.7992798427546894,-2.6589163800589426,-2.8601360298546092
1770452920316,126,-2,-1.7260144241686155,-2.5878859826462777,-2.787625856479587
1770452920320,126,-2,-1.8267915603595009,-2.9484634584385443,-2.8886537755760724
1770452920324,125,-3,-2.0395450144106766,-3.347243798268292,-3.0992680065633627
1770452920328,126,-2,-2.240342477268949,-3.104088800717898,-3.2951046001263107
1770452920332,125,-3,-2.3082252296031123,-3.340334463735228,-3.357442296135649
1770452920336,126,-2,-2.150055871030565,-2.966210472412431,-3.1964220093706976
1770452920340,126,-2,-1.72217191806424,-2.4774693991909302,-2.769649200615414
1770452920344,126,-2,-1.0916253076102858,-2.801251029136628,-2.1422799648191138
1770452920348,127,-1,-0.4927892041840488,-1.6510557271558142,-1.5456423268476407
1770452920352,128,0,-0.2691922046805397,-0.7011770662609804,-1.3216513302995905
1770452920356,127,-1,-0.6686211650886944,-1.6641764203586211,-1.7182280658457096
1770452920360,126,-2,-1.6274990493168953,-2.6480165563654694,-2.672581943429102
1770452920364,125,-3,-2.738850028409036,-3.684480925342169,-3.778864032640312
1770452920368,124,-4,-3.463261978543519,-4.697870110128402,-4.499325387319706
1770452920372,124,-4,-3.4477747117281665,-4.633508329416581,-4.482560160325372
1770452920376,125,-3,-2.7343926020942413,-3.699173713110895,-3.770836556480555
1770452920380,126,-2,-1.7195943624391758,-2.5405093488901835,-2.759140173666486
1770452920384,127,-1,-0.9015156791177956,-1.804508501967888,-1.9431111580502125
1770452920388,127,-1,-0.5935510801111374,-1.53251709930889,-1.6341441102297865
1770452920392,127,-1,-0.7890290454560366,-1.7993632005760356,-1.82535192614313
1770452920396,126,-2,-1.2373148413379689,-2.485920151848217,-2.267952851773049
1770452920400,126,-2,-1.641518203267725,-2.7023787356219633,-2.6679838338515065
1770452920404,126,-2,-1.824914497496711,-2.633482288447296,-2.850725566866691
1770452920408,126,-2,-1.7730529798873271,-2.64682269656753,-2.801026544361379
1770452920412,126,-2,-1.571179426222746,-2.7015415580859736,-2.6010706519897004
1770452920416,126,-2,-1.3139938047484143,-2.498966632472389,-2.342917736077543
1770452920420,127,-1,-1.041439773330068,-1.699251562253302,-2.0667581802140105
1770452920424,127,-1,-0.7190277809654997,-1.561391389684038,-1.7406512407154182
1770452920428,127,-1,-0.2721384408490674,-1.7338348546651008,-1.2921969721749336
1770452920432,128,0,0.3396024441668357,-0.5640111347172985,-0.6811587787583742
1770452920436,129,1,1.0654918580074098,0.3901767491178798,0.043602742775922
1770452920440,129,1,1.7807758802715972,0.445600091545272,0.7597112660402043
1770452920444,130,2,2.3732314430056305,1.343541351060522,1.355636422068392
1770452920448,131,3,2.8376720959282906,2.364023272477667,1.824126761646787
1770452920452,131,3,3.2978724043246332,2.3678064950430655,2.2861737605471317
1770452920456,131,3,3.90544065096055,2.500034049474599,2.89300999345929
1770452920460,132,4,4.6666527396281605,3.361138309807179,3.6530447681992273
1770452920464,133,5,5.357458147029711,4.486872989244962,4.344078243313564
1770452920468,134,6,5.6495802222260725,5.209311655833444,4.637811224497665
1770452920472,133,5,5.3675630136116075,4.589777593279456,4.358052381896219
1770452920476,132,4,4.640968120767402,3.26414494937861,3.6340875574408713
1770452920480,131,3,3.801983291390639,2.6684526296735873,2.7976526986130024
1770452920484,131,3,3.121925901455805,2.1840132438255724,2.118892182900512
1770452920488,130,2,2.620905596385023,1.5537928254083069,1.6172655045591062
1770452920492,130,2,2.100563003066943,1.2986544291532578,1.095616092803218
1770452920496,129,1,1.353354679160628,0.5514418395976706,0.3486423861622421
1770452920500,128,0,0.3693194102940332,-0.5499924011215134,-0.6325475977991446
1770452920504,127,-1,-0.6249041392825756,-1.621499422331698,-1.6225507621733355
1770452920508,126,-2,-1.3260788407924575,-2.5602174668695685,-2.3206321415286917
1770452920512,126,-2,-1.5896534369604671,-2.590061147395292,-2.58387452796298
1770452920516,126,-2,-1.5561256999519906,-2.4857108095021143,-2.55220755798316
1770452920520,126,-2,-1.5658767838139904,-2.5151405545040033,-2.563812157104711
1770452920524,126,-2,-1.9199396706067131,-2.6117788254469305,-2.9177368851060432
1770452920528,125,-3,-2.661211469903443,-3.552269160720209,-3.65645236706916
1770452920532,124,-4,-3.539150465142538,-4.5717160394334515,-4.530414679188243
1770452920536,123,-5,-4.1853726336487975,-5.449628390253529,-5.172803898513858
1770452920540,123,-5,-4.364141512073585,-5.545686580372688,-5.349324484104173
1770452920544,124,-4,-4.105853493343908,-4.526885898031832,-5.091002629575939
1770452920548,124,-4,-3.639046027284635,-4.606690413320443,-4.6256573253882065
1770452920552,124,-4,-3.202921524731965,-4.510201120755163,-4.191068599204502
1770452920556,125,-3,-2.887897420419823,-3.427017179626137,-3.876900481995993
1770452920560,125,-3,-2.588230537978342,-3.6280263886245177,-3.577327122498498
1770452920564,125,-3,-2.057484455237196,-3.318370166071015,-3.045219226505282
1770452920568,127,-1,-1.003689933480631,-1.8677515151203583,-1.9874192229136576
1770452920572,128,0,0.8428856884565905,-0.1328041339785217,-0.1345337986637704
1770452920576,132,4,3.7005832356928097,3.1577390445740168,2.728982509820672
1770452920580,135,7,7.677205622633355,6.873896794864258,6.707766036662779
1770452920584,140,12,12.61442884395357,11.169876815775696,11.642805439719394
1770452920588,145,17,17.90101845555025,16.693241651300823,16.924867664469957
1770452920592,150,22,22.458619820377155,21.357684822617777,21.477981954483475
1770452920596,153,25,25.056653664030705,24.62451681824942,24.0728579687801
1770452920600,153,25,24.85540539971632,24.541516110316937,23.870883037599658
1770452920604,149,21,21.838261067925732,20.375972629989604,20.85710492125925
1770452920608,144,16,16.833866405337314,15.6546891746452,15.860622435645288
1770452920612,139,11,11.128592493063184,10.30138792825123,10.16496988215902
1770452920616,133,5,5.939762043740064,4.8181098578646075,4.982578867676502
1770452920620,130,2,2.037684964422157,1.3603662056499477,1.080604078926755
1770452920624,127,-1,-0.3670018572696238,-1.396458198363677,-1.329480781563246
1770452920628,126,-2,-1.519374810192946,-2.5396761274457216,-2.4889563515851596
1770452920632,126,-2,-1.9113700791113264,-2.499793115763602,-2.8854824017314047
1770452920636,125,-3,-2.0656662614050294,-3.3244056600344263,-3.0390452011513114
1770452920640,125,-3,-2.367400162484246,-3.476025429857957,-3.33511054809357
1770452920644,125,-3,-2.9621533257427446,-3.517662952053361,-3.922749845110737
1770452920648,124,-4,-3.7370626833714153,-4.419296399375941,-4.693338785280316
1770452920652,123,-5,-4.4178612385763865,-5.585504643923876,-5.374095849331276
1770452920656,122,-6,-4.770199539296207,-6.198098929718235,-5.728584861990254
1770452920660,123,-5,-4.782721084638969,-5.564893164045216,-5.742475405840685
1770452920664,123,-5,-4.672268475026487,-5.387849768937074,-5.6315088222863805
1770452920668,123,-5,-4.68830061894378,-5.5319179229226245,-5.645957420342444
1770452920672,123,-5,-4.885767116264268,-5.454152580609139,-5.841722343484186
1770452920676,122,-6,-5.076351748455768,-6.27906067628209,-6.030485954420107
1770452920680,122,-6,-5.005829879943815,-6.4823891968667535,-5.957785831294908
1770452920684,123,-5,-4.592572481786056,-5.388313603583224,-5.542714531178359
1770452920688,124,-4,-4.006206468931433,-4.5487054188767395,-4.956089996546911
1770452920692,124,-4,-3.525890150008955,-4.36729967866768,-4.476892768435004
1770452920696,124,-4,-3.3257531272036784,-4.361472451877858,-4.277378022423008
1770452920700,124,-4,-3.375535598662299,-4.364780928156275,-4.325785209043952
1770452920704,124,-4,-3.507379080257551,-4.476434787533019,-4.454808893537908
1770452920708,124,-4,-3.5565009241783128,-4.4316991974982205,-4.501372076976107
1770452920712,124,-4,-3.456348081113611,-4.439994128330811,-4.3998566134432995
1770452920716,124,-4,-3.233931181996355,-4.258921909584422,-4.176980104094628
1770452920720,125,-3,-2.933289755325718,-3.444767100125467,-3.876049341687864
1770452920724,125,-3,-2.5484899852232585,-3.360459995061727,-3.4904194350100735
1770452920728,125,-3,-2.038927537739904,-3.5244854294286867,-2.979083058849391
1770452920732,126,-2,-1.415827343354354,-2.30685847606926,-2.353910171700077
1770452920736,127,-1,-0.8026694782046647,-1.3490158229263358,-1.7399290091645434
1770452920740,127,-1,-0.3934708647636203,-1.3646146502433494,-1.3317217351010526
1770452920744,127,-1,-0.3413256773134784,-1.3435562794053684,-1.280712889572824
1770452920748,127,-1,-0.667309154106657,-1.6041701879943302,-1.605662327499078
1770452920752,126,-2,-1.2374467221081833,-2.0937069161372817,-2.172244408575856
1770452920756,126,-2,-1.7995983638074808,-2.63293313875014,-2.730295702871481
1770452920760,125,-3,-2.063489550870206,-2.9537382505974863,-2.991721989961179
1770452920764,126,-2,-1.8103527425485977,-2.7890374515473955,-2.7381412663746207
1770452920768,126,-2,-0.994962861412525,-2.0942862044971324,-1.9230512612016373
1770452920772,128,0,0.2211696746941786,-0.5667095125292927,-0.7066685021618706
1770452920776,129,1,1.5400084111987689,0.82843894893574,0.6131298452099645
1770452920780,130,2,2.6612090087186617,1.6990770247813765,1.7353000741507385
1770452920784,131,3,3.390746238134975,2.476563794592829,2.4652534136150255
1770452920788,131,3,3.6638927520760145,2.7828496777932665,2.7385674760290613
1770452920792,131,3,3.5010058296082907,2.467778555831837,2.5766991813714104
1770452920796,130,2,2.965339321847095,1.9289318329200007,2.0437674629778906
1770452920800,130,2,2.172965986937991,1.5684352996193485,1.2553268418513233
1770452920804,129,1,1.331834297766309,0.6675441630539541,0.4176159895033553
1770452920808,128,0,0.7265222403177813,-0.3765171809481782,-0.186133977923983
1770452920812,128,0,0.5958330376968012,-0.3793524634105166,-0.3169786060813739
1770452920816,128,0,0.9674860151243736,-0.1276450578488932,0.0539314947143478
1770452920820,129,1,1.5983797712764645,0.5948543819048928,0.6843889028886372
1770452920824,130,2,2.109788875751376,1.7405805972819688,1.195998431698755
1770452920828,130,2,2.238576955709597,1.5242240320292066,1.3260820504779718
1770452920832,129,1,2.008162364807113,0.7610434360055902,1.0987593521496866
1770452920836,129,1,1.6836883848816224,0.7731391776354869,0.7789201153345612
1770452920840,129,1,1.5609905036529554,0.6919111370692872,0.6604463039467738
1770452920844,129,1,1.764008530409659,0.740950892785935,0.86499432540368
1770452920848,130,2,2.188004618713957,1.4977130726809804,1.2874889937888088
1770452920852,130,2,2.595681984852072,1.86573362690473,1.6928899163744962
1770452920856,130,2,2.773268181123961,1.651659940473368,1.8704689277846365
1770452920860,130,2,2.642668797114241,1.8651678134832232,1.743313238854714
1770452920864,130,2,2.2806042408842337,1.6098565022716276,1.3864396127722132
1770452920868,129,1,1.8555863516197608,0.633081846891527,0.965304002609596
1770452920872,129,1,1.526531141185591,0.8015258722185045,0.6370621987719055
1770452920876,129,1,1.3577905680048,0.6962397542535499,0.4671194956981894
1770452920880,128,0,1.2963943889047091,-0.1073542550003409,0.405410731869027
1770452920884,129,1,1.2272610734065668,0.596526148650051,0.3388307824274486
1770452920888,129,1,1.0763372606232409,0.6951455528282725,0.1925211251988389
1770452920892,128,0,0.8824104991249502,-0.2500793583306793,0.0026860818211219
1770452920896,128,0,0.7569929042433761,-0.2129400339577851,-0.1211011418563783
1770452920900,128,0,0.744139143442474,-0.1786650003969258,-0.1347238758599936
1770452920904,128,0,0.7068555749837586,-0.2846750119492072,-0.173390521026473
1770452920908,128,0,0.3704347688023024,-0.3934182175445977,-0.5095707022350544
1770452920912,127,-1,-0.4755114488636422,-1.1248922660176897,-1.3524582500373152
1770452920916,126,-2,-1.7636127879532526,-2.3332231379867054,-2.6352314863412936
1770452920920,124,-4,-3.112083483896379,-4.013226051135908,-3.977909640370533
1770452920924,123,-5,-4.033146119675832,-5.425522967078611,-4.894913933266647
1770452920928,123,-5,-4.250005879425784,-5.214171809612395,-5.111169962396366
1770452920932,124,-4,-3.8767954917207574,-4.2401466249532715,-4.740613086670274
1770452920936,124,-4,-3.3217051205896335,-4.241071020944508,-4.188313418024056
1770452920940,124,-4,-2.99644739533344,-4.009799689143184,-3.861819136903932
1770452920944,125,-3,-3.0461684880882007,-3.4784140122254135,-3.9050935919692815
1770452920948,124,-4,-3.275724760321886,-4.065058441730224,-4.126374264808683
1770452920952,124,-4,-3.317015428140407,-4.406982483734815,-4.162471678420912
1770452920956,124,-4,-2.932992491626418,-4.003845899255665,-3.7785038483555984
1770452920960,125,-3,-2.2445225998702414,-3.2317621104440786,-3.0933787160867077
1770452920964,126,-2,-1.689781340473139,-2.22938163245783,-2.541125189869281
1770452920968,126,-2,-1.714908961556426,-2.2608833670678563,-2.564624396023993
1770452920972,125,-3,-2.416764566929753,-3.210707441672345,-3.2604628052936477
1770452920976,124,-4,-3.418529484234686,-4.149676006969401,-4.2544311796763274
1770452920980,123,-5,-4.094638277044666,-5.074435746903743,-4.9242957103968426
1770452920984,123,-5,-3.997780896900799,-5.356883113089019,-4.824566098221912
1770452920988,124,-4,-3.175474528704816,-4.061363364060529,-4.002676970475209
1770452920992,126,-2,-2.1307505233916517,-2.4054346809160005,-2.960428425693931
1770452920996,126,-2,-1.454610285222964,-1.896030693624709,-2.286583149437293
1770452921000,126,-2,-1.4237830939109557,-2.3322062382193445,-2.254797020649896
1770452921004,125,-3,-1.8694678514321783,-3.0809886590574527,-2.6943121944073423
1770452921008,125,-3,-2.3690215501107783,-3.2772276134084164,-3.184137704907586
1770452921012,125,-3,-2.5527382618771126,-3.1934190034162246,-3.3594517528288
1770452921016,125,-3,-2.2898335696690912,-2.9937396182498945,-3.093751324128327
1770452921020,126,-2,-1.687052240897046,-2.298424873329097,-2.493765703028082
1770452921024,126,-2,-0.986897975828016,-1.9909837794069176,-1.7977671668835329
1770452921028,127,-1,-0.4612710578364495,-1.4554002681720708,-1.2728162467386217
1770452921032,127,-1,-0.3194123744892605,-0.8601106459286156,-1.126348535036344
1770452921036,127,-1,-0.616099999544325,-1.3874440185558532,-1.4150810424695617
1770452921040,126,-2,-1.192446569089728,-1.8085704475323197,-1.9837278438464008
1770452921044,126,-2,-1.7213646031326104,-2.4898947903609834,-2.507837783287963
1770452921048,125,-3,-1.8799221143612483,-2.9529343662931815,-2.6648115636404
1770452921052,126,-2,-1.559538282743157,-2.249277102952508,-2.3445182171351817
1770452921056,126,-2,-0.9592512860289552,-2.0468391943974567,-1.7441423824273383
1770452921060,127,-1,-0.4654889826250317,-1.0154308863484505,-1.249216846426895
1770452921064,128,0,-0.3818027626569188,-0.3635945837874366,-1.163022542903292
1770452921068,126,-2,-0.7108745502069359,-1.981769006453007,-1.4876017994651196
1770452921072,126,-2,-1.166413677475949,-2.2458148424791933,-1.9362762824331488
1770452921076,126,-2,-1.3978725444262414,-1.9563334434148631,-2.1601356900908417
1770452921080,126,-2,-1.2345402393762452,-2.1110339007166834,-1.9918167078468372
1770452921084,127,-1,-0.7745061240090685,-1.2150666108160617,-1.531380804607062
1770452921088,127,-1,-0.3027028030413043,-1.1042062460081268,-1.0620200307831418
1770452921092,127,-1,-0.134812897870896,-1.122045349644115,-0.895262585058423
1770452921096,127,-1,-0.4762320738933938,-0.9958747436216316,-1.2334912496884378
1770452921100,126,-2,-1.331695113726938,-2.0967818060501235,-2.0818007754628276
1770452921104,125,-3,-2.481965746563905,-3.156800430229369,-3.223890003003737
1770452921108,124,-4,-3.5498113582970796,-4.153294708346895,-4.285498860919143
1770452921112,123,-5,-4.154481606186729,-5.053112920862704,-4.886917840686949
1770452921116,123,-5,-4.09347239335576,-4.984629150783158,-4.824639381140816
1770452921120,124,-4,-3.444919982185228,-4.1321075265214535,-4.1750724852345
1770452921124,125,-3,-2.5139328213788876,-3.0138979728126065,-3.242175509593779
1770452921128,126,-2,-1.651007353810527,-2.3538059410605294,-2.3762194136730734
1770452921132,126,-2,-1.0670717451446896,-1.7423746663771775,-1.788420657163017
1770452921136,127,-1,-0.7687675495055812,-1.3452584709236286,-1.4856523100093062
1770452921140,126,-2,-0.6396791832031845,-1.673600731507813,-1.3515267528158543
1770452921144,127,-1,-0.5803504187326989,-1.4814610712633978,-1.2869185405742134
1770452921148,127,-1,-0.5832503682491474,-0.8440331675746469,-1.285222778335024
1770452921152,127,-1,-0.6946220040148241,-1.1932102119759815,-1.3933764678335
1770452921156,126,-2,-0.9335707818424058,-1.9306976832218412,-1.6300389529663843
1770452921160,126,-2,-1.2685024965909395,-1.955709279073048,-1.9625600665206369
1770452921164,126,-2,-1.662921503358361,-2.291079930531493,-2.3539243390003786
1770452921168,125,-3,-2.1162915219295324,-2.8856465708296115,-2.8036690143964873
1770452921172,125,-3,-2.638993567871118,-3.206918619033594,-3.322177815550816
1770452921176,124,-4,-3.1769927713608537,-3.8308102848168457,-3.8552832789175
1770452921180,124,-4,-3.5583290346304475,-4.041500698303672,-4.231154162104319
1770452921184,124,-4,-3.5305785079644965,-4.199544371705608,-4.197799896118747
1770452921188,124,-4,-2.8958860668387865,-3.894049629670517,-3.557964221310172
1770452921192,126,-2,-1.663012581965152,-2.222957484196367,-2.3212531886876597
1770452921196,127,-1,-0.0980170476746029,-0.7149084371823218,-0.7545521202223195
1770452921200,129,1,1.3817383464871713,0.8138033074345237,0.7250597538382344
1770452921204,130,2,2.407646523364069,2.007911692713292,1.7512178841882395
1770452921208,130,2,2.8268554750010217,1.9141741695970185,2.174211687636906
1770452921212,130,2,2.7504476820159147,1.9764755025452816,2.10637385259509
1770452921216,130,2,2.487319187707409,2.1708924916950503,1.8541612381793064
1770452921220,130,2,2.4127952020521786,1.893729623618092,1.7883281046204766
1770452921224,130,2,2.8059657456708296,2.0310627859620416,2.1848856860793777
1770452921228,131,3,3.6912011467867423,2.8699685405601345,3.0687597522549535
1770452921232,132,4,4.767136110353884,4.077460390561758,4.141967132677184
1770452921236,133,5,5.5154047427009525,5.104341341028643,4.890058715834498
1770452921240,133,5,5.480400066319854,4.972015470029405,4.859767111356501
1770452921244,132,4,4.567046947291924,4.009728821956639,3.955573894931208
1770452921248,131,3,3.1505781482456348,2.880976012478248,2.5498522523945373
1770452921252,129,1,1.8896770783485328,1.1186981009772232,1.2979196688037853
1770452921256,128,0,1.3294200964720002,0.0902527821984975,0.7427403182157244
1770452921260,129,1,1.549684739782816,1.0301173831308217,0.9637147991041692
1770452921264,130,2,2.1145108984528047,2.007922673492825,1.526107648691559
1770452921268,130,2,2.3650516709246276,1.8708177828700951,1.7743739929871394
1770452921272,129,1,1.8393289200912095,1.2019482888144957,1.2508123502949997
1770452921276,128,0,0.5318652375549451,-0.0305415946339291,-0.0480240744048128
1770452921280,126,-2,-1.1396660226290534,-1.762144513856942,-1.7069769657877738
1770452921284,125,-3,-2.590801483960926,-3.2035424877063554,-3.147057856893412
1770452921288,124,-4,-3.380780015800815,-3.8518283792393295,-3.9316734504152375
1770452921292,124,-4,-3.422892159740611,-4.049595895338459,-3.974040538006843
1770452921296,124,-4,-3.00804466755464,-3.764692539457065,-3.5616080920135436
1770452921300,125,-3,-2.6351604345911537,-2.9669343549489247,-3.1896291807694994
1770452921304,125,-3,-2.728369920704781,-3.004769551417807,-3.280361938878972
1770452921308,124,-4,-3.3929698448663657,-3.978118344196222,-3.9386106020528175
1770452921312,123,-5,-4.357723854572467,-4.9381890312350665,-4.8932543851259425
1770452921316,122,-6,-5.137934196046626,-5.82142750649412,-5.661101932663698
1770452921320,122,-6,-5.308017055895084,-5.898775441350888,-5.820569857751372
1770452921324,123,-5,-4.71614068695745,-5.007223001147647,-5.224956714354312
1770452921328,124,-4,-3.5400442747152763,-3.9505885044290734,-4.0540568928759715
1770452921332,125,-3,-2.187784996229118,-2.9250164425653153,-2.7114546278166447
1770452921336,126,-2,-1.0928634587960206,-1.839207529349333,-1.6212650842141012
1770452921340,127,-1,-0.4472354260508876,-0.8259532004700454,-0.9678075642542248
1770452921344,128,0,0.0502321528075464,-0.0809742926002949,-0.4504768658269766
1770452921348,129,1,1.2577642984959718,1.2191117748625873,0.7798702524705412
1770452921352,132,4,4.273268216022941,3.872336288299621,3.809809862272285
1770452921356,136,8,9.739441616172346,8.451484141985743,9.276224675828107
1770452921360,144,16,17.12998709685042,15.859303839530746,16.65562247018253
1770452921364,152,24,24.578030371625957,24.33151026046953,24.089719548905755
1770452921368,158,30,29.565137276802947,29.81852709858529,29.069186116150405
1770452921372,158,30,30.1811864192719,30.286469241953384,29.68929610309782
1770452921376,154,26,26.17346900077525,26.03522964459488,25.69701227728465
1770452921380,146,18,19.078301903451617,18.24676085535046,18.623052033106525
1770452921384,138,10,11.346652911939517,10.021398923657513,10.91026534598664
1770452921388,132,4,5.061447988202366,4.191265945725303,4.634748551276586
1770452921392,129,1,1.0770994818890898,0.9820568307198824,0.6486723130786356
1770452921396,127,-1,-0.9686239103942418,-0.6137191046410708,-1.4063162927031296
1770452921400,126,-2,-1.984939315698464,-2.124574350012635,-2.431127154847912
1770452921404,124,-4,-2.7145096978344387,-3.5518110311134192,-3.160919714864546
1770452921408,124,-4,-3.4441990356177845,-4.224218681297078,-3.881281166360514
1770452921412,123,-5,-4.14778363019648,-4.55467325907669,-4.571403200031337
1770452921416,123,-5,-4.751556626397182,-5.031182495007266,-5.164443772279229
1770452921420,122,-6,-5.253318187232777,-5.736581440676724,-5.660964379953269
1770452921424,122,-6,-5.661975720723656,-5.834986210958842,-6.06778866859949
1770452921428,122,-6,-5.900415641322004,-6.000773479335394,-6.304181748812546
1770452921432,121,-7,-5.817422144943428,-6.63274050994781,-6.217096358878416
1770452921436,122,-6,-5.324868132188933,-6.020772785446202,-5.719365567476114
1770452921440,123,-5,-4.534445229821399,-4.646385568617964,-4.92492822095703
1770452921444,124,-4,-3.750589031983559,-3.944446505694506,-4.138958566924053
1770452921448,124,-4,-3.3054732981219557,-3.8386401738799254,-3.691626894989812
1770452921452,124,-4,-3.3577307234803344,-3.737831784578511,-3.738994816860032
1770452921456,124,-4,-3.7914324146481926,-3.9431392469980304,-4.165085183593248
1770452921460,123,-5,-4.2741382917646895,-4.644890332970332,-4.639963507964373
1770452921464,123,-5,-4.445832798345588,-4.96522687747451,-4.805870908655303
1770452921468,123,-5,-4.137861214304644,-4.733087413172878,-4.494335360026177
1770452921472,124,-4,-3.4820020190556367,-3.818296373341259,-3.836150861653262
1770452921476,125,-3,-2.8221368393685697,-2.849884190974461,-3.1745279583615984
1770452921480,125,-3,-2.484720243130583,-2.682960807666989,-2.835387694367824
1770452921484,125,-3,-2.581147692137669,-2.95073786460524,-2.9287998938646966
1770452921488,124,-4,-2.9810972931033497,-3.649827297846279,-3.322899270578064
1770452921492,124,-4,-3.437151013939513,-3.929312828150576,-3.7704598100791857
1770452921496,124,-4,-3.722684507715811,-3.657534468692883,-4.047448738637308
1770452921500,124,-4,-3.6851681054636174,-3.876063153219552,-4.004308669883972
1770452921504,124,-4,-3.2450275469984273,-3.7184042611779375,-3.562224992900772
1770452921508,125,-3,-2.418547674224036,-2.821535178652387,-2.735641085406564
1770452921512,126,-2,-1.3649313030549337,-1.7826400045151187,-1.6810773564253387
1770452921516,127,-1,-0.3739670554584872,-0.6990683209292348,-0.68665229530807
1770452921520,128,0,0.2613696006713674,0.1082217207469471,-0.0453427232986428
1770452921524,128,0,0.4273026094493589,0.4218204477258169,0.1278602001171244
1770452921528,128,0,0.2821650246832651,-0.0237047860596186,-0.0102454729765009
1770452921532,127,-1,0.1578616112484536,-0.4739468755393989,-0.129010892337738
1770452921536,128,0,0.3208949268921143,-0.0419235379535893,0.0373229521605471
1770452921540,128,0,0.7745612928929346,0.5361725213917994,0.4922527002542765
1770452921544,129,1,1.2619060409843823,1.0094962993242906,0.9804384217564488
1770452921548,129,1,1.4683953595192412,1.421916039131663,1.1897708799310822
1770452921552,129,1,1.2669961923823203,1.1197219713671678,0.9945525801807148
1770452921556,128,0,0.8214485096619546,0.3489701769538589,0.5572187168850278
1770452921560,128,0,0.4745646563469357,0.2271650980615299,0.2173485239653951
1770452921564,128,0,0.5049012516781588,0.3126866186508905,0.2511263153471121
1770452921568,128,0,0.92577509957905,0.2018586267058744,0.6725191538267514
1770452921572,129,1,1.4740470511621553,1.3282221229782023,1.2213065355367378
1770452921576,130,2,1.809255557075938,2.1953193365474526,1.5596223867859813
1770452921580,129,1,1.782811606727981,1.384014680164409,1.5394071509675973
1770452921584,129,1,1.5623787024860845,1.2119157365456132,1.3267380895962133
1770452921588,129,1,1.5009758842934675,1.3266182049408315,1.271995973768806
1770452921592,129,1,1.8504390080038104,1.2250196949703822,1.625080552836574
1770452921596,130,2,2.546315100482563,2.3398152111811017,2.321807498644012
1770452921600,131,3,3.233263762355171,3.274812719122016,3.00918949627395
1770452921604,131,3,3.5135082158083564,3.3503836097785324,3.2920686473623935
1770452921608,131,3,3.229702158677074,3.2330528317149705,3.01395743244759
1770452921612,130,2,2.567659730189492,2.3062508241788535,2.359155090471934
1770452921616,129,1,1.9055768483252715,1.31699186693026,1.703217129189771
1770452921620,129,1,1.5338809940986613,1.3085104605060769,1.3349387025862682
1770452921624,129,1,1.4661270556736818,1.3952389654014636,1.2685747159217895
1770452921628,129,1,1.4809535420772353,1.190394106332872,1.2850583388808516
1770452921632,129,1,1.349193508015366,1.3931199421542486,1.156877690327718
1770452921636,129,1,1.0574282550100476,1.2374339316629928,0.8703138027230904
1770452921640,128,0,0.8404237445343233,0.4161699428395915,0.6588324596975852
1770452921644,128,0,0.9832993130130616,0.3609392462261196,0.8066935777337023
1770452921648,129,1,1.5541128772416164,1.2099993894368617,1.3814910624936445
1770452921652,130,2,2.30673203938884,2.4612559513256502,2.136570693840199
1770452921656,131,3,2.847917926308473,3.126126843094871,2.6789515172316456
1770452921660,130,2,2.9155591314154905,2.6337209389883833,2.748381478023088
1770452921664,130,2,2.522194949918686,2.1067141846210067,2.359408190457823
1770452921668,129,1,1.869214569016954,1.550410482201221,1.713052851841734
1770452921672,129,1,1.1521951889684128,1.093550556347732,1.002140630495214
1770452921676,128,0,0.4359385646792322,0.5714811257558842,0.2893385554776424
1770452921680,127,-1,-0.3324518544060273,-0.788056859433405,-0.4775987591908766
1770452921684,126,-2,-1.2254028519175573,-1.4455929058349826,-1.3689799942495895
1770452921688,126,-2,-2.236854021418125,-1.8476218858019149,-2.377586234604799
1770452921692,124,-4,-3.247352529908748,-3.537096268215665,-3.3840482914486403
1770452921696,123,-5,-4.077283746194608,-4.688019620223692,-4.209089182734218
1770452921700,123,-5,-4.588547110726996,-4.5646909547582695,-4.715185572030014
1770452921704,123,-5,-4.7465307920258,-4.555255589342557,-4.8687609515398025
1770452921708,123,-5,-4.599425070157496,-4.800262384133438,-4.718637517184595
1770452921712,123,-5,-4.225200738564967,-4.470231438470646,-4.342353146578015
1770452921716,124,-4,-3.712356075532555,-3.8009601103464488,-3.827629598318631
1770452921720,124,-4,-3.1719858299562302,-3.349011993655659,-3.285199317641488
1770452921724,125,-3,-2.7325357619598107,-2.7845068707598863,-2.843127595765548
1770452921728,125,-3,-2.494414310633549,-2.5266533374841247,-2.6009548239964912
1770452921732,125,-3,-2.4711408110168933,-2.7088682942439752,-2.571776909579865
1770452921736,125,-3,-2.5635214042660426,-2.5679155492433208,-2.657786680122083
1770452921740,125,-3,-2.598710068842884,-2.4820057268250713,-2.6887854705098206
1770452921744,125,-3,-2.4333108351350554,-2.6983981539569046,-2.522692232857998
1770452921748,125,-3,-2.0717841486045954,-2.493466674169202,-2.1622628079063775
1770452921752,126,-2,-1.7051587232438834,-1.8036519226283636,-1.7952037182389389
1770452921756,126,-2,-1.595541727132434,-1.365683540725941,-1.681594384948417
1770452921760,126,-2,-1.8553872023610651,-1.702708793377962,-1.9345973257999989
1770452921764,125,-3,-2.299584510893145,-2.412514974443125,-2.37172830097188
1770452921768,125,-3,-2.5284564966114775,-2.76822768881397,-2.595962722098114
1770452921772,125,-3,-2.214537592890755,-2.511750645292664,-2.280763606677257
1770452921776,126,-2,-1.37816139154502,-1.5970006571552855,-1.4450290688324494
1770452921780,127,-1,-0.4199133013685401,-0.4522342244274766,-0.486727618482207
1770452921784,128,0,0.1441498617774888,0.4017916158369976,0.0796707790424131
1770452921788,128,0,0.0592515063447013,0.4028167426311284,-0.0010419132341217
1770452921792,127,-1,-0.4758520641820243,-0.6391408055647957,-0.5313437179303097
1770452921796,126,-2,-0.9689713672388596,-1.4729324260751824,-1.0195585832615466
1770452921800,126,-2,-1.0241194357150036,-1.4841214830017972,-1.0698117355055696
1770452921804,127,-1,-0.6329812690012233,-0.5788882603483907,-0.6747945760220955
1770452921808,128,0,-0.1281977124288437,0.484335644521958,-0.1687008187152482
1770452921812,128,0,0.1277041011515303,0.2210914403176821,0.0860028495141778
1770452921816,127,-1,0.0116878014132155,-0.2382987626796916,-0.0310615488998979
1770452921820,127,-1,-0.3572910219331604,-0.7437258939247691,-0.3978369551617543
1770452921824,126,-2,-0.815871889994053,-1.2495145300030113,-0.8505799673254414
1770452921828,127,-1,-1.303424102576948,-0.8128657595353872,-1.331407438964396
1770452921832,126,-2,-1.813207368256142,-1.465996085460592,-1.836548347383832
1770452921836,125,-3,-2.2515233288438044,-2.49710262635414,-2.2727568957397417
1770452921840,125,-3,-2.413036160738153,-2.4917753938897667,-2.43313009190335
1770452921844,125,-3,-2.136318458641246,-2.4373164327303756,-2.1551077343833356
1770452921848,126,-2,-1.4920917256346078,-1.6124997676644726,-1.5097104367083838
1770452921852,127,-1,-0.8068766931840081,-0.6077037366122777,-0.8238889279901216
1770452921856,127,-1,-0.4707929221960755,-0.3348865930608498,-0.4869313337639017
1770452921860,127,-1,-0.6686226778593118,-0.6431978749190606,-0.6819826706138983
1770452921864,126,-2,-1.2411602776953554,-1.243115888947499,-1.2491376393044755
1770452921868,126,-2,-1.7848362643534503,-1.7975231153240316,-1.7861344024691497
1770452921872,125,-3,-1.920961758964402,-2.35579045584734,-1.9170336173564544
1770452921876,126,-2,-1.5446306328321902,-1.565673338442075,-1.5393764109477497
1770452921880,127,-1,-0.8834605306515477,-0.3797018663880195,-0.8808631733725484
1770452921884,127,-1,-0.3432298569994644,-0.4769664907925544,-0.3441377213444255
1770452921888,127,-1,-0.2658322597593263,-0.5419242887933431,-0.2668190009000937
1770452921892,127,-1,-0.7496525106883754,-0.5703087556407662,-0.7456724774269641
1770452921896,126,-2,-1.6055391383969615,-1.3276399216349528,-1.5939388059316395
1770452921900,125,-3,-2.4527058733540756,-2.593451679655054,-2.434643843714683
1770452921904,124,-4,-2.917180574496842,-3.2146079347587,-2.895945870777533
1770452921908,125,-3,-2.836804643038932,-2.791395346403493,-2.815629826831163
1770452921912,125,-3,-2.3428522388200252,-2.2646367138432946,-2.3237573610608093
1770452921916,126,-2,-1.758151033217404,-1.6085908565348914,-1.7412455000262936
1770452921920,126,-2,-1.38650775059377,-1.289268358409112,-1.369520561881762
1770452921924,126,-2,-1.3401684506280285,-1.4744010126956644,-1.3192774805149703
1770452921928,126,-2,-1.5036892927210703,-1.5409697873193455,-1.47603144670857
1770452921932,126,-2,-1.629523299465068,-1.4407699427035314,-1.5955484566351406
1770452921936,126,-2,-1.4954549797763554,-1.429245736450384,-1.4587577239137297
1770452921940,126,-2,-1.0454730122309406,-1.4075984884330055,-1.0101105717301555
1770452921944,127,-1,-0.4459624503553285,-0.3419991694461747,-0.4136003867588004
1770452921948,128,0,-0.0144698051143804,0.3508295963455151,0.0166135219923745
1770452921952,127,-1,-0.044976475015819,-0.2894636820908651,-0.0114265398784085
1770452921956,127,-1,-0.628415063183331,-0.5601007676928336,-0.5896606787141474
1770452921960,126,-2,-1.5789189661534209,-1.229137461580444,-1.535669541107815
1770452921964,125,-3,-2.5182932580351927,-2.5196294410135516,-2.473786206141171
1770452921968,124,-4,-3.082700110796941,-3.4193717465992455,-3.0389309154151007
1770452921972,124,-4,-3.123182265636744,-3.495809523154655,-3.0787032945171835
1770452921976,125,-3,-2.7405455481781154,-2.304924555185239,-2.6926096265774833
1770452921980,126,-2,-2.114703314875437,-1.449720448269619,-2.0628405096712745
1770452921984,126,-2,-1.2985425856033723,-1.2844936241601763,-1.2450069160657584
1770452921988,127,-1,-0.2111091468264043,-0.6162900201780648,-0.1581835894804608
1770452921992,128,0,1.141384008770034,0.7085596921393424,1.1933438373485776
1770452921996,130,2,2.462920190913056,2.5530914640907887,2.514680891479689
1770452922000,131,3,3.2514975877437755,3.7062901385750258,3.303457707778455
1770452922004,131,3,3.1570424812022653,3.624074988854112,3.2096321287212866
1770452922008,130,2,2.3071505979948275,2.446795863877637,2.362369493879019
1770452922012,128,0,1.2943440530669923,0.7092292444689416,1.355343612088499
1770452922016,128,0,0.8147685722785827,0.5377884306600098,0.8826314143463856
1770452922020,129,1,1.243741796305884,1.82358483291143,1.314993163697879
1770452922024,130,2,2.450242746882156,2.523609619625955,2.5187938560437084
1770452922028,131,3,3.923784006525204,3.585288526828962,3.985827829242528
1770452922032,133,5,5.0731075196189535,5.580222070827587,5.130041860626713
1770452922036,133,5,5.508093642647673,5.673196972462488,5.565244309305926
1770452922040,132,4,5.178960513164062,4.7432040423268,5.241892139775869
1770452922044,132,4,4.339815596324041,4.6510206829436616,4.410834005205784
1770452922048,131,3,3.390631485930596,3.474654082221092,3.467438908666919
1770452922052,130,2,2.687263734778427,2.704878708991111,2.7648434024362825
1770452922056,130,2,2.387058714198197,2.592154051756238,2.4615170967534867
1770452922060,129,1,2.377113710759404,1.8492871765668828,2.4480703055464055
1770452922064,130,2,2.330892058534181,2.6223024863869675,2.4004286595351436
1770452922068,130,2,1.8961258838401047,2.5014808177928396,1.9662060007785471
1770452922072,128,0,0.9150126616438484,0.6944757889935371,0.986559949125428
1770452922076,127,-1,-0.4796509238323216,-0.3687884328752235,-0.4058150102588047
1770452922080,125,-3,-1.9612358255280755,-2.1536350388796324,-1.8840411245184443
1770452922084,124,-4,-3.20515486827654,-3.327053670197865,-3.124569626429732
1770452922088,124,-4,-4.024809034237011,-3.5094473226117433,-3.9428606797961767
1770452922092,123,-5,-4.379529898160742,-4.285302058206518,-4.299015424694785
1770452922096,123,-5,-4.317119051697128,-4.360556895748666,-4.23899759296623
1770452922100,123,-5,-3.939412843009028,-4.110547909474763,-3.8620254929118047
1770452922104,124,-4,-3.396694046988148,-3.3585839003033433,-3.3178914370703945
1770452922108,125,-3,-2.8567806245701384,-2.4083657606049407,-2.776192677954339
1770452922112,125,-3,-2.439761494439791,-2.404989018790726,-2.3582489501104913
1770452922116,125,-3,-2.1812497781702995,-2.188616698876091,-2.098650114323932
1770452922120,125,-3,-2.0673505186896897,-2.2609783187574672,-1.982357129252903
1770452922124,125,-3,-2.091255177680423,-2.1781645292761143,-2.004345557128056
1770452922128,126,-2,-2.2470531897023154,-1.526631202790106,-2.1622564660540693
1770452922132,125,-3,-2.4585687778691874,-2.3002448081552593,-2.3801300545502637
1770452922136,124,-4,-2.5261257422262036,-3.2186098324674264,-2.4528908201280646
1770452922140,125,-3,-2.1333036053179812,-2.2627660005251373,-2.0578829850160036
1770452922144,127,-1,-0.8625146155379017,-0.0667903245182734,-0.7770607921152859
1770452922148,130,2,1.7930501285971254,2.325646101533674,1.8904390328461944
1770452922152,133,5,6.298058279737109,5.9727229272775,6.402103906379758
1770452922156,140,12,12.7270240524251,12.446325768398095,12.828768621343158
1770452922160,147,19,20.359685444952305,20.163012148898737,20.451224178992245
1770452922164,155,27,27.586159432394684,27.497443600749296,27.664463996066782
1770452922168,160,32,32.367007587662805,32.82270314520714,32.435630067303464
1770452922172,161,33,33.10722842563344,33.509984026079884,33.17464913273375
1770452922176,157,29,29.462309167582823,29.85049089037186,29.53744459433852
1770452922180,150,22,22.566492099808094,22.83305259178617,22.654347047035564
1770452922184,141,13,14.502294320312584,13.782246027545105,14.602302290445689
1770452922188,134,6,7.3150481214911425,6.689101815555826,7.421810822767664
1770452922192,130,2,2.175815414716696,2.6502921609261794,2.2810581008444997
1770452922196,127,-1,-0.8403061880420184,-0.2267821640909539,-0.7443299175966697
1770452922200,125,-3,-2.3707524922406744,-2.075711427219352,-2.2868232719984354
1770452922204,124,-4,-3.187944583615935,-3.293455362536458,-3.111715892090813
1770452922208,123,-5,-3.833501202554676,-4.183267739143015,-3.756545948726093
1770452922212,123,-5,-4.558780657614606,-4.463062802783296,-4.474754881913607
1770452922216,122,-6,-5.411097016990362,-5.073095060524027,-5.31943674504747
1770452922220,121,-7,-6.305532536031071,-6.218091087788849,-6.209928331149681
1770452922224,120,-8,-7.063926633766028,-7.11879274590253,-6.968351132348385
1770452922228,120,-8,-7.478707524941687,-7.31666135848476,-7.38515126676504
1770452922232,120,-8,-7.418359791588953,-7.305860325349265,-7.327112307063347
1770452922236,120,-8,-6.922643299592671,-7.1783379212550384,-6.833305611091287
1770452922240,121,-7,-6.214309849863378,-6.107611927413647,-6.1262623831258285
1770452922244,122,-6,-5.5944509138529135,-5.179906445877497,-5.506796343768579
1770452922248,122,-6,-5.27251490868182,-5.245191102587409,-5.183985489698173
1770452922252,122,-6,-5.246211321684012,-5.326773479315173,-5.155632805246232
1770452922256,122,-6,-5.318803179496786,-5.142428569145539,-5.226035469871233
1770452922260,122,-6,-5.240167765131417,-5.11176817248427,-5.146357204390394
1770452922264,122,-6,-4.875322383028131,-5.141246319474639,-4.781922290101678
1770452922268,123,-5,-4.2903847839913265,-4.253490854894512,-4.1981872829660505
1770452922272,124,-4,-3.696516877373735,-3.2682933330661172,-3.605737130992572
1770452922276,124,-4,-3.2906024958772573,-3.1940695058945408,-3.201192034655833
