timestamp_ms,ecg_u8_raw,ecg_counts_raw_int,ecg_counts_filt_monitor,ecg_counts_filt_diagnostic,ecg_counts_filt_st
1770449027792,125,-3,-2.7301678034312657,-2.728902493901298,-2.9227090637969324
1770449027796,125,-3,-3.035593471366514,-3.0180775664850152,-3.2382333333681435
1770449027800,124,-4,-3.363779531689469,-3.858640969642,-3.5714928614381543
1770449027804,124,-4,-3.5041883940973206,-4.033284837637167,-3.7122179838167058
1770449027808,124,-4,-3.3857508336539017,-3.5072478544949446,-3.5932452029217723
1770449027812,125,-3,-3.099087298838106,-2.9290603250174123,-3.3091023052258626
1770449027816,125,-3,-2.7825601251600975,-2.7602675944604,-2.9984397878468174
1770449027820,125,-3,-2.5029266888121953,-3.0975396341936343,-2.7247278395007406
1770449027824,125,-3,-2.242042025744177,-2.769169887900658,-2.4669626975599623
1770449027828,126,-2,-1.9611310505633597,-1.7309725041957085,-2.1871617107915275
1770449027832,126,-2,-1.6454632280899784,-1.7237559839343577,-1.8735419369804216
1770449027836,126,-2,-1.299451843933978,-1.8947635271665304,-1.531812189770012
1770449027840,127,-1,-0.9343737195210884,-0.9685556662270112,-1.171799276130943
1770449027844,127,-1,-0.5713869898307379,-0.8334553375309152,-0.8127533327065067
1770449027848,127,-1,-0.2366068640719605,-0.6936005626011186,-0.4806496559831259
1770449027852,128,0,0.0659593226909522,0.3089910501894433,-0.1808272346174335
1770449027856,128,0,0.3750203012394423,0.0578305675167714,0.1245735715156739
1770449027860,128,0,0.7479374434651526,0.1432866377423189,0.4934987914138986
1770449027864,129,1,1.20259298324437,1.064960694708898,0.9446427906482112
1770449027868,129,1,1.6889103516828916,1.422940003302632,1.4276059685050178
1770449027872,130,2,2.1304850867973677,2.2256820616311335,1.865194551851112
1770449027876,130,2,2.492985445923415,2.1734784721595988,2.2233385589876
1770449027880,130,2,2.803816085459895,2.0417315507530165,2.530479882396402
1770449027884,131,3,3.112611016606627,3.21105450502426,2.836382508974787
1770449027888,131,3,3.450349173184122,3.2711577369382967,3.17099848871396
1770449027892,131,3,3.8257790933389946,3.4184569735490147,3.5425138167225585
1770449027896,132,4,4.238441150253623,4.02770088221024,3.951161129782524
1770449027900,132,4,4.680385299417952,4.17945881636706,4.389682405034141
1770449027904,133,5,5.132891590961622,5.131577000561241,4.838885384908064
1770449027908,133,5,5.570996298679169,5.339206374119545,5.272913530710305
1770449027912,133,5,5.966104962056791,5.395083201433572,5.663263815146967
1770449027916,134,6,6.277934744790781,6.09794853805562,5.970694766307028
1770449027920,134,6,6.455123855865598,6.090182233860379,6.144539792404117
1770449027924,134,6,6.465769801988961,6.301804522399607,6.152493264582278
1770449027928,134,6,6.338531926356945,6.11774246434193,6.022263118976248
1770449027932,133,5,6.165487062265949,5.727438202085926,5.845395095961737
1770449027936,134,6,6.0458965548647186,5.721594571015056,5.721382402204804
1770449027940,133,5,6.010953799017894,5.549714891968276,5.6820270307856005
1770449027944,134,6,5.99726514959966,5.829494747460429,5.664377850242439
1770449027948,133,5,5.897628571939208,5.616495972450413,5.56124279177913
1770449027952,133,5,5.647444295932205,5.298260525114709,5.307659906793437
1770449027956,133,5,5.27126759908565,5.100444418583244,4.927787044896966
1770449027960,132,4,4.847775638072018,4.301405060559083,4.500274661884614
1770449027964,132,4,4.423712514975678,3.96953119207408,4.072201098259809
1770449027968,131,3,3.957430524623683,3.6402724562507296,3.6021177248044975
1770449027972,131,3,3.351203773707408,3.182928762031497,2.9921117439792786
1770449027976,130,2,2.5472819691349886,2.34441472871182,2.184256457604609
1770449027980,129,1,1.595607409304172,1.0106703157299963,1.2286873566247134
1770449027984,128,0,0.626121135075125,0.3068132034494504,0.255639884467399
1770449027988,127,-1,-0.2486030256469138,-0.6617228524212813,-0.6223534073664903
1770449027992,126,-2,-1.011626445567797,-1.5157642157084736,-1.388744563704578
1770449027996,126,-2,-1.7354482649003766,-1.8656723553470136,-2.116453672293726
1770449028000,125,-3,-2.504159022034976,-2.827973066144394,-2.8896705894747807
1770449028004,124,-4,-3.3375742514696816,-3.7684448999685656,-3.7278146658285496
1770449028008,123,-5,-4.18227722962186,-4.630131597728081,-4.576791422872371
1770449028012,122,-6,-4.965899836357915,-5.445867134300115,-5.363781509295283
1770449028016,122,-6,-5.6517063261259395,-5.968212624788646,-6.052209460210368
1770449028020,121,-7,-6.23919566921542,-6.633596670546361,-6.642331369605396
1770449028024,121,-7,-6.718541496348811,-7.0132520023085805,-7.125204222180766
1770449028028,120,-8,-7.037623032433134,-7.301679871889158,-7.44893985536927
1770449028032,120,-8,-7.1306006568275855,-7.7828555397754,-7.5468879660275165
1770449028036,120,-8,-6.991026245507743,-7.582710568734632,-7.41146926139511
1770449028040,121,-7,-6.711937874326383,-6.9772954252738595,-7.135507766663958
1770449028044,121,-7,-6.434079178691162,-6.6999161022558935,-6.860609390111911
1770449028048,121,-7,-6.2389162490667305,-6.517956833929606,-6.668987188300147
1770449028052,121,-7,-6.09269889238772,-6.618984528784583,-6.526639674191334
1770449028056,121,-7,-5.902510831502482,-6.63565793626664,-6.340032496000138
1770449028060,122,-6,-5.62826477056204,-5.973640222819249,-6.069195624568022
1770449028064,122,-6,-5.336745227760331,-5.622037715299351,-5.781612467925536
1770449028068,122,-6,-5.147259032268543,-5.60678300112378,-5.596676708814175
1770449028072,122,-6,-5.126589066095785,-5.478426941164637,-5.580235934104947
1770449028076,122,-6,-5.229508879419004,-5.750753940730447,-5.686157313572021
1770449028080,122,-6,-5.3284685143896064,-5.864501939230171,-5.787151855323973
1770449028084,122,-6,-5.30036961127601,-5.656020860116256,-5.76135692950419
1770449028088,122,-6,-5.104809017720721,-5.606584237333528,-5.5693867565742226
1770449028092,122,-6,-4.805544079979321,-5.368305486119185,-5.2750250961757
1770449028096,123,-5,-4.526444095273275,-4.914277026798565,-5.001354042009881
1770449028100,123,-5,-4.371485318603888,-4.612888383748534,-4.851161508339285
1770449028104,123,-5,-4.362373877939776,-4.9394898675683985,-4.84500717305267
1770449028108,122,-6,-4.434391437677382,-5.252944690927474,-4.9180937890969165
1770449028112,123,-5,-4.480410918936231,-4.711043865280875,-4.965036442738352
1770449028116,123,-5,-4.40171504486003,-4.541290291155564,-4.889353600349986
1770449028120,123,-5,-4.149308030951826,-4.9553760601251176,-4.642323228762459
1770449028124,123,-5,-3.761046553632531,-4.584427111239971,-4.2598405622094795
1770449028128,124,-4,-3.367810945245874,-3.5647509762984018,-3.870884909791577
1770449028132,124,-4,-3.127430759296685,-3.3806432246250764,-3.6330865011419977
1770449028136,124,-4,-3.1135670749119546,-3.837681575238859,-3.621036767325876
1770449028140,124,-4,-3.2558541574889728,-3.6378887052158193,-3.7653226421821424
1770449028144,124,-4,-3.39323424089866,-3.8806500324032966,-3.9054714474257617
1770449028148,123,-5,-3.4006044899035768,-4.251113215536052,-3.9165050675855775
1770449028152,124,-4,-3.2860107350031775,-3.631026777198021,-3.8060932139266264
1770449028156,124,-4,-3.179565360110447,-3.597549963662566,-3.703726528365363
1770449028160,124,-4,-3.221881125788148,-3.799912690177656,-3.7495931842905255
1770449028164,124,-4,-3.4417617973884145,-3.766549791375862,-3.972467015738136
1770449028168,123,-5,-3.7226413343520344,-4.270756443111297,-4.25587691682964
1770449028172,123,-5,-3.8860565578386863,-4.646973323379826,-4.421322405577441
1770449028176,123,-5,-3.8240477171263976,-4.483465560856722,-4.361073561573944
1770449028180,124,-4,-3.5689371550597637,-3.936944711591273,-4.108420023066595
1770449028184,124,-4,-3.2454493068741845,-3.581446976173012,-3.7890515111665297
1770449028188,124,-4,-2.963170535276433,-3.4330700360269866,-3.5120156377636675
1770449028192,124,-4,-2.7590312532300354,-3.473035963422302,-3.312195605859692
1770449028196,124,-4,-2.62785984213631,-3.5943339653339557,-3.183090572412569
1770449028200,125,-3,-2.569704736218907,-2.8451789149444915,-3.1258737729176573
1770449028204,125,-3,-2.575975223143291,-2.602715899079463,-3.134034631042138
1770449028208,124,-4,-2.581102873021725,-3.421329944943606,-3.1422037580532978
1770449028212,124,-4,-2.470024091536712,-3.4277344370722376,-3.033813579412665
1770449028216,125,-3,-2.1559828085831887,-2.6259884161488554,-2.721812931263919
1770449028220,126,-2,-1.643386209706899,-1.7978959850623473,-2.2122247345021053
1770449028224,126,-2,-1.0164218441927884,-1.5901653686654562,-1.589909581077193
1770449028228,126,-2,-0.3886725026599107,-1.4364691580915925,-0.9665417566518728
1770449028232,127,-1,0.1388157301012502,-0.3575450499406725,-0.4411420093168453
1770449028236,128,0,0.518238295714621,0.2987053048709509,-0.0621368265471966
1770449028240,128,0,0.7964689848120123,0.3117607684367045,0.2151271321556238
1770449028244,128,0,1.1027382726145314,0.3525689225491664,0.5189608136559976
1770449028248,128,0,1.5488139934778702,0.6185027315247424,0.961980018367676
1770449028252,129,1,2.114477717819831,1.6459528060343869,1.5246644180019446
1770449028256,130,2,2.636125245762271,2.2809478995606347,2.0430835059566625
1770449028260,130,2,2.9205797460616862,2.3903608656562474,2.323957874276738
1770449028264,130,2,2.8795648202920745,2.3012188759667715,2.280036385147599
1770449028268,129,1,2.5700116108248423,1.6788286735898448,1.9692379959254231
1770449028272,129,1,2.128382589652809,1.628482300101416,1.5274288176937727
1770449028276,129,1,1.6754167236776318,1.2873718524971145,1.073627188884341
1770449028280,128,0,1.2604014922495106,0.4679494576032283,0.6561418884383954
1770449028284,128,0,0.8578926225583519,0.2202362345928374,0.2500037387819569
1770449028288,127,-1,0.4010781324854069,-0.1849540593387388,-0.2106013438546667
1770449028292,127,-1,-0.1666868831821403,-0.5235410944848018,-0.7814861710596619
1770449028296,126,-2,-0.8510485980945586,-1.5139341038117815,-1.467526690323425
1770449028300,125,-3,-1.603901343038388,-2.6934513853786664,-2.220449160423491
1770449028304,125,-3,-2.3490355600974206,-2.5996897585275223,-2.9654342384259085
1770449028308,124,-4,-3.0032395617089023,-3.308325276616331,-3.6213206629584183
1770449028312,123,-5,-3.492795239374153,-4.437395710737062,-4.114624436169178
1770449028316,123,-5,-3.7904513727293505,-4.5073944564497115,-4.41599877634973
1770449028320,123,-5,-3.951848328967981,-4.717069352822197,-4.579259849034562
1770449028324,123,-5,-4.086869038243129,-4.5111428623592005,-4.714879997039653
1770449028328,123,-5,-4.260301661564111,-4.375658511926475,-4.88935342026528
1770449028332,122,-6,-4.4198860141973935,-5.373895263746693,-5.050643535035777
1770449028336,122,-6,-4.445723760401437,-5.512662792876739,-5.077672171547721
1770449028340,123,-5,-4.281313163669436,-4.71097125851097,-4.913808157535823
1770449028344,123,-5,-4.006890316447478,-4.458239872700439,-4.640984192213528
1770449028348,123,-5,-3.7805409081640144,-4.40546726796793,-4.418502505550489
1770449028352,123,-5,-3.714462017325189,-4.328306804356156,-4.35711439470221
1770449028356,123,-5,-3.8013967873282377,-4.529084726024051,-4.4462928897385865
1770449028360,123,-5,-3.933803807119452,-4.686676543150391,-4.576373621888939
1770449028364,123,-5,-3.9754157424997025,-4.419331614144033,-4.612418502059253
1770449028368,123,-5,-3.831196511589258,-4.42629810685218,-4.4640364477780174
1770449028372,123,-5,-3.4946173133903806,-4.277804999784301,-4.130040545252705
1770449028376,124,-4,-3.0653596429299608,-3.557635730397877,-3.71220207036673
1770449028380,124,-4,-2.706598922844458,-3.647695570336265,-3.369529023190801
1770449028384,124,-4,-2.494880070417526,-3.401668947122074,-3.169008699746803
1770449028388,125,-3,-2.1658162403474113,-2.4181714431894896,-2.8370396495993546
1770449028392,126,-2,-0.8859358375702415,-1.2662719262438216,-1.5385874629247636
1770449028396,130,2,2.69725952287585,2.4655301573872386,2.069651557025264
1770449028400,137,9,9.915849198060544,9.342497354896746,9.304337801303722
1770449028404,147,19,21.13389164076834,19.683486867698495,20.517745757555815
1770449028408,161,33,34.88198735418761,33.51652538948229,34.24055843539127
1770449028412,174,46,47.76110002746655,46.84633765026241,47.08610228270173
1770449028416,183,55,55.508010118371054,55.33782139153795,54.80819539060956
1770449028420,183,55,54.891014386882674,55.462774964540344,54.18700118197598
1770449028424,173,45,45.421728105239104,45.576067713965685,44.73524441674934
1770449028428,156,28,29.796175697493805,28.582589203667332,29.139961644214026
1770449028432,138,10,12.6966466953463,10.866611646904094,12.068959978199825
1770449028436,125,-3,-1.3602654345117386,-2.682904779011392,-1.9749248070085257
1770449028440,117,-11,-9.84982148114732,-10.36692573795829,-10.473270903822309
1770449028444,115,-13,-12.780907226365809,-12.546423014166662,-13.42949476909835
1770449028448,115,-13,-11.925794322441453,-12.24073325350161,-12.601099272942983
1770449028452,117,-11,-9.488271454221357,-10.324596366887238,-10.17736022349628
1770449028456,120,-8,-7.07207492354912,-7.520051677160342,-7.7572908050224845
1770449028460,121,-7,-5.361526971537833,-6.473054668157665,-6.03181434693364
1770449028464,122,-6,-4.380871247111873,-5.438788940412478,-5.036421989646332
1770449028468,123,-5,-3.92320957887041,-4.243996351743606,-4.572024853398867
1770449028472,123,-5,-3.810008843863423,-4.404817921543444,-4.460888117764269
1770449028476,123,-5,-3.9093452641466255,-4.346508384859775,-4.566603964047067
1770449028480,123,-5,-4.063233279862635,-4.6795887322511,-4.725759460900534
1770449028484,122,-6,-4.090404089450709,-5.119865986759219,-4.754348191808283
1770449028488,123,-5,-3.8841244815526337,-4.557355692571004,-4.546456791296997
1770449028492,123,-5,-3.493139013896653,-4.0771384034118086,-4.153390575082257
1770449028496,124,-4,-3.084940733732774,-3.653323494505176,-3.7443830610237367
1770449028500,124,-4,-2.811225277886951,-3.362952058132841,-3.4709564127718453
1770449028504,124,-4,-2.6905338861809014,-3.333878097362735,-3.35045120112882
1770449028508,124,-4,-2.6045758889587933,-3.381882021350137,-3.2638108606943064
1770449028512,124,-4,-2.4031701564961017,-3.1680839316200804,-3.0610712166424783
1770449028516,125,-3,-2.024195511353293,-2.6309185146298235,-2.6808223878306894
1770449028520,125,-3,-1.530852797913058,-2.2658270182048197,-2.1867757838892454
1770449028524,126,-2,-1.045193174226435,-1.4365843470399342,-1.7009922562750484
1770449028528,126,-2,-0.6456801144305953,-1.2074734215908207,-1.3015434450229728
1770449028532,126,-2,-0.3207970751759699,-1.36561123594412,-0.9764362121450308
1770449028536,127,-1,-0.0101556669516127,-0.4211828319869444,-0.665008983586715
1770449028540,127,-1,0.3200851608164474,-0.4059780644349944,-0.3333905797214698
1770449028544,127,-1,0.6466245931563384,-0.2924413435984706,-0.0050930276801659
1770449028548,128,0,0.9329318531552766,0.7591595285520274,0.2828293343185653
1770449028552,128,0,1.2026979889049176,0.5752020404189606,0.5536003398294094
1770449028556,128,0,1.5603308116785044,0.7387524244960149,0.9118946982886872
1770449028560,129,1,2.118331058032594,1.3995689416875936,1.4710351492661735
1770449028564,129,1,2.889174756042337,2.0219594605175417,2.243746471873352
1770449028568,131,3,3.7490416774127584,3.427267588632694,3.105380940942732
1770449028572,131,3,4.515155283054403,3.9590749499848608,3.872243442073749
1770449028576,132,4,5.06538289652025,4.315070262392713,4.422469182483953
1770449028580,132,4,5.3925495214528105,4.905817449588335,4.750287422933887
1770449028584,132,4,5.559951501834689,4.537155052094954,4.920091166749517
1770449028588,132,4,5.623191415161701,4.953315281265335,4.986965589706361
1770449028592,133,5,5.603368189561254,5.467352566249459,4.970288211849718
1770449028596,132,4,5.522086575813278,4.764308110992436,4.890552392573321
1770449028600,132,4,5.430749364535767,4.568890840578092,4.799682932163065
1770449028604,132,4,5.3824028332689,4.8436875511223905,4.752006878726419
1770449028608,132,4,5.377161658079029,4.7580033264311545,4.748382752342248
1770449028612,132,4,5.34966168814268,4.603053215752952,4.7233731057628665
1770449028616,132,4,5.221842337523904,4.708829296841744,4.598412744445646
1770449028620,132,4,4.977866687630836,4.6020277340069455,4.357185987893288
1770449028624,131,3,4.690850530280368,3.9070209208257114,4.072735946982937
1770449028628,131,3,4.465655706610872,3.688287810495215,3.850125048394321
1770449028632,131,3,4.339819491730742,3.712926916264477,3.7267253786749865
1770449028636,131,3,4.233974018552865,3.60178851958925,3.6226059010522462
1770449028640,131,3,4.001005235368275,3.745537563159459,3.390735616526153
1770449028644,130,2,3.5278461942898947,2.8337448879081197,2.919343503156056
1770449028648,129,1,2.801645850875196,1.7471033416125268,2.1967434911694577
1770449028652,129,1,1.9022801779642335,1.7193225482128969,1.3021349561123243
1770449028656,128,0,0.9484239605411932,0.5504724061859394,0.3522781798930134
1770449028660,126,-2,0.0329175256572975,-1.100659221019819,-0.5609031768257864
1770449028664,126,-2,-0.8291516084531327,-1.3184226738462974,-1.4215179476176227
1770449028668,125,-3,-1.706143530010781,-2.0342888569614463,-2.296713355263903
1770449028672,124,-4,-2.6882510468868226,-3.5234155879553657,-3.276159970162686
1770449028676,123,-5,-3.796806489893279,-4.165126698828341,-4.3812171525323755
1770449028680,122,-6,-4.940667682688191,-5.346271542344383,-5.52085616712709
1770449028684,120,-8,-5.9603869090358,-7.048086365095604,-6.535930199475344
1770449028688,120,-8,-6.7248393753996725,-7.232967899966321,-7.29617818875407
1770449028692,120,-8,-7.200606842265752,-7.369913245482845,-7.769121127579706
1770449028696,119,-9,-7.447794412950019,-8.23714064570611,-8.014581146288409
1770449028700,119,-9,-7.566999492532411,-8.27993434123838,-8.131536709793034
1770449028704,119,-9,-7.645047491613742,-8.036948101961865,-8.205639163774034
1770449028708,119,-9,-7.719087789098042,-8.241161996413119,-8.274661320624555
1770449028712,119,-9,-7.765299546368976,-8.34600697492401,-8.316291672908191
1770449028716,119,-9,-7.724917006434498,-8.222592321115428,-8.272330723723917
1770449028720,119,-9,-7.5615999251861,-8.27755122727536,-8.105647667252743
1770449028724,119,-9,-7.306203164623615,-7.970206479821568,-7.846248356453948
1770449028728,120,-8,-7.041405448032082,-7.301933989899261,-7.57707258961651
1770449028732,120,-8,-6.8324250604642875,-7.265048693882972,-7.36417257431666
1770449028736,120,-8,-6.672317062821195,-7.270076378019674,-7.2006065192329105
1770449028740,120,-8,-6.502826400084613,-7.21084876043812,-7.0271723824684
1770449028744,120,-8,-6.288128612330656,-6.9739001728589205,-6.807563527346969
1770449028748,121,-7,-6.055360847583248,-6.292461710512278,-6.569704797499895
1770449028752,121,-7,-5.855795237762203,-6.23899234672128,-6.365802232142344
1770449028756,121,-7,-5.697530789293731,-6.278825603621975,-6.203607580665773
1770449028760,121,-7,-5.532899561357489,-6.166851278820402,-6.034324908176425
1770449028764,121,-7,-5.313467878400667,-5.973525427804666,-5.809429634859907
1770449028768,122,-6,-5.046270306546462,-5.281072726916106,-5.537291678410403
1770449028772,122,-6,-4.793125729208429,-5.201614467706511,-5.280633725548742
1770449028776,122,-6,-4.625404422928881,-5.318153756752956,-5.1097390816181125
1770449028780,122,-6,-4.582103113657329,-5.066918033686801,-5.061612284034238
1770449028784,122,-6,-4.6512689688974405,-5.0645594145137975,-5.123861508958157
1770449028788,122,-6,-4.767155513795129,-5.1473061642130435,-5.2325614411277535
1770449028792,122,-6,-4.827379991439557,-5.308151130963509,-5.287495745498269
1770449028796,122,-6,-4.745075776720768,-5.195871091146228,-5.201965756420269
1770449028800,122,-6,-4.519670746965851,-5.13584148086616,-4.973399970532508
1770449028804,122,-6,-4.264818980407899,-4.992462703083817,-4.713533176410321
1770449028808,123,-5,-4.13952142684763,-4.154941271533003,-4.581594626150418
1770449028812,123,-5,-4.213908763839264,-4.305323269565484,-4.6494383186451955
1770449028816,122,-6,-4.391506390942622,-5.14357538176095,-4.821498953470176
1770449028820,122,-6,-4.48255395741655,-5.187568753073451,-4.907434427904294
1770449028824,122,-6,-4.37161332615976,-4.884184208415942,-4.7911805576126945
1770449028828,123,-5,-4.114447848618515,-4.257955524185119,-4.528674742116312
1770449028832,123,-5,-3.8709904418979386,-4.129836009218683,-4.279945229348189
1770449028836,123,-5,-3.7494907345652377,-4.328670685429994,-4.15266489083332
1770449028840,123,-5,-3.712882141305461,-3.9538391459912656,-4.1094173871257915
1770449028844,123,-5,-3.6242588598457,-4.1070539584521715,-4.013981191709746
1770449028848,123,-5,-3.383067775997561,-4.009367791328449,-3.7668443065069663
1770449028852,124,-4,-3.034998962964583,-3.297922576017222,-3.41392732114481
1770449028856,124,-4,-2.761445020051329,-3.190907183449488,-3.135893166840605
1770449028860,124,-4,-2.747069214089559,-3.001777416582438,-3.1164575045293037
1770449028864,124,-4,-3.0243227282702043,-3.1082508375836637,-3.3874142148599224
1770449028868,123,-5,-3.4235126758760974,-3.9132364645939415,-3.778757741517525
1770449028872,123,-5,-3.679352966848128,-4.399469788473573,-4.0256719738331235
1770449028876,123,-5,-3.611743746927077,-4.033533750515224,-3.9498895410917623
1770449028880,124,-4,-3.2331542535280677,-3.1360219703601526,-3.5660243886616536
1770449028884,124,-4,-2.7121712172556887,-2.9680278014062553,-3.042557716108172
1770449028888,124,-4,-2.255275959618983,-2.9744155008857,-2.582912177129589
1770449028892,125,-3,-2.004451783830857,-2.3662622804813136,-2.3259531186952116
1770449028896,125,-3,-1.9823155540747728,-1.9773637392029788,-2.294237595590845
1770449028900,125,-3,-2.0774518546082086,-2.2298224054034916,-2.37897532198133
1770449028904,124,-4,-2.086708953054161,-2.7898298947160565,-2.3796817550466147
1770449028908,125,-3,-1.8237303341614215,-2.149999504549748,-2.1110388987155675
1770449028912,126,-2,-1.2372091207791942,-1.1519145492058307,-1.5209256310576362
1770449028916,126,-2,-0.4520227171288107,-1.1434809786313918,-0.7319911166572175
1770449028920,127,-1,0.3036465546984728,-0.0803386042202488,0.0297467921678267
1770449028924,128,0,0.8472253740191809,1.1604593790732898,0.5819334916635543
1770449028928,128,0,1.1727760882860183,0.8443583124953273,0.9168281109597284
1770449028932,128,0,1.458066141370974,0.963267222251794,1.210297214870725
1770449028936,129,1,1.9174177234702976,1.708525389471352,1.6762528487827637
1770449028940,129,1,2.6047309625544455,2.1287517784014742,2.3694593996830817
1770449028944,130,2,3.334001094372056,2.9874236132499754,3.1047373425006684
1770449028948,131,3,3.797017909044453,4.022988293524852,3.573889255767594
1770449028952,131,3,3.7880086405355415,3.863902167851773,3.571013782358775
1770449028956,130,2,3.3433192352302896,2.7595977351827496,3.133130445312448
1770449028960,129,1,2.6783703663383056,2.180926479602223,2.4765130103521775
1770449028964,129,1,1.996738377236345,1.8881191024624957,1.80424125806084
1770449028968,128,0,1.3581742893075457,1.2325811817841883,1.1742066940791946
1770449028972,128,0,0.7085334712635556,0.6460356860067415,0.5308969849372431
1770449028976,127,-1,0.0035251725410718,0.0179286122175534,-0.1693102529209419
1770449028980,126,-2,-0.716151087376657,-1.0447536318789157,-0.8835248309391901
1770449028984,125,-3,-1.3637622951481954,-1.9026396511793269,-1.523429681095628
1770449028988,125,-3,-1.8954439519578763,-1.8709631258786512,-2.0458049641291036
1770449028992,125,-3,-2.340662314824932,-2.277534843044416,-2.482275311673721
1770449028996,124,-4,-2.746911290134113,-2.974306273993582,-2.881644350291102
1770449029000,124,-4,-3.1142436392858626,-3.070863504408559,-3.2431323818768405
1770449029004,123,-5,-3.3979677350734994,-3.843358853781984,-3.5202795936389
1770449029008,123,-5,-3.5687170471059417,-3.8812585441120415,-3.683112269882122
1770449029012,124,-4,-3.653011164794593,-3.245503994246382,-3.759104231964785
1770449029016,123,-5,-3.70969818976279,-3.9456960876100458,-3.808089822636634
1770449029020,123,-5,-3.777593326525963,-4.117039519069108,-3.8688142020771337
1770449029024,123,-5,-3.852816395852929,-3.7419838556379226,-3.936921988363103
1770449029028,123,-5,-3.907865217340146,-3.977904514126876,-3.984804454182727
1770449029032,123,-5,-3.925294454168052,-4.0831521522723655,-3.994926547584342
1770449029036,123,-5,-3.918872849054241,-4.076472175009112,-3.980747544877364
1770449029040,123,-5,-3.924253257020138,-3.9829964130578817,-3.978115488598764
1770449029044,123,-5,-3.957115846727736,-3.838263992390083,-4.003609910009076
1770449029048,123,-5,-3.973205366456405,-3.861463264581587,-4.013195927063075
1770449029052,123,-5,-3.8842510719246417,-4.143680656373629,-3.9170160224349897
1770449029056,123,-5,-3.636976317826421,-3.9829627880303695,-3.659858688173924
1770449029060,124,-4,-3.2841098770947763,-3.069134404830193,-3.295113517822654
1770449029064,124,-4,-2.96793684910799,-2.721134240209488,-2.9690433934546903
1770449029068,124,-4,-2.8233223946575077,-2.9446056370123945,-2.8207925393873707
1770449029072,124,-4,-2.879102620366493,-3.017618108248957,-2.8795032886728835
1770449029076,124,-4,-3.0009697092152656,-3.071427092854649,-3.0052905281135964
1770449029080,124,-4,-2.837295230181433,-2.991761683095344,-2.8375849759968546
1770449029084,125,-3,-1.7308903615374218,-1.7341523238489915,-1.713178788482006
1770449029088,129,1,1.325947679545772,2.0720290934836756,1.3728766925085916
1770449029092,135,7,7.495788351713706,8.068347326136564,7.571567555205519
1770449029096,144,16,17.509004607090606,16.825625542205756,17.599658670210186
1770449029100,157,29,30.835259643528538,30.17670841948595,30.92019600911709
1770449029104,172,44,45.14041712787304,45.08610242737824,45.204549477489216
1770449029108,183,55,56.624280399014864,56.31910701240449,56.66759311600545
1770449029112,189,61,61.39126686432741,61.82721550900068,61.4288869311353
1770449029116,186,58,57.288134996001496,59.0644778202619,57.34091173935873
1770449029120,173,45,45.15541804740204,45.900398929875486,45.23881415141946
1770449029124,154,26,28.61397696631559,27.35752586722866,28.7324169550928
1770449029128,138,10,12.383696107159375,11.147009066464992,12.53032194119742
1770449029132,127,-1,0.1424145357573323,0.0442661523902446,0.3016511171881029
1770449029136,121,-7,-6.767017432852233,-5.991098545522975,-6.613499163356897
1770449029140,119,-9,-9.174294136512689,-8.090121364095923,-9.0381031947044
1770449029144,118,-10,-8.920094437705776,-8.540035532392833,-8.798638995295146
1770449029148,119,-9,-7.672908227478384,-8.063498441289276,-7.550989448717389
1770449029152,120,-8,-6.392490473713142,-6.615896558082303,-6.253029907229772
1770449029156,122,-6,-5.432061263464431,-5.385905054796995,-5.267545897033145
1770449029160,122,-6,-4.859880723677896,-4.593221699205366,-4.675526198007777
1770449029164,123,-5,-4.652876568139842,-4.053164724727656,-4.4601492194386045
1770449029168,122,-6,-4.721415679392574,-4.538159770278869,-4.528471764330373
1770449029172,122,-6,-4.9111695329584055,-5.081371100554525,-4.718090545796204
1770449029176,122,-6,-5.073451010004916,-4.930141014860708,-4.874878305326897
1770449029180,122,-6,-5.147463420651514,-4.927983765441257,-4.938723538133822
1770449029184,122,-6,-5.158305736801435,-4.785548632343332,-4.939057746620311
1770449029188,122,-6,-5.133572630699202,-4.682642859491323,-4.906514896773489
1770449029192,122,-6,-5.0383611326352336,-5.0245383565709565,-4.805534952175661
1770449029196,122,-6,-4.802610734025142,-4.836847541229734,-4.563501319152598
1770449029200,123,-5,-4.4021224493559945,-4.080895525004762,-4.1550144601715004
1770449029204,123,-5,-3.8933850267589674,-3.5122679583516465,-3.637690019609407
1770449029208,124,-4,-3.3629898463028813,-3.014128897607203,-3.0997127223848304
1770449029212,124,-4,-2.854072803337164,-2.6018824985363365,-2.5843143224853646
1770449029216,125,-3,-2.3515355880235256,-2.277204514242987,-2.0751801428824694
1770449029220,125,-3,-1.8324969255314705,-1.5706813716004993,-1.548559804255369
1770449029224,126,-2,-1.3156569612280438,-0.9915591015256856,-1.023600995276947
1770449029228,126,-2,-0.8522455200204382,-0.5452163092770094,-0.5526059460664238
1770449029232,127,-1,-0.4715032257575346,0.0255570791784595,-0.1651435188324164
1770449029236,127,-1,-0.1435746631861869,0.0264492699325444,0.1694717265276552
1770449029240,127,-1,0.1992641586630095,0.2828859933656,0.5198933175299383
1770449029244,128,0,0.6076828388774598,1.062014058255094,0.9365822823990416
1770449029248,128,0,1.0836373593504631,1.5434901375090946,1.4203748859339975
1770449029252,129,1,1.593056928487434,1.870935572942937,1.9365378830013444
1770449029256,129,1,2.093957170492488,2.27759851499591,2.4435285275869307
1770449029260,130,2,2.550594312231465,3.0367849989939657,2.906493242433201
1770449029264,130,2,2.9360855046054235,3.330609419113167,3.299092256657089
1770449029268,130,2,3.2379189438188245,3.343576680865571,3.60878352479774
1770449029272,131,3,3.468937404729913,4.033767075767083,3.8479209784936126
1770449029276,131,3,3.673030283109584,4.228941316676815,4.059833233666222
1770449029280,131,3,3.908578094238952,4.029481589592478,4.302679766376025
1770449029284,131,3,4.2065779891322865,4.456351587976243,4.607438351439478
1770449029288,132,4,4.533786277323935,5.171778057142249,4.940788110510973
1770449029292,132,4,4.799025536045262,5.289533456092222,5.211835184484943
1770449029296,132,4,4.902082654530258,4.97520566221358,5.321279846187549
1770449029300,132,4,4.791149116057251,5.321752456622078,5.217960321362143
1770449029304,132,4,4.499313031347947,5.210105497175952,4.934496973388987
1770449029308,131,3,4.14031138335058,4.403599266291172,4.583640448423529
1770449029312,131,3,3.851281023430687,4.153180177819188,4.3020023347416245
1770449029316,131,3,3.707428776463436,4.0695549263707536,4.164717854540213
1770449029320,131,3,3.673172022957019,4.338603301170672,4.136292802142616
1770449029324,131,3,3.631510869641149,4.150803534239292,4.100198178554461
1770449029328,130,2,3.465386094823244,3.556833338811554,3.940188827129879
1770449029332,131,3,3.1302870529011644,3.973151520221194,3.6122626513970193
1770449029336,130,2,2.675096224601706,3.3247354201051897,3.1652182354116305
1770449029340,129,1,2.200965193227776,2.0795243964626895,2.699697009293314
1770449029344,129,1,1.785234869192149,2.4672412660551855,2.292005764236216
1770449029348,129,1,1.4272934349986697,2.2646875654727037,1.9403095416408855
1770449029352,128,0,1.0522725114311835,1.2812032152531132,1.5697195890317046
1770449029356,128,0,0.5521920804599636,1.0754884721387858,1.0740846419084709
1770449029360,127,-1,-0.1699370611961166,0.3347701773810705,0.3584497600997607
1770449029364,126,-2,-1.1565474809699667,-0.7541583872993471,-0.6195619991809433
1770449029368,125,-3,-2.3521721434698017,-1.463529025836371,-1.8063717836682256
1770449029372,124,-4,-3.595525645240766,-2.9980079692288233,-3.0423280868947487
1770449029376,122,-6,-4.687580752579414,-4.564195160566047,-4.128232159024005
1770449029380,122,-6,-5.5099387736411956,-5.042541187124242,-4.9446007027364125
1770449029384,121,-7,-6.095243467953649,-5.310220233628938,-5.523737548466764
1770449029388,121,-7,-6.577834650839924,-5.892812984571838,-6.0003567230186725
1770449029392,120,-8,-7.068766895679661,-6.528395689565079,-6.485395549083608
1770449029396,120,-8,-7.571204252234207,-6.999229733732846,-6.981244386572306
1770449029400,119,-9,-8.00060210679692,-7.602385883868455,-7.403062394448593
1770449029404,119,-9,-8.269520224808863,-7.701907332984315,-7.664219603152214
1770449029408,119,-9,-8.352460122623269,-7.472678436205547,-7.740268499700435
1770449029412,119,-9,-8.28768365240606,-7.908478446982722,-7.669602710177484
1770449029416,119,-9,-8.135887709785738,-7.584877193964277,-7.512213740238767
1770449029420,120,-8,-7.93782994451727,-7.011030659663442,-7.308220586711332
1770449029424,119,-9,-7.69924727541538,-7.248669185419361,-7.063119448578339
1770449029428,120,-8,-7.409844050275848,-6.900660487762727,-6.766614093572958
1770449029432,120,-8,-7.0764826664126605,-6.428429823839539,-6.425991890142817
1770449029436,121,-7,-6.733472957345347,-6.047761927364225,-6.076419890106012
1770449029440,121,-7,-6.417316363334143,-5.531215195003035,-5.754755511844213
1770449029444,121,-7,-6.139268838653432,-5.675140203647505,-5.4713306628361495
1770449029448,121,-7,-5.891221531734859,-5.478902400876341,-5.216730794699236
1770449029452,122,-6,-5.671411215401037,-4.755746249071905,-4.989208583398988
1770449029456,122,-6,-5.489528640916414,-4.754653168092433,-4.79994001135044
1770449029460,122,-6,-5.347132528640765,-4.751147689709076,-4.651711742693156
1770449029464,122,-6,-5.230546988601358,-4.450211990538548,-4.530411332797101
1770449029468,122,-6,-5.134623109372704,-4.668957425420909,-4.4293453380053105
1770449029472,122,-6,-5.083875362440999,-4.508089985301611,-4.372085676912828
1770449029476,123,-5,-5.107779250312592,-4.008854819580612,-4.388578519204428
1770449029480,122,-6,-5.182063210990924,-4.429206537226856,-4.455579862869972
1770449029484,122,-6,-5.20425948887582,-4.783392503091996,-4.4710998151843295
1770449029488,122,-6,-5.049846871638442,-4.267972629205187,-4.310563702142046
1770449029492,123,-5,-4.6703316239797505,-3.8956368990006016,-3.925399723198328
1770449029496,123,-5,-4.146860537709259,-3.587017886735895,-3.3966350092948927
1770449029500,124,-4,-3.6508692738548,-2.8010568954575175,-2.8953615777824484
1770449029504,124,-4,-3.3384399049697437,-2.421879209223266,-2.577243800598027
1770449029508,124,-4,-3.255149005389203,-2.552286751377678,-2.4875651283989497
1770449029512,124,-4,-3.3217669651490715,-2.632041124587618,-2.547069979214169
1770449029516,124,-4,-3.4077774664479152,-2.7660384547275765,-2.625727790341386
1770449029520,124,-4,-3.427728915304682,-2.64351779905572,-2.63903418257103
1770449029524,124,-4,-3.383568678305222,-2.4939026378501485,-2.5895637383431716
1770449029528,124,-4,-3.334109200173846,-2.5028550090987554,-2.535582216374355
1770449029532,124,-4,-3.336100841252707,-2.5940674830427106,-2.5324600724913418
1770449029536,124,-4,-3.4076803668523667,-2.829868618367429,-2.5976296609988117
1770449029540,124,-4,-3.524947425192675,-2.502547970023353,-2.7079772794924573
1770449029544,124,-4,-3.6365891651442777,-2.640978813259142,-2.8133275849833135
1770449029548,123,-5,-3.690166365547774,-3.293095981396355,-2.861201412690083
1770449029552,124,-4,-3.6647766385945744,-2.79270165121571,-2.8298287732756298
1770449029556,124,-4,-3.5834952487950273,-2.586416974562631,-2.742163878945017
1770449029560,124,-4,-3.4848297252199965,-2.735527372045,-2.6376321150245245
1770449029564,124,-4,-3.3799715623294375,-2.352164691540029,-2.5279726302179713
1770449029568,124,-4,-3.2463264362310156,-2.564512041469479,-2.389741431501692
1770449029572,124,-4,-3.0648714963589616,-2.4919780863917143,-2.202528542246182
1770449029576,125,-3,-2.8497542320622817,-1.8419857072776893,-1.980241034959413
1770449029580,125,-3,-2.6232648057913392,-1.4861141543891014,-1.7463735079730198
1770449029584,125,-3,-2.362693185236749,-1.5070957808472596,-1.4794982231256162
1770449029588,125,-3,-1.9947283105679925,-1.447481351096117,-1.1065812726035742
1770449029592,126,-2,-1.4628715978629003,-0.5106688398955652,-0.5706054119642093
1770449029596,127,-1,-0.8022298603146285,0.1340622566729241,0.0942038101384028
1770449029600,127,-1,-0.1392150694212062,0.6293534702061325,0.7625192918238575
1770449029604,128,0,0.3956868723740461,1.385947220523247,1.304408545736518
1770449029608,128,0,0.7768712883374254,1.6929217024814642,1.6933667154450789
1770449029612,129,1,1.1230559096044646,2.3830512827657766,2.0463766049939105
1770449029616,129,1,1.6120666199239926,2.244735787084762,2.5405470062620137
1770449029620,129,1,2.311433398922894,2.577090265705353,3.2442250172439366
1770449029624,131,3,3.06473153415978,4.470181670275501,4.001904586606673
1770449029628,131,3,3.559787864032847,4.636624770671373,4.501490204811294
1770449029632,131,3,3.54593399007796,4.473104277260883,4.492331604137945
1770449029636,131,3,3.0175842966372883,4.162564019420582,3.969537129827622
1770449029640,129,1,2.2090031158898324,2.7067932478324392,3.1680246525040765
1770449029644,129,1,1.417922772361934,2.352026084832574,2.384966301063595
1770449029648,128,0,0.8155682421895856,1.8287512720857064,1.7897847643708005
1770449029652,128,0,0.3875666096374428,1.275351640122556,1.366474381748283
1770449029656,128,0,0.0179212733030813,1.4173226490315805,0.9992777051946848
1770449029660,127,-1,-0.391299850304271,0.4699329981918465,0.5926127663416656
1770449029664,126,-2,-0.8720863839320765,-0.4000299443541811,0.1168888185191453
1770449029668,126,-2,-1.4177040978481048,-0.3385437565277145,-0.4212736086193128
1770449029672,126,-2,-2.0077124182303843,-0.5849802125909763,-1.0038562035186704
1770449029676,125,-3,-2.592981021096426,-1.6334015705159228,-1.5834405345394358
1770449029680,124,-4,-3.0888161729223413,-2.4940884453283183,-2.0746175091465604
1770449029684,124,-4,-3.417617644023536,-2.38428389669406,-2.398419465725353
1770449029688,124,-4,-3.5617209213778787,-2.3280093947041163,-2.537273467979964
1770449029692,124,-4,-3.568202375641104,-2.5650485380317676,-2.5391234927216155
1770449029696,124,-4,-3.5111792050556314,-2.6036225227719276,-2.477923572601461
1770449029700,124,-4,-3.4560696206113355,-2.5142512185781136,-2.4179801112149235
1770449029704,124,-4,-3.4422679610043336,-2.332807197432129,-2.398177549930111
1770449029708,124,-4,-3.4732009234173877,-2.347806628969501,-2.4226319320212752
1770449029712,124,-4,-3.51636261261156,-2.5119990956486817,-2.4598657143602827
1770449029716,124,-4,-3.5284868888524117,-2.6077421458300587,-2.467159560121147
1770449029720,124,-4,-3.4962383051344217,-2.5053709458396844,-2.43120751607144
1770449029724,124,-4,-3.45369582940928,-2.300851436861522,-2.3855636970788545
1770449029728,124,-4,-3.4530614111155695,-2.3574473222477823,-2.380974168651472
1770449029732,124,-4,-3.5128510026030493,-2.458069497081223,-2.4340248809968648
1770449029736,124,-4,-3.5916337813171264,-2.6165543232584545,-2.5029101670664335
1770449029740,124,-4,-3.611075507510169,-2.5075974530755945,-2.5122832797578463
1770449029744,124,-4,-3.5126797810191253,-2.224932709401717,-2.4087568960243817
1770449029748,124,-4,-3.3105854571474937,-2.456944693151307,-2.209395431162296
1770449029752,124,-4,-3.08937247144587,-2.2541409889958137,-1.995865242640782
1770449029756,125,-3,-2.8890452084232763,-1.8388656186249135,-1.8001260869335474
1770449029760,125,-3,-2.4687677693876564,-1.2413973276985544,-1.373206880778869
1770449029764,127,-1,-1.0751422036988654,0.541488994850079,0.0405786619890514
1770449029768,130,2,2.534259034253404,3.784224113198297,3.6772509918437297
1770449029772,137,9,9.612275071523245,10.606239056920934,10.777071393609257
1770449029776,148,20,20.572152207076517,21.280039688458892,21.74180993423262
1770449029780,161,33,34.204772762296635,34.724224530892826,35.35995003246533
1770449029784,175,47,47.54475945386333,48.56675909688457,48.6755736719536
1770449029788,184,56,56.71640382157131,57.80510940668143,57.82875531939458
1770449029792,187,59,58.52572548905625,60.58134339175922,59.63751302588489
1770449029796,181,53,52.01226210773123,54.297093993273904,53.14293093311015
1770449029800,166,38,39.03629199186821,39.688613817442224,40.19728274376415
1770449029804,150,22,23.465105767130307,23.648532438373636,24.65567074200075
1770449029808,136,8,9.396250004790147,9.767007485798,10.60463782396844
1770449029812,127,-1,-0.5226313634177071,0.7439433699095321,0.6864459384359052
1770449029816,123,-5,-5.760068808737883,-3.831250701184336,-4.56419985980266
1770449029820,120,-8,-7.403145167288214,-6.100292290053103,-6.223816864918806
1770449029824,121,-7,-7.082837066767796,-5.610943808904901,-5.911935852951792
1770449029828,121,-7,-6.09059220367559,-4.9119267622157405,-4.914722456326274
1770449029832,122,-6,-5.092756599144028,-4.592439906876782,-3.9016169103071774
1770449029836,123,-5,-4.333192606707114,-3.426605816241394,-3.124743856770727
1770449029840,124,-4,-3.9306525634033065,-2.477167915059128,-2.710710748704343
1770449029844,124,-4,-3.9732325806740914,-2.251019974733532,-2.75026412936814
1770449029848,123,-5,-4.426503893578218,-3.1968733234895677,-3.2051850593487456
1770449029852,122,-6,-5.072568468534739,-4.33519367293398,-3.8510938190847903
1770449029856,122,-6,-5.608776950344868,-4.575707523560202,-4.3820283640378825
1770449029860,122,-6,-5.818853610349616,-4.354187107983093,-4.583822580680135
1770449029864,122,-6,-5.657759411313285,-4.294333464300313,-4.415703418517555
1770449029868,122,-6,-5.208404317176181,-4.17396207037108,-3.962564111240258
1770449029872,123,-5,-4.5915806144462135,-3.2751662798529093,-3.3439334730324974
1770449029876,124,-4,-3.9122660181502096,-2.6529037092949492,-2.662367865430067
1770449029880,124,-4,-3.254844526953038,-2.201253323484149,-2.00071316615786
1770449029884,125,-3,-2.6904005061588414,-1.4528897449006477,-1.4300744522446625
1770449029888,125,-3,-2.260550379103428,-0.9731078761849864,-0.9933302985573896
1770449029892,126,-2,-1.942231748176397,-0.4360255290611471,-0.6689161056804196
1770449029896,126,-2,-1.6409112003650344,-0.4875636722200596,-0.3629284606163681
1770449029900,126,-2,-1.250368340271478,-0.2897213743743604,0.0312415889441676
1770449029904,127,-1,-0.7461130913194376,0.6083028254569642,0.53871539586601
1770449029908,127,-1,-0.2247070258412569,1.0515334693743317,1.0633744023269172
1770449029912,128,0,0.1614564876178648,1.5254469121515637,1.4533934149479604
1770449029916,128,0,0.3287495411293306,1.623316318557316,1.6258301462815103
1770449029920,128,0,0.3472138253971928,1.599649735430291,1.6507565962945925
1770449029924,128,0,0.4182486056420447,1.756913436055369,1.7285274334274228
1770449029928,128,0,0.7551548661410092,1.927246515061921,2.0711012526072836
1770449029932,129,1,1.441950487195187,2.6959003586359436,2.7619559454183547
1770449029936,130,2,2.3649182731752023,3.4807288620567416,3.687788494083674
1770449029940,131,3,3.2711449941475212,4.783729645191569,4.596506327107949
1770449029944,132,4,3.920790411793602,5.5779914129679184,5.249294619394303
1770449029948,131,3,4.224076077385893,5.149613192474689,5.557488870914784
1770449029952,132,4,4.267119986879098,5.496807026932734,5.6074813651478825
1770449029956,132,4,4.229342359647745,5.715638254963388,5.577295970105573
1770449029960,132,4,4.273320123559833,5.587937942628997,5.62739652759277
1770449029964,132,4,4.4740441040695496,5.782359347804031,5.831931560171742
1770449029968,132,4,4.800716118132627,6.011441752495181,6.161150932033144
1770449029972,133,5,5.141568696459699,6.6220639664371745,6.5049783955460585
1770449029976,133,5,5.361454510713546,6.669319845642096,6.729165009498924
1770449029980,133,5,5.370382733746534,6.626091023560016,6.7435054047722565
1770449029984,133,5,5.167954143995354,6.790843343332247,6.546926356941783
1770449029988,132,4,4.836438665639541,6.038470175521762,6.221263637228682
1770449029992,132,4,4.486256231169339,5.592516897486445,5.8767114224916055
1770449029996,132,4,4.19337256812962,5.786937232232986,5.588838658677245
1770449030000,132,4,3.9726913451484354,5.481971542842665,5.372314078064407
1770449030004,131,3,3.791962380837286,5.01302032016031,5.195476606368263
1770449030008,131,3,3.596576802568406,4.822226515517515,5.004649269556957
1770449030012,131,3,3.3293712146486985,4.8292926529615485,4.7427468428018305
1770449030016,131,3,2.951253818259959,4.616006565674252,4.369978961840844
1770449030020,130,2,2.454289533075978,3.637349422538363,3.878137276704994
1770449030024,129,1,1.848695724595368,2.9433033151666708,3.27775960854543
1770449030028,129,1,1.1375525249296703,2.864127798630944,2.5718752913591527
1770449030032,128,0,0.3150109061705419,1.8627952166189112,1.754180436741988
1770449030036,127,-1,-0.6116426238679771,0.5781554478413095,0.8320937877713381
1770449030040,126,-2,-1.610692673560218,-0.2541051602686126,-0.1619630715866842
1770449030044,125,-3,-2.63665766720845,-1.1682059074775215,-1.18232591999158
1770449030048,124,-4,-3.641019298243994,-1.9804567176746692,-2.1810079366918926
1770449030052,123,-5,-4.575184947588185,-3.263531610365609,-3.1097608852532685
1770449030056,122,-6,-5.400284520439965,-4.27096585388218,-3.929650696438113
1770449030060,122,-6,-6.101691060537148,-4.346662790664944,-4.62614895917659
1770449030064,121,-7,-6.687906782010207,-5.08367536568922,-5.20781292191199
1770449030068,120,-8,-7.175021231539068,-6.002178774753018,-5.690070183667665
1770449030072,120,-8,-7.576875517621897,-6.2394418019924505,-6.0860310030888805
1770449030076,120,-8,-7.89975675740096,-6.238912553820897,-6.402465224878209
1770449030080,120,-8,-8.129436326837997,-6.363216580673297,-6.626354776134741
1770449030084,119,-9,-8.22984570709027,-7.028566841052179,-6.721838891004417
1770449030088,119,-9,-8.179345117435926,-7.030070903013463,-6.666359650243922
1770449030092,120,-8,-8.015274782419823,-6.193989682289808,-6.496785157607775
1770449030096,120,-8,-7.826132125646501,-6.225997935052581,-6.302134794519883
1770449030100,120,-8,-7.687717462984744,-6.376774460464394,-6.158583885189908
1770449030104,120,-8,-7.607680031526897,-5.944429227210114,-6.0732840037950275
1770449030108,120,-8,-7.52978804016328,-6.127640802534862,-5.989360080937966
1770449030112,120,-8,-7.383641658424337,-6.0542179983037565,-5.8365751889885935
1770449030116,121,-7,-7.129543575744836,-5.313989721641326,-5.576097977017982
1770449030120,121,-7,-6.768339125220073,-5.29031500450659,-5.209364564447514
1770449030124,121,-7,-6.327399529051373,-4.945604013132228,-4.763434497980422
1770449030128,122,-6,-5.848740704540278,-4.165626255650228,-4.279563223241062
1770449030132,122,-6,-5.385667816266945,-3.937838613398139,-3.810688118290632
1770449030136,123,-5,-4.996346642692981,-3.4334098818397645,-3.4152232971737093
1770449030140,123,-5,-4.728149775268369,-3.1041208068987243,-3.1409940400700775
1770449030144,123,-5,-4.600102701123189,-3.1183831877162147,-3.00721512882211
1770449030148,123,-5,-4.594906441946608,-2.9729758558325012,-2.9963458260706797
1770449030152,123,-5,-4.665782292349869,-3.092308400550315,-3.061138562334777
1770449030156,123,-5,-4.753265092065792,-3.261547657435576,-3.1419218739838635
1770449030160,123,-5,-4.800870048193776,-3.211401181865663,-3.182640533550251
1770449030164,123,-5,-4.763167868111017,-3.0031121740680056,-3.1386199894315996
1770449030168,123,-5,-4.61316062144333,-3.05508586991783,-2.9831040480583098
1770449030172,123,-5,-4.358632953331478,-2.987794569378151,-2.7233025783956792
1770449030176,124,-4,-4.056367758783246,-2.3319111682509335,-2.415286870382495
1770449030180,124,-4,-3.796721211742476,-2.0946610453457275,-2.1492693023813176
1770449030184,124,-4,-3.654180240189327,-2.0983113185734057,-2.000069186087724
1770449030188,124,-4,-3.640103231993704,-1.935745348835888,-1.979370471784112
1770449030192,124,-4,-3.699214051724591,-2.0814698886679315,-2.031970938959714
1770449030196,124,-4,-3.754329475180735,-2.2130333529520705,-2.080580460358422
1770449030200,124,-4,-3.762700573098209,-2.153330593088187,-2.082407175608463
1770449030204,124,-4,-3.737665725938593,-2.0315178086431103,-2.0509652635938185
1770449030208,124,-4,-3.7201613479957385,-1.9580050596376504,-2.0273459015409903
1770449030212,124,-4,-3.7315137548216457,-2.0556434429265265,-2.0326154865297132
1770449030216,124,-4,-3.7553619285444775,-2.189286055331338,-2.0498822581404
1770449030220,124,-4,-3.7625578480702857,-2.148773366408641,-2.0499114401643377
1770449030224,124,-4,-3.746182204332812,-1.9972773441651908,-2.026456759736135
1770449030228,124,-4,-3.727930360595637,-1.9734366192517436,-2.0019114225089645
1770449030232,124,-4,-3.734268630693895,-2.016654169278611,-2.0025030331535967
1770449030236,124,-4,-3.771276637939147,-2.1840985902547656,-2.0332970208910384
1770449030240,124,-4,-3.817459343069494,-2.141284998255184,-2.072217632933019
1770449030244,124,-4,-3.8283137925722457,-1.934209901900492,-2.075312332977278
1770449030248,124,-4,-3.744513141335717,-2.0643197727736005,-1.9842234884836032
1770449030252,124,-4,-3.510719185461584,-1.8405926347566923,-1.7438800563843435
1770449030256,125,-3,-3.1078827046580457,-1.382957272635211,-1.334669434965939
1770449030260,125,-3,-2.5775491858645836,-0.8636039543483476,-0.7975834158815451
1770449030264,126,-2,-2.0101436213858,-0.2030218084737199,-0.2232015002575108
1770449030268,126,-2,-1.4970753098872147,0.2316096908634932,0.2964552059604274
1770449030272,127,-1,-1.081538830025515,0.9028311673243604,0.7180897869861038
1770449030276,127,-1,-0.7483418114266152,0.8801542878071885,1.0577727029835844
1770449030280,127,-1,-0.4568823214648607,0.9318036596263872,1.357002010387397
1770449030284,128,0,-0.1751984025014707,2.016016546213407,1.6473093307648872
1770449030288,128,0,0.1235287161768661,2.051582746587776,1.9540685041727
1770449030292,128,0,0.4806954465833593,2.1010215165005373,2.3179381107077637
1770449030296,129,1,0.9343378027778636,2.7248324769622525,2.7776256751836597
1770449030300,129,1,1.4618608864879443,3.0996735957856996,3.3115012780105406
1770449030304,130,2,1.948988091871708,3.905266062919572,3.805439228607797
1770449030308,130,2,2.2368086376732963,4.162135855351378,4.1001564125741226
1770449030312,130,2,2.2190125614808167,4.054248909677713,4.089332798424902
1770449030316,130,2,1.9093188946253024,3.756682061125962,3.787135744492814
1770449030320,129,1,1.4267874082945664,3.137510113587078,3.3128132424299612
1770449030324,129,1,0.9175231904827724,2.8619704177870307,2.8119408631596428
1770449030328,128,0,0.4752117625122214,2.2663402784518687,2.3773550530815104
1770449030332,128,0,0.1104206510340835,1.9764459248383492,2.0192196242583833
1770449030336,128,0,-0.2259337739739455,1.8390650073192267,1.6888656071876702
1770449030340,127,-1,-0.595805344353644,1.1347387278664018,1.3252579675829517
1770449030344,127,-1,-1.0388816168381068,0.8143893939901286,0.88936359821436
1770449030348,126,-2,-1.5607137898543997,0.4457650276914475,0.3754826934310277
1770449030352,126,-2,-2.134468717483434,-0.2741493566965265,-0.1902285651191102
1770449030356,125,-3,-2.708011446550259,-0.7963990445493145,-0.756087617355798
1770449030360,125,-3,-3.2178392301274905,-1.2580386603162794,-1.2584825860311315
1770449030364,124,-4,-3.609622449243945,-1.7458720295639163,-1.6427804170613023
1770449030368,124,-4,-3.856442062329024,-1.938757801650866,-1.8820780001380024
1770449030372,124,-4,-3.964929530374629,-1.9095343196083592,-1.9833477786847116
1770449030376,124,-4,-3.9689748004716634,-2.0626942212108146,-1.9806445051108497
1770449030380,124,-4,-3.9188118187704784,-2.04318518051037,-1.9238467576767369
1770449030384,124,-4,-3.8691580835343538,-1.8567622425006656,-1.8670550483019832
1770449030388,124,-4,-3.86253134564802,-1.8596875562053576,-1.852446827518343
1770449030392,124,-4,-3.9095841406871927,-1.910648035995662,-1.8909638897226109
1770449030396,124,-4,-3.9802162110452945,-2.0579494400321954,-1.95344101873148
1770449030400,124,-4,-4.01662449036123,-2.02181237020526,-1.9830823080437536
1770449030404,124,-4,-3.964197901875489,-1.8270228703833364,-1.9251271431985115
1770449030408,124,-4,-3.805641829685561,-1.8960462199652404,-1.7603032014378472
1770449030412,124,-4,-3.5790158817146427,-1.7872904167763788,-1.5243961013199372
1770449030416,125,-3,-3.3591436650716835,-1.216257758999987,-1.292560202820938
1770449030420,125,-3,-3.2046783233068883,-0.7738472350842889,-1.1271917076655682
1770449030424,125,-3,-3.119245710306349,-1.107805269500909,-1.036139345987587
1770449030428,124,-4,-3.0752738780902806,-1.5268704695242952,-0.9926808224996612
1770449030432,125,-3,-3.0575015579716203,-1.1734792989178429,-0.9778673972739598
1770449030436,125,-3,-3.0008458369903233,-0.7688157749695441,-0.920209189033621
1770449030440,126,-2,-2.5756570893871333,-0.2137649357971975,-0.4841381169672054
1770449030444,127,-1,-0.9832011873977118,1.3801149920645068,1.1307071264159982
1770449030448,131,3,2.9550318006085687,5.018839257679048,5.097120106046691
1770449030452,138,10,10.263770381290373,12.296507231333097,12.427829157969926
1770449030456,149,21,21.006674052551887,22.8302030691012,23.175256498572683
1770449030460,161,33,33.66103483329827,35.18137875338685,35.81515497040794
1770449030464,173,45,45.17330344628137,47.079401665576505,47.30503192990123
1770449030468,180,52,51.91344493843529,54.26068826005564,54.03166965997363
1770449030472,180,52,51.22979133774449,54.11023909406321,53.35463148587855
1770449030476,172,44,42.8283862528226,45.943978562613154,44.979096829276536
1770449030480,157,29,29.123719367133425,31.137173975995196,31.309049358992276
1770449030484,141,13,14.219966808849652,15.117813447249253,16.435674825370302
1770449030488,129,1,2.0403583905405176,3.3181255192634556,4.27248733913644
1770449030492,123,-5,-5.294018440106067,-2.893230475561845,-3.0627720007391375
1770449030496,121,-7,-7.931450863312776,-4.982817291082609,-5.7137291624922675
1770449030500,121,-7,-7.536983134767587,-4.870118557079426,-5.334106061680847
1770449030504,122,-6,-6.032680143483798,-3.901800421290147,-3.834168786918681
1770449030508,123,-5,-4.679344726946789,-2.6374997874851465,-2.4700279240316503
1770449030512,124,-4,-3.8842310569770793,-1.9612645648834832,-1.653863338343604
1770449030516,124,-4,-3.543973065327524,-1.8464415324344905,-1.2924008168298435
1770449030520,125,-3,-3.468510561231567,-0.9689950639803522,-1.203680891985027
1770449030524,125,-3,-3.5638917173926825,-0.7756627884011749,-1.2952016370753103
1770449030528,124,-4,-3.772836735285544,-1.7577394290350212,-1.5047641622636552
1770449030532,124,-4,-3.980315912878172,-1.830216792992159,-1.7106178910706626
1770449030536,124,-4,-4.037283506522922,-1.9135704484311835,-1.7605161656007038
1770449030540,124,-4,-3.8653922780346304,-1.8774395673034792,-1.5781772858716487
1770449030544,125,-3,-3.5111639755011503,-0.8062321860878945,-1.2144698179302404
1770449030548,125,-3,-3.0931763236421332,-0.7452157517119078,-0.7901666937103933
1770449030552,125,-3,-2.7073814627170396,-0.8157915166445304,-0.3997470664932576
1770449030556,126,-2,-2.3811306921569164,0.1147561423493308,-0.0677706276454346
1770449030560,126,-2,-2.0928000300246437,0.1293987159149857,0.2283877816775594
1770449030564,126,-2,-1.8086816687849177,0.2291707825626827,0.5210208000717629
1770449030568,127,-1,-1.4968663910433366,1.2265345706948283,0.8401904601399166
1770449030572,127,-1,-1.1253201700703674,1.2281508500575942,1.2178164172160455
1770449030576,127,-1,-0.6737202644858735,1.1075957749853558,1.6756394198791882
1770449030580,128,0,-0.1570898278081016,2.1901529803878703,2.199274287172247
1770449030584,129,1,0.3786102288461515,3.189758432155217,2.7416682549311817
1770449030588,129,1,0.8979246590141379,3.2844519992149377,3.2666325823172904
1770449030592,129,1,1.400360560273458,3.195275979367006,3.774939846181802
1770449030596,130,2,1.894016505862151,4.1496576730914665,4.276117659907696
1770449030600,131,3,2.367273411815497,5.230616673796734,4.757740759978024
1770449030604,131,3,2.8090584601335338,5.134314815191455,5.206670671766793
1770449030608,131,3,3.2404357590903703,5.410648254671856,5.643395228716894
1770449030612,132,4,3.6928670004755255,6.040628611463055,6.1007695620121885
1770449030616,132,4,4.149758678539751,6.3563939856083085,6.56359683703446
1770449030620,133,5,4.53228836657198,7.063857389144248,6.953021367182367
1770449030624,133,5,4.764771372185752,7.3309637487018176,7.192491634928854
1770449030628,133,5,4.859073747635381,7.253920460806332,7.2934765796746115
1770449030632,133,5,4.9273526805564565,7.178298145090992,7.368385781823934
1770449030636,133,5,5.102456614447137,7.275470225615236,7.550109784664382
1770449030640,134,6,5.436958072249548,8.15801740751721,7.890809781898691
1770449030644,134,6,5.865250448443023,8.318126460447576,8.324805453676774
1770449030648,134,6,6.247984796265319,8.252065638884437,8.713214135965531
1770449030652,135,7,6.457970890200897,9.218689093455705,8.928967290538191
1770449030656,135,7,6.451605165338604,9.227219392012824,8.928131112760525
1770449030660,134,6,6.278285407528067,8.277092598158518,8.76040192154095
1770449030664,134,6,6.0189488232294135,8.217667684867939,8.507617295711992
1770449030668,134,6,5.715160296501681,8.41162044747847,8.211285788429342
1770449030672,134,6,5.367500970933344,8.008056824490431,7.870605000486335
1770449030676,133,5,4.99490372450188,7.53925598960202,7.503525534193758
1770449030680,133,5,4.6626223484338745,6.93144083323824,7.175928593035038
1770449030684,132,4,4.426567937737924,6.675113282727964,6.944951401013507
1770449030688,133,5,4.2533234805575395,6.920862785909715,6.7774874731500745
1770449030692,132,4,4.011855953932008,6.533755938932081,6.541939301444438
1770449030696,132,4,3.5558306369174577,6.048149851172652,6.091582147124019
1770449030700,131,3,2.8236346512447645,5.43522204654383,5.364960044751573
1770449030704,130,2,1.872145944937684,4.257235996637431,4.419165127465215
1770449030708,129,1,0.8239829334858741,3.286162044786797,3.376753821749832
1770449030712,128,0,-0.2212750678116615,2.263255327499633,2.3371832766975564
1770449030716,127,-1,-1.2388194023665884,1.2652187737363012,1.3253047708122048
1770449030720,126,-2,-2.257067670489884,0.3498557263559223,0.3127284950903533
1770449030724,125,-3,-3.2905477848913236,-0.7026324357834342,-0.7152944138293518
1770449030728,124,-4,-4.294121089938713,-1.6691792852857708,-1.713870989822312
1770449030732,123,-5,-5.1859325507670135,-2.829111590509307,-2.601001437770832
1770449030736,122,-6,-5.919339919553296,-3.5591042097163,-3.3296118697510124
1770449030740,122,-6,-6.528088484401776,-3.8256447261663897,-3.933245722010052
1770449030744,121,-7,-7.087464656443689,-4.445788517183656,-4.48730409878042
1770449030748,121,-7,-7.6204236747636624,-4.956141977151434,-5.014733360266746
1770449030752,120,-8,-8.042798545535973,-5.486098746295083,-5.43116443987737
1770449030756,120,-8,-8.210542516346425,-5.9154182572859,-5.592783541896997
1770449030760,120,-8,-8.034463310184968,-5.394719689188572,-5.411363224153164
1770449030764,121,-7,-7.565490364185143,-4.845238344965187,-4.938608193939226
1770449030768,121,-7,-6.983556102699958,-4.551445762233975,-4.353856204134981
1770449030772,122,-6,-6.502420010267581,-3.848184148614369,-3.869205479681696
1770449030776,122,-6,-6.254877100157085,-3.573797090272993,-3.6163719108690304
1770449030780,122,-6,-6.225606141695924,-3.65280797824172,-3.580531717512827
1770449030784,122,-6,-6.271544094326247,-3.5805264288324334,-3.6199918200087926
1770449030788,122,-6,-6.221972727375955,-3.7760687411978022,-3.565023359580789
1770449030792,122,-6,-5.994920217336749,-3.6185123564320407,-3.333880578404085
1770449030796,123,-5,-5.644877582043693,-2.7821930175276144,-2.980754645272204
1770449030800,123,-5,-5.3068075055486705,-2.387255843761668,-2.6397448443324136
1770449030804,123,-5,-5.090095916270629,-2.819703177422987,-2.4190145628871256
1770449030808,123,-5,-5.01065757613691,-2.51429995852702,-2.3340658186644925
1770449030812,124,-4,-4.997849881740729,-1.867118094036193,-2.3153457728527207
1770449030816,123,-5,-4.952046220294744,-2.5313666048020176,-2.2645927755709483
1770449030820,123,-5,-4.814005195948077,-2.552231313316681,-2.1227234605182788
1770449030824,124,-4,-4.6060107752859025,-1.654011691363909,-1.9112816174495888
1770449030828,124,-4,-4.409825658417054,-1.62975974327947,-1.7114691715600352
1770449030832,124,-4,-4.293930130771204,-1.7702684827548574,-1.5915831785599124
1770449030836,124,-4,-4.256201934183544,-1.587381997582214,-1.549436133543099
1770449030840,124,-4,-4.234205840408848,-1.4517325362303806,-1.5226926252388084
1770449030844,124,-4,-4.169068144711564,-1.729501598929561,-1.4528736489643386
1770449030848,124,-4,-4.063113023696236,-1.5128389759971146,-1.3429093683315592
1770449030852,125,-3,-3.980099753966969,-0.9056790906510888,-1.2569267949713527
1770449030856,124,-4,-3.9894351987085175,-1.3972437735252337,-1.2638007827441289
1770449030860,124,-4,-4.107301372864065,-1.6231431966871148,-1.378412487353396
1770449030864,124,-4,-4.282682282240978,-1.4995486594771228,-1.5490148384970432
1770449030868,124,-4,-4.42479901477313,-1.7482538853926912,-1.685643444226969
1770449030872,124,-4,-4.44115317420807,-1.6394750147581965,-1.6973277128687168
1770449030876,124,-4,-4.2729986228974095,-1.648532225926194,-1.5259405024496608
1770449030880,124,-4,-3.928263173592632,-1.31529516297616,-1.178718979467262
1770449030884,125,-3,-3.4960917732176995,-0.784310963580769,-0.7438926111970919
1770449030888,125,-3,-3.1175049806230675,-0.4372896728625253,-0.3623378732543956
1770449030892,126,-2,-2.9150472915239964,0.0504771674457826,-0.1569159575397678
1770449030896,125,-3,-2.9272338150781794,-0.3003478276963172,-0.1659927467535247
1770449030900,125,-3,-3.097091958572797,-0.627374693692221,-0.3320043813457157
1770449030904,125,-3,-3.3148373729626455,-0.4466738253061199,-0.5451623713732401
1770449030908,125,-3,-3.468774537545195,-0.7345316398098567,-0.6947290374440928
1770449030912,125,-3,-3.471017097308577,-0.6779820703868491,-0.6936932159487876
1770449030916,125,-3,-3.269504646160762,-0.4825961294266523,-0.4897840822658557
1770449030920,125,-3,-2.86690777398187,-0.4676633427261469,-0.084907672676931
1770449030924,126,-2,-2.3321965262234894,0.4740875382456606,0.4520869218938956
1770449030928,127,-1,-1.7736817265843612,1.3373657777896153,1.01252244330959
1770449030932,127,-1,-1.2800765747786216,1.2597019808182406,1.5081389847123865
1770449030936,127,-1,-0.8768525076905342,1.645758621372968,1.9147449934115204
1770449030940,128,0,-0.5259214077229057,2.382910488074595,2.270699920506445
1770449030944,128,0,-0.1514095833187894,2.714951535908688,2.6501731248099003
1770449030948,129,1,0.3260194381846286,3.05834994179238,3.1304420974591816
1770449030952,129,1,0.9391720046703248,3.6090835681558513,3.744146995794493
1770449030956,130,2,1.6181018088138002,4.288550312625967,4.423200046943193
1770449030960,130,2,2.180634345138148,4.790886985351643,4.987278644806082
1770449030964,131,3,2.41650664318537,5.338639217383084,5.226189517613213
1770449030968,131,3,2.231471076112559,5.434028840137702,5.044461082577531
1770449030972,130,2,1.7355110345375744,4.292567984030596,4.551430812180147
1770449030976,129,1,1.1804750185377628,3.5672920547128593,3.999428736802216
1770449030980,129,1,0.7859733792344459,3.623325896255484,3.60830009545046
1770449030984,129,1,0.602770675070126,3.4498299120849696,3.427890006700223
1770449030988,129,1,0.5209343069569656,3.4479043279041757,3.3472531652962494
1770449030992,129,1,0.3860657111003427,3.210147512602727,3.2123270331144775
1770449030996,128,0,0.1031986106026754,2.7429299390110584,2.9296700534413267
1770449031000,128,0,-0.3456276608338471,2.4117804187139256,2.4825733756888435
1770449031004,127,-1,-0.9437976779711472,1.7384862202818927,1.8875595259840725
1770449031008,127,-1,-1.669655128665565,1.1630291021124135,1.165112979692204
1770449031012,126,-2,-2.478751701837491,0.5307501063379008,0.3585838242115025
1770449031016,125,-3,-3.2736902970511794,-0.5562042629200736,-0.4347932296724426
1770449031020,124,-4,-3.918637506669157,-1.2862633477664496,-1.0786296700449292
1770449031024,124,-4,-4.306921609193294,-1.4940547528747936,-1.4658109992388817
1770449031028,124,-4,-4.427763592814352,-1.6174456194913522,-1.5855331689244707
1770449031032,124,-4,-4.372944045151206,-1.6133632022016635,-1.529587907162334
1770449031036,124,-4,-4.276231604620224,-1.4394015780772118,-1.4315840820595829
1770449031040,124,-4,-4.231522256800176,-1.3458686148233443,-1.3853368193190314
1770449031044,124,-4,-4.249357696496251,-1.4338401524815154,-1.401527805729437
1770449031048,124,-4,-4.2815003922275086,-1.6237853340460204,-1.432167968253601
1770449031052,124,-4,-4.2875040138862275,-1.6008702062199205,-1.437165735047908
1770449031056,124,-4,-4.277654675946686,-1.4132660508385784,-1.427171560710499
1770449031060,124,-4,-4.287828741183684,-1.3696495275563405,-1.4377378031536132
1770449031064,124,-4,-4.31364343914885,-1.3603636695420211,-1.462858803973074
1770449031068,124,-4,-4.279329677729647,-1.6796069585356594,-1.4249283534975707
1770449031072,124,-4,-4.083155695059586,-1.5191379672706198,-1.2227627662824188
1770449031076,125,-3,-3.683458501174006,-0.4683667480322071,-0.8186972594597143
1770449031080,125,-3,-3.1566432750587916,-0.3055802793555305,-0.2938187696202954
1770449031084,125,-3,-2.6866608336506363,-0.368920954765467,0.1669798184157698
1770449031088,126,-2,-2.467807627788261,0.3330709739594483,0.3740630295120724
1770449031092,126,-2,-2.509272703536746,0.5084588781775032,0.3264058452920039
1770449031096,126,-2,-2.393767663262224,0.4984449036725999,0.4482702753743717
1770449031100,127,-1,-1.1581508565004637,1.78096235383467,1.7032529995134364
1770449031104,131,3,2.4993460262106986,5.562167922194403,5.384324912659427
1770449031108,138,10,9.614821680421237,12.450284060431962,12.51320088646592
1770449031112,148,20,20.14578513316529,22.41647191095786,23.036934259192485
1770449031116,160,32,32.38572139626913,34.61911765248451,35.250919444857544
1770449031120,171,43,43.100983316523845,45.68486168667808,45.93562169349518
1770449031124,177,49,48.60680643608525,51.67010404281225,51.423291048011286
1770449031128,176,48,46.43120999862886,50.327467435121946,49.25091363920085
1770449031132,166,38,36.69066792261038,40.53706978745332,39.53179568621368
1770449031136,150,22,22.268300137703523,24.482648105684653,25.137800422400915
1770449031140,134,6,7.53343448166698,8.865220084346273,10.425378559830982
1770449031144,124,-4,-3.6929431756160263,-1.4353326002918054,-0.7943428743598773
1770449031148,119,-9,-9.693138449871965,-6.506742548299459,-6.806803705816259
1770449031152,118,-10,-11.076649680289666,-7.524433520665882,-8.215069723175983
1770449031156,119,-9,-9.79073603857812,-6.486490210880587,-6.952469728650364
1770449031160,120,-8,-7.77358031948317,-5.124914996958513,-4.9443237944471825
1770449031164,122,-6,-6.106066854109257,-3.508938936629817,-3.26865411250074
1770449031168,123,-5,-4.961308083344248,-2.3598299235385327,-2.106968849811098
1770449031172,124,-4,-4.0753164399495425,-1.658356992962332,-1.2077310041162796
1770449031176,125,-3,-3.2454617804026897,-0.311869877463084,-0.3758994707747647
1770449031180,126,-2,-2.5255357449225277,0.7197660358785228,0.3359318047323389
1770449031184,126,-2,-2.1082540890445665,0.6153685366417958,0.7424559913291646
1770449031188,126,-2,-2.107743104089764,0.6000107750924366,0.7369973475060492
1770449031192,126,-2,-2.447504549504758,0.3778542240651048,0.3983950931723965
1770449031196,125,-3,-2.9041436987617466,-0.2886343978490282,-0.0533589379415122
1770449031200,125,-3,-3.2296483156951257,-0.3042836319414433,-0.3756448726657686
1770449031204,125,-3,-3.2596577850239012,-0.3633348177955671,-0.4068862962976165
1770449031208,125,-3,-2.9661832216341004,-0.3500824376122937,-0.1176579121025589
1770449031212,126,-2,-2.4529171269968173,0.3220495772159017,0.3916837356645297
1770449031216,126,-2,-1.897687082414512,0.8515354132803983,0.944988209841516
1770449031220,127,-1,-1.4564074103510067,1.5009697415887522,1.3853398483489867
1770449031224,127,-1,-1.1784338698665022,1.8925802668017089,1.6619660486175136
1770449031228,127,-1,-0.9991391081420744,1.3966804192747917,1.8398843913388787
1770449031232,127,-1,-0.817456967158386,1.614666932254968,2.02141107375696
1770449031236,128,0,-0.5772324063323704,2.618537488102638,2.262255272643853
1770449031240,128,0,-0.2693229824170209,2.6841646157484007,2.569320118015475
1770449031244,128,0,0.1228442294185847,2.797827463032424,2.957945025874648
1770449031248,129,1,0.6365494007703512,3.4545772877598098,3.467061694614895
1770449031252,129,1,1.26718383492941,3.64468697349004,4.094933912905769
1770449031256,130,2,1.9137745936024608,4.576169582341391,4.741378986446261
1770449031260,131,3,2.4311620273228054,5.7600399343644,5.259042323804944
1770449031264,131,3,2.7637438953324764,5.738478913722771,5.589912917152141
1770449031268,131,3,3.015254689676895,5.52680837665589,5.838041960860713
1770449031272,131,3,3.3564004721798577,5.631913693858193,6.176340125091312
1770449031276,132,4,3.8569383669175656,6.56768394521521,6.6754203956405345
1770449031280,133,5,4.425369905029973,7.831678238426762,7.242471376493442
1770449031284,133,5,4.9161601223497655,7.665585588120222,7.730905231714543
1770449031288,133,5,5.275859309558717,7.633944300024686,8.08797147012945
1770449031292,134,6,5.576161837974309,8.559470156232951,8.38626298875495
1770449031296,134,6,5.921354408184192,8.621080925597962,8.729580444228741
1770449031300,134,6,6.333745233474456,8.840492078493462,9.139255160171867
1770449031304,135,7,6.716493760480278,9.66750931218476,9.51859169717663
1770449031308,135,7,6.919511040854979,9.662219923316565,9.718640353202863
1770449031312,135,7,6.858185632110943,9.563208945734027,9.655454669072252
1770449031316,135,7,6.593926010315741,9.591077468448937,9.389880762023871
1770449031320,134,6,6.3058936871998625,8.954420808953138,9.100074574988106
1770449031324,134,6,6.1622002738421635,8.511666254633429,8.953732445976382
1770449031328,134,6,6.187882936698089,8.932294310625915,8.976039368256458
1770449031332,135,7,6.246234268954196,9.229057759865029,9.030560766885865
1770449031336,134,6,6.156906570111396,9.000873900378394,8.937531260312483
1770449031340,134,6,5.845339937191565,8.546481341185746,8.623342241567347
1770449031344,133,5,5.390971172823923,7.921254826389483,8.167741136812015
1770449031348,133,5,4.94395616023805,7.619739217375681,7.719671560011537
1770449031352,133,5,4.5951134675012355,7.445209921872059,7.368194579989678
1770449031356,132,4,4.303099498130228,6.950715283192959,7.0716562838732475
1770449031360,132,4,3.920481636380645,6.471781568636364,6.684145863431125
1770449031364,131,3,3.2934303706965773,6.156427810878351,6.0534551121261195
1770449031368,131,3,2.371661751599936,5.306293398587611,5.129541341554587
1770449031372,129,1,1.2530331905704768,3.816780380497905,4.009458529205979
1770449031376,128,0,0.1206630939754402,2.6276168470577845,2.8754146757811747
1770449031380,127,-1,-0.8851058603371338,1.7291576015892398,1.866964974150952
1770449031384,126,-2,-1.7542705015132491,1.0684187129224494,0.9936050187638849
1770449031388,126,-2,-2.584312646389481,0.2469015144463644,0.1583293980135989
1770449031392,124,-4,-3.478337753667554,-0.926049311247171,-0.740363480262574
1770449031396,124,-4,-4.453822708652757,-1.7729903374492753,-1.7185639645101611
1770449031400,122,-6,-5.421858345916083,-2.726018118145377,-2.6877115513788565
1770449031404,122,-6,-6.234949662008635,-3.526184131714185,-3.502130277666704
1770449031408,121,-7,-6.7678252245324595,-4.106940004676695,-4.038040090840597
1770449031412,121,-7,-6.989211056914012,-4.522730318708829,-4.264096944879923
1770449031416,121,-7,-6.983794045777805,-4.230747793309598,-4.263785393544756
1770449031420,121,-7,-6.903369248195293,-4.143715766686279,-4.187715902213498
1770449031424,121,-7,-6.873678819819448,-4.206656896263504,-4.161141422748697
1770449031428,121,-7,-6.922785373726574,-4.2723852570600735,-4.212456768358935
1770449031432,121,-7,-6.9821820171457185,-4.458483556007873,-4.274112845464189
1770449031436,121,-7,-6.953645065874764,-4.183824929531865,-4.248794574468413
1770449031440,121,-7,-6.788517563954831,-4.2319654598394685,-4.087862216107917
1770449031444,121,-7,-6.523827676934234,-4.060792748239865,-3.827476159786616
1770449031448,122,-6,-6.251103055749899,-3.3877173338296167,-3.558423225974237
1770449031452,122,-6,-6.040474782555335,-3.3541531328160636,-3.3509391262569523
1770449031456,122,-6,-5.8827618152409045,-3.2361093959816807,-3.1963714600903144
1770449031460,122,-6,-5.7061457774011695,-3.1941386743737517,-3.02313959427403
1770449031464,122,-6,-5.4577303542038065,-3.048737916723901,-2.778304203650451
1770449031468,123,-5,-5.172153637768985,-2.379088716868792,-2.4965800879898445
1770449031472,123,-5,-4.956374528799704,-2.353027974551477,-2.285046698136731
1770449031476,123,-5,-4.900456647711355,-2.1980617920247543,-2.233453395165078
1770449031480,123,-5,-4.995817768080398,-2.2475390970769764,-2.332466707834844
1770449031484,122,-6,-5.133435971470942,-2.9306876083188462,-2.4727017825493296
1770449031488,123,-5,-5.178099808654675,-2.52035930217176,-2.519679223394435
1770449031492,123,-5,-5.051451529452276,-2.136211874154732,-2.3962478689378246
1770449031496,123,-5,-4.766247017558912,-2.4447732805284503,-2.1154714985279295
1770449031500,123,-5,-4.406850967925722,-1.944972999523468,-1.7609343725492763
1770449031504,124,-4,-4.079432595897615,-1.2252193750877114,-1.438060745988557
1770449031508,124,-4,-3.857323678822571,-1.2198009513016823,-1.220004955401864
1770449031512,124,-4,-3.752142768692615,-1.3744923831174092,-1.118284259495116
1770449031516,124,-4,-3.729707431580245,-1.240727366745958,-1.0986446096023263
1770449031520,124,-4,-3.7482815106500142,-1.0772305290970756,-1.1198641174996895
1770449031524,124,-4,-3.7781493083203928,-1.1197942943022785,-1.1531168529959557
1770449031528,124,-4,-3.796480110590056,-1.2620948405817731,-1.1758295537203434
1770449031532,124,-4,-3.785759022849908,-1.3341954628905186,-1.1698135122134548
1770449031536,124,-4,-3.747777929963865,-1.2498820949809708,-1.1361115506401702
1770449031540,124,-4,-3.7103217861851423,-1.061284484565231,-1.1024097592820477
1770449031544,124,-4,-3.7065903179907913,-1.103774960340979,-1.1021660413438603
1770449031548,124,-4,-3.7431105420498954,-1.263582807961333,-1.1419910851678148
1770449031552,124,-4,-3.788466370585581,-1.2967569125591225,-1.190562723570417
1770449031556,124,-4,-3.7924087790191345,-1.2887778719378709,-1.198096368442994
1770449031560,124,-4,-3.717473336216028,-0.996632607964802,-1.1274815181311784
1770449031564,124,-4,-3.5633870124919733,-1.137571019039354,-0.9779595140439774
1770449031568,124,-4,-3.3723811129161003,-1.227376277799466,-0.7909073346150728
1770449031572,125,-3,-3.2038408361635025,-0.2727375913184642,-0.6256675840976837
1770449031576,125,-3,-3.0837751173854144,-0.3511357066182863,-0.5089628900440515
1770449031580,124,-4,-2.9732132296376146,-0.8643707228021011,-0.4021533478667101
1770449031584,125,-3,-2.797627952231383,-0.291229987051725,-0.2304778718025757
1770449031588,125,-3,-2.512022503184957,-0.0135692359903443,0.0510616826216652
1770449031592,126,-2,-2.130935263851187,0.5040570517359686,0.4277828590545875
1770449031596,126,-2,-1.696798173713583,0.9128636650895824,0.8578002683669834
1770449031600,126,-2,-1.229126928486001,0.8777651512801528,1.3224448668434712
1770449031604,127,-1,-0.7038521105699966,1.9805453043678665,1.8454835434882075
1770449031608,128,0,-0.0743304541786693,2.760901929466127,2.4720585813824263
1770449031612,128,0,0.67677415852725,2.7105535457488745,3.2185663566259035
1770449031616,129,1,1.478957041615733,3.7756497516572938,4.015164910692395
1770449031620,130,2,2.1593570593009175,4.983411930276791,4.690380471992353
1770449031624,130,2,2.5142526648546575,4.929653330195901,5.041356866057579
1770449031628,130,2,2.4343092935072397,4.805867731425932,4.958671745402372
1770449031632,130,2,1.9878637783988808,4.710783653174064,4.509849048640816
1770449031636,129,1,1.3893820785726765,3.765283547168147,3.908541017759742
1770449031640,128,0,0.8656537226684384,3.031889084547693,3.3813857274770456
1770449031644,128,0,0.5131968347253848,2.890871258517798,3.0251260232857726
1770449031648,128,0,0.2573767217316365,2.8705692643814347,2.765040190893872
1770449031652,128,0,-0.0554131815747569,2.6868689330489053,2.44737260873658
1770449031656,127,-1,-0.5204151278574114,1.769220713243191,1.97743426624732
1770449031660,126,-2,-1.1147591938590438,1.0855768889852726,1.3790889534598911
1770449031664,126,-2,-1.7481436592120052,0.7957908826665978,0.7429772111465605
1770449031668,125,-3,-2.349406160196573,0.056815304802916,0.1395905655195684
1770449031672,125,-3,-2.9024618450198294,-0.5388555931709629,-0.4160328713422887
1770449031676,124,-4,-3.414375888794321,-0.920542190057536,-0.9317324324138494
1770449031680,124,-4,-3.863917198071254,-1.2787108160768623,-1.3862961842777035
1770449031684,123,-5,-4.192313502852604,-1.7747128883021088,-1.7198417570717424
1770449031688,123,-5,-4.354501585797903,-2.3810444156593777,-1.8857710356932855
1770449031692,123,-5,-4.376819886141707,-2.0549904832532597,-1.9102741936294232
1770449031696,124,-4,-4.342905469711745,-1.392102518636689,-1.878701039178148
1770449031700,123,-5,-4.308965735210388,-1.8000006036588532,-1.8486442147696007
1770449031704,123,-5,-4.249472990786074,-2.2341292321960413,-1.7937239932791424
1770449031708,123,-5,-4.108421549558825,-1.9042752664900375,-1.6562732637566109
1770449031712,124,-4,-3.8958358558905903,-1.5031321999614689,-1.4465219629435582
1770449031716,124,-4,-3.707673380011547,-0.9394891619754348,-1.2622131054253818
1770449031720,124,-4,-3.644075664335304,-1.1982249985489315,-1.203963325240945
1770449031724,123,-5,-3.719750830525243,-1.8843055126085797,-1.2844570832470348
1770449031728,124,-4,-3.852766017028264,-1.1628696201222404,-1.419358904992052
1770449031732,124,-4,-3.925556599433809,-1.3074449727495674,-1.4909306838223857
1770449031736,123,-5,-3.862741503872652,-2.03213453171967,-1.4265814554856409
1770449031740,124,-4,-3.681464553906223,-1.1446194203051774,-1.2481242276885491
1770449031744,124,-4,-3.48442233380673,-0.8827591760780826,-1.0617762807681344
1770449031748,124,-4,-3.382564490005057,-1.1859546977300517,-0.9765704010220384
1770449031752,124,-4,-3.363825280423455,-1.2431403174491449,-0.9718071976746104
1770449031756,124,-4,-3.137137267434153,-1.0737113688686026,-0.7465011560290842
1770449031760,126,-2,-1.999562117494854,0.8911203535261238,0.4048083797278221
1770449031764,129,1,1.1446976828553233,4.153831998608692,3.569415319868263
1770449031768,135,7,7.419610516141347,9.71683816541968,9.857030399848137
1770449031772,144,16,17.220755956383833,18.984372690975064,19.65277620598911
1770449031776,156,28,29.4067366821824,30.62128798928904,31.814929572167433
1770449031780,168,40,41.08326370856005,43.30426141868759,43.45885918936102
1770449031784,177,49,48.444611956643506,51.677521349380086,50.79345577603829
1770449031788,176,48,48.45457258788423,51.229808174783415,50.794853707987414
1770449031792,169,41,40.460098748095064,43.41455022295089,42.81330938988037
1770449031796,154,26,26.721715024912083,29.20095323184043,29.10117584101812
1770449031800,138,10,11.454189585078336,12.709420414150308,13.858033024096024
1770449031804,125,-3,-1.1095847293068657,0.3639862655998707,1.3032767275380088
1770449031808,119,-9,-8.514396135708077,-6.39242543345552,-6.112578530193205
1770449031812,117,-11,-10.751972425937558,-7.914389797472149,-8.375413713838874
1770449031816,119,-9,-9.594461866188237,-6.417146309293047,-7.244750922343568
1770449031820,120,-8,-7.230645639018705,-4.745377186365503,-4.897093599582783
1770449031824,122,-6,-5.147546241803926,-3.1104489516184883,-2.8143149413958692
1770449031828,123,-5,-3.816938407717085,-2.000433836137275,-1.4725387890512267
1770449031832,124,-4,-3.074965704864909,-1.1926053992520569,-0.7181254849357692
1770449031836,125,-3,-2.66789369722284,-0.2160132800386878,-0.3063839148809375
1770449031840,125,-3,-2.5164109486341206,0.1629727293622644,-0.1603593163143186
1770449031844,125,-3,-2.635621471396445,-0.1016933467478091,-0.2904676569813242
1770449031848,124,-4,-2.9549357495293216,-0.9049678385363646,-0.6190302458106773
1770449031852,124,-4,-3.27996983878333,-1.3426480156026617,-0.9478711684574794
1770449031856,124,-4,-3.4170687739428005,-0.994966873894005,-1.0848141814841166
1770449031860,124,-4,-3.3066450855728347,-1.0625463610343318,-0.9741697255051252
1770449031864,124,-4,-3.032965400431487,-0.8659453799403332,-0.7025049123128397
1770449031868,125,-3,-2.716793379685837,-0.0899956145223126,-0.3900466253346015
1770449031872,125,-3,-2.399562360772325,-0.1995410115185434,-0.07648424243148
1770449031876,125,-3,-2.0216307251789365,-0.0612250414924178,0.2987803257415622
1770449031880,126,-2,-1.506508807324673,0.9569641981057312,0.8118501276679864
1770449031884,126,-2,-0.868055215209279,1.1972811029743329,1.4479399915566424
1770449031888,127,-1,-0.2387341671433771,1.7969629133188036,2.074096097524707
1770449031892,128,0,0.2141325938811947,2.9989172222211025,2.5233420909016107
1770449031896,128,0,0.4187207421824922,2.68274819843185,2.72490929226418
1770449031900,127,-1,0.4634198853186047,2.285015019905412,2.768138070783361
1770449031904,128,0,0.5399270282991204,2.8460367907536543,2.8443149169829827
1770449031908,128,0,0.8185596412713532,3.1830785585128027,3.121995282577073
1770449031912,129,1,1.3537284898827735,3.6311576067136,3.654354103300922
1770449031916,129,1,2.0674881441945345,4.060119349754144,4.364041403249149
1770449031920,130,2,2.8017796153008874,4.935970777705197,5.094386959850214
1770449031924,131,3,3.409374550316571,6.179051228135283,5.698897067148381
1770449031928,131,3,3.834726550924384,5.907555720104398,6.122248484794302
1770449031932,131,3,4.128256602682486,5.863360628565761,6.41498822679891
1770449031936,132,4,4.388956335942012,6.922624452260123,6.675487397389272
1770449031940,132,4,4.696850545417357,6.995305581956884,6.982286601059934
1770449031944,132,4,5.086578174399475,7.218876758826402,7.369188803783019
1770449031948,133,5,5.549822947696517,7.82270906341415,7.828794706796996
1770449031952,133,5,6.037324892148543,8.006458695520244,8.313427968490393
1770449031956,134,6,6.467737602006948,8.765614431236965,8.742157580724271
1770449031960,134,6,6.763381408951371,9.17882037976132,9.036410367054176
1770449031964,134,6,6.895778038149577,9.041131843517492,9.167037127176442
1770449031968,134,6,6.89539051091536,9.027209485542532,9.16493432272005
1770449031972,134,6,6.8122919302570555,8.807904603015594,9.080699615591964
1770449031976,134,6,6.672142125781247,8.976289511877884,8.939403378149951
1770449031980,134,6,6.474865218315579,8.986421964529757,8.739962247855527
1770449031984,133,5,6.224474793438083,8.248202511395382,8.486632829324602
1770449031988,133,5,5.942109665214956,7.840328836698844,8.201990251339279
1770449031992,133,5,5.651593690288722,8.000480335154396,7.910624193348226
1770449031996,133,5,5.371925447701257,7.796771345448574,7.630748364506624
1770449032000,132,4,5.12911752834462,7.178839752295227,7.387247629539845
1770449032004,132,4,4.954055161809768,7.086952833363848,7.210734502507456
1770449032008,132,4,4.846643653751383,7.000455425312692,7.101376580444564
1770449032012,132,4,4.739983992541443,6.857369762622693,6.9924122570482785
1770449032016,132,4,4.510050436711302,6.94774965203343,6.760078360837711
1770449032020,131,3,4.032616602433264,6.0455691158007845,6.280890373401936
1770449032024,130,2,3.2490878515134605,5.245646030254278,5.496827784296521
1770449032028,130,2,2.202966546421338,4.8342075951676735,4.45097398569324
1770449032032,128,0,1.026852851370364,3.054555149412345,3.2749010322841734
1770449032036,127,-1,-0.1220443429529027,1.7303274842496512,2.1252132406495408
1770449032040,126,-2,-1.1476061061736016,1.326392760256141,1.0980989274658906
1770449032044,125,-3,-2.0611920903298513,-0.0540291278760296,0.1825054373706471
1770449032048,124,-4,-2.948736966578797,-0.8400482540021863,-0.7071375937700881
1770449032052,124,-4,-3.883631058504069,-1.2475426740815032,-1.6436282301753535
1770449032056,122,-6,-4.8559782940111615,-3.0037892889516455,-2.616392440111322
1770449032060,121,-7,-5.771219922722177,-3.8556372471623854,-3.5308751587370653
1770449032064,121,-7,-6.508164543012966,-3.925602627842149,-4.267008426701095
1770449032068,120,-8,-6.984238540313852,-4.894198028809669,-4.743477942276974
1770449032072,120,-8,-7.1921539367014296,-5.23329916051981,-4.953031573878856
1770449032076,120,-8,-7.202830584204856,-4.96522711128628,-4.965585588209494
1770449032080,120,-8,-7.133659315508934,-4.911274860198088,-4.897746024780319
1770449032084,120,-8,-7.089423039933304,-4.835676895370265,-4.854163341179102
1770449032088,120,-8,-7.111052902705668,-4.978563986826364,-4.875802843858672
1770449032092,120,-8,-7.170078390342309,-5.145223414592322,-4.934290402329658
1770449032096,120,-8,-7.205869602927765,-5.035723979076045,-4.969522526561842
1770449032100,120,-8,-7.167665326814379,-4.8308985577465755,-4.931452052203337
1770449032104,120,-8,-7.034511466316499,-4.902093271991818,-4.799177939395748
1770449032108,120,-8,-6.816644157623514,-4.88188814932213,-4.582217648224031
1770449032112,121,-7,-6.546981580551231,-4.263262632104726,-4.312912655827042
1770449032116,121,-7,-6.26208672685619,-3.8768365450699473,-4.027907799741843
1770449032120,121,-7,-5.982083303547115,-4.0061914345142355,-3.7475990614023567
1770449032124,121,-7,-5.710318364499459,-3.685117382540195,-3.4754732618756634
1770449032128,122,-6,-5.452753472780298,-3.097192756626165,-3.217745058069225
1770449032132,122,-6,-5.231931332665176,-3.051012115290173,-2.997215312735434
1770449032136,122,-6,-5.080771774245963,-3.057071965972836,-2.8465726730395833
1770449032140,122,-6,-5.02463115427056,-2.839717421484306,-2.790574396554024
1770449032144,122,-6,-5.062398263285911,-2.8060239826604785,-2.827816205289646
1770449032148,122,-6,-5.1536597893464196,-2.991144847338024,-2.9181234979540407
1770449032152,122,-6,-5.224109785755605,-3.134454386927978,-2.9875940093335527
1770449032156,122,-6,-5.196515734951516,-2.97009766407115,-2.9592553035510205
1770449032160,122,-6,-5.032939436644835,-2.9133039289094804,-2.7952952503797825
1770449032164,122,-6,-4.759284400547282,-2.708566783569226,-2.521685511900449
1770449032168,123,-5,-4.4528894439790445,-2.0872066023918423,-2.215653566306397
1770449032172,123,-5,-4.200856297725341,-2.0239068146716344,-1.963799868431931
1770449032176,123,-5,-4.058379789962344,-2.079850763617001,-1.8206589403992173
1770449032180,123,-5,-4.03079370184242,-1.7879222359030742,-1.791476773173006
1770449032184,123,-5,-4.079382929807053,-1.8152456853005976,-1.8382783975218249
1770449032188,123,-5,-4.141744109897147,-1.9821147090392583,-1.8994530397248248
1770449032192,123,-5,-4.163594600711088,-2.0991238389862454,-1.920791541748961
1770449032196,123,-5,-4.131517376615931,-2.026056771118298,-1.8884788299516535
1770449032200,123,-5,-4.080379826274164,-1.7990607824739544,-1.8371230119785629
1770449032204,123,-5,-4.061816962826609,-1.8138788745728691,-1.8181662323961252
1770449032208,123,-5,-4.098592615250864,-1.9559238004478712,-1.853918068816596
1770449032212,123,-5,-4.164740506255352,-2.122068479404036,-1.9181312574088352
1770449032216,123,-5,-4.202382958362129,-2.013273944983824,-1.953541508183787
1770449032220,123,-5,-4.154043474048551,-1.7677940678203012,-1.9037464451186707
1770449032224,123,-5,-3.9922470609993086,-1.8727801797175856,-1.741458908148986
1770449032228,123,-5,-3.7425111745249655,-1.8276733031235977,-1.4912797881498077
1770449032232,124,-4,-3.4853029434530898,-1.3085421791457472,-1.233053552179237
1770449032236,124,-4,-3.31502804612748,-0.766040304220666,-1.0616128920252124
1770449032240,124,-4,-3.2738922359289395,-1.0482474719220825,-1.0195085088492413
1770449032244,123,-5,-3.322511308494402,-1.5452240304655755,-1.066718012700581
1770449032248,124,-4,-3.3773806565251805,-1.1547923072855042,-1.1192052695627397
1770449032252,124,-4,-3.368237498746984,-0.9935574028996272,-1.107487874367725
1770449032256,124,-4,-3.256677279015874,-1.0437022187025704,-0.9943433948022422
1770449032260,124,-4,-3.02213233638923,-0.793783746711582,-0.7591267911099575
1770449032264,124,-4,-2.6586685134132466,-0.7345922506426215,-0.3947938365482248
1770449032268,125,-3,-2.188640363222676,-0.0155421092738139,0.0767855036332587
1770449032272,126,-2,-1.6601085725355045,0.9222045709779024,0.6070195367354894
1770449032276,126,-2,-1.1191113268570294,1.0019616543319176,1.1496188434772592
1770449032280,126,-2,-0.5897697203043175,1.216261861828787,1.6809590510634949
1770449032284,127,-1,-0.0807909649602987,2.239925436922781,2.1923651686364427
1770449032288,128,0,0.4041475063984412,3.0286383939478085,2.679315987251102
1770449032292,128,0,0.8651210093901074,2.8689021374472334,3.141585592078175
1770449032296,128,0,1.2939588957529913,3.0828548116884846,3.5718664834272915
1770449032300,129,1,1.6526463687464992,4.128412819265899,3.9327309554423007
1770449032304,129,1,1.8802060825274776,4.361112511023283,4.1625733203289075
1770449032308,129,1,1.9354453980640955,3.8874660997484014,4.219460383559963
1770449032312,129,1,1.827456829359767,4.034486552846232,4.112768752566521
1770449032316,129,1,1.599322138257309,3.92115803528773,3.8864259592262975
1770449032320,128,0,1.2898698200876118,3.280504110601053,3.5796117497686666
1770449032324,128,0,0.9177539523533264,3.267813999473087,3.2105379913522656
1770449032328,128,0,0.4975048754661133,2.922201483094795,2.793018117383109
1770449032332,127,-1,0.0573477342769042,2.0821565648504032,2.3549043058142543
1770449032336,127,-1,-0.37283683325472,1.7960297815684705,1.9261504536319345
1770449032340,126,-2,-0.7958645792076764,1.4977514706676422,1.5042418483609892
1770449032344,126,-2,-1.26305702948242,0.9861479080419472,1.0383669147439485
1770449032348,125,-3,-1.8438612213919623,0.2800101442142306,0.4596872754457006
1770449032352,125,-3,-2.562648274143476,-0.3240617179951131,-0.2560177819966662
1770449032356,124,-4,-3.346329314283761,-0.7652319301538038,-1.0361984770177457
1770449032360,123,-5,-4.031797023940658,-1.9362783838385615,-1.718374389325302
1770449032364,122,-6,-4.450126711126149,-2.5877177233023296,-2.133911281039531
1770449032368,123,-5,-4.536864935702222,-2.09277973228232,-2.2186220296948047
1770449032372,123,-5,-4.378497911625676,-2.0045429982901997,-2.059211764497044
1770449032376,123,-5,-4.154912124305956,-2.01770511621657,-1.8350471018960384
1770449032380,123,-5,-4.027270238659207,-1.7313163912218603,-1.706014951654118
1770449032384,123,-5,-4.053342914341228,-1.7406591632718698,-1.7289675706001857
1770449032388,123,-5,-4.175499750408991,-1.9695729894115537,-1.8466459189843456
1770449032392,123,-5,-4.274504608185719,-2.100310686664685,-1.9412592111786824
1770449032396,123,-5,-4.248705482784059,-1.9249297252267603,-1.9126495284203235
1770449032400,123,-5,-4.070691216205885,-1.814082439592834,-1.7338658895964034
1770449032404,123,-5,-3.792913514765352,-1.6399182708207634,-1.4562612086537656
1770449032408,124,-4,-3.506674448827859,-1.080913243859278,-1.1688933714286889
1770449032412,124,-4,-3.2854913382893796,-0.9692813854189004,-0.9432676939204474
1770449032416,124,-4,-3.151634578969994,-1.0608216765980574,-0.8017941686198771
1770449032420,124,-4,-3.08653083651548,-0.6747634962278348,-0.7293535687813555
1770449032424,124,-4,-3.0707671332201425,-0.7441517418010255,-0.7118235672727597
1770449032428,124,-4,-3.1126865423617867,-1.026954827036558,-0.7603517755211502
1770449032432,124,-4,-3.2173868001685566,-0.9382148355965638,-0.8763144171389585
1770449032436,124,-4,-3.2614154301549547,-1.1809810399103515,-0.926583680393528
1770449032440,124,-4,-2.7925268494134965,-0.4545701965293114,-0.449669079259881
1770449032444,127,-1,-0.8786118298117271,1.969388580199921,1.4873302091303044
1770449032448,131,3,3.776229069412534,6.325316486240423,6.1698964913834375
1770449032452,140,12,12.27619627688955,14.689067199260752,14.686552440629626
1770449032456,151,23,24.636985040482323,26.224860063612685,27.042725347687742
1770449032460,165,37,39.03147570652809,40.14054132829358,41.4135747228005
1770449032464,179,51,51.83973961693529,54.38360207170238,54.19256280612662
1770449032468,187,59,58.83776027481112,61.903494860019855,61.17206145801734
1770449032472,185,57,57.108510832166985,60.06358782977984,59.4453998040776
1770449032476,175,47,46.618223937912944,49.83360932388553,48.97827111001954
1770449032480,157,29,30.435653974138376,32.47401101423733,32.829262279279185
1770449032484,139,11,13.358157356333024,14.092717379585498,15.781365261608656
1770449032488,126,-2,-0.2716915087511218,1.2349046245295812,2.1647612249984585
1770449032492,120,-8,-8.26874832215544,-5.182238380780701,-5.840298416815673
1770449032496,117,-11,-10.94602581129338,-7.890969753856379,-8.54064657166348
1770449032500,117,-11,-10.193777316571593,-7.791951488338809,-7.811646894779898
1770449032504,119,-9,-8.135244662444354,-5.678199346985376,-5.762348036995881
1770449032508,121,-7,-6.197680710743596,-4.01874901718543,-3.815957368966174
1770449032512,122,-6,-4.912536138286367,-2.9153455841454825,-2.511297391802891
1770449032516,123,-5,-4.232065393743028,-2.1512875841151353,-1.8126249467860271
1770449032520,123,-5,-3.943524914126795,-1.521893509818649,-1.5156694420868866
1770449032524,124,-4,-3.889058152354691,-0.9744094845663032,-1.4632833197896595
1770449032528,123,-5,-3.973085901408993,-1.7171944195077251,-1.553872071482718
1770449032532,123,-5,-4.111820862815575,-2.2056829928819375,-1.6961080919849958
1770449032536,123,-5,-4.234183309913752,-1.8360701256587109,-1.8156204728347247
1770449032540,123,-5,-4.305067425048705,-1.8327237914603776,-1.8798282535922668
1770449032544,123,-5,-4.308792415564519,-1.6924394788817223,-1.8776784567616231
1770449032548,123,-5,-4.212976125683471,-1.965141525169066,-1.7790045219654227
1770449032552,123,-5,-3.976940635141323,-1.9963294437483048,-1.542175837636893
1770449032556,124,-4,-3.6055142337270176,-0.9712302303712008,-1.1701893132680756
1770449032560,124,-4,-3.179821663201672,-0.7550633078298543,-0.7431302399557911
1770449032564,124,-4,-2.8178195884296326,-0.7263005191930341,-0.3786464388528616
1770449032568,125,-3,-2.5897193947511017,0.024176763027969,-0.1470804765036042
1770449032572,125,-3,-2.4534089723150236,0.0602154599763606,-0.0068898852599279
1770449032576,125,-3,-2.2643612029262865,-0.0582400869331065,0.1857423777270321
1770449032580,125,-3,-1.8670460684294456,0.3838825857861383,0.5858355607146448
1770449032584,126,-2,-1.2081421120787583,1.0797755175360542,1.2464329746782967
1770449032588,127,-1,-0.3819818960398702,2.2552046885658363,2.0734006071627493
1770449032592,128,0,0.428587347435946,2.824537957255345,2.8848970859249405
1770449032596,128,0,1.066382917954207,3.173706439042469,3.524904538859814
1770449032600,129,1,1.4874803396408556,4.190408321995152,3.9495326870470464
1770449032604,129,1,1.7729206308740135,4.204396562472613,4.238667563520214
1770449032608,129,1,2.062530669723619,4.190855704093535,4.531176316010733
1770449032612,130,2,2.4520889198569806,4.849606767776458,4.922872436989623
1770449032616,130,2,2.928236483250678,5.200335010920309,5.400784291984783
1770449032620,131,3,3.3968268433055795,6.131208099833166,5.870901724261124
1770449032624,131,3,3.778270957752069,6.283995739958757,6.253886301350524
1770449032628,131,3,4.077380239494916,6.079803538653784,6.555168719620523
1770449032632,132,4,4.365275865253312,6.993705128247947,6.846182104738332
1770449032636,132,4,4.702417346345709,7.050215929187781,7.1867526541522695
1770449032640,132,4,5.0807800072846305,7.279187762980255,7.567695028629737
1770449032644,133,5,5.431260284488625,8.157906544186392,7.919321439366325
1770449032648,133,5,5.678091576967995,8.155759499509163,8.166633273487854
1770449032652,133,5,5.785529299027438,7.980391876014726,8.275534018148274
1770449032656,133,5,5.762467065041601,8.008107216699813,8.255736478577749
1770449032660,133,5,5.6423573997919085,8.38142034660726,8.139578780023971
1770449032664,133,5,5.470268438853589,7.998230110752422,7.970250437519038
1770449032668,132,4,5.29300167474709,7.358688847058491,7.793999781086096
1770449032672,133,5,5.133303612266817,7.747716005418134,7.634728143434256
1770449032676,132,4,4.965421563550796,7.2683745855002515,7.468101111870262
1770449032680,132,4,4.731060835957123,7.105732412312472,7.236236064394562
1770449032684,132,4,4.396520740160336,7.280655216081709,6.904862388390189
1770449032688,131,3,3.998632924075486,6.079101255578258,6.509963037684343
1770449032692,131,3,3.626772802036261,5.999461272229553,6.140274461286886
1770449032696,131,3,3.3467274988812994,6.074885193467342,5.861426733896373
1770449032700,130,2,3.1284577805713294,5.220762611248624,5.643911442946406
1770449032704,130,2,2.8406381046469855,5.260319827031555,5.357235059579327
1770449032708,130,2,2.32782719756238,5.006033448324272,4.846246728622716
1770449032712,129,1,1.5224756923011382,4.143492051542606,4.043101585218651
1770449032716,128,0,0.5012180334448488,2.877725392046308,3.0243003375228614
1770449032720,126,-2,-0.572281922930034,1.451944055357273,1.953522324575039
1770449032724,126,-2,-1.5709923228594325,1.010377048835065,0.9572062854303224
1770449032728,125,-3,-2.4813857355775335,0.2601378164082457,0.0479928241259686
1770449032732,124,-4,-3.3750368878494683,-1.096060726470022,-0.8455001862961424
1770449032736,123,-5,-4.321110310555121,-1.911959997048965,-1.7910055798895304
1770449032740,122,-6,-5.3197374917472775,-2.7128999604989614,-2.7875965309365647
1770449032744,121,-7,-6.293690995136205,-3.900313309897741,-3.758544925116353
1770449032748,120,-8,-7.12968080007772,-4.747345335158676,-4.591921582670839
1770449032752,120,-8,-7.740195615289236,-5.1621733214663985,-5.200947561867257
1770449032756,119,-9,-8.109901370233711,-5.7783404085646835,-5.569840383728348
1770449032760,119,-9,-8.297175398680524,-5.901462594884845,-5.756134282872791
1770449032764,119,-9,-8.387083648941521,-5.687035273868103,-5.844659796688081
1770449032768,119,-9,-8.428294640976334,-5.970624853403079,-5.884414237969817
1770449032772,119,-9,-8.406388737970868,-5.945914578476587,-5.861079839818281
1770449032776,119,-9,-8.278971464515497,-5.968420284933054,-5.732000379730472
1770449032780,119,-9,-8.03587050784433,-5.760319045151779,-5.48707396743419
1770449032784,120,-8,-7.718704131386559,-4.786911513998666,-5.168438721530895
1770449032788,120,-8,-7.382010861400429,-4.904832202756779,-4.830712829972632
1770449032792,120,-8,-7.04715631086758,-4.9893502038068505,-4.494608844258529
1770449032796,121,-7,-6.7008402225512285,-3.931800075090395,-4.146507488690034
1770449032800,121,-7,-6.330479523358838,-3.818794212454846,-3.774527958996696
1770449032804,121,-7,-5.955209062377896,-3.718063469902492,-3.3986059009624863
1770449032808,122,-6,-5.628677516021075,-2.9719236866367553,-3.072108842795184
1770449032812,122,-6,-5.413662107100511,-2.9289407404448897,-2.8566033091537433
1770449032816,122,-6,-5.340728544435491,-2.985801074730704,-2.781777205382049
1770449032820,122,-6,-5.373597861189322,-2.7939277038132952,-2.8118102368736806
1770449032824,122,-6,-5.408554272663286,-2.7247407472504945,-2.844388322671211
1770449032828,122,-6,-5.324582171691272,-2.9813021928649843,-2.759433939992331
1770449032832,122,-6,-5.067310490460077,-2.896473689861697,-2.50234607984573
1770449032836,123,-5,-4.705163809053243,-2.0473418543273656,-2.1407538078845336
1770449032840,123,-5,-4.395182010892272,-1.72327161788007,-1.8309477123065272
1770449032844,123,-5,-4.2699761934440685,-1.8138988263275888,-1.7048202424176178
1770449032848,123,-5,-4.336150831175717,-1.8731026078515616,-1.7686119917975651
1770449032852,123,-5,-4.46661594603996,-2.0260112112418405,-1.895995026495192
1770449032856,123,-5,-4.4888072027669095,-1.9119211070473576,-1.9160659986891797
1770449032860,123,-5,-4.304060312259319,-1.8815016194610883,-1.7311804514271236
1770449032864,123,-5,-3.961471449099228,-1.6352856301967882,-1.3897865961138645
1770449032868,124,-4,-3.636815894692644,-1.0649144068763905,-1.066118376665145
1770449032872,124,-4,-3.520211707919108,-0.8286006148826797,-0.9493136043789794
1770449032876,124,-4,-3.682262352338436,-1.1270875250627015,-1.1100219467000856
1770449032880,123,-5,-4.017844244119735,-1.6838380617952255,-1.4436657363478056
1770449032884,123,-5,-4.31423363614012,-1.8093623911777827,-1.738039699148893
1770449032888,123,-5,-4.391321244125861,-1.9289113148701005,-1.813450851692852
1770449032892,123,-5,-4.206643146918651,-1.9119669071082992,-1.6279313382125566
1770449032896,124,-4,-3.852797437068138,-1.1135519164610843,-1.2745517275154294
1770449032900,124,-4,-3.4666134049687365,-0.645524727908851,-0.8898375263196345
1770449032904,124,-4,-3.1413706759208697,-0.9031647601141164,-0.5655615822944957
1770449032908,124,-4,-2.9144795669598595,-0.8038933034540723,-0.3377256941106503
1770449032912,125,-3,-2.807269925661655,-0.0542494966749771,-0.2281985333137304
1770449032916,125,-3,-2.839378943974485,0.0073485180466787,-0.2586438600079321
1770449032920,124,-4,-2.99859422206037,-0.7389700456464814,-0.4179023225089022
1770449032924,124,-4,-3.222301275033786,-0.8560795882958496,-0.6424428449601296
1770449032928,124,-4,-3.425850812913379,-0.8134578213061396,-0.8462836164892575
1770449032932,124,-4,-3.543272441946977,-1.0910429170097915,-0.96317799709405
1770449032936,124,-4,-3.53637639046235,-0.9330408066169696,-0.9553674074627684
1770449032940,124,-4,-3.3775336006889582,-0.8084760300384863,-0.7955142652780667
1770449032944,124,-4,-3.040393530578865,-0.8020078754910762,-0.4575658742290325
1770449032948,125,-3,-2.5131545938519273,0.1394342732614133,0.0695778479031228
1770449032952,126,-2,-1.8205957993160633,0.9327130678847702,0.7607519569430274
1770449032956,126,-2,-1.0371842145837395,1.0482786197121947,1.5424705138148498
1770449032960,127,-1,-0.2780784769530973,2.209550074045747,2.3012956999543404
1770449032964,128,0,0.346060653959642,3.160520494826347,2.9270438708494972
1770449032968,128,0,0.8011051180996875,3.17576160771579,3.3840929915668387
1770449032972,129,1,1.1700445754251083,3.877578272069204,3.7535927974287935
1770449032976,129,1,1.5984312804518588,4.115618404793333,4.180960728927177
1770449032980,129,1,2.159453172577477,4.1176274953370395,4.740885596457181
1770449032984,130,2,2.7509761595676734,5.260667646784558,5.332174437195826
1770449032988,131,3,3.1403042363251177,6.062108448162677,5.721218683537073
1770449032992,131,3,3.1416212762819966,5.970149576879443,5.7211486486139
1770449032996,130,2,2.76442114314176,5.056469871029362,5.342470121228861
1770449033000,129,1,2.18924357725115,4.105603745065592,4.7677578059934245
1770449033004,129,1,1.6104482121710255,4.319962633567751,4.191342701687406
1770449033008,129,1,1.1158974172776446,3.947906101849913,3.6985312712306735
1770449033012,128,0,0.6982094235626752,3.1218466853798734,3.279874216494835
1770449033016,128,0,0.3308754304284151,2.894308313756042,2.9096069277754606
1770449033020,127,-1,0.0005432151880206,2.232860319865055,2.5767569560341004
1770449033024,127,-1,-0.3200856299288315,2.194537682905055,2.255419013362605
1770449033028,127,-1,-0.6927700607333793,2.0487162177225917,1.8833443584825431
1770449033032,126,-2,-1.1812525868090509,1.0520831218275792,1.3954749996169653
1770449033036,126,-2,-1.7904163240690656,0.9336400063123992,0.7860447342658659
1770449033040,125,-3,-2.437835332541071,0.2008414017258719,0.1375523545032577
1770449033044,124,-4,-2.9937032851408953,-0.8413688789700109,-0.4193743454976828
1770449033048,124,-4,-3.36529396766627,-0.8596400738915237,-0.7913584242751048
1770449033052,124,-4,-3.5544484412267487,-1.0837579593570066,-0.980659620423988
1770449033056,124,-4,-3.6342151254668336,-0.8913315239311848,-1.061378754366145
1770449033060,124,-4,-3.671704418301963,-1.0248763616918783,-1.1008286713063329
1770449033064,123,-5,-3.6799715118852774,-1.63179524856975,-1.1109492431289918
1770449033068,124,-4,-3.640697021177862,-1.0722601313740072,-1.0723054809195447
1770449033072,124,-4,-3.5545966286057307,-0.8681807748548016,-0.9857702035666698
1770449033076,124,-4,-3.4564363764400095,-1.1044012686347502,-0.8872490263838424
1770449033080,124,-4,-3.387225525603274,-0.8383542487325026,-0.8188576927264437
1770449033084,124,-4,-3.3630011030017837,-0.8353562486455361,-0.7970933184436881
1770449033088,124,-4,-3.3716406882200394,-0.9000230920391679,-0.8092404741100916
1770449033092,124,-4,-3.3952444330687097,-0.995576259988212,-0.835568137476735
1770449033096,124,-4,-3.4302754197785053,-1.0244088206975877,-0.8704156849514166
1770449033100,124,-4,-3.4776532100790516,-0.8892703463144072,-0.9143035327945146
1770449033104,124,-4,-3.5089092244605653,-0.8625113306438434,-0.9413380131616016
1770449033108,124,-4,-3.457222715608751,-0.8362388093945188,-0.8891052737986471
1770449033112,124,-4,-3.2728146510732685,-1.0887685619463985,-0.7110913759505038
1770449033116,124,-4,-2.9968493104465166,-0.906279721886112,-0.4477994744637807
1770449033120,125,-3,-2.726727830371538,-0.0497460482057381,-0.191058903078054
1770449033124,125,-3,-2.3927577043935084,0.2837803140560897,0.1374382824484565
1770449033128,126,-2,-1.450724746127301,1.0071625365252566,1.0883118327411831
1770449033132,129,1,1.2388735247392288,4.070325190071728,3.799003492945176
1770449033136,135,7,7.091602470841346,9.946652324642493,9.673145614134338
1770449033140,144,16,17.01486773760547,19.059840690630715,19.603209559583703
1770449033144,157,29,30.47516492102439,32.196586152537144,33.048402851828676
1770449033148,172,44,45.00117688034578,47.055986094849864,47.54344420012789
1770449033152,184,56,56.65562821498779,59.054090116304586,59.166693011846014
1770449033156,190,62,61.51854599482568,64.88649892219334,64.01361258667177
1770449033160,186,58,57.52569955330837,61.100895837287865,60.02661836893963
1770449033164,173,45,45.60706591056576,48.0417572338311,48.131129852896635
1770449033168,156,28,29.364997615580215,31.23619832738394,31.91721906896277
1770449033172,140,12,13.41313138843961,14.854310236519574,15.98464410630766
1770449033176,128,0,1.3524024960755945,3.1640619184079304,3.924976232271294
1770449033180,123,-5,-5.458869652631733,-2.162816185768798,-2.9038161513454135
1770449033184,120,-8,-7.802712294952657,-4.674468647255788,-5.27436800910694
1770449033188,120,-8,-7.531638925458026,-5.093506022223252,-5.025088214899139
1770449033192,121,-7,-6.386350406275309,-3.8203351695939327,-3.8866818545775126
1770449033196,122,-6,-5.366942851062088,-3.220597456975783,-2.8594443078424865
1770449033200,122,-6,-4.765250277979939,-2.774202948160892,-2.2441032601812245
1770449033204,123,-5,-4.528855472800411,-2.077690218094221,-1.9986589946024895
1770449033208,123,-5,-4.5613374917179055,-1.7303407933901789,-2.031703443936474
1770449033212,123,-5,-4.793108242906882,-2.1564632383968174,-2.2711212097983067
1770449033216,122,-6,-5.120274689966116,-2.963254007806817,-2.6064383999103713
1770449033220,122,-6,-5.380709566487332,-2.967630225690281,-2.8708072956434028
1770449033224,122,-6,-5.420307330476465,-2.971322886327901,-2.9104398989126077
1770449033228,122,-6,-5.179233724573658,-2.778056658231961,-2.668980203375243
1770449033232,123,-5,-4.719169282926343,-2.179280235558127,-2.2106674814543164
1770449033236,123,-5,-4.1777417929398375,-1.9147338744091744,-1.6727985539068235
1770449033240,124,-4,-3.688477779351037,-1.0642643547412909,-1.1868993471000877
1770449033244,124,-4,-3.315760995083852,-0.8633171857794877,-0.8159805147856374
1770449033248,124,-4,-3.037512592989598,-0.9249368829385184,-0.5383716982419808
1770449033252,125,-3,-2.7771458873798753,-0.0230971471393224,-0.2790070984752386
1770449033256,125,-3,-2.4592126650685335,-0.1059332221882458,0.0366455968122823
1770449033260,125,-3,-2.056816334363334,0.1170141090753871,0.4361323544275755
1770449033264,126,-2,-1.60537524207402,0.9547331865520476,0.885277438061665
1770449033268,126,-2,-1.1696989175742305,1.2141347317262898,1.319458776141638
1770449033272,127,-1,-0.7835320525488358,1.861294611685128,1.7039495509127525
1770449033276,127,-1,-0.4168718485295379,1.949009725129638,2.0680545187563175
1770449033280,127,-1,-0.0121036175987019,2.08837017898299,2.4699221288189985
1770449033284,128,0,0.4417471655846317,2.923172472513843,2.921541964816272
1770449033288,128,0,0.8793829479536233,3.2772660279399113,3.3577911872431336
1770449033292,129,1,1.2182113890948718,3.741547494715604,3.695227153790017
1770449033296,129,1,1.4531947858665537,4.088567998787255,3.928041042129556
1770449033300,129,1,1.6862023701923274,3.905849007080436,4.15836965838537
1770449033304,129,1,2.0481594573326256,4.085138167860441,4.518023618562262
1770449033308,130,2,2.584519687095406,5.125789717070157,5.052769201111335
1770449033312,131,3,3.217149288050689,5.843272183114326,5.683907663001808
1770449033316,131,3,3.8165364863532,6.020572324651173,6.281290007055913
1770449033320,132,4,4.307023775612034,6.905537925963123,6.769186966672313
1770449033324,132,4,4.704473562530277,7.097850800609589,7.163868233640046
1770449033328,132,4,5.059891386994455,7.063341486213742,7.516882173476795
1770449033332,133,5,5.372566766015758,7.9219289261629084,7.8278213090773106
1770449033336,133,5,5.564152638714787,7.917918000711071,8.018080740835408
1770449033340,133,5,5.5462465759978645,7.98335049095229,7.998574732863603
1770449033344,133,5,5.318637729137178,8.011358354781024,7.768684542201381
1770449033348,132,4,4.996439365597328,7.1012381494074,7.443955946149373
1770449033352,132,4,4.727683941077892,6.900850427697751,7.173245153994661
1770449033356,132,4,4.573749649969411,6.909605015422337,7.018009650241423
1770449033360,132,4,4.469264339020993,6.978265747888739,6.911959489111888
1770449033364,132,4,4.299201930448852,6.997907000940218,6.739352578751372
1770449033368,131,3,4.010145993115539,6.0855665950676086,6.447293074419333
1770449033372,131,3,3.6457968253732655,5.902310590458884,6.080649288523596
1770449033376,131,3,3.2857320293946666,5.894937637206762,5.719477691277561
1770449033380,130,2,2.9607921665312196,4.970313299582906,5.393936448647261
1770449033384,130,2,2.6262452426023906,4.985342964588984,5.058057698101157
1770449033388,130,2,2.209324525150792,5.092538308072216,4.638427888378206
1770449033392,129,1,1.6755395954144805,3.846089356466528,4.101386400606929
1770449033396,128,0,1.0421842985031464,2.968236629085065,3.4658642547538694
1770449033400,128,0,0.3331071718129057,2.8454477130164957,2.7561461841639896
1770449033404,127,-1,-0.4581768514673827,2.108305143968269,1.9643102955746217
1770449033408,126,-2,-1.350622216108207,0.9489889375345402,1.06994966734031
1770449033412,125,-3,-2.3370136871487883,-0.0393404836338922,0.0806125301221523
1770449033416,124,-4,-3.3781808027224773,-1.1441152747599208,-0.9630513307204124
1770449033420,123,-5,-4.427450713930563,-2.1056547719632057,-2.0136069443781106
1770449033424,122,-6,-5.444275022115708,-2.90795533215403,-3.0310642366464435
1770449033428,121,-7,-6.382606880220665,-4.10567841838143,-3.970313082570728
1770449033432,120,-8,-7.181000492845573,-4.948011905524857,-4.770297638151792
1770449033436,120,-8,-7.779886351564654,-5.3077210606282295,-5.371248970498802
1770449033440,119,-9,-8.156581487213073,-5.9350422055260665,-5.7500567109668665
1770449033444,119,-9,-8.345998965554424,-6.111746937722993,-5.941270593475005
1770449033448,119,-9,-8.423926471645384,-5.916636049381108,-6.0205879464663585
1770449033452,119,-9,-8.459418667599916,-6.139050802685522,-6.057254304405441
1770449033456,119,-9,-8.471944523553908,-6.183053536017184,-6.070955252392366
1770449033460,119,-9,-8.43025584215483,-6.03076248623074,-6.030473620684398
1770449033464,119,-9,-8.295138504537212,-6.103866042646812,-5.896556304037292
1770449033468,119,-9,-8.067203546837268,-5.866310182770327,-5.66997767866271
1770449033472,120,-8,-7.79409503134694,-5.2736855091664605,-5.398626627514574
1770449033476,120,-8,-7.530562770418371,-5.027509540266814,-5.136976877246687
1770449033480,120,-8,-7.293755010575114,-5.240854800414105,-4.901334731493777
1770449033484,120,-8,-7.057228277437353,-4.912825002659115,-4.664967742737892
1770449033488,121,-7,-6.779800959430935,-4.055298957063937,-4.387675803431507
1770449033492,121,-7,-6.43802172334132,-4.1376687690564875,-4.047121480449785
1770449033496,121,-7,-6.049169923448768,-4.145854477250126,-3.660418594468114
1770449033500,122,-6,-5.680249834163447,-3.195353227826207,-3.29355134627964
1770449033504,122,-6,-5.423467651791218,-2.9423962685310387,-3.0381392796809745
1770449033508,122,-6,-5.336318310670248,-3.0821228749546976,-2.9517278451049136
1770449033512,122,-6,-5.391410235098383,-3.089533347077317,-3.0071051048820054
1770449033516,122,-6,-5.484135595636256,-3.2578145160537932,-3.0999138729186124
1770449033520,122,-6,-5.494158659093942,-3.0877856638613337,-3.110228374564561
1770449033524,122,-6,-5.354463340426299,-3.0894069527129577,-2.9712981015381805
1770449033528,122,-6,-5.084326349935647,-2.9428069084918635,-2.7023327971387445
1770449033532,123,-5,-4.770063613163573,-2.2434182722929537,-2.389504705516268
1770449033536,123,-5,-4.509430814919887,-2.141682565143314,-2.130467609502511
1770449033540,123,-5,-4.35981935371354,-2.2305847107906525,-1.9823162445047224
1770449033544,123,-5,-4.324068682248607,-1.9803263659043695,-1.9473782441624077
1770449033548,123,-5,-4.3702226025564705,-2.055122764276629,-1.9933570881881817
1770449033552,123,-5,-4.4546782046372995,-2.171132960098393,-2.076878786061119
1770449033556,123,-5,-4.5295740247138365,-2.2097232498167347,-2.151001559366378
1770449033560,123,-5,-4.5426419372651194,-2.23577115545591,-2.1646227174634385
1770449033564,123,-5,-4.450232392438743,-1.9639066554409537,-2.0743761076880016
1770449033568,123,-5,-4.252157893851332,-2.1129478531876154,-1.8787559627827513
1770449033572,123,-5,-4.0232035909880794,-2.126032181976174,-1.6507649375380384
1770449033576,124,-4,-3.889552830420079,-1.269997674859221,-1.516391354589845
1770449033580,124,-4,-3.9336506093241974,-1.2417072820282575,-1.5595908717077167
1770449033584,123,-5,-4.102434017022161,-1.9444612073631695,-1.7283955875293833
1770449033588,123,-5,-4.2270498539577,-2.191365015176903,-1.8534292161536872
1770449033592,123,-5,-4.1592877474340515,-2.035341756356487,-1.7856828382030203
1770449033596,124,-4,-3.897972871327883,-1.4193834793047988,-1.5243811566832282
1770449033600,124,-4,-3.5837179632290104,-1.0984945645204731,-1.2110243088257726
1770449033604,124,-4,-3.3770285158467805,-1.1213445910597364,-1.005899479991692
1770449033608,124,-4,-3.340828624898943,-1.0401274691418263,-0.970613503744466
1770449033612,124,-4,-3.4211539943467786,-1.2066149944037194,-1.0503563842648784
1770449033616,124,-4,-3.515418637648252,-1.301519188476847,-1.1432143189447883
1770449033620,124,-4,-3.5500352952082994,-1.2132859603261532,-1.1770811922015922
1770449033624,124,-4,-3.5056901911524463,-1.0522345383638825,-1.1333163225607952
1770449033628,124,-4,-3.391511889988335,-1.114454064758256,-1.0202276108939796
1770449033632,124,-4,-3.210090167635001,-1.1724326580089617,-0.8391571065602941
1770449033636,125,-3,-2.943927427304724,-0.3797347623575322,-0.5723995527579948
1770449033640,125,-3,-2.564963448243755,-0.1329993205919182,-0.1927219191319391
1770449033644,125,-3,-2.059342005436802,-0.1910379770757133,0.3130376093480369
1770449033648,126,-2,-1.454771562363328,1.0402890916710554,0.917194021590724
1770449033652,127,-1,-0.8252881118981734,1.6104442755303736,1.54612127090721
1770449033656,127,-1,-0.2580773876459385,1.799016048046699,2.113061206692944
1770449033660,128,0,0.196824734268409,2.7040759447734706,2.5682543256452814
1770449033664,128,0,0.5542320455534275,2.8766975429410953,2.9265027512077273
1770449033668,128,0,0.8765761950599691,3.039043229522546,3.249907352234476
1770449033672,129,1,1.2231395421663906,3.4757520175229604,3.5972013265407656
1770449033676,129,1,1.6027877283203282,3.99208757516443,3.97680676271509
1770449033680,130,2,1.962844665118595,4.414713311126675,4.336209147939881
1770449033684,129,1,2.2152391746365323,4.188944966531455,4.588071003862062
1770449033688,130,2,2.279026177098188,4.687490708996563,4.651946650558748
1770449033692,130,2,2.119496863333044,4.759193461889144,4.492959942809142
1770449033696,129,1,1.7649143120444326,3.742029092665737,4.139086041414929
1770449033700,129,1,1.286062328542863,3.535267313809519,3.661076402017926
1770449033704,128,0,0.7531566693552649,3.1827355398235375,3.128976176801298
1770449033708,128,0,0.208664318182254,2.50933435111868,2.5848390056339134
1770449033712,127,-1,-0.3278542333357901,2.051333234764591,2.048152933646912
1770449033716,127,-1,-0.8440951036152664,1.2959352622812024,1.5316996220647976
1770449033720,126,-2,-1.3301169710949632,1.0214693999367286,1.0458853387380511
1770449033724,126,-2,-1.7816587007024791,0.6709378190377668,0.5949925517846875
1770449033728,125,-3,-2.2013980343465045,-0.0738714237817768,0.1760717994071967
1770449033732,125,-3,-2.596473046659291,-0.2815632888730528,-0.2183694097900708
1770449033736,125,-3,-2.9736811713964246,-0.5622234416835306,-0.5954368858662114
1770449033740,124,-4,-3.334076820487965,-0.9835214593373148,-0.9560938594804922
1770449033744,124,-4,-3.673008117793464,-1.5018185480467432,-1.295074204056224
1770449033748,123,-5,-3.9854614654811424,-1.8081803166722508,-1.6069048251341065
1770449033752,124,-4,-4.262693771215044,-1.6672574125662305,-1.8831802760364489
1770449033756,123,-5,-4.475919595949085,-2.1768474604073806,-2.0957450956015697
1770449033760,123,-5,-4.572023657840479,-2.388826925456136,-2.1914689112718984
1770449033764,123,-5,-4.504465940858209,-2.165519627335109,-2.1232900214999617
1770449033768,123,-5,-4.279520479892074,-2.1089061622712695,-1.8974712777398397
1770449033772,124,-4,-3.971347546178902,-1.4876229154754412,-1.5889929880117952
1770449033776,124,-4,-3.687707145834173,-1.3027784778017608,-1.3063177959138854
1770449033780,124,-4,-3.5155713065998966,-1.3758838925358954,-1.1359319243933623
1770449033784,124,-4,-3.486345916754686,-1.1387903659137502,-1.107615943498907
1770449033788,124,-4,-3.5714432682843964,-1.2218543341096986,-1.1911222793641256
1770449033792,124,-4,-3.695840022345781,-1.3831182455872462,-1.3110735274985328
1770449033796,124,-4,-3.763191759119289,-1.4507049842433313,-1.3729894363781816
1770449033800,124,-4,-3.6964310917024488,-1.2587466784284749,-1.303630377218925
1770449033804,124,-4,-3.485729437447503,-1.277291544462985,-1.0968542492338689
1770449033808,124,-4,-3.2051476785818025,-1.1321111110246598,-0.8269517236566108
1770449033812,125,-3,-2.9398330181484695,-0.495503745162289,-0.573742043848946
1770449033816,125,-3,-2.5974804563625904,-0.3898531836442052,-0.2358913691740638
1770449033820,126,-2,-1.6736229894452128,0.6686457647463684,0.6976476730011456
1770449033824,129,1,0.8500567217127477,3.746270287880998,3.242935583559184
1770449033828,134,6,6.263333269269607,8.834645253270757,8.678103887341116
1770449033832,143,15,15.459868038647429,17.482434216998165,17.882897769818374
1770449033836,155,27,28.065538706307436,29.64012705488031,30.47658358771635
1770449033840,169,41,41.89779742376856,43.57724575669373,44.2819714659572
1770449033844,181,53,53.31305607387899,55.83010607502277,55.66951896237143
1770449033848,187,59,58.55209292282469,61.66856585390734,60.89433158222579
1770449033852,184,56,55.49615704683297,58.58380291684548,57.84434386138087
1770449033856,173,45,44.8218103787973,47.46214297722983,47.19228044302979
1770449033860,157,29,29.789372904397528,31.69051064265399,32.187169590009184
1770449033864,141,13,14.723189735128283,15.724682813735235,17.14069647153722
1770449033868,130,2,3.080620550253638,4.758474979973048,5.501671593748332
1770449033872,125,-3,-3.763071471815202,-0.451381260026543,-1.355532295921407
1770449033876,122,-6,-6.450659903104812,-3.5542823626307576,-4.065982843930181
1770449033880,121,-7,-6.634406399224282,-4.3082250122275125,-4.269277887724353
1770449033884,122,-6,-5.865045778098069,-3.358513301359292,-3.5062578949359904
1770449033888,122,-6,-5.028275684229287,-3.216468126388891,-2.6617104162650387
1770449033892,123,-5,-4.4086184255738505,-2.497228115492982,-2.027754363526112
1770449033896,124,-4,-4.031668774748434,-1.5483745290190738,-1.6399303233614426
1770449033900,124,-4,-3.9027619137020046,-1.3409003017357102,-1.509237335702755
1770449033904,124,-4,-4.0206524529718335,-1.396828659133469,-1.633106350777637
1770449033908,123,-5,-4.303815464940802,-2.2020092769415265,-1.9240779413387732
1770449033912,123,-5,-4.599502859641478,-2.5743128543941385,-2.2239790250441884
1770449033916,123,-5,-4.786276010701599,-2.451842815756885,-2.410124746693827
1770449033920,123,-5,-4.847721293023747,-2.5153268148628305,-2.4686793482182505
1770449033924,123,-5,-4.831725264942903,-2.234771662971389,-2.4508173642922655
1770449033928,123,-5,-4.746727206868918,-2.432475915119591,-2.366417009880646
1770449033932,123,-5,-4.5171536162838954,-2.3782999065233383,-2.1392481894430393
1770449033936,124,-4,-4.054495434820712,-1.6601518540109117,-1.67925597694357
1770449033940,124,-4,-3.377013805782529,-1.3672578224488632,-1.0034728897702694
1770449033944,125,-3,-2.653430040319133,-0.4015955647502212,-0.280421806038944
1770449033948,126,-2,-2.106727885614544,0.6648915964267554,0.266079071070056
1770449033952,126,-2,-1.8448048494802136,0.503355721540542,0.5272083381549102
1770449033956,126,-2,-1.7691216270606038,0.4095533089705889,0.6015632077152695
