timestamp_ms,ecg_u8_raw,ecg_counts_raw_int,ecg_counts_filt_monitor,ecg_counts_filt_diagnostic,ecg_counts_filt_st
1769246053740,124,-4,-4.279295162074607,2.2315893394280333,2.2101046551110777
1769246053744,124,-4,-4.141622376517644,1.9891333841915104,2.351681541150512
1769246053748,124,-4,-3.855033035533692,2.2243026585709087,2.642874117051721
1769246053752,125,-3,-3.538797932584961,3.0877931739906064,2.968883793768119
1769246053756,125,-3,-3.3379218589684547,3.310194798035452,3.185432468304226
1769246053760,125,-3,-3.28251275737063,3.177554713534174,3.2569923987137113
1769246053764,125,-3,-3.25211567729121,3.1360962024006165,3.2951080536601087
1769246053768,125,-3,-3.105688372550765,3.185964912150813,3.435782508613619
1769246053772,125,-3,-2.8544496606435423,3.2125785196294747,3.673618175455468
1769246053776,125,-3,-2.644822371315425,3.2910241932227455,3.877743884566824
1769246053780,126,-2,-2.4151612263844253,4.317541833512426,4.123538528132196
1769246053784,128,0,-1.3937289814336262,6.0896811881991155,5.18154564582829
1769246053788,131,3,2.0716456411124993,9.343094853413117,8.686237604351659
1769246053792,138,10,9.86133000579456,16.148441485589302,16.49680522469291
1769246053796,149,21,22.65866098241926,27.460555433671992,29.28794056011111
1769246053800,165,37,38.6125682863091,43.29990958376105,45.2170550663935
1769246053804,182,54,53.29754738238216,60.169531101053686,59.87572222025342
1769246053808,192,64,61.49489856985153,70.42933159031249,68.06024123408953
1769246053812,190,62,59.92016803496439,68.00883849084053,66.49454010186004
1769246053816,176,48,49.08709191007859,54.74233612052357,55.69271963599395
1769246053820,160,32,32.99096037410281,37.96953845862103,39.6401258651003
1769246053824,144,16,16.879595233886903,22.708705603754343,23.565975146657188
1769246053828,133,5,4.682584540556461,11.043439029181826,11.383028051709728
1769246053832,126,-2,-2.3320529156179752,4.5697837923946,4.356475460865282
1769246053836,124,-4,-5.188511573904508,2.350305314533171,1.475378152720464
1769246053840,123,-5,-5.804013042946407,1.3012498737893057,0.8420350518115232
1769246053844,122,-6,-5.691304745223938,0.5670763770462823,0.9567305379110967
1769246053848,122,-6,-5.492615298447132,0.1810049700895128,1.1767847156673792
1769246053852,122,-6,-5.280614740784879,0.666846344143845,1.417219295197785
1769246053856,124,-4,-5.040075985164075,2.2835829046339136,1.6780106557358092
1769246053860,124,-4,-4.850746310240613,2.4520978290138906,1.872280217575784
1769246053864,123,-5,-4.777160702224281,1.506407296971262,1.941208198212789
1769246053868,123,-5,-4.767175670986541,1.33239149684837,1.9490633592744755
1769246053872,123,-5,-4.719418362543163,1.6846664502328763,2.004144778405982
1769246053876,124,-4,-4.596747649467336,2.3277668333567223,2.1402269319122307
1769246053880,124,-4,-4.42276089998458,2.5083740552047304,2.3256912160385332
1769246053884,124,-4,-4.191164131937773,2.532514799201577,2.5630944836553944
1769246053888,124,-4,-3.841375606878132,2.4025068220339914,2.9161134219596905
1769246053892,124,-4,-3.3492875611749033,2.767143542302276,3.4136000486787133
1769246053896,126,-2,-2.807918257790674,4.302479417850988,3.96325001224329
1769246053900,126,-2,-2.369743716827503,4.662347968826694,4.409653264994332
1769246053904,126,-2,-2.099083277041359,4.428860145828182,4.686626384575021
1769246053908,126,-2,-1.9052198047299929,4.641317416885029,4.886365627726669
1769246053912,126,-2,-1.6334876478074096,4.6267206106875225,5.165654877099481
1769246053916,127,-1,-1.2068211567121994,5.532028235145027,5.601023105991497
1769246053920,128,0,-0.6664076709391382,6.558421682533304,6.148880316928676
1769246053924,128,0,-0.0956515613911248,6.581836307943696,6.725031571938426
1769246053928,128,0,0.4585600696111644,6.646171281183653,7.284388236637268
1769246053932,129,1,0.9863838571434096,7.6668734498755775,7.818732049319046
1769246053936,130,2,1.4776285609969084,8.641463414947046,8.317307085585671
1769246053940,130,2,1.916681879098095,8.497417015306361,8.763332825885167
1769246053944,130,2,2.306819357687411,8.789013368678118,9.160348233422315
1769246053948,131,3,2.681818033427258,9.500968520874808,9.542981353542874
1769246053952,131,3,3.0968027036014725,9.92968667451243,9.965933590504006
1769246053956,132,4,3.6108848300460874,10.47504804811324,10.486928282399806
1769246053960,132,4,4.256794057197496,10.751382214716664,11.138181950444825
1769246053964,133,5,4.999635888932167,11.66565059790164,11.88584955825104
1769246053968,134,6,5.724237321373737,12.673348835505776,12.616287012505724
1769246053972,134,6,6.289794275003145,12.910244652707709,13.1892804295635
1769246053976,135,7,6.63008179569275,13.533107972718964,13.537801866691746
1769246053980,135,7,6.819879834523799,13.85403155735055,13.735296460575317
1769246053984,135,7,7.036720417096925,13.605794818834704,13.958789987533438
1769246053988,135,7,7.427266611656496,13.862636079382366,14.355501770115286
1769246053992,136,8,7.983186754415406,14.810289455978156,14.917584137598418
1769246053996,137,9,8.543692396280122,15.721975845276582,15.484056535910211
1769246054000,137,9,8.929303687184238,15.801190946944963,15.875438520059031
1769246054004,137,9,9.081325594946549,15.70997680900536,16.033826729691768
1769246054008,137,9,9.081873922346244,15.882993115949215,16.041961378839744
1769246054012,137,9,9.0532252711308,15.8590790828874,16.021491917051176
1769246054016,137,9,9.039359231733592,15.787081318029417,16.014972108670882
1769246054020,137,9,8.966380160405567,15.856800344222927,15.947710789434636
1769246054024,137,9,8.697758483771578,15.723243933922127,15.683855070632246
1769246054028,136,8,8.125435014652304,14.98153773076564,15.11698180664832
1769246054032,135,7,7.223125141908993,13.829897207789967,14.221848255600356
1769246054036,134,6,6.036724067174739,12.927490246820147,13.04363128890585
1769246054040,133,5,4.6421697463026454,11.836181687150525,11.656571076476723
1769246054044,131,3,3.1063494506030382,9.811369359282086,10.126866895844003
1769246054048,129,1,1.4631252704663558,8.019187549284974,8.489208997175583
1769246054052,128,0,-0.2839058038861912,6.839462827778293,6.748058315614001
1769246054056,126,-2,-2.119753381636669,5.058258083335386,4.9184252312654255
1769246054060,124,-4,-3.9658260611095706,2.789970555481261,3.078889045738582
1769246054064,122,-6,-5.67588947809276,0.96656569442943,1.3760739858182085
1769246054068,121,-7,-7.093558748739984,-0.0528744291161773,-0.0337463947693912
1769246054072,120,-8,-8.118730016456446,-1.0131269721467877,-1.051450199857994
1769246054076,119,-9,-8.734976449947947,-1.958393560584871,-1.661406157484266
1769246054080,119,-9,-9.001328257585325,-2.1066495365557025,-1.922433471160386
1769246054084,119,-9,-9.029950095963962,-2.019738486076049,-1.9459240852270083
1769246054088,119,-9,-8.95443775524735,-2.0119851105277795,-1.8648112143357336
1769246054092,119,-9,-8.889541855844792,-1.946407319595779,-1.793394422208117
1769246054096,119,-9,-8.895583687672072,-1.934434689552584,-1.79182880617644
1769246054100,119,-9,-8.963450833770887,-2.006580956850888,-1.8514995801622005
1769246054104,119,-9,-9.026796384650494,-2.0452168119677365,-1.9072063639192165
1769246054108,119,-9,-9.00003843210057,-1.8900223870299395,-1.87424920445722
1769246054112,119,-9,-8.832558702643327,-1.9950674662153176,-1.7016703359378096
1769246054116,119,-9,-8.552173882138003,-1.766611006539875,-1.4160257919240666
1769246054120,120,-8,-8.25803925161496,-1.0653474419597844,-1.1156023799404169
1769246054124,120,-8,-8.0493015888086,-0.9114389056381512,-0.8997414791671936
1769246054128,120,-8,-7.938773531667039,-0.9139495282321376,-0.7819045988141426
1769246054132,120,-8,-7.832257138143627,-0.9282552081802136,-0.6682476493775482
1769246054136,120,-8,-7.601781966800218,-0.6765479992393466,-0.4308570376470522
1769246054140,121,-7,-7.193001160172418,-0.1013420856103142,-0.0154394731424467
1769246054144,121,-7,-6.6759658993940585,0.2700178725816045,0.507863128519352
1769246054148,122,-6,-6.199918204330613,0.9450623728003258,0.9897767301841398
1769246054152,122,-6,-5.89219372238107,1.3241044631522194,1.303112621755448
1769246054156,122,-6,-5.782643420417011,1.1616642949520948,1.418509274172906
1769246054160,122,-6,-5.808355088796146,1.1579823227414634,1.3995677067911751
1769246054164,122,-6,-5.880656695090964,1.1261715869071578,1.3351688512751974
1769246054168,122,-6,-5.943429140926158,1.1408510456258796,1.2806051991971614
1769246054172,122,-6,-5.972438761254256,1.2480058788746553,1.2587459258686815
1769246054176,122,-6,-5.937825859521062,1.3151688447966254,1.2989199336168626
1769246054180,122,-6,-5.794990365430827,1.1226229202082547,1.446751550422135
1769246054184,122,-6,-5.529840795792674,1.248644317886249,1.7178483696439106
1769246054188,123,-5,-5.204988791108121,2.0943514784693056,2.0498959962747314
1769246054192,123,-5,-4.936194176076435,2.393770869145507,2.326083592679799
1769246054196,123,-5,-4.806605279862858,2.2621890136945457,2.4623855090140343
1769246054200,123,-5,-4.804510599141636,2.285051949873216,2.4707682219837626
1769246054204,123,-5,-4.847495324792691,2.169329759964713,2.434325444623998
1769246054208,123,-5,-4.863275461579171,2.24387549429496,2.425411807552475
1769246054212,123,-5,-4.845409956702348,2.358346692745078,2.44999392911353
1769246054216,123,-5,-4.8372551823896695,2.3746046026130836,2.4644915033534716
1769246054220,123,-5,-4.86974149587106,2.3098578627226622,2.4383241080690867
1769246054224,123,-5,-4.915597826798923,2.1877220898554683,2.399208218415888
1769246054228,123,-5,-4.900388499189248,2.3377549836565468,2.4215817313828745
1769246054232,123,-5,-4.759534380414486,2.3284241731610567,2.569591902338368
1769246054236,123,-5,-4.493910797804622,2.534160959893054,2.841859615425975
1769246054240,124,-4,-4.178080000444213,3.238734831208791,3.163631897180236
1769246054244,124,-4,-3.91384872699036,3.345886065404992,3.433520247467747
1769246054248,124,-4,-3.768243063230809,3.254021761392194,3.5853444186040555
1769246054252,124,-4,-3.743507661566155,3.4983734162257196,3.617297524907295
1769246054256,124,-4,-3.79071197719751,3.480089374943081,3.577779733018809
1769246054260,124,-4,-3.8452039540071183,3.375507609299203,3.5305354658294097
1769246054264,124,-4,-3.8613071730998176,3.319118907587864,3.5209365291528245
1769246054268,124,-4,-3.8332094627637097,3.326768430292382,3.555172280305742
1769246054272,124,-4,-3.79136398167944,3.54089314233829,3.603180746770039
1769246054276,124,-4,-3.7740053305114727,3.5278787137732173,3.626823539054015
1769246054280,124,-4,-3.7949900833140298,3.4284907263143687,3.612312479500975
1769246054284,124,-4,-3.834673424988093,3.3640052551488533,3.579430968349564
1769246054288,124,-4,-3.8563383757645817,3.328587664287565,3.564821001530497
1769246054292,124,-4,-3.8259635342865104,3.654938438127995,3.602191997619968
1769246054296,124,-4,-3.71904285058688,3.5047586057842315,3.7158940980237185
1769246054300,124,-4,-3.5202021225427194,3.549530413986765,3.921402123387376
1769246054304,125,-3,-3.2255230438452323,4.348992183534449,4.222640212446844
1769246054308,125,-3,-2.846473191942117,4.373563506673721,4.60798446675702
1769246054312,125,-3,-2.411421769597787,4.744605533177541,5.049092353634691
1769246054316,126,-2,-1.96226086704357,5.48588644255773,5.504370413036545
1769246054320,126,-2,-1.5405535800971273,5.684356607951317,5.932570703428875
1769246054324,127,-1,-1.1640195055017846,6.297880374796242,6.316151480074684
1769246054328,127,-1,-0.8111771944997543,6.473922636577985,6.67654505991745
1769246054332,127,-1,-0.4335652718970268,6.766736053007794,7.061727515263117
1769246054336,128,0,0.0070165402795252,7.529400752845337,7.509079715335387
1769246054340,128,0,0.4993327414347672,7.778541133606554,8.00696902034753
1769246054344,129,1,0.9652448750906992,8.255384933351888,8.477911765290665
1769246054348,129,1,1.2780733446070012,8.59926726594046,8.796421080233117
1769246054352,129,1,1.3189991288448497,8.738336344883894,8.844220749764498
1769246054356,129,1,1.048935135483296,8.622813135047142,8.581718034212473
1769246054360,128,0,0.5452563367548184,7.846427042422366,8.085455829874508
1769246054364,128,0,-0.0370651036639801,7.188905757391877,7.509989125800867
1769246054368,127,-1,-0.5602395639664994,6.8147130312884325,6.993161622991884
1769246054372,127,-1,-0.981489807942914,6.5449579369988,6.578045414513203
1769246054376,126,-2,-1.3551638518535722,5.965390812308594,6.210590324696394
1769246054380,126,-2,-1.7652620093057283,5.590330275310677,5.806757156129869
1769246054384,126,-2,-2.2463629818065427,5.507846799491855,5.331645715575069
1769246054388,125,-3,-2.756141099079317,4.592278212353619,4.827713398858252
1769246054392,124,-4,-3.2213718817986403,3.815516382924182,4.36895574396276
1769246054396,124,-4,-3.609744822326146,3.835951131671956,3.987933723487732
1769246054400,124,-4,-3.945305979156646,3.7979532527082265,3.659597063220688
1769246054404,124,-4,-4.247048372385884,3.3812425080710584,3.3639861436958736
1769246054408,123,-5,-4.46980480400931,2.8018026908301623,3.146840697625688
1769246054412,123,-5,-4.530118088808653,2.660817246015501,3.0929010937671535
1769246054416,123,-5,-4.393406895683638,3.1186479160042615,3.23671369344415
1769246054420,124,-4,-4.123081297364287,3.602216602173961,3.513474362496115
1769246054424,124,-4,-3.8422517553239297,3.656797585983966,3.799397111145976
1769246054428,124,-4,-3.655998121407356,3.6161818289601015,3.990498569250922
1769246054432,124,-4,-3.603155531301759,3.8806267732765822,4.049402630284716
1769246054436,124,-4,-3.654065549302143,4.042667702981607,4.006000903638867
1769246054440,124,-4,-3.735811461937164,3.740896208339046,3.9324987528727298
1769246054444,124,-4,-3.774490131060473,3.629156414926698,3.90207644635184
1769246054448,124,-4,-3.7428665569848247,3.7080177793990754,3.941025275271084
1769246054452,124,-4,-3.6780953191719057,3.839776864850789,4.01059380130624
1769246054456,124,-4,-3.636816916414927,4.215000683725838,4.053069504967931
1769246054460,124,-4,-3.5973731523721626,3.6495023657524506,4.091481590208851
1769246054464,124,-4,-3.348845529005098,3.7986183617835367,4.3406476831237
1769246054468,126,-2,-2.402553927730069,5.649148539320631,5.2936962526653195
1769246054472,128,0,0.0218834083236245,7.88161656567555,7.733761808607033
1769246054476,132,4,4.838211253071865,12.4018316335439,12.573159692921385
1769246054480,140,12,12.702432854169512,19.450099596517287,20.459615559277815
1769246054484,151,23,23.499580522076293,31.186860482947026,31.26524362389505
1769246054488,166,38,35.96374072336688,45.25708271516762,43.71745441438758
1769246054492,173,45,47.66237302516232,53.38365534400347,55.393097666417574
1769246054496,181,53,55.48812764470505,60.97216483425392,63.204088831122405
1769246054500,187,59,56.71029036458714,66.93808968396783,64.43118994074038
1769246054504,180,52,50.3128870368037,59.780534851500406,58.05460852204366
1769246054508,165,37,37.83024305706997,44.64757003190648,45.59853408768727
1769246054512,149,21,22.878694892031863,29.192307385638877,30.671886491782693
1769246054516,136,8,9.467833958175994,16.093564168871108,17.278646413951794
1769246054520,128,0,0.1835298105706098,8.116361671229969,7.999015927943381
1769246054524,124,-4,-4.590545997339504,3.614157064295944,3.2155808429318764
1769246054528,122,-6,-6.127116832846388,2.0180062010567648,1.6634409650568056
1769246054532,122,-6,-6.138596672283964,1.8236724393441983,1.6427928278573924
1769246054536,121,-7,-5.801691315380394,1.4811076568061248,1.9849399921436417
1769246054540,122,-6,-5.50922395361367,1.833134758939197,2.2950276830687786
1769246054544,122,-6,-5.208762501303642,1.9699772305836492,2.6159396183805725
1769246054548,123,-5,-4.842252178010096,2.8333707754082855,2.995871742531471
1769246054552,124,-4,-4.506368960683163,3.992988500425998,3.3345275100312746
1769246054556,123,-5,-4.323901600983808,3.427873006683221,3.513693228060199
1769246054560,123,-5,-4.285602785307529,2.873563118225526,3.5511163137603017
1769246054564,123,-5,-4.262689727449112,3.1415771071693115,3.5803507805991286
1769246054568,124,-4,-4.137533429823749,3.6869981798656024,3.716153983157615
1769246054572,124,-4,-3.879786882162961,4.26170144581162,3.982440683487738
1769246054576,124,-4,-3.5141101877551164,4.182769954563035,4.351907889259082
1769246054580,124,-4,-3.0718680561163514,4.173379409004565,4.796366644919175
1769246054584,125,-3,-2.5951175557516653,5.0017412079874335,5.277786389542754
1769246054588,126,-2,-2.1462023656603453,5.8630741165231175,5.733740119990141
1769246054592,126,-2,-1.765724973513305,6.224097871623429,6.12055715519567
1769246054596,126,-2,-1.4234167235855502,6.212852966721271,6.467161215382037
1769246054600,126,-2,-1.045931512425098,6.244944115060052,6.848811036288501
1769246054604,127,-1,-0.6056391123857783,7.020347903563735,7.295088258931992
1769246054608,128,0,-0.1573438245701663,7.945081348601797,7.750263516707775
1769246054612,128,0,0.233027182936341,8.236036182696417,8.146065306495466
1769246054616,128,0,0.5790273294496875,8.228814935720605,8.495692850445025
1769246054620,128,0,0.9617279607215432,8.307505384448238,8.88226053781074
1769246054624,129,1,1.4244467541897792,9.044093886575183,9.350585917222796
1769246054628,130,2,1.906912575554042,10.023968722185266,9.839429607352995
1769246054632,130,2,2.304265603407101,10.266046022866467,10.242118219955664
1769246054636,130,2,2.582542244875965,10.203058446598456,10.524547431643184
1769246054640,130,2,2.8195478645566396,10.450930468348966,10.765974271395962
1769246054644,131,3,3.1337298416804673,10.91064113244792,11.085779943150806
1769246054648,131,3,3.5835797341604017,11.352014412868092,11.54177236265636
1769246054652,132,4,4.133575825948378,11.94729883369193,12.09709580452062
1769246054656,132,4,4.702712414601672,12.64197070354569,12.670274816905348
1769246054660,133,5,5.235988080501885,13.01257237832807,13.207181560549769
1769246054664,133,5,5.731865732853372,13.454627389738338,13.707639358480694
1769246054668,134,6,6.212626599063701,13.925838087547,14.194350174972904
1769246054672,134,6,6.682792697717713,14.423080668273627,14.67071813939484
1769246054676,135,7,7.123782584349192,15.282285823886395,15.116671478782225
1769246054680,135,7,7.519593242090245,15.345124216336169,15.516200446214537
1769246054684,135,7,7.868233516740088,15.285056704101692,15.868894062519722
1769246054688,136,8,8.162835209633124,16.12482991861498,16.168964989123175
1769246054692,136,8,8.379449302926677,16.37909346626884,16.391529946555224
1769246054696,136,8,8.499776160890546,16.321390770884825,16.516547435605144
1769246054700,136,8,8.539296185964123,16.40940019773953,16.559288493409483
1769246054704,136,8,8.5367204865809,16.257336985630083,16.560260224528797
1769246054708,136,8,8.512980678589411,16.284159315223256,16.542192645951594
1769246054712,136,8,8.45294638999599,16.2916558517475,16.489502182631306
1769246054716,136,8,8.33753498585449,16.47010116733054,16.380573957343284
1769246054720,136,8,8.181858386199533,16.317093619610155,16.228677434505045
1769246054724,135,7,8.006738687023155,15.41626229706268,16.055668736257605
1769246054728,135,7,7.746856039853065,15.23290918758909,15.798826752862956
1769246054732,135,7,7.207335775268858,15.420326769305406,15.264304044161836
1769246054736,134,6,6.166700699902334,14.408519178874029,14.229341313538743
1769246054740,132,4,4.56466370394749,12.423268502743104,12.632335424563458
1769246054744,130,2,2.5934959044428574,10.39288944703076,10.665959039588884
1769246054748,128,0,0.5901214912504633,8.332572583683522,8.668262624456801
1769246054752,126,-2,-1.1803373272482651,6.417357181340635,6.904188533947414
1769246054756,125,-3,-2.6605197961644,5.476292533221562,5.42934868404113
1769246054760,124,-4,-3.9565596732992594,4.414333613324495,4.13631003802805
1769246054764,122,-6,-5.188186251328089,2.4845525500587655,2.906394562800081
1769246054768,121,-7,-6.386257797096997,1.2991105570921873,1.7113505971100205
1769246054772,120,-8,-7.505400010589216,0.56295340675379,0.5979783352133978
1769246054776,119,-9,-8.489753103567429,-0.6466130362617264,-0.3790353957684758
1769246054780,118,-10,-9.303657257148116,-1.3503407292288934,-1.186471766122648
1769246054784,118,-10,-9.913250254827195,-1.7190770503640902,-1.7917829614946612
1769246054788,117,-11,-10.271477500133622,-2.3882194209950613,-2.146997539201677
1769246054792,117,-11,-10.348814280317663,-2.694231197631036,-2.2206354436989058
1769246054796,117,-11,-10.184179072855995,-2.3133369804432853,-2.0509265862303705
1769246054800,118,-10,-9.88773499624618,-1.6218076397812675,-1.7492669380366648
1769246054804,118,-10,-9.575197183487884,-1.3746272005018652,-1.432535792690298
1769246054808,118,-10,-9.300137526673907,-1.650400786772364,-1.153607961318957
1769246054812,118,-10,-9.054250777466006,-1.372252198060249,-0.9027980598938176
1769246054816,119,-9,-8.816032996169348,-0.5629272054912873,-0.658790591375487
1769246054820,119,-9,-8.577545072946076,-0.3172929852008694,-0.4150713041606737
1769246054824,119,-9,-8.333738720422595,-0.5879502540490282,-0.167044480175222
1769246054828,119,-9,-8.076803785362316,-0.3690895946505828,0.0939849330370421
1769246054832,120,-8,-7.809566096841487,0.413016068499183,0.3657126511743769
1769246054836,120,-8,-7.546993151486247,0.7117357680554877,0.6327984274033076
1769246054840,120,-8,-7.298107272050979,0.4767741809188139,0.8861718068845832
1769246054844,120,-8,-7.0582159714610775,0.7024141925334959,1.1310563100551958
1769246054848,121,-7,-6.819239027610299,1.4052149527394802,1.3754380894338285
1769246054852,121,-7,-6.573433160747905,1.7028921514343462,1.6261990824257992
1769246054856,121,-7,-6.308609162580775,1.4869081572144802,1.895260804005792
1769246054860,121,-7,-6.02012426016026,1.765649958122705,2.1879770353064147
1769246054864,122,-6,-5.734520806087027,2.5027401751558997,2.4782757376596143
1769246054868,122,-6,-5.506016081599648,2.650901505866718,2.711566150535066
1769246054872,122,-6,-5.377854407957547,2.5493314263406455,2.844246901752217
1769246054876,122,-6,-5.349088901861556,2.672258257574974,2.877551781168303
1769246054880,122,-6,-5.379302085757274,2.6785413030914498,2.8523093087666016
1769246054884,122,-6,-5.419361082501615,2.630809283214236,2.817578970838148
1769246054888,122,-6,-5.437895643193386,2.622623519819786,2.8042931223704675
1769246054892,122,-6,-5.428730248050872,2.618504589151878,2.818240768966682
1769246054896,122,-6,-5.403215371023133,2.6821543886848773,2.84795840063252
1769246054900,122,-6,-5.378224688513045,2.7221993198753403,2.8768330482451616
1769246054904,122,-6,-5.3684621245533215,2.664550451166415,2.8907771400250644
1769246054908,122,-6,-5.383681077728648,2.6536036312070435,2.880598741503833
1769246054912,122,-6,-5.423007459392463,2.6585608329136483,2.847038976656371
1769246054916,122,-6,-5.462096606527561,2.689113067132642,2.813572901029333
1769246054920,122,-6,-5.446953774291522,2.7987673259045196,2.8335093035047008
1769246054924,122,-6,-5.317682734199014,2.6355992632619234,2.9670704892584743
1769246054928,122,-6,-5.059417301956406,2.7745290910348865,3.2299402138807634
1769246054932,123,-5,-4.73487471613978,3.5786432751917543,3.5594849492701117
1769246054936,123,-5,-4.454491081586392,3.8456498763668217,3.8445526678944626
1769246054940,123,-5,-4.302685314830365,3.697917279183699,4.00041327647541
1769246054944,123,-5,-4.2882575025263545,3.8027019407026375,4.018949191937327
1769246054948,123,-5,-4.356863297844644,3.686219826668797,3.955326897615549
1769246054952,123,-5,-4.435645079204015,3.692159208803397,3.882413190058873
1769246054956,123,-5,-4.460280336950903,3.849955549986576,3.863875424704686
1769246054960,123,-5,-4.374383937752776,3.692351031395872,3.955477288221236
1769246054964,123,-5,-4.129238731346776,3.949281908825753,4.205563333960251
1769246054968,124,-4,-3.704466299223317,4.528018415071473,4.634280008295542
1769246054972,124,-4,-3.137150976748367,4.972667583677664,5.204757268857778
1769246054976,125,-3,-2.5294849679972806,5.58159090305687,5.815819852934979
1769246054980,125,-3,-2.0138431294509447,6.066305248987612,6.336307446860516
1769246054984,126,-2,-1.6797045194320592,6.609267049324015,6.6769314490866565
1769246054988,126,-2,-1.503250346075986,6.942605219457732,6.860385620417322
1769246054992,126,-2,-1.344058705032328,6.612893799003826,7.025699145500889
1769246054996,126,-2,-1.0401021375249957,6.991443074217619,7.33433830101764
1769246055000,127,-1,-0.5459354814752668,7.748563688301575,7.832145053857317
1769246055004,127,-1,-0.0015332584305411,7.956614233578561,8.379922562281806
1769246055008,128,0,0.3388523800592509,8.689702491747124,8.724042435394544
1769246055012,128,0,0.2754682630706795,8.899973439241277,8.665186393771533
1769246055016,127,-1,-0.2001424132535056,7.764284460430979,8.195304837848434
1769246055020,126,-2,-0.9097043919231558,7.047743853550616,7.492630844806717
1769246055024,126,-2,-1.6227756773209363,6.694864806443691,6.786480420529217
1769246055028,125,-3,-2.202669068662311,6.04578053409395,6.211923112815473
1769246055032,125,-3,-2.656572917239455,5.574066076593339,5.761315134320876
1769246055036,124,-4,-3.0803894970728702,5.1825379103481835,5.340094366241993
1769246055040,124,-4,-3.562337097790768,4.655480291807329,4.8619082922956425
1769246055044,123,-5,-4.113588552785562,4.1614508337818705,4.316347684069781
1769246055048,123,-5,-4.660506107980777,3.639508498030058,3.776358668160555
1769246055052,122,-6,-5.094415063389215,3.022272496474955,3.3492185925936764
1769246055056,122,-6,-5.342432145927219,2.8337674633878516,3.1065410958224056
1769246055060,122,-6,-5.410167358181715,3.0021022594342135,3.042250445519717
1769246055064,122,-6,-5.370288512743826,2.9382121938334937,3.0846434989261327
1769246055068,122,-6,-5.314750526660278,2.8563499300143196,3.143938383694018
1769246055072,122,-6,-5.308065691376566,2.924619241454101,3.1571818256949324
1769246055076,122,-6,-5.360421178044501,2.939255476273055,3.113058661059783
1769246055080,122,-6,-5.4212753758724865,2.976659970486039,3.0586595116663444
1769246055084,122,-6,-5.401812638415553,3.0153147936527196,3.0804001755775254
1769246055088,122,-6,-5.235994082076276,2.8289259720927875,3.246201787704786
1769246055092,122,-6,-4.949831400620737,3.031585193814045,3.5353947032340143
1769246055096,123,-5,-4.665150143096307,3.85969588711402,3.8300053790298456
1769246055100,123,-5,-4.500317993574186,4.132691634981668,4.009345992794071
1769246055104,123,-5,-4.445571848869436,3.904285166770445,4.074959654852277
1769246055108,123,-5,-4.354042712138871,3.995929415617415,4.1656545771985884
1769246055112,123,-5,-4.088868310944682,3.9338930385857576,4.418260010599244
1769246055116,123,-5,-3.669298542733261,3.972434267883031,4.824416338436885
1769246055120,124,-4,-3.170699746874195,5.129377020342083,5.324101581513562
1769246055124,126,-2,-2.3116575595158384,6.913833220915715,6.206202277466188
1769246055128,128,0,-0.0368559899087532,9.097940768019242,8.51758056184463
1769246055132,133,5,5.354400806232407,13.843700534361854,13.938767108227337
1769246055136,142,14,15.229512369213005,23.13398172777444,23.81978214243273
1769246055140,155,27,29.194385580720866,36.03921814821925,37.765067415772975
1769246055144,170,42,44.25882085741728,51.0491684233563,52.79907548570248
1769246055148,184,56,55.56596459173132,65.07021156817575,64.08377431631112
1769246055152,189,61,58.66504670675536,69.83509102768633,67.17993406873
1769246055156,180,52,52.015789823846205,61.18202526897434,60.54913186805523
1769246055160,164,36,37.96642673203111,44.94861005858163,46.53389546541934
1769246055164,147,19,21.447335142799663,28.19529257604374,30.05212922708453
1769246055168,134,6,7.311968307133555,15.035933926103038,15.941002638934082
1769246055172,126,-2,-1.8447253147184188,6.988189652147092,6.784452089485944
1769246055176,122,-6,-6.147266836794911,3.1913407602825643,2.461052024833182
1769246055180,121,-7,-7.329873603936623,1.897828358477473,1.2527136821230132
1769246055184,120,-8,-7.195347516963228,1.3138800888421427,1.3747170906140005
1769246055188,120,-8,-6.735369010886103,0.8649393218709154,1.8434730174246683
1769246055192,120,-8,-6.200691957149544,1.303762053831405,2.4020140393131872
1769246055196,122,-6,-5.623273709298988,2.9200407763337393,3.003293248966062
1769246055200,123,-5,-5.133538552226062,4.220009324264154,3.504188112852852
1769246055204,123,-5,-4.869480994310138,4.006082067972189,3.765480941286244
1769246055208,122,-6,-4.77714753981774,3.175774543346563,3.850753337910871
1769246055212,122,-6,-4.640097267252516,3.108813480178296,3.9870353132973975
1769246055216,123,-5,-4.313396265938878,4.150279487376008,4.321417178166808
1769246055220,124,-4,-3.871273546173252,5.087037272561405,4.7736023468048785
1769246055224,124,-4,-3.502805029458844,5.117772265864609,5.148252722346348
1769246055228,124,-4,-3.294423700910299,5.12715699289893,5.358648637655161
1769246055232,124,-4,-3.143896318853276,5.1907200037257155,5.5112356961722515
1769246055236,124,-4,-2.877112005245774,5.16175001565977,5.783076902068183
1769246055240,125,-3,-2.420879521455399,6.106311230047611,6.2459684428142594
1769246055244,126,-2,-1.8532873017107496,7.158681912025205,6.818510945514113
1769246055248,126,-2,-1.3079822456824637,7.078708746459114,7.366247790150375
1769246055252,126,-2,-0.8575160654494439,7.3381845820048515,7.819181573552078
1769246055256,127,-1,-0.4857331181853199,8.034499446023526,8.195854689936525
1769246055260,127,-1,-0.1351445898667822,8.316756887287182,8.552896610422868
1769246055264,128,0,0.2469107144739948,8.95972353732943,8.940209419220919
1769246055268,128,0,0.6912916630801089,9.31991187084678,9.387672227208627
1769246055272,128,0,1.1950130628947797,9.163654731064447,9.894093636322154
1769246055276,129,1,1.7122727096896075,10.225494515305922,10.415490868999536
1769246055280,130,2,2.183841883122412,11.244740295296276,10.89214810187681
1769246055284,130,2,2.602087132563379,10.97246100923073,11.314876617568649
1769246055288,130,2,3.0387540649973364,11.444746195274702,11.755256064592082
1769246055292,131,3,3.5837847656566457,11.998593761558986,12.304356439920408
1769246055296,131,3,4.251139890132507,12.497493373184188,12.976461458870144
1769246055300,133,5,4.957027760784424,14.009267522126718,13.686659613873076
1769246055304,133,5,5.5944873957593915,14.229843409927108,14.327191076088262
1769246055308,133,5,6.118561720411777,14.258586060679336,14.853990153165514
1769246055312,134,6,6.5558037358281895,15.176216930584172,15.29503184984377
1769246055316,134,6,6.950763418696334,15.418845375792822,15.6949347281883
1769246055320,135,7,7.324449269153316,16.087334690132238,16.07356380106877
1769246055324,135,7,7.679335461183225,16.25305375919054,16.432620486842318
1769246055328,135,7,8.02151639155593,16.211407415995186,16.77833401133052
1769246055332,136,8,8.365994138183664,17.30252091604275,17.126011711346372
1769246055336,136,8,8.723280572702702,17.313187983354794,17.486357063407254
1769246055340,136,8,9.080930137969622,17.249713101242982,17.847350263391746
1769246055344,137,9,9.395965705706931,18.1526064256996,18.166396058058336
1769246055348,137,9,9.615644546935316,18.3116207840944,18.390441684550503
1769246055352,137,9,9.720815915871428,18.26054213012668,18.49962003106954
1769246055356,137,9,9.748621817547953,18.384298068182968,18.530895131366677
1769246055360,137,9,9.758010182320293,18.24195331856246,18.543767009293173
1769246055364,137,9,9.760366262822291,18.18804028162631,18.55002687241817
1769246055368,137,9,9.682018476994289,18.32476583118956,18.475511577778622
1769246055372,137,9,9.400296116808333,18.253337710396888,18.19673079601801
1769246055376,136,8,8.820835192527294,17.46713977568514,17.61949675293834
1769246055380,135,7,7.922373550308242,16.1837368814506,16.723809311972236
1769246055384,134,6,6.739243283381084,15.287523856742093,15.544766503769925
1769246055388,133,5,5.324889147156231,14.268882430302993,14.135077847700376
1769246055392,131,3,3.7435828802787463,12.304872608186884,12.557834198286878
1769246055396,129,1,2.0789030283108407,10.523719205172478,10.896364149977003
1769246055400,128,0,0.4229699480005959,9.10356042304609,9.243243925025428
1769246055404,126,-2,-1.1531971560637435,7.466265962295681,7.669755841166696
1769246055408,125,-3,-2.618979737596491,6.061663686396675,6.206627264728734
1769246055412,123,-5,-3.978500518818479,4.589854874205379,4.850133360762142
1769246055416,122,-6,-5.247341762938537,3.267928324625471,3.584985698016233
1769246055420,121,-7,-6.423252468526851,2.3884524906199163,2.4129443882815673
1769246055424,120,-8,-7.466248017172397,1.2537995165690248,1.3731432159401464
1769246055428,119,-9,-8.310632473209958,0.229588141285288,0.5312191154774668
1769246055432,118,-10,-8.912769647373405,-0.4476927577082774,-0.0683759677221225
1769246055436,118,-10,-9.293492514838384,-0.7537473508820502,-0.4459808174366308
1769246055440,118,-10,-9.522845819238595,-0.4560125130684804,-0.6720329609706512
1769246055444,118,-10,-9.654705835435118,-0.9393645747329452,-0.8008111508845808
1769246055448,117,-11,-9.683006484117548,-1.517304290784265,-0.8260529289146703
1769246055452,118,-10,-9.568667669313054,-0.6714143775485244,-0.7085772883376693
1769246055456,118,-10,-9.30435064121444,-0.5136725965779725,-0.4415095399374049
1769246055460,118,-10,-8.9502207761688,-0.6195556555186696,-0.0853035835299929
1769246055464,119,-9,-8.611693781302417,0.223170648285377,0.2551037884583493
1769246055468,119,-9,-8.377014311880721,0.3732269868497955,0.4922436747015348
1769246055472,119,-9,-8.257411419757101,0.432858897874369,0.6152704227854127
1769246055476,119,-9,-8.176129228400185,0.4530633912602182,0.700627911821095
1769246055480,119,-9,-8.020881086274764,0.4229132300470413,0.8596035660121535
1769246055484,120,-8,-7.722033876213424,1.239550108510313,1.1607831855691355
1769246055488,120,-8,-7.300378202417798,1.3627464650594918,1.58342306356767
1769246055492,120,-8,-6.857866709041218,1.4778012522626351,2.026921671910661
1769246055496,121,-7,-6.519565957958247,2.443069842660801,2.3674916048535213
1769246055500,121,-7,-6.354929168541119,2.473174892674028,2.535605349872331
1769246055504,121,-7,-6.325772465233611,2.204660037671263,2.568396029609888
1769246055508,121,-7,-6.308011297394941,2.4450436610987274,2.5891442960743385
1769246055512,121,-7,-6.182859957447441,2.388284796974977,2.7165876085086587
1769246055516,121,-7,-5.927312739796515,2.598646125608461,2.9740299399087577
1769246055520,122,-6,-5.6263206304269495,3.333508556307131,3.2766885907811307
1769246055524,122,-6,-5.395583480944437,3.3917631206106047,3.50896167231937
1769246055528,122,-6,-5.283550710373471,3.262751602367114,3.62273168028976
1769246055532,122,-6,-5.237304653569872,3.601597056863435,3.6714100222543857
1769246055536,122,-6,-5.155193673243612,3.4108637099373635,3.756811321917837
1769246055540,122,-6,-4.972569789344773,3.5526117254049843,3.9429729434349503
1769246055544,123,-5,-4.705125355570354,4.233068195186604,4.212994490355607
1769246055548,123,-5,-4.421084497724029,4.392293745248235,4.497915328232753
1769246055552,123,-5,-4.1835986511853545,4.55322742387861,4.735388540847739
1769246055556,123,-5,-4.025180976264167,4.419263156672294,4.894713950452449
1769246055560,123,-5,-3.96211360959267,4.638975518357641,4.960477071619861
1769246055564,124,-4,-4.000776101521399,5.131466318651236,4.925286990166673
1769246055568,123,-5,-4.110518700974085,4.542246423075158,4.818285868230653
1769246055572,123,-5,-4.204558060815435,4.412768916728345,4.726008253595124
1769246055576,123,-5,-4.177656358733305,4.576871986438172,4.754537796681401
1769246055580,123,-5,-3.9815357493120263,4.532402465442628,4.952594349448733
1769246055584,124,-4,-3.667779951888584,5.238011549187949,5.268004950719655
1769246055588,124,-4,-3.356885114013191,5.501344218444748,5.579605374879421
1769246055592,124,-4,-3.1622104721855715,5.423407977862372,5.774421091832279
1769246055596,124,-4,-3.130227964633283,5.625419445264437,5.807228188917678
1769246055600,124,-4,-3.228464910791359,5.482707815436802,5.711346807908656
1769246055604,124,-4,-3.366726375379623,5.325765297706441,5.576562825538732
1769246055608,124,-4,-3.426694765048532,5.448297866390064,5.519909609422003
1769246055612,124,-4,-3.295356637465506,5.475210151892347,5.653292306990037
1769246055616,124,-4,-2.9087070339373544,5.6066945935644785,6.040452523120981
1769246055620,125,-3,-2.2941237838815134,6.522327512813677,6.6545571905741685
1769246055624,126,-2,-1.5781850569601572,7.30332315024011,7.370046940931815
1769246055628,126,-2,-0.9374097653787878,7.523605421835202,8.01139929969624
1769246055632,127,-1,-0.5075737887677183,8.368425070740424,8.44313427951065
1769246055636,127,-1,-0.300954786931215,8.782841757892879,8.652399606593832
1769246055640,127,-1,-0.1907629765110745,8.304749492359868,8.765239242649173
1769246055644,127,-1,0.0089413293624296,8.605731026869492,8.967189998575114
1769246055648,128,0,0.4125209101914222,9.20739121605419,9.37223118882658
1769246055652,128,0,0.9784435831291338,9.708849274516629,9.938348514331
1769246055656,129,1,1.5326744642359886,10.478527100409533,10.491665868046471
1769246055660,129,1,1.8697773767864776,10.585124385769534,10.827957703947328
1769246055664,129,1,1.8522616113325716,10.406421336503932,10.811021357733829
1769246055668,129,1,1.4563330832070809,10.35560971944622,10.417116415979772
1769246055672,128,0,0.763059048547658,9.641403757689922,9.726230476869915
1769246055676,127,-1,-0.0856659830830961,8.496091301352978,8.879296276180177
1769246055680,126,-2,-0.9458437210845952,7.650189001878347,8.020105672115207
1769246055684,126,-2,-1.7172962527426272,7.310953279305305,7.249050146001286
1769246055688,125,-3,-2.3558322631492317,6.506654045992134,6.610678882708395
1769246055692,124,-4,-2.860728786460069,5.482112448733055,6.10607588055616
1769246055696,124,-4,-3.2594650750493748,5.673235706350356,5.707734897007511
1769246055700,124,-4,-3.5943215565047604,5.505926995024354,5.3730508644195325
1769246055704,123,-5,-3.908603240461004,4.439842745472808,5.05882787143971
1769246055708,123,-5,-4.237030533769221,4.439924766928377,4.730870663489879
1769246055712,123,-5,-4.594925814099744,4.50892834315165,4.373890835870923
1769246055716,122,-6,-4.957048621775465,3.703582740240466,4.012564425307362
1769246055720,122,-6,-5.245389219827631,3.452653318693703,3.724719418702001
1769246055724,122,-6,-5.359051366234801,3.548506503910339,3.611871642336846
1769246055728,122,-6,-5.241428590497094,3.3099305662638296,3.731045307976452
1769246055732,122,-6,-4.9330754801746854,3.6759352664526546,4.040598315807507
1769246055736,123,-5,-4.559679982007282,4.532285202650698,4.412664133594598
1769246055740,123,-5,-4.259610417092405,4.643161484461729,4.708323843194611
1769246055744,123,-5,-4.1135470934625555,4.382509069969583,4.850243773356265
1769246055748,123,-5,-4.128768487008765,4.462071011248385,4.836471695822672
1769246055752,123,-5,-4.258529538166574,4.557364014388577,4.715512204349158
1769246055756,123,-5,-4.4058591715629145,4.626768206217259,4.578843194764013
1769246055760,123,-5,-4.423263494549991,4.612593234212683,4.564082407181029
1769246055764,123,-5,-4.175251917011643,4.380384567503704,4.800585158166489
1769246055768,123,-5,-3.657787951081242,4.516328317925572,5.296833044568505
1769246055772,124,-4,-3.0181476104526683,5.454469957104544,5.919802591609667
1769246055776,125,-3,-2.3002731278506023,6.792523454392612,6.640317753280533
1769246055780,127,-1,-0.9835335417389376,8.423331849158481,7.982255061428814
1769246055784,130,2,2.275774900920858,11.628916299367503,11.275662487449758
1769246055788,137,9,9.212632657043084,18.22934016306786,18.23268424750468
1769246055792,147,19,20.747551284447013,28.77552669754322,29.758739158985662
1769246055796,161,33,35.62825971669723,42.483881706614994,44.60610653330914
1769246055800,176,48,50.01019947546578,57.7580564855632,58.94997291013603
1769246055804,188,60,58.744865143545226,69.32413173417328,67.66131862195121
1769246055808,188,60,57.97860419334979,69.441317978222,66.89507413307075
1769246055812,175,47,47.45420336492126,56.56849501279795,56.39201774097082
1769246055816,156,28,30.82574334867138,37.57222971121444,39.79701084408853
1769246055820,139,11,13.66897970047653,20.765135159474973,22.67067160660094
1769246055824,128,0,0.5824647758083739,9.322698883183348,9.595228138119277
1769246055828,121,-7,-6.685357558384169,2.604312602631045,2.31221489962894
1769246055832,119,-9,-9.136111327521792,0.4088502113558885,-0.1706810350447796
1769246055836,119,-9,-8.997593558996506,0.7139795883638049,-0.0616556530438634
1769246055840,119,-9,-8.109831753300554,0.5701693878337197,0.8152432108745575
1769246055844,119,-9,-7.240246314524228,0.4732746024719443,1.6950045001726393
1769246055848,120,-8,-6.41119273397826,1.556087308559155,2.544378406806718
1769246055852,122,-6,-5.570498322373296,3.408949729428814,3.399975022776935
1769246055856,123,-5,-4.901234239779373,4.769203088073011,4.069466311204199
1769246055860,123,-5,-4.630513762461829,4.415911837289981,4.3286679881672345
1769246055864,122,-6,-4.7285995486489005,3.6522863691380474,4.21853141385278
1769246055868,122,-6,-4.895749505923701,3.4200243770522127,4.047825503907157
1769246055872,122,-6,-4.831737311525375,3.520388255255061,4.116171677182896
1769246055876,123,-5,-4.475233817335222,4.729934974342912,4.477032807326319
1769246055880,124,-4,-3.985686809415804,5.336672034224037,4.9648811005522155
1769246055884,123,-5,-3.545498579660567,4.821420237179725,5.398871876180165
1769246055888,124,-4,-3.213751702686065,5.187131193312208,5.725916233298377
1769246055892,124,-4,-2.936611928085806,5.826487127491442,6.002815291534076
1769246055896,125,-3,-2.631046626040572,6.37908364232724,6.310035230139462
1769246055900,125,-3,-2.2377729993860287,6.676244483943172,6.703095338784946
1769246055904,125,-3,-1.738435255779445,6.509084537654893,7.199778073400715
1769246055908,126,-2,-1.1681598870610537,7.449502973739164,7.766842844116333
1769246055912,127,-1,-0.6079577325943667,8.65233775387223,8.324506404482563
1769246055916,127,-1,-0.135832113458262,8.462201678817252,8.794545527155558
1769246055920,127,-1,0.2265835086018798,8.644120483653623,9.1549576043817
1769246055924,128,0,0.5194584924749313,9.50180062865044,9.44602559963116
1769246055928,128,0,0.8058527892148223,9.453502614518165,9.731006963892966
1769246055932,128,0,1.1331445670813372,9.69286515152918,10.057173979896564
1769246055936,129,1,1.5239110510191067,10.36933002791292,10.446547612977822
1769246055940,129,1,1.991056814851342,10.76488649932466,10.911304913616856
1769246055944,130,2,2.5493274754135813,11.339472275560246,11.466145854163967
1769246055948,130,2,3.19873277613398,11.630979329075942,12.112121442802446
1769246055952,131,3,3.8933278866951615,12.526061141417278,12.804436570746915
1769246055956,132,4,4.543387005734839,13.508364915190228,13.453275959434988
1769246055960,132,4,5.073454854177614,13.643169339905596,13.98189634678856
1769246055964,133,5,5.489607088684362,14.40144814407148,14.39539578594913
1769246055968,133,5,5.880932826447531,14.625199445563876,14.7834279943908
1769246055972,133,5,6.3377903396442505,14.47067252311283,15.23776403267982
1769246055976,134,6,6.861425228531502,15.61363687144161,15.759895345860002
1769246055980,135,7,7.363035477844204,16.480529008563405,16.259548047541102
1769246055984,135,7,7.757658247619808,16.573147659059757,16.65065143909741
1769246055988,135,7,8.045434738986954,16.45091977588666,16.934377322334804
1769246055992,135,7,8.289134674376275,16.62476379515783,17.175283704494984
1769246055996,136,8,8.52839852071233,17.460136632958818,17.413045987631012
1769246056000,136,8,8.74052223055889,17.614416428180355,17.6233792072117
1769246056004,136,8,8.880981656651329,17.42908518145442,17.76088260235197
1769246056008,136,8,8.935760514436515,17.602286850416043,17.812269324725182
1769246056012,136,8,8.921451625829679,17.443908622551433,17.79501685047336
1769246056016,136,8,8.84363804935736,17.628758126241053,17.71454022012391
1769246056020,136,8,8.662126344032863,17.445765765738358,17.53005655285949
1769246056024,135,7,8.290439603082415,16.566813269449426,17.15505940965151
1769246056028,135,7,7.628391423318555,16.487947765235532,16.48968067525236
1769246056032,134,6,6.613277639261424,15.506800963740083,15.471285070766148
1769246056036,132,4,5.260637488097122,13.569852158424574,14.115411521151586
1769246056040,131,3,3.661353904494709,12.478209959848304,12.51324494400293
1769246056044,129,1,1.9341771411234636,10.539113101811392,10.78376838783092
1769246056048,127,-1,0.1749494167072161,8.487686998185847,9.022311077827036
1769246056052,126,-2,-1.5554801286133362,7.509308058336196,7.288672228871037
1769246056056,124,-4,-3.2076933082957213,5.534012092650683,5.631979119142851
1769246056060,122,-6,-4.728551887690506,3.5019682191469883,4.10656885599266
1769246056064,121,-7,-6.080608692548459,2.518797794259407,2.751266946752943
1769246056068,120,-8,-7.262746832852091,1.4662860152208346,1.5669251616959796
1769246056072,119,-9,-8.288069535119291,0.5381554102132711,0.5389082412349504
1769246056076,118,-10,-9.139482984620956,-0.5262674915296639,-0.3163961719789352
1769246056080,117,-11,-9.765836781184907,-1.4569618533612303,-0.9469660736857666
1769246056084,117,-11,-10.131326958446447,-1.5257385774347298,-1.3160153180836724
1769246056088,117,-11,-10.25828910628502,-1.5279630646830578,-1.4460604574951963
1769246056092,117,-11,-10.212088935120644,-1.4637389978438389,-1.403164885972406
1769246056096,117,-11,-10.050990484882632,-1.5531322845485178,-1.245676356050291
1769246056100,117,-11,-9.79997602418675,-1.4516088650144754,-0.9982768191029958
1769246056104,118,-10,-9.467930319099006,-0.5512021707183132,-0.6699608208047598
1769246056108,118,-10,-9.079802209231136,-0.5257928743314038,-0.2859494530971007
1769246056112,118,-10,-8.692403814676238,-0.4805555912980281,0.0971741501031155
1769246056116,119,-9,-8.379627024782122,0.4509958511337748,0.4059738852389536
1769246056120,119,-9,-8.18813840089513,0.5074840553805133,0.5938955460670305
1769246056124,119,-9,-8.092968404985772,0.4676477818287177,0.6858486594661093
1769246056128,119,-9,-8.000950465037793,0.4431461989352536,0.7749225039041949
1769246056132,119,-9,-7.812295301898363,0.5157924219982286,0.960345890525912
1769246056136,120,-8,-7.489254912173846,1.4533131075380563,1.2789710450626153
1769246056140,120,-8,-7.076685396172392,1.4656312329999448,1.6859843568153137
1769246056144,120,-8,-6.6708876932461045,1.4862053678814275,2.086501435385345
1769246056148,121,-7,-6.364839132290766,2.4121697403144484,2.388758548032087
1769246056152,121,-7,-6.192232144801553,2.503363814857928,2.5586424000420527
1769246056156,121,-7,-6.097876160701905,2.46079810484005,2.6500679160792604
1769246056160,121,-7,-5.97093381116659,2.4213315713006516,2.773279488721882
1769246056164,121,-7,-5.734587183835712,2.5066200022006937,3.005225523197951
1769246056168,122,-6,-5.417412028832397,3.3617440700303716,3.3173659898452863
1769246056172,122,-6,-5.1345662195341335,3.5411017445328143,3.594643407784621
1769246056176,122,-6,-4.994271082251457,3.3827108439162696,3.729689604299298
1769246056180,122,-6,-5.014243607520486,3.4946377621668514,3.705870338737809
1769246056184,122,-6,-5.110002552909576,3.369770094751898,3.60761007161263
1769246056188,122,-6,-5.149303237893696,3.4892742919987687,3.5657775181203606
1769246056192,122,-6,-5.030916119486509,3.387294614531939,3.680231987442122
1769246056196,122,-6,-4.74585623278179,3.5094403855257155,3.95967640717353
1769246056200,123,-5,-4.386762569270926,4.348811487524651,4.312210010617414
1769246056204,123,-5,-4.09350398956817,4.463985930669448,4.599242087336301
1769246056208,123,-5,-3.967062124051965,4.367731627014438,4.721060742523795
1769246056212,123,-5,-4.009177035308128,4.493245082589169,4.676231607270435
1769246056216,123,-5,-4.121678298791405,4.3597058599631655,4.561648576725409
1769246056220,123,-5,-4.159969764224744,4.479752021453697,4.519999358930443
1769246056224,123,-5,-4.016136531841271,4.291146290553749,4.658435319690364
1769246056228,123,-5,-3.694205683523079,4.496545435019776,4.973785561126043
1769246056232,124,-4,-3.324675147359053,5.372100582383614,5.336855796691171
1769246056236,124,-4,-3.0871717510705383,5.403122119660397,5.568757655294766
1769246056240,124,-4,-3.0836398745625324,5.455143135626131,5.56783603376255
1769246056244,124,-4,-3.2601791554489803,5.220453756682017,5.388018982557944
1769246056248,123,-5,-3.4406157864702553,4.575097859570053,5.204755499230798
1769246056252,124,-4,-3.439144196545625,5.228626350363941,5.202358097903626
1769246056256,124,-4,-3.164162048843757,5.548039334557686,5.471579526927374
1769246056260,124,-4,-2.654656639328187,5.26345558015368,5.974385982447895
1769246056264,125,-3,-2.0450379369914113,6.363758858983534,6.577988599115897
1769246056268,126,-2,-1.4802196375824987,7.419008643003658,7.137815247107337
1769246056272,126,-2,-1.0254284708908004,7.293949913999056,7.587842681058024
1769246056276,126,-2,-0.638866517739364,7.531359496399794,7.969544359321318
1769246056280,127,-1,-0.2371654543066461,8.161678601491488,8.366747914972475
1769246056284,127,-1,0.2079269166252864,8.489919156951975,8.80779222208183
1769246056288,128,0,0.6362229493608114,9.192729964812877,9.231667149643556
1769246056292,128,0,0.951249783256527,9.534485663803704,9.541025480323444
1769246056296,128,0,1.0906148899821706,9.230421894917242,9.673571957819387
1769246056300,128,0,1.0414427056290516,9.43333152295957,9.617507786228089
1769246056304,128,0,0.8008359397631881,9.16548645455014,9.371104059790602
1769246056308,127,-1,0.3452714673650874,8.459876988478799,8.911130949082985
1769246056312,127,-1,-0.3390382717212667,8.262904858519455,8.222947328852769
1769246056316,126,-2,-1.1861620489035098,7.446357187220301,7.371343708094036
1769246056320,125,-3,-2.0249297029204896,6.184157491449245,6.527288650574418
1769246056324,124,-4,-2.65882945541056,5.36045329499215,5.88791848387004
1769246056328,124,-4,-3.003547117875164,5.20415905276983,5.537583343863723
1769246056332,124,-4,-3.154858582290503,5.516672900322318,5.379647956571999
1769246056336,124,-4,-3.3169167715842134,5.135327605688229,5.2098963750384115
1769246056340,123,-5,-3.656522063090403,4.469229523440182,4.8632401356381525
1769246056344,123,-5,-4.203467935805284,3.997728964933033,4.3115173470514145
1769246056348,122,-6,-4.847848734032157,3.5094284940368983,3.6638847538715744
1769246056352,122,-6,-5.404401172333742,3.201331964130998,3.1032725257851475
1769246056356,121,-7,-5.703827304468291,2.3946514009660653,2.7979727083959087
1769246056360,121,-7,-5.683123462018007,2.2034011168861367,2.8121406583810824
1769246056364,122,-6,-5.427747540743461,3.145574185680971,3.0614212111926555
1769246056368,122,-6,-5.1200768746912,3.3599684563328553,3.3627732648476645
1769246056372,122,-6,-4.921641314187667,3.266200530292717,3.5533964099911053
1769246056376,122,-6,-4.88551019351362,3.3533642889250537,3.580566367664632
1769246056380,122,-6,-4.962029755618376,3.144978577205644,3.4964329879688405
1769246056384,122,-6,-5.063944404671335,3.150990030404179,3.391179436305313
1769246056388,122,-6,-5.113799459230455,3.306105831952186,3.3427573942727147
1769246056392,122,-6,-5.0453895367125945,3.2655711727738836,3.4132835929023857
1769246056396,122,-6,-4.800071236219312,3.3722231984192135,3.653761543510075
1769246056400,123,-5,-4.363374400936133,4.003789913573577,4.073090993664778
1769246056404,123,-5,-3.816590516350571,4.280136467076009,4.593508485421994
1769246056408,123,-5,-3.294926832515648,4.058787105840469,5.093371568765969
1769246056412,124,-4,-2.74332413431467,5.540492253001166,5.642205967469894
1769246056416,127,-1,-1.5268781997055232,8.018360356560574,6.877582042640048
1769246056420,129,1,1.7636777693133654,10.338188147237773,10.19508573312448
1769246056424,136,8,8.85985821375998,16.8353072938037,17.304736544684054
1769246056428,147,19,20.62726952613446,28.49451851124039,29.058142926753693
1769246056432,161,33,35.75563915118248,42.03972418024315,44.148515949570694
1769246056436,176,48,50.39266210226568,57.52832727475196,58.74119295939031
1769246056440,189,61,59.432501944199295,69.7439975298926,67.74963218474059
1769246056444,188,60,59.038370366750186,69.30292589086817,67.34791813104576
1769246056448,176,48,48.86639694638704,56.92622838431407,57.191983541277395
1769246056452,158,30,32.41469319695936,39.491175807594246,40.76960803159474
1769246056456,141,13,15.181518409958422,22.073351512232733,23.561628500140763
1769246056460,128,0,1.8703860835417032,9.168131643054757,10.254960390410377
1769246056464,122,-6,-5.562994272164499,2.9396074947039015,2.799828471221125
1769246056468,120,-8,-8.006049370255845,1.2244565742528095,0.3186252536256075
1769246056472,120,-8,-7.772084084759985,1.150391106278187,0.516873856127968
1769246056476,120,-8,-6.904279572223166,1.294082189800025,1.3670641699862944
1769246056480,120,-8,-6.30967699066118,0.8679741286293821,1.9652201231782824
1769246056484,120,-8,-5.966025270111848,1.1946105937913796,2.323266366387397
1769246056488,122,-6,-5.622250261615398,2.9086620836219153,2.676730703627861
1769246056492,122,-6,-5.25884884082824,3.4288253531303203,3.035675450403403
1769246056496,122,-6,-5.046537184406996,2.917980085969565,3.2316960450381824
1769246056500,122,-6,-5.068701858911799,3.18333429669317,3.191256393709734
1769246056504,122,-6,-5.1872375374886985,2.8209066264487612,3.0607866537704904
1769246056508,121,-7,-5.171252517304612,2.2066259217807547,3.0723648097826413
1769246056512,122,-6,-4.916758543690181,3.134021331262346,3.3251109205876572
1769246056516,123,-5,-4.521322535827826,4.070582267598402,3.715836477055088
1769246056520,123,-5,-4.154357723593586,4.034206374342663,4.073597083484778
1769246056524,123,-5,-3.8795653062079016,3.830159794130153,4.337649382523538
1769246056528,123,-5,-3.611456624135622,4.20343296878297,4.5969943421445505
1769246056532,124,-4,-3.221769932193671,5.022238534821835,4.980418527269967
1769246056536,124,-4,-2.6672673528498745,5.162002523076437,5.529142501621079
1769246056540,125,-3,-2.0239492078574006,5.831779265550484,6.165300379047499
1769246056544,126,-2,-1.417684655017605,7.0033762849789225,6.762824044940293
1769246056548,126,-2,-0.9244045522678614,6.933097590039942,7.24690000563621
1769246056552,126,-2,-0.5266306258434436,7.245901791331997,7.636295997551421
1769246056556,127,-1,-0.1552007011341422,7.869138689693714,8.000549466629314
1769246056560,127,-1,0.2364915135270913,8.029215790586589,8.385469518759038
1769246056564,128,0,0.6414159692295398,8.780503078144772,8.78294658036034
1769246056568,128,0,1.0305550796713314,9.037553166223743,9.16371192804435
1769246056572,128,0,1.401167732329064,9.137043260033856,9.525690207432142
1769246056576,129,1,1.78882536850174,9.829376760331312,9.905135727429306
1769246056580,129,1,2.236012835336894,10.078622219237191,10.344528659142256
1769246056584,130,2,2.7519315895626413,10.564441200978836,10.852570713656252
1769246056588,130,2,3.3010097995248375,11.295104884668907,11.393318066149714
1769246056592,131,3,3.8299091974154154,11.708383344356037,11.913555004342856
1769246056596,131,3,4.3100418979349175,12.257553850500807,12.385199590493372
1769246056600,132,4,4.759940643492909,12.530407142151908,12.82717438770017
1769246056604,132,4,5.230876067772151,13.0360452685341,13.290553114282687
1769246056608,133,5,5.770538758862164,13.805546393214362,13.822381549075091
1769246056612,133,5,6.391834144674251,14.045829397530344,14.43515347842712
1769246056616,134,6,7.063079194937722,14.934941771605468,15.097407229294728
1769246056620,135,7,7.721730674931183,15.681661702547771,15.747123205170592
1769246056624,135,7,8.30430830474913,15.880983687365356,16.3210912892286
1769246056628,136,8,8.776716277715735,16.840902637900406,16.785132701597604
1769246056632,136,8,9.145758027871851,16.969341803158343,17.14594513917389
1769246056636,136,8,9.443075291789452,16.903229715207978,17.435136341170143
1769246056640,137,9,9.696134613696051,17.65311910018488,17.67989810578601
1769246056644,137,9,9.914368831725142,17.806646854924857,17.88927431407085
1769246056648,137,9,10.09769388120576,17.873612117727475,18.063427995868796
1769246056652,137,9,10.244183907539496,17.829120708363178,18.20130114280431
1769246056656,137,9,10.342264017617431,17.99318000647755,18.291540072983693
1769246056660,138,10,10.364143374900486,18.430455496234455,18.3053293292453
1769246056664,137,9,10.27279399222679,18.003038400080236,18.204718797934767
1769246056668,137,9,10.023892009020056,17.551941255639214,17.9459410372528
1769246056672,136,8,9.552139625901592,17.119264668160284,17.464931244615762
1769246056676,136,8,8.774230216817081,16.57551585296728,16.678573108857186
1769246056680,135,7,7.637039039033388,15.768795331106949,15.53295901383143
1769246056684,133,5,6.17405398304339,13.60924651761323,14.061291065834386
1769246056688,131,3,4.502851803961626,11.817461447932873,12.381599567412758
1769246056692,130,2,2.7584626059239565,10.842620198288255,10.628956778592617
1769246056696,128,0,1.0269878603090596,8.676235851535278,8.888801804749697
1769246056700,126,-2,-0.6692894087725834,6.655839970133819,7.182986040591624
1769246056704,125,-3,-2.3405713773123207,5.594902488117649,5.501629272954591
1769246056708,123,-5,-3.984424344007996,3.774184052079053,3.847945198327942
1769246056712,121,-7,-5.557974861044446,1.7908684371345158,2.26555395845752
1769246056716,120,-8,-6.983847325639578,0.6257524931679406,0.8319189457205454
1769246056720,119,-9,-8.178121925894494,-0.3689885092468099,-0.3699408017709551
1769246056724,118,-10,-9.07631503687201,-1.475602926696995,-1.2767065599908758
1769246056728,117,-11,-9.65226425466571,-2.222153322150559,-1.8625384650989183
1769246056732,117,-11,-9.93473117244388,-2.3178949776918785,-2.155503409398216
1769246056736,117,-11,-10.009757445387454,-2.3576855522753704,-2.240604127774862
1769246056740,117,-11,-9.992202899834538,-2.480615187087322,-2.2320169759887616
1769246056744,117,-11,-9.974283848724708,-2.443631129491168,-2.222123940858989
1769246056748,117,-11,-9.981608550169828,-2.3458428338124744,-2.2375597972459538
1769246056752,117,-11,-9.967970488075425,-2.2828603106303493,-2.233077404958811
1769246056756,117,-11,-9.861428673215684,-2.5095463287283035,-2.1365362489137496
1769246056760,117,-11,-9.635549996965594,-2.4010436968404605,-1.9204315793424256
1769246056764,118,-10,-9.342887258471398,-1.6295673785502558,-1.636745354597977
1769246056768,118,-10,-9.068692141408455,-1.2273724306547642,-1.371132129821328
1769246056772,118,-10,-8.846256521301239,-1.5123706598933797,-1.157446347740926
1769246056776,118,-10,-8.625227342389822,-1.385481373720216,-0.9455602457896396
1769246056780,119,-9,-8.328397807753515,-0.6114470636835296,-0.6583792808195756
1769246056784,119,-9,-7.938783693520302,-0.5322511466950992,-0.2787985830021018
1769246056788,119,-9,-7.53394872277481,-0.3759472128205239,0.1162143904889081
1769246056792,120,-8,-7.233535884363027,0.5023530054950536,0.4074978225146637
1769246056796,120,-8,-7.094552286229661,0.5216400942284993,0.5377924592002366
1769246056800,120,-8,-7.040037138952423,0.3452740820111764,0.5836026585799665
1769246056804,120,-8,-6.8981050001367015,0.4508328411438684,0.716876280686698
1769246056808,120,-8,-6.536916366217602,0.5275922756606182,1.0695376334108522
1769246056812,121,-7,-5.980517537742183,1.5145142372567424,1.6167939432699097
1769246056816,122,-6,-5.397429015302973,2.3970675080628148,2.189200915313055
1769246056820,122,-6,-4.975638510566748,2.357780927017015,2.5993371075849794
1769246056824,122,-6,-4.802157800833147,2.357632854444603,2.7622930352148947
1769246056828,122,-6,-4.838351361604818,2.5029988802213676,2.718090468117272
1769246056832,122,-6,-4.973496638162121,2.451923204694566,2.576371039910965
1769246056836,122,-6,-5.085734504531867,2.333637789868871,2.456566965217154
1769246056840,122,-6,-5.078823485059302,2.3420088972426107,2.453732306450993
1769246056844,122,-6,-4.909858624814794,2.2515854734406675,2.6117272144054757
1769246056848,122,-6,-4.6123056159786255,2.529075269613358,2.8986380051003184
1769246056852,123,-5,-4.286043899776239,3.297110785600073,3.215060183827924
1769246056856,123,-5,-4.039848361092464,3.3950711684500527,3.451859732172218
1769246056860,123,-5,-3.925626360316933,3.1694850171404454,3.557087300433646
1769246056864,123,-5,-3.920390384174095,3.3179267590733925,3.553941084494882
1769246056868,123,-5,-3.961959171052868,3.3635776856141746,3.5041024709225344
1769246056872,123,-5,-3.995480822993489,3.3328944103121128,3.461352040032679
1769246056876,123,-5,-3.9973329731959537,3.27978041987547,3.4490391436983785
1769246056880,123,-5,-3.977491630827561,3.153384687354418,3.4582926363812643
1769246056884,123,-5,-3.968346914802581,3.243886359615094,3.457976948103662
1769246056888,123,-5,-3.9969196125158177,3.3173956633814985,3.420969261293001
1769246056892,123,-5,-4.047870462903861,3.260178334135448,3.361366425015701
1769246056896,123,-5,-4.051900427958208,3.2633714815436488,3.3477789275444056
1769246056900,123,-5,-3.929787141602272,3.036911330143232,3.460162175435938
1769246056904,123,-5,-3.6668971979956906,3.269401426901397,3.7140603669150183
1769246056908,124,-4,-3.343469696963022,4.160101072042259,4.028747746269408
1769246056912,124,-4,-3.078410212149429,4.316309477209881,4.284005331273363
1769246056916,124,-4,-2.9394899725038406,4.091894008724939,4.411961102332075
1769246056920,124,-4,-2.9128439580668863,4.096624221626199,4.428077874161194
1769246056924,124,-4,-2.950685490898626,4.086251937585081,4.381538230623933
1769246056928,124,-4,-3.0231610502205486,4.2228672689930224,4.3016189798648865
1769246056932,124,-4,-3.1077587029787916,4.156541922257793,4.208903184857794
1769246056936,124,-4,-3.1414433575511804,4.120121556456697,4.165356856353016
1769246056940,124,-4,-3.016912702235889,3.983657137657059,4.279196157507176
1769246056944,124,-4,-2.653645827413783,4.025364952907328,4.632532383140711
1769246056948,125,-3,-2.0756190117828273,5.216949041348232,5.201651750191174
1769246056952,126,-2,-1.404776293376432,6.002971223694552,5.863526063193817
1769246056956,126,-2,-0.7702085457353087,6.2083395985744705,6.488405361653848
1769246056960,127,-1,-0.2265845222832929,6.738731916820021,7.022152104630802
1769246056964,127,-1,0.2452072227788646,7.151279737636626,7.48446654592
1769246056968,128,0,0.6779439896693147,7.957612872169337,7.907980937468436
1769246056972,128,0,1.067301261229377,8.157496220079581,8.288211614799911
1769246056976,128,0,1.3669133011520769,7.9515161737172,8.579028989763064
1769246056980,129,1,1.5233732381017289,8.853222242603401,8.72679083685368
1769246056984,129,1,1.5233156054838877,8.914704280316087,8.717229043836554
1769246056988,128,0,1.407205007447619,8.04222260654508,8.590589116077789
1769246056992,128,0,1.2204953174337052,7.9880456715646435,8.393392777205976
1769246056996,128,0,0.9458927984428024,7.997660648924247,8.109348044890368
1769246057000,128,0,0.5048977909512042,7.665441193330696,7.659732246370385
1769246057004,127,-1,-0.152776459610979,6.989398392691345,6.993430439628199
1769246057008,126,-2,-0.9620244456656332,5.803893734808147,6.175155587670252
1769246057012,125,-3,-1.7555882133540324,5.140233981882594,5.372272622203716
1769246057016,125,-3,-2.376083775445612,4.712552153293123,4.742392803709258
1769246057020,124,-4,-2.7923549520222473,3.815652497325229,4.316780406462003
1769246057024,124,-4,-3.1205417815210317,3.720715614168652,3.97894399851086
1769246057028,124,-4,-3.5240785492160382,3.9155882523456698,3.564771945188511
1769246057032,123,-5,-4.069138217894304,2.9306627020381617,3.0083630534445067
1769246057036,122,-6,-4.662473087413348,1.7819456421371775,2.4049087711217627
1769246057040,122,-6,-5.126035874218395,1.613175108343027,1.9342542919172452
1769246057044,122,-6,-5.325489675062596,1.789822552492053,1.7297621910133625
1769246057048,122,-6,-5.229918000150155,1.6974426677432728,1.818695664033438
1769246057052,122,-6,-4.881415028814441,2.0600457155829144,2.1557723655468353
1769246057056,123,-5,-4.354373254980902,2.4991869240950564,2.667090088452646
1769246057060,123,-5,-3.7635084190012913,2.7604577850683185,3.2425680287506307
1769246057064,124,-4,-3.2825818455818228,3.50161241620113,3.7142021271303385
1769246057068,124,-4,-3.092504251193907,3.829413068542608,3.903077175313868
1769246057072,124,-4,-3.2516930660130807,3.849924892147852,3.745896348787368
1769246057076,124,-4,-3.603375134533688,3.529150987146597,3.389789746340002
1769246057080,123,-5,-3.855991172253484,2.625039265612651,3.119089769388411
1769246057084,123,-5,-3.817808497212764,2.4455714244246547,3.1279625339846504
1769246057088,123,-5,-3.549833609002077,2.7821110620780676,3.3682768715936753
1769246057092,124,-4,-3.167687304316455,3.7753586568702246,3.739709241052848
1769246057096,126,-2,-2.310105900306705,5.459406044976132,4.6092490161073405
1769246057100,128,0,0.2810147566386671,7.580954936883302,7.224478626960223
1769246057104,134,6,6.472380162922686,13.269518603355143,13.430812290155494
1769246057108,144,16,17.549877150944905,23.90193483968794,24.497237752052484
1769246057112,158,30,32.713607728591626,37.480225979025,39.62394333648496
1769246057116,174,46,48.40672836197025,53.69324058131308,55.26989308626006
1769246057120,189,61,59.37659786457758,68.1528423955784,66.20168057355212
1769246057124,191,63,61.21765248690861,70.51213781256465,68.02619028856948
1769246057128,180,52,52.8657950455363,59.450038982804074,59.68237425100401
1769246057132,163,35,37.29140613370274,42.75990125200656,44.13377095264333
1769246057136,146,18,19.869917125991904,25.25748451892222,26.73913927587781
1769246057140,132,4,5.5833350216389706,11.49912954443555,12.460666955933096
1769246057144,125,-3,-3.1085506927958617,4.104774298825776,3.74823610745087
1769246057148,121,-7,-6.613283820115177,0.7684147591581656,0.2024257243817473
1769246057152,121,-7,-6.998947260348656,0.2755332251047866,-0.2243467203835631
1769246057156,121,-7,-6.360212072326482,0.5506772618183442,0.391312438537085
1769246057160,121,-7,-5.829293457536335,0.0099635504929018,0.9213426018868772
1769246057164,121,-7,-5.572977646274212,0.4660362776001774,1.1889527132256097
1769246057168,122,-6,-5.368339523744832,1.3055398186739555,1.401920477543909
1769246057172,122,-6,-5.107472255725523,1.5413560306925156,1.6582991010066648
1769246057176,123,-5,-4.885894180006136,2.161274195036026,1.862948070137164
1769246057180,123,-5,-4.797685724974441,2.1610590892435653,1.930045758259994
1769246057184,122,-6,-4.774725949328788,1.2515482760151286,1.9370032476251708
1769246057188,122,-6,-4.653024984101464,1.3321831712455356,2.051374145939542
1769246057192,123,-5,-4.351671959196251,2.417173128436234,2.3498573482568723
1769246057196,124,-4,-3.937909323869053,3.0559766037186087,2.757870943402696
1769246057200,124,-4,-3.521442314936437,3.1401894249497193,3.1625684053101466
1769246057204,124,-4,-3.1334509294149107,3.113127742835714,3.5363376920208527
1769246057208,124,-4,-2.734938562187648,3.3354667657336696,3.923637022529132
1769246057212,125,-3,-2.310372344692815,4.261841771288435,4.341094002633863
1769246057216,126,-2,-1.9013964983031988,5.014544078876687,4.743304874021146
1769246057220,126,-2,-1.5405419312974775,5.046448028140218,5.094290213255725
1769246057224,126,-2,-1.1923240749049169,5.043117923158192,5.430409070168701
1769246057228,126,-2,-0.7945941745667162,5.272757122403245,5.817196545106679
1769246057232,127,-1,-0.3460848683363391,6.143662787754769,6.257209358783593
1769246057236,128,0,0.0836986607215686,6.9633728555803796,6.67889274012753
1769246057240,128,0,0.4420033114042949,6.9479656540581365,7.027336128557447
1769246057244,128,0,0.764142472898923,6.978327409367761,7.338422268753266
1769246057248,128,0,1.1348190294284075,7.205215188969303,7.698857465844122
1769246057252,129,1,1.589522700241351,7.997626830613955,8.14452879332804
1769246057256,130,2,2.0791807120605608,8.978177689443484,8.62489948343846
1769246057260,130,2,2.5337987889004734,8.751003018119036,9.069144611399388
1769246057264,130,2,2.9411829813949444,9.037299086727666,9.466068161049968
1769246057268,131,3,3.3569299058368283,9.983287438024282,9.872412194141036
1769246057272,131,3,3.852971108936361,10.013522087574264,10.359683604477564
1769246057276,132,4,4.464427495694168,10.820849670635695,10.961649251376093
1769246057280,133,5,5.171154245800643,11.741928629303905,11.657679406723169
1769246057284,133,5,5.9111750856634995,11.887423606116364,12.38670503380998
1769246057288,134,6,6.611330362440692,12.97849152048918,13.076656454796094
1769246057292,135,7,7.224485985449139,13.798177304844277,13.680468102574585
1769246057296,135,7,7.756401099446887,13.905003752987191,14.203177841325902
1769246057300,136,8,8.257265445430013,14.460649216679103,14.69441684854268
1769246057304,136,8,8.775283958589512,15.054147989979471,15.202334060806589
1769246057308,137,9,9.309522537246549,15.587368318676155,15.72620665271043
1769246057312,137,9,9.804110503992495,16.039901627557065,16.210450290615093
1769246057316,138,10,10.18743998571815,16.47013177456483,16.583670909640297
1769246057320,138,10,10.421929759930098,16.7332966792681,16.80823523077619
1769246057324,138,10,10.524720902309983,16.647234947826156,16.900990479771707
1769246057328,138,10,10.545457990125222,16.753882611202975,16.911383824947976
1769246057332,138,10,10.522538525659163,16.75932135300384,16.8780161121729
1769246057336,138,10,10.456309614304878,16.493993173189633,16.801697669190446
1769246057340,138,10,10.321974188394794,16.626355209401368,16.6578549911145
1769246057344,138,10,10.10713242915138,16.523865691413516,16.433780675960996
1769246057348,137,9,9.83014522780937,15.732082507447627,16.147153006794237
1769246057352,137,9,9.509763715991197,15.564198495694828,15.816038962990788
1769246057356,137,9,9.108849124296755,15.51945814842311,15.403203965232006
1769246057360,136,8,8.509128531279465,14.439025648028313,14.79139617491954
1769246057364,135,7,7.55322613489944,13.531813211147368,13.824782458361527
1769246057368,134,6,6.141390935354924,12.550243450043386,12.40403137043806
1769246057372,132,4,4.326095560570008,10.521548014903882,10.58030608891509
1769246057376,130,2,2.3255068846528517,8.40575931051862,8.570218845528562
1769246057380,128,0,0.4136714299580015,6.366339271228419,6.647638388309113
1769246057384,126,-2,-1.251451257086658,4.447383807335873,4.971348117935402
1769246057388,125,-3,-2.719987606767571,3.435157246603876,3.4915401627064373
1769246057392,124,-4,-4.169562352463953,2.442613445917398,2.0302637596676893
1769246057396,122,-6,-5.718907876071514,0.3017281504620683,0.469148302903994
1769246057400,120,-8,-7.307516806432739,-1.7093891720427763,-1.1300457784329652
1769246057404,119,-9,-8.739970351459432,-2.649412265777885,-2.5714637866240686
1769246057408,118,-10,-9.829081692755633,-3.679347264872126,-3.669242496657942
1769246057412,117,-11,-10.503880583022182,-4.624319515263412,-4.354097661174144
1769246057416,117,-11,-10.817415321830168,-4.813118111638719,-4.679455753631496
1769246057420,117,-11,-10.8822870394373,-4.783683573304602,-4.757005212639285
1769246057424,117,-11,-10.79852103158873,-4.744627975034062,-4.685519941256789
1769246057428,117,-11,-10.624266804317225,-4.818340512820173,-4.522301770279107
1769246057432,117,-11,-10.394515853338005,-4.644847122749345,-4.302441143035319
1769246057436,118,-10,-10.146167581492096,-4.016229169407934,-4.063931857211761
1769246057440,118,-10,-9.910485458504866,-3.72973645333094,-3.8390932668919024
1769246057444,118,-10,-9.687634932330234,-4.010813184718456,-3.6279797743733657
1769246057448,118,-10,-9.446696697914524,-3.7560642166914047,-3.3987610854370462
1769246057452,119,-9,-9.15734659914236,-2.89395602905711,-3.1206173919553652
1769246057456,119,-9,-8.819093622829186,-2.983158450692523,-2.793245590110507
1769246057460,119,-9,-8.465473795621302,-2.9126503868243336,-2.4505887601284755
1769246057464,120,-8,-8.147202256066748,-2.0462599526569036,-2.143885601339541
1769246057468,120,-8,-7.904884253686007,-1.9240577485826211,-1.9140846630637949
1769246057472,120,-8,-7.749069303400557,-1.9301592314959544,-1.771066610274605
1769246057476,120,-8,-7.667135486125627,-2.1427929156179317,-1.7008034795902756
1769246057480,120,-8,-7.643253485212357,-1.935384172800326,-1.6871448197301309
1769246057484,121,-7,-7.651923780945502,-1.2208521046011906,-1.706088374321503
1769246057488,120,-8,-7.628649071798869,-1.970523561753648,-1.6946146570169756
1769246057492,120,-8,-7.478056553706502,-2.077375262260336,-1.557008243145022
1769246057496,121,-7,-7.145319084608866,-1.2083688647590147,-1.2370546614308466
1769246057500,121,-7,-6.683966448838004,-1.0399964455634656,-0.7877336650925351
1769246057504,122,-6,-6.237610597652221,-0.3453915645146601,-0.35329183315371
1769246057508,122,-6,-5.942118615284937,-0.0179589034930813,-0.0702714614347996
1769246057512,122,-6,-5.836989264879001,-0.2896745068432089,0.0219648755824835
1769246057516,122,-6,-5.861120694580539,-0.164332003293909,-0.0148215435811209
1769246057520,122,-6,-5.923714188211068,-0.2974166560524374,-0.0894493805372267
1769246057524,122,-6,-5.975338624892914,-0.2982279154946212,-0.152776682092993
1769246057528,122,-6,-6.016367385582045,-0.2373857468586617,-0.2058891942546932
1769246057532,122,-6,-6.048874646025947,-0.345184774074168,-0.2513908803181852
1769246057536,122,-6,-6.0342747349821915,-0.2544606127226707,-0.2504996939153354
1769246057540,122,-6,-5.911035067314597,-0.465707028482818,-0.1408505157975934
1769246057544,122,-6,-5.660604905514672,-0.2924745087718836,0.0966577438947169
1769246057548,123,-5,-5.349479538027822,0.5207358062254341,0.395060763414147
1769246057552,123,-5,-5.0924805831638515,0.6839112129368079,0.6386701614214827
1769246057556,123,-5,-4.96757947701557,0.50961113366668,0.7495021770693455
1769246057560,123,-5,-4.966191424550856,0.5506863398834625,0.7370117996392844
1769246057564,123,-5,-5.0199750958313185,0.4952582746342466,0.6700531057584413
1769246057568,123,-5,-5.064925073457225,0.4958016537458336,0.6121112878584505
1769246057572,123,-5,-5.079972681398398,0.5141897690500086,0.5834404140895906
1769246057576,123,-5,-5.0788020734455035,0.4438705922940187,0.5702404556151519
1769246057580,123,-5,-5.079631479840611,0.4238923577703168,0.5548491374774969
1769246057584,123,-5,-5.085943761508572,0.3918362934031485,0.5341817389466108
1769246057588,123,-5,-5.08956615693357,0.3833817737907816,0.5161794300186342
1769246057592,123,-5,-5.08563927685551,0.4062712194125204,0.5052885621279444
1769246057596,123,-5,-5.083167407678889,0.334243573531868,0.4926163831141075
1769246057600,123,-5,-5.100936391347556,0.3167149021477824,0.4599771676603996
1769246057604,123,-5,-5.148148184144616,0.2858696429546166,0.3984557084875177
1769246057608,123,-5,-5.2009661604368365,0.2481694361513575,0.3313635035006221
1769246057612,123,-5,-5.197906430385039,0.3405176757899877,0.3194123525036456
1769246057616,123,-5,-5.073279747436821,0.1561347672074697,0.4281678948231651
1769246057620,123,-5,-4.815152728205382,0.2979085354141455,0.6700564422727613
1769246057624,124,-4,-4.496040784604139,1.0640846391446974,0.9729154344646068
1769246057628,124,-4,-4.234540952030274,1.2513412644945578,1.218189143240287
1769246057632,124,-4,-4.112503743256217,1.108864654317907,1.3242349871191568
1769246057636,124,-4,-4.121580759446603,1.1599510814947758,1.2996883758976328
1769246057640,124,-4,-4.183450750053272,1.075150859440952,1.222514631631152
1769246057644,124,-4,-4.218093456510401,1.0445061636964716,1.171711171782456
1769246057648,124,-4,-4.201179946196435,1.06319834594244,1.1709781973983553
1769246057652,124,-4,-4.171844666404958,1.047947806008355,1.181788728998688
1769246057656,124,-4,-4.190399179091189,1.0158813370995654,1.145175123265061
1769246057660,124,-4,-4.274037487451702,0.9632129614196928,1.0447388143069274
1769246057664,124,-4,-4.352533501445771,0.948107379379798,0.9503392926506268
1769246057668,124,-4,-4.28239270657266,0.9016942563424336,1.0044757528067
1769246057672,124,-4,-3.926398272180145,1.0118704098262512,1.3434680804877237
1769246057676,125,-3,-3.252265809590755,1.7827714300077604,1.9990064198513144
1769246057680,126,-2,-2.374848388100208,3.003105652771012,2.856193111985892
1769246057684,127,-1,-1.5045343086138674,3.6360493065157824,3.705688872149185
1769246057688,127,-1,-0.8394837395419161,4.005290303718397,4.35111281155152
1769246057692,128,0,-0.471930722966964,4.661593462027364,4.701048601234289
1769246057696,128,0,-0.3518981450388327,4.876315491120224,4.80434508617055
1769246057700,128,0,-0.320023970494804,4.713683423329768,4.818587145705713
1769246057704,128,0,-0.2035089471503828,4.628479280458338,4.91598406553707
1769246057708,128,0,0.067364805914047,4.854760108252235,5.166747078407529
1769246057712,129,1,0.4037023459866411,5.485753212432654,5.482182153163485
1769246057716,129,1,0.6160314286816426,5.891134770409952,5.672584522003285
1769246057720,129,1,0.5410924431895272,5.399121984923782,5.575245288637248
1769246057724,128,0,0.1325889422224158,4.732141457907591,5.1454177418623
1769246057728,128,0,-0.5386253169029533,4.505124593830372,4.454925714607668
1769246057732,127,-1,-1.3378395455058056,3.5577057229867366,3.6375657023065298
1769246057736,126,-2,-2.1138364124278737,2.6320052702643126,2.8424132546542484
1769246057740,126,-2,-2.7287707780254373,2.3609177918261883,2.205798833724504
1769246057744,125,-3,-3.0951758900524,1.5843901862142005,1.8155587006441631
1769246057748,125,-3,-3.22553038294393,1.3464267612917895,1.661009485406861
1769246057752,125,-3,-3.253941796184823,1.5137923595712888,1.6094550087254262
1769246057756,125,-3,-3.3788653986281703,1.399009803130844,1.462219128989152
1769246057760,125,-3,-3.736993553909228,1.3681158037471732,1.081595207890655
1769246057764,124,-4,-4.302225782789092,0.330212341998096,0.49358927523377
1769246057768,123,-5,-4.904291606947041,-0.6856914852774931,-0.1307624975168853
1769246057772,123,-5,-5.352570550423607,-0.6673539265271238,-0.6010441278153564
1769246057776,123,-5,-5.549137666986974,-0.7108689281463905,-0.8209739916566487
1769246057780,123,-5,-5.504594063832155,-0.7157922967591421,-0.8020029149452084
1769246057784,123,-5,-5.286280214267645,-0.869060498765891,-0.6098036030215797
1769246057788,123,-5,-4.977344827600352,-0.7360236744311281,-0.3252295833939644
1769246057792,124,-4,-4.665476235639533,0.1081082513205222,-0.036368150082005
1769246057796,124,-4,-4.42605142019716,0.2718566473496171,0.1783036303766696
1769246057800,124,-4,-4.293684561985419,0.058633458140024,0.2822035578972173
1769246057804,124,-4,-4.258605573269028,0.1050554150298106,0.2874094927935724
1769246057808,124,-4,-4.296788921836786,0.0122227242702388,0.2231231339526918
1769246057812,124,-4,-4.388693112321725,0.081724633879971,0.111879656980566
1769246057816,124,-4,-4.49373380255235,0.0753920196284125,-0.0092156138632226
1769246057820,124,-4,-4.521178696734979,-0.0205999024786844,-0.0585795108681574
1769246057824,124,-4,-4.372763338451676,-0.0284988412182496,0.0540520940015003
1769246057828,124,-4,-4.055329901240961,-0.1905597661484543,0.3233792667527728
1769246057832,124,-4,-3.7228923084978662,0.0630590196908444,0.6086837223843311
1769246057836,125,-3,-3.464913047848273,0.8009196863431312,0.8372306946469177
1769246057840,126,-2,-2.8445920610105997,2.048107463823402,1.4520481605864264
1769246057844,129,1,-0.536516361383848,4.619749740077203,3.766653511820124
1769246057848,134,6,5.399593740066038,9.88647172069896,9.698423861407528
1769246057852,144,16,16.368738229231084,19.717262095603036,20.635733536862407
1769246057856,158,30,31.71568183214704,33.89587378983502,35.92524665377322
1769246057860,175,47,47.96899327244419,50.73927342935955,52.11235949969299
1769246057864,190,62,59.82985669011401,65.6380774983516,63.91632642242858
1769246057868,194,66,62.72029059523162,69.5734311677499,66.76933967083028
1769246057872,184,56,55.34853351193059,59.65863801682031,59.38179082937846
1769246057876,167,39,40.473546729438205,42.65062540004413,44.50760998731002
1769246057880,150,22,23.30799947563998,25.71467278500058,27.34572193214106
1769246057884,137,9,8.74392159406696,12.43216077497974,12.769535840253509
1769246057888,128,0,-0.7206056844074817,3.65195691081915,3.2658655759725583
1769246057892,124,-4,-5.280008506517463,-0.7292494426716143,-1.3540328149376428
1769246057896,122,-6,-6.664116332434207,-2.164021658682028,-2.8013971358625014
1769246057900,122,-6,-6.664834711994733,-2.9031729835697195,-2.850502334811285
1769246057904,121,-7,-6.320878732256464,-3.145067153887805,-2.5343771811195115
1769246057908,122,-6,-5.970539344753634,-3.0790592978835143,-2.1987047628249066
1769246057912,122,-6,-5.702503850629634,-2.2369397363950085,-1.9460904017737004
1769246057916,124,-4,-5.61723160871195,-0.9296058812382072,-1.888195443721095
1769246057920,123,-5,-5.730349575750498,-1.5276565017617152,-2.0419411799748755
1769246057924,122,-6,-5.818003344569838,-2.693887289027759,-2.174773785220907
1769246057928,122,-6,-5.5306100398250635,-2.9027574541253243,-1.9268687416001151
1769246057932,123,-5,-4.711395725318068,-1.556143145068587,-1.1393756680564069
1769246057936,126,-2,-3.562302138094826,0.9923180805955064,-0.0209081010011145
1769246057940,126,-2,-2.468215628697944,1.332374788782226,1.0371935027981438
1769246057944,126,-2,-1.6836601536920763,1.1073328565188545,1.7814609107947614
1769246057948,127,-1,-1.2039555610005197,2.041725868751758,2.222388611705135
1769246057952,127,-1,-0.8861762546311764,2.231562559268074,2.5056807419438973
1769246057956,128,0,-0.6213778491482556,2.859663806991211,2.737386034048468
1769246057960,128,0,-0.3795199549949166,3.2671073169479232,2.9434132403491624
1769246057964,128,0,-0.144881204977314,2.780896099063857,3.1388829915636807
1769246057968,128,0,0.1332397436980781,3.1854524947059346,3.3770890347136877
1769246057972,129,1,0.5147975202470112,3.717469708698357,3.7201194818823007
1769246057976,129,1,1.0147957273992247,4.124912009720225,4.182704029760308
1769246057980,130,2,1.584450511980168,4.7090496691075625,4.714612596832077
1769246057984,130,2,2.1369173910585317,5.0332532421154905,5.2282091865891935
1769246057988,131,3,2.5871038035615626,5.666116264976642,5.638602286441786
1769246057992,131,3,2.877862822144494,5.9128588544782685,5.889218806659817
1769246057996,131,3,2.983261353455215,5.651056026924642,5.954597495284615
1769246058000,133,5,5.512566001930419,7.364644197860132,7.226551144971453
1769246058004,133,5,5.612019541649447,7.224331074020054,7.326450714684421
1769246058008,133,5,5.891207590487767,7.496361335771182,7.6065119171630045
1769246058012,134,6,6.301063281971099,8.141135323026113,8.017502123564476
1769246058016,134,6,6.79161137049959,8.517231720885851,8.508855322380043
1769246058020,135,7,7.331887699220221,8.992800662472378,9.04909285669684
1769246058024,135,7,7.901496171363411,9.611156267018778,9.618148761311938
1769246058028,136,8,8.461866569777545,10.082756331148037,10.17862500391236
1769246058032,136,8,8.943853818974251,10.566146064532678,10.662303367709358
1769246058036,137,9,9.280777057601073,11.112123263144674,11.002003585850844
1769246058040,137,9,9.469091774063498,11.341156656515016,11.192486130767223
1769246058044,137,9,9.593769986832868,11.322673438904316,11.317600464446349
1769246058048,137,9,9.769522267386234,11.273795522257908,11.492862722570754
1769246058052,137,9,10.031934793270564,11.48094674909386,11.75572972728244
1769246058056,138,10,10.285837851686471,12.100084806367123,12.011810245034916
1769246058060,138,10,10.38258052678163,12.437258526767764,12.11139746032463
1769246058064,138,10,10.264190296954949,12.140840552402754,11.995160663199757
1769246058068,137,9,10.023311134104702,11.500612242168147,11.755696816882594
1769246058072,137,9,9.801330862826187,11.217840917899029,11.535272397078971
1769246058076,137,9,9.617588945183162,11.381593136919658,11.353540375463632
1769246058080,137,9,9.301732073221045,11.152783111980511,11.03951051619989
1769246058084,136,8,8.601869068259411,10.412243269905485,10.340730991752274
1769246058088,135,7,7.373734763058299,9.23216670031934,9.11339154300146
1769246058092,133,5,5.687686861640277,7.456664717578426,7.429121953873391
1769246058096,131,3,3.7719071596466303,5.163693956506616,5.516984051294928
1769246058100,129,1,1.8569166760997815,3.34346792279381,3.606751894791919
1769246058104,128,0,0.0644225158194737,2.2537378361989555,1.8180551106260256
1769246058108,126,-2,-1.5813819151997954,0.3550824627033708,0.1738146700221838
1769246058112,124,-4,-3.077290423555792,-1.6481092920245288,-1.3217073773671912
1769246058116,123,-5,-4.40409381373335,-2.752301098508686,-2.647231805916422
1769246058120,122,-6,-5.551359510721238,-3.7448552845027825,-3.7916394003660416
1769246058124,121,-7,-6.542782502089363,-4.648318412178946,-4.779552368246044
1769246058128,120,-8,-7.418640849328838,-5.757330811053069,-5.652092330207515
1769246058132,119,-9,-8.19552324153209,-6.530430899069603,-6.425778251522234
1769246058136,119,-9,-8.843117661175166,-6.889311740138365,-7.0700749643832195
1769246058140,118,-10,-9.295561745445736,-7.616741293548046,-7.519328229412956
1769246058144,118,-10,-9.492780802784916,-7.75967181482428,-7.713656687792115
1769246058148,118,-10,-9.430564816038894,-7.670149896262147,-7.6486205083360925
1769246058152,118,-10,-9.18300076350161,-7.590721918209573,-7.398059807359139
1769246058156,119,-9,-8.869661501586444,-6.885293587334556,-7.081715161608453
1769246058160,119,-9,-8.584725315014103,-6.578506025617742,-6.793923939969883
1769246058164,119,-9,-8.34770571263757,-6.842847753903795,-6.553796009158616
1769246058168,119,-9,-8.11885477640332,-6.553474891556501,-6.3211069465354255
1769246058172,120,-8,-7.854636444626404,-5.737605069435692,-6.052612006449544
1769246058176,120,-8,-7.543448282355211,-5.7460524226445235,-5.737477695043489
1769246058180,120,-8,-7.199486293950175,-5.709128054292381,-5.390204851770889
1769246058184,121,-7,-6.840515742812574,-4.727197122490238,-5.028228096119156
1769246058188,121,-7,-6.477831736255063,-4.657035988712384,-4.662363730332949
1769246058192,121,-7,-6.12474561443849,-4.66241107559749,-4.305674120996864
1769246058196,122,-6,-5.81071181118529,-3.813984778578377,-3.987776953608397
1769246058200,122,-6,-5.579197930062428,-3.6562916920514974,-3.752554000450132
1769246058204,122,-6,-5.4631308208344915,-3.772289802636467,-3.63304842734455
1769246058208,122,-6,-5.459650998987145,-3.619885799346443,-3.6260457835651376
1769246058212,122,-6,-5.526447437237672,-3.7078461329736663,-3.6889366872635225
1769246058216,122,-6,-5.597717868368874,-3.7894343169651856,-3.756044720471877
1769246058220,122,-6,-5.60614688717968,-3.662225963519,-3.7602994327553185
1769246058224,122,-6,-5.503780546419255,-3.7869587925274826,-3.653822935384273
1769246058228,122,-6,-5.27693417787308,-3.590397743190353,-3.4230701349819252
1769246058232,123,-5,-4.9469523820954215,-2.7608050422421058,-3.089661411366023
1769246058236,123,-5,-4.557969149782979,-2.7468150331280725,-2.697605878037404
1769246058240,123,-5,-4.1664618939429054,-2.6957753497576418,-2.302714139651229
1769246058244,124,-4,-3.8360205749650222,-1.7689508146790591,-1.968220151534025
1769246058248,124,-4,-3.620335662533004,-1.5963514209088618,-1.7482672905275591
1769246058252,124,-4,-3.5334685114835933,-1.7896660537626794,-1.657408856541229
1769246058256,124,-4,-3.5388366361749117,-1.70312860547991,-1.6588905525114477
1769246058260,124,-4,-3.5763561482335766,-1.7613051989481991,-1.6922933057783265
1769246058264,124,-4,-3.6027704857872136,-1.6958213380160108,-1.714583277664637
1769246058268,124,-4,-3.608152397266355,-1.6689500052313329,-1.7163468380891933
1769246058272,124,-4,-3.603093920873048,-1.7425664374583574,-1.70817764342274
1769246058276,124,-4,-3.5993929453164535,-1.7383179884350115,-1.7012193527847526
1769246058280,124,-4,-3.602328758584189,-1.7518597338625777,-1.7001782613159522
1769246058284,124,-4,-3.611884174031315,-1.6928684630527877,-1.7052477545071971
1769246058288,124,-4,-3.623227212981365,-1.6805992646670211,-1.7124106822404277
1769246058292,124,-4,-3.627150054352643,-1.7429498775991128,-1.7130138811306672
1769246058296,124,-4,-3.617852715047065,-1.741560100504182,-1.7009598678794984
1769246058300,124,-4,-3.604946386281647,-1.760337819553441,-1.6850273174933612
1769246058304,124,-4,-3.6127650206738946,-1.6862518263734012,-1.6890622704211813
1769246058308,124,-4,-3.656370286359541,-1.6810727395158995,-1.7284772229318897
1769246058312,124,-4,-3.7105042250116345,-1.7702634627664595,-1.7787492937900955
1769246058316,124,-4,-3.7068511803792497,-1.700160786594639,-1.7717748100769242
1769246058320,124,-4,-3.577810620509362,-1.8349121298845008,-1.6394473116606574
1769246058324,124,-4,-3.3176488955197687,-1.5914165819620236,-1.3757101399055167
1769246058328,125,-3,-3.0018621408170674,-0.7918454744076548,-1.0566393801868457
1769246058332,125,-3,-2.738350724824877,-0.6619888323269845,-0.7908455048991696
1769246058336,125,-3,-2.5950434178860644,-0.8181598843776872,-0.6457851131737997
1769246058340,125,-3,-2.5718041609203777,-0.7319978900018407,-0.619906222316847
1769246058344,125,-3,-2.62759027064436,-0.6947149528645089,-0.6715222906805451
1769246058348,125,-3,-2.71389740618438,-0.6952665856211375,-0.7531782757729839
1769246058352,125,-3,-2.778447310005386,-0.7583892478652494,-0.8142384172543864
1769246058356,125,-3,-2.759329330381344,-0.7311601018789764,-0.7932461718292729
1769246058360,125,-3,-2.607764459400321,-0.8336392603449361,-0.6403219666409499
1769246058364,125,-3,-2.333544168147041,-0.595743227169061,-0.3640170249393917
1769246058368,126,-2,-2.0199973871171752,0.1996820586234023,-0.0476525065548381
1769246058372,126,-2,-1.7746874381743405,0.3488463688141794,0.2003537840263264
1769246058376,126,-2,-1.6546200142875378,0.1515458522602464,0.3225982440613046
1769246058380,126,-2,-1.6382469225796883,0.2647820116953541,0.340974033497549
1769246058384,126,-2,-1.6647581054889296,0.3028057857405537,0.3165648670660942
1769246058388,126,-2,-1.6918228420844663,0.2865970477769748,0.2915454738711738
1769246058392,126,-2,-1.716525866103474,0.2817944720571484,0.2687212280053572
1769246058396,126,-2,-1.750843071272692,0.1972652757667228,0.2362779385070146
1769246058400,126,-2,-1.7832313317137287,0.2081501117141362,0.2057914430756354
1769246058404,126,-2,-1.7643500352984265,0.350289314685027,0.2263275244885114
1769246058408,126,-2,-1.635312164317967,0.2256648875590861,0.3565871154613149
1769246058412,126,-2,-1.3818282557195072,0.3644652878781452,0.6109814321187063
1769246058416,127,-1,-1.06615336797821,1.0889750972349637,0.9274047151696336
1769246058420,127,-1,-0.797667402245291,1.3134668070023454,1.1965490454124863
1769246058424,127,-1,-0.6594427918371302,1.2248234665073547,1.3355657551500482
1769246058428,127,-1,-0.6541231856677285,1.3482707871436634,1.3420514089162758
1769246058432,127,-1,-0.7133534798305639,1.2517638265171942,1.284135387770733
1769246058436,127,-1,-0.7563745992660971,1.173389741178506,1.241921407912773
1769246058440,127,-1,-0.7476801811728806,1.241930411882499,1.2505164251225964
1769246058444,127,-1,-0.7124965088553901,1.2588644182046358,1.285020712524419
1769246058448,127,-1,-0.7033302723363295,1.3331367743455709,1.293662064212073
1769246058452,127,-1,-0.745435028883684,1.2573336180895471,1.2516052189605376
1769246058456,127,-1,-0.8035442398848329,1.1514972631216815,1.1938754537021403
1769246058460,127,-1,-0.7975291019448605,1.2682109156803696,1.2000527120268858
1769246058464,127,-1,-0.6595018132345434,1.195806240704862,1.337695351453543
1769246058468,127,-1,-0.3909785091369175,1.4218485342596434,1.6052198948844008
1769246058472,128,0,-0.0719807419121729,2.1470013187605494,1.9225895241154656
1769246058476,128,0,0.1899083999421891,2.266162580779294,2.182436567367067
1769246058480,128,0,0.3281458040622997,2.1326777401560353,2.318874833834488
1769246058484,128,0,0.3471176285717858,2.3150497803219636,2.3368452018421264
1769246058488,128,0,0.3003805852633838,2.309688313332438,2.289598370098541
1769246058492,128,0,0.2490576373506761,2.239539063439719,2.237310841841171
1769246058496,128,0,0.2317472909587681,2.194708314814873,2.217974753238241
1769246058500,128,0,0.2536231328408329,2.1610580604480507,2.2369586568785245
1769246058504,128,0,0.2917408830779224,2.296877422266755,2.271892354623895
1769246058508,128,0,0.3134169888299885,2.3083931695880615,2.2905214588641867
1769246058512,128,0,0.2992854590918483,2.2435329792404004,2.273654325149111
1769246058516,128,0,0.2575598764553546,2.1941606665760283,2.2294580630065925
1769246058520,128,0,0.2225310864491895,2.1283923177985145,2.1919241978169826
1769246058524,128,0,0.241348267080856,2.3330992073365167,2.2078015251135925
1769246058528,128,0,0.3554357336153876,2.2555972572046934,2.3183466311990646
1769246058532,128,0,0.5814876670080862,2.302229574031009,2.5403778621212543
1769246058536,129,1,0.9016639934261051,3.1312135285811484,2.8562241023112875
1769246058540,129,1,1.2725143565731492,3.1715304582014907,3.222548657842472
1769246058544,129,1,1.6480410348789674,3.2743807391523485,3.593477287300114
1769246058548,130,2,2.001354058409165,4.317121935995104,3.9422640045703554
1769246058552,130,2,2.3320549732112736,4.230484997517209,4.268690148165755
1769246058556,130,2,2.6536059066998803,4.200155117982959,4.586226547271133
1769246058560,131,3,2.968630170626551,5.093537912145043,4.896868646982268
1769246058564,131,3,3.2537283225206894,5.320639685376755,5.176266390568258
1769246058568,131,3,3.462042987874877,5.288103373431063,5.377589961936416
1769246058572,131,3,3.528706849910064,5.240710428605716,5.437316912254126
1769246058576,131,3,3.3779568961277224,5.195400508267296,5.2807311145501785
1769246058580,131,3,2.9562534701436283,5.069286739068838,4.853683643318076
1769246058584,130,2,2.288991896841486,4.338774243827533,4.180318652797803
1769246058588,129,1,1.5036333404528364,3.2644506198532257,3.388078000908598
1769246058592,128,0,0.7728019104409667,2.262754630230336,2.650645676222465
1769246058596,128,0,0.2169662033044085,2.165435989577361,2.088764077872919
1769246058600,128,0,-0.1431646223476859,2.080311297067814,1.7220508619617665
1769246058604,127,-1,-0.3538994701397185,1.3256787587252117,1.5032684542215264
1769246058608,127,-1,-0.4740083629319206,1.2701517908145796,1.3740386616574891
1769246058612,127,-1,-0.5581319909022234,1.2555842097699057,1.280732455126262
1769246058616,127,-1,-0.6686835472660959,1.148793465316654,1.1615273192077098
1769246058620,127,-1,-0.8719386258692088,1.0915868287096089,0.9502650271670527
1769246058624,126,-2,-1.2034072904530733,0.3079427287758474,0.6112308508247603
1769246058628,126,-2,-1.6261375357231196,0.2731060851987645,0.1807063575126057
1769246058632,126,-2,-2.0197325343523502,0.2646009013141215,-0.2215296938521855
1769246058636,125,-3,-2.2313497307056416,-0.9023476476853762,-0.44230639584027
1769246058640,125,-3,-2.1782050869232643,-0.8411765139622769,-0.3982331256189622
1769246058644,126,-2,-1.922252708612918,0.2191763238502173,-0.1520693533621466
1769246058648,126,-2,-1.6327313705656816,0.3610177434501089,0.1253028724757283
1769246058652,126,-2,-1.4593488768339495,0.1771376478345251,0.2847032363174604
1769246058656,126,-2,-1.4362404509107134,0.157227162041375,0.2958153873123925
1769246058660,126,-2,-1.494361548030609,0.0938332463354423,0.2314991427189754
1769246058664,126,-2,-1.541715124278929,0.2561196927594864,0.182816183251663
1769246058668,126,-2,-1.5283321976535125,0.3552601329903333,0.1927422023417069
1769246058672,126,-2,-1.467682659467128,0.1440610957587843,0.2390405435612208
1769246058676,126,-2,-1.4334743276512814,0.2166882480785217,0.2452295568401388
1769246058680,126,-2,-1.5220773359120925,-0.0333471953617721,0.123604411201424
1769246058684,125,-3,-1.7156961360959897,-0.5865723464542878,-0.0913073115281941
1769246058688,126,-2,-1.608436374174612,0.16727434311524,0.0183900603527826
1769246058692,128,0,-0.1245423487910001,2.3635802611161267,1.5232578023191392
1769246058696,133,5,4.426121394443839,6.960883730861637,6.092106381247016
1769246058700,141,13,13.609045442036232,15.231138815706585,15.26923295474565
1769246058704,153,25,27.541436133933445,27.13882700108716,29.16752114185171
1769246058708,169,41,43.79580414715013,43.442005607271675,45.37328207397901
1769246058712,186,58,57.64115622343514,60.11687603506055,59.174510331743306
1769246058716,194,66,64.01738923005033,68.13024124144572,65.52358816442029
1769246058720,189,61,60.23761806339655,63.06233874442116,61.73775153175184
1769246058724,174,46,47.574435422002416,48.15571140152974,49.08700624970031
1769246058728,156,28,30.554905076785033,30.44993352776386,32.08805562613673
1769246058732,141,13,14.477027915758285,15.05970700171657,16.02188155025583
1769246058736,130,2,2.8821645049190163,4.351314380550258,4.415170874294864
1769246058740,125,-3,-3.4900499250148904,-1.1463979029100746,-1.9936516619621616
1769246058744,122,-6,-6.000030158950562,-3.606026469318385,-4.550738253532811
1769246058748,121,-7,-6.57631837968387,-4.891155233410759,-5.164748040463392
1769246058752,120,-8,-6.542510194854809,-5.647988007539382,-5.147356861415025
1769246058756,120,-8,-6.375880282481883,-5.89545082843808,-4.9790321738348595
1769246058760,121,-7,-6.127385629254135,-4.9212331856136355,-4.725356054058022
1769246058764,122,-6,-5.856709830911918,-3.77184648806852,-4.460633235057028
1769246058768,122,-6,-5.705066225410036,-3.877532854566625,-4.329965764095215
1769246058772,121,-7,-5.729573480449985,-4.6057429104976055,-4.382168010321866
1769246058776,121,-7,-5.821498694388732,-5.003827391636586,-4.496964001667016
1769246058780,121,-7,-5.818728646270833,-4.718746160919733,-4.5081638165359195
1769246058784,122,-6,-5.650634543915691,-4.021464143963192,-4.350610212985762
1769246058788,122,-6,-5.3493143375143895,-3.661067471249761,-4.063813185371465
1769246058792,122,-6,-4.962065321818509,-3.8430715686497594,-3.69631983481797
1769246058796,122,-6,-4.508378452254497,-3.7915388408355537,-3.262875782817853
1769246058800,123,-5,-4.019343769480516,-2.862362754610933,-2.790704277127728
1769246058804,124,-4,-3.560784955166073,-1.9393267505737577,-2.347062942442374
1769246058808,124,-4,-3.176109949105729,-1.7301597598303822,-1.9791275470868317
1769246058812,124,-4,-2.826198850078111,-1.8455909464761624,-1.6484771587385525
1769246058816,124,-4,-2.428827769045298,-1.762542259167117,-1.2700618561647274
1769246058820,125,-3,-1.9623497136753012,-0.8859943654201188,-0.8203021259284788
1769246058824,126,-2,-1.4963231920396587,0.0763376653316849,-0.3704154815720013
1769246058828,126,-2,-1.1006693132197405,0.2405403060001778,0.0070201863690355
1769246058832,126,-2,-0.7498331406977865,0.1325042240515399,0.337737442560505
1769246058836,126,-2,-0.3513120603740756,0.2711988983997606,0.7168607793473712
1769246058840,127,-1,0.1340762039822127,1.0787565442458042,1.1848588517893983
1769246058844,128,0,0.6337399340503955,2.1055910637378608,1.6674342955118626
1769246058848,128,0,1.0408662222011644,2.2224821278936213,2.055669619770024
1769246058852,128,0,1.3323931019870576,2.0625027457743585,2.326881347336094
1769246058856,128,0,1.5918850669495543,2.4052046659142374,2.5667469447697595
1769246058860,129,1,1.9258062873207955,2.8571810555978203,2.8827004288538283
1769246058864,129,1,2.37696890674427,3.415992736299505,3.3163785657933427
1769246058868,130,2,2.916976400484823,3.8412009892064582,3.8377567944972633
1769246058872,130,2,3.498734190976781,4.433491880799874,4.399500910092396
1769246058876,131,3,4.096567078134152,5.040427304016795,4.977030837204151
1769246058880,131,3,4.695613964043541,5.1527416835442255,5.556417527612836
1769246058884,132,4,5.259033375873495,6.222593715188011,6.1005862952638275
1769246058888,133,5,5.724687565635556,6.916614060896077,6.546708789903397
1769246058892,132,4,6.041050198049019,6.428062764424575,6.843357461100787
1769246058896,133,5,6.20546600698173,6.946516147022574,6.98852356247637
1769246058900,133,5,6.2743588501335825,7.294758194407902,7.0385977798822115
1769246058904,133,5,6.343747026653243,7.060621379377943,7.088876544580301
1769246058908,133,5,6.504566033835177,7.0696427308426495,7.22996666669342
1769246058912,133,5,6.786740770223806,7.273651674393424,7.492044267027661
1769246058916,134,6,7.133183502536759,8.033948165997378,7.818160616037568
1769246058920,134,6,7.435791836802258,8.256497229028373,8.100265360478563
1769246058924,134,6,7.605537309198605,8.056928015660633,8.249808054734403
1769246058928,134,6,7.6151163111086015,8.097637019992803,8.239947130650568
1769246058932,134,6,7.490746496746036,8.198217330729246,8.096516387898017
1769246058936,134,6,7.278078596271304,8.079739079690974,7.864407305832816
1769246058940,133,5,7.007689322189231,7.235923332711934,7.574173064724546
1769246058944,133,5,6.671041224286832,7.050251052652851,7.2177426725918465
1769246058948,133,5,6.2228997280251965,7.1293069922570655,6.749774096673237
1769246058952,132,4,5.615130667991959,6.103382199908598,6.121689086951676
1769246058956,131,3,4.827367658459846,5.168616103559563,5.313435752574288
1769246058960,130,2,3.8580611504727265,4.153470831043265,4.324278960247756
1769246058964,129,1,2.6964014283849833,3.1058003041130195,3.1433786685736567
1769246058968,128,0,1.327097726516433,2.1094557925917066,1.7545152099867054
1769246058972,126,-2,-0.2279776863603038,0.0416848680949701,0.1792151435481899
1769246058976,124,-4,-1.8838224468127267,-1.7421919970250703,-1.496636901891795
1769246058980,123,-5,-3.516659298541178,-2.9762872902766544,-3.148390951691274
1769246058984,121,-7,-5.012860399507858,-4.740165824249232,-4.662861816153619
1769246058988,120,-8,-6.29871793751558,-6.059215079198302,-5.967729880590864
1769246058992,119,-9,-7.341424257167931,-6.818429736193595,-7.030952468673515
1769246058996,118,-10,-8.142700498669777,-7.890888020266472,-7.853372646933783
1769246059000,117,-11,-8.740139119981984,-8.857620966858796,-8.470862497284626
1769246059004,117,-11,-9.20054743346414,-8.827757156080557,-8.94961294395437
1769246059008,117,-11,-9.581477323179186,-9.00866087891781,-9.348367457954286
1769246059012,116,-12,-9.88040664741038,-9.87207603514689,-9.666062326516224
1769246059016,116,-12,-10.031742358119642,-9.87292039885222,-9.837106515201732
1769246059020,116,-12,-9.9748101276892,-9.87988287324347,-9.799640725512225
1769246059024,116,-12,-9.7324894341846,-9.809217870896228,-9.575844260432126
1769246059028,117,-11,-9.41600730048246,-9.02454245346542,-9.277619165271656
1769246059032,117,-11,-9.142997010813604,-8.887585803888113,-9.023677659825928
1769246059036,117,-11,-8.948438152047201,-8.87384375852001,-8.84884405613744
1769246059040,117,-11,-8.779279882419274,-8.899308040531068,-8.698591541519802
1769246059044,117,-11,-8.573435836169118,-8.790391039169636,-8.509913297088591
1769246059048,118,-10,-8.330446093640013,-8.044975995911667,-8.283453436977846
1769246059052,118,-10,-8.09673877377282,-7.88732629610286,-8.067630210991188
1769246059056,118,-10,-7.89604475151772,-7.89271548207879,-7.886528560214029
1769246059060,118,-10,-7.699855721106829,-7.901646895032371,-7.709778268343094
1769246059064,118,-10,-7.472995223149608,-7.791038131086237,-7.500405009319422
1769246059068,119,-9,-7.227214822314106,-7.053661430321418,-7.270646946768344
1769246059072,119,-9,-7.007212461490543,-6.8844984934117575,-7.067228515074204
1769246059076,119,-9,-6.827309358154978,-6.920481538455558,-6.9053690861385455
1769246059080,119,-9,-6.645162886213323,-6.892543457719379,-6.741459833578051
1769246059084,119,-9,-6.410664543249726,-6.806468477811087,-6.52379968151798
1769246059088,120,-8,-6.130480760459902,-6.059141355670753,-6.259250196680017
1769246059092,120,-8,-5.870512263743748,-5.859554354562133,-6.015358365955191
1769246059096,120,-8,-5.69738059818824,-5.995360804006696,-5.859744309848857
1769246059100,120,-8,-5.628192773980826,-5.80906420441149,-5.808716489013678
1769246059104,120,-8,-5.635263252017824,-5.927707356930409,-5.832857916160779
1769246059108,120,-8,-5.682843926759054,-5.942736499569737,-5.895408933903106
1769246059112,120,-8,-5.744269774354237,-5.956916144625326,-5.970359309007831
1769246059116,120,-8,-5.782933942616694,-5.957192871316052,-6.0229851254017825
1769246059120,120,-8,-5.733629038706409,-5.811474380632439,-5.989560133968335
1769246059124,120,-8,-5.533350371632082,-6.007351099820239,-5.806691159854818
1769246059128,120,-8,-5.19766169841602,-5.810327727372709,-5.488067758497828
1769246059132,121,-7,-4.864619951378006,-5.140018750974776,-5.1703756555914016
1769246059136,121,-7,-4.727405373908745,-4.759356349482208,-5.047124475623343
1769246059140,121,-7,-4.882616121108689,-5.040832643645902,-5.216004751378825
1769246059144,120,-8,-5.228563636248364,-5.8082144271082985,-5.575705000834293
1769246059148,120,-8,-5.521627175302461,-5.996209272112368,-5.882230579970115
1769246059152,120,-8,-5.552680969405159,-5.997706403807722,-5.926371873494272
1769246059156,120,-8,-5.293744346341088,-5.863752472870982,-5.680834833498811
1769246059160,121,-7,-4.896950172313231,-5.0006641664569,-5.298522683394284
1769246059164,121,-7,-4.56221306886358,-4.816111124662477,-4.979122855253531
1769246059168,121,-7,-4.397680524539304,-5.0560160830193555,-4.829345496367045
1769246059172,121,-7,-4.383447904288095,-4.908648501988298,-4.827827758924253
1769246059176,121,-7,-4.43755725760144,-4.989716725258388,-4.892614517959286
1769246059180,121,-7,-4.494561249654648,-4.887748178752525,-4.959811141236231
1769246059184,121,-7,-4.525395508646212,-4.913140786290804,-5.00201641889687
1769246059188,121,-7,-4.5108384812634705,-5.031245865509897,-5.000342323408893
1769246059192,121,-7,-4.428195717168948,-4.872881167899223,-4.9310316826003815
1769246059196,121,-7,-4.2789946623098025,-5.1176163409820035,-4.794397477532656
1769246059200,121,-7,-4.120483785796406,-4.705937101194872,-4.647477246814576
1769246059204,122,-6,-4.045440935515006,-4.151781263422053,-4.583522703606182
1769246059208,121,-7,-4.111427416947454,-4.791802402943267,-4.660041999051129
1769246059212,121,-7,-4.284753314832722,-5.116608475292947,-4.842794591332337
1769246059216,121,-7,-4.4519075626733065,-4.923647518935825,-5.018652992841544
1769246059220,121,-7,-4.484728644764372,-4.869945640273011,-5.0609997566415785
1769246059224,121,-7,-4.313931685426644,-5.044222126875243,-4.901355759979931
1769246059228,121,-7,-3.9778842466068047,-4.866101666697337,-4.5769045350272926
1769246059232,122,-6,-3.617805217338966,-4.091351807536529,-4.227070778302662
1769246059236,122,-6,-3.3990665768654056,-3.9552625890946,-4.016845506547286
1769246059240,122,-6,-3.3944574522375595,-3.8490412439500874,-4.020033430326596
1769246059244,122,-6,-3.525114112078484,-4.092228398366805,-4.158615216304953
1769246059248,121,-7,-3.625710505299484,-4.805662851653136,-4.267244275342983
1769246059252,122,-6,-3.5848816947383035,-4.2051973051784195,-4.234464606309004
1769246059256,122,-6,-3.4312430143287944,-3.819748343016689,-4.089222912260159
1769246059260,122,-6,-3.2882800662682783,-4.0299839843114516,-3.954994524856765
1769246059264,122,-6,-3.2513109603870127,-3.887649003287019,-3.9262114372156978
1769246059268,122,-6,-3.302914443672462,-4.049173422541308,-3.984539478415756
1769246059272,122,-6,-3.330854270587074,-3.9879116979591385,-4.0178694402466215
1769246059276,122,-6,-3.2213527512098294,-4.03228028385388,-3.913529750999121
1769246059280,122,-6,-2.9497659258165214,-3.854828763646605,-3.6480929953517696
1769246059284,123,-5,-2.6006198557491516,-3.0307274132523543,-3.3065148131199993
1769246059288,123,-5,-2.306979867917018,-2.959842760327407,-3.020929812846558
1769246059292,123,-5,-2.1633812558187993,-3.083363267454434,-2.8839922589310754
1769246059296,123,-5,-2.1771662187456355,-2.9589549606793435,-2.90190013625132
1769246059300,123,-5,-2.2745003217082793,-2.9483234239194704,-3.0017883105736103
1769246059304,123,-5,-2.3368676067762024,-2.9173832948545892,-3.0673792725623494
1769246059308,123,-5,-2.250511597314507,-3.124263333450013,-2.986147083620871
1769246059312,123,-5,-1.961712438370464,-2.9028488837529194,-2.7035724415028644
1769246059316,124,-4,-1.5096786492847656,-2.2034920803913023,-2.2571697710834675
1769246059320,124,-4,-0.998405331820574,-1.666189081403857,-1.7499236197680317
1769246059324,125,-3,-0.5134560017553413,-1.2432296192521224,-1.2675008300825965
1769246059328,125,-3,-0.0503432886176709,-0.7888140933630744,-0.8061172422150826
1769246059332,126,-2,0.475858381908826,-0.2762191694623997,-0.2816044004664213
1769246059336,126,-2,1.1365130380788062,0.1326659953323739,0.376775865996848
1769246059340,127,-1,1.88469156171212,1.0326932194040914,1.1216542158593863
1769246059344,128,0,2.5311864388248817,1.9952789747823123,1.763924998360368
1769246059348,128,0,2.8302695661338477,2.031197789729655,2.0589582162845215
1769246059352,128,0,2.6150605302024155,1.790930945667215,1.8415096431195872
1769246059356,127,-1,1.8898919297998384,1.1163968042111732,1.116546158537511
1769246059360,126,-2,0.8303684535030338,-0.0248322471340176,0.058390255551372
1769246059364,125,-3,-0.2970189318831799,-0.9049466298501156,-1.0684673194354908
1769246059368,124,-4,-1.2525347619284042,-2.0929596126792163,-2.0249452290718097
1769246059372,123,-5,-1.9238519219615275,-3.127045789419748,-2.697750191007734
1769246059376,123,-5,-2.3516903347892297,-2.9546998150261157,-3.126693466803569
1769246059380,123,-5,-2.656159519425963,-3.0064091403794793,-3.431933775213282
1769246059384,122,-6,-2.9211643737645208,-3.8810841362720474,-3.6973309351600054
1769246059388,122,-6,-3.1414275936077756,-4.163757878506273,-3.916779627052723
1769246059392,122,-6,-3.2705077806302754,-4.069556720192422,-4.043476054334285
1769246059396,122,-6,-3.2981183027612495,-4.052031076118185,-4.068399718917124
1769246059400,122,-6,-3.268368903273976,-3.908388858430289,-4.037444649983399
1769246059404,122,-6,-3.235489551088087,-3.969936534191314,-4.004912568925715
1769246059408,122,-6,-3.2226974535542094,-4.105465893295914,-3.991884352352128
1769246059412,122,-6,-3.2278721486062203,-4.1464956856377295,-3.9940704531644577
1769246059416,122,-6,-3.2510954483009327,-4.029055962545504,-4.012071315465677
1769246059420,122,-6,-3.2944684562867597,-3.903504933934932,-4.051309070588708
1769246059424,122,-6,-3.332058252363999,-3.997172024502759,-4.088611904681743
1769246059428,122,-6,-3.3026190616556863,-4.068555279196659,-4.061096495194128
1769246059432,122,-6,-3.1596849217416687,-4.248438654262148,-3.91652005183685
1769246059436,122,-6,-2.9316876854379093,-3.9386313242860527,-3.678931686299797
1769246059440,123,-5,-2.7050100468114593,-3.0045610600162296,-3.437695189133924
1769246059444,123,-5,-2.5245617387204056,-2.8806781939975,-3.2476316677391175
1769246059448,123,-5,-2.3300234470989376,-3.2015940143398898,-3.0570963482029088
1769246059452,123,-5,-2.03027231028365,-3.1708312320916856,-2.7731386579070914
1769246059456,123,-5,-1.6234655666200726,-3.03130443929606,-2.380114014224486
1769246059460,124,-4,-1.1147539168105371,-1.9446297056284223,-1.866718276995872
1769246059464,126,-2,-0.1268822003034495,0.1291861802928871,-0.8503316503167104
1769246059468,129,1,2.4940330071696373,2.7177369901124617,1.8105093472956977
1769246059472,134,6,8.4982157159964,7.925928739290738,7.843230383061542
1769246059476,144,16,19.166132121798864,17.785748446821948,18.51203896291717
1769246059480,157,29,33.82361837854433,31.28016764043164,33.14551550819758
1769246059484,173,45,49.08730718596587,46.93316205498936,48.378949248641455
1769246059488,187,59,59.835157998633605,60.865751237915255,59.10996511148677
1769246059492,190,62,61.735999621524314,63.786729821968954,61.01626872534873
1769246059496,180,52,53.79479387353997,53.68577598631123,53.100645147271024
1769246059500,163,35,39.04848293298584,37.48912828059794,38.39192867586243
1769246059504,146,18,22.80363308107082,19.548074462308147,22.18473556655379
1769246059508,133,5,9.677781953808354,7.454265565753095,9.081935831363072
1769246059512,130,2,1.5442015862982723,3.157275535502466,0.9466174497724472
1769246059516,124,-4,-2.430271006700277,-1.6184094266653517,-3.049652351271841
1769246059520,121,-7,-4.200580478286244,-5.248269867170287,-4.841914417985105
1769246059524,120,-8,-5.22936926105799,-5.81166947095621,-5.872836455502237
1769246059528,119,-9,-5.920489700422728,-7.1725255380089,-6.542567064873328
1769246059532,119,-9,-6.066048811000789,-7.301698635965569,-6.656666762449807
1769246059536,120,-8,-5.562405329782537,-6.00948210464171,-6.128765745532241
1769246059540,121,-7,-4.720855041513996,-5.0190357514247905,-5.278151353239637
1769246059544,122,-6,-4.039620462727856,-3.973336436726952,-4.5986661213083515
1769246059548,122,-6,-3.7937739606697343,-4.1497418838146,-4.354453608252024
1769246059552,121,-7,-3.876758428394614,-5.270351695655888,-4.430268361250494
1769246059556,121,-7,-4.000208604440454,-5.036798571920713,-4.53734438538661
1769246059560,122,-6,-3.988379417279475,-4.015793454115861,-4.507058186289257
1769246059564,122,-6,-3.8637803675938014,-4.006955691767014,-4.3693848551744345
1769246059568,122,-6,-3.7048166372970472,-4.166991712084366,-4.203606865459063
1769246059572,122,-6,-3.500163493719384,-4.231795926144169,-3.993005583961624
1769246059576,122,-6,-3.16576006731409,-4.100648768014645,-3.6484631995282313
1769246059580,123,-5,-2.6620316791918643,-2.9323490084596058,-3.1307306217411375
1769246059584,124,-4,-2.049261676747296,-2.1728566070542223,-2.5040903344363534
1769246059588,124,-4,-1.4296474119085223,-1.981904585352255,-1.873122500108714
1769246059592,125,-3,-0.8649276967940718,-1.4641798392374978,-1.2981534130133596
1769246059596,125,-3,-0.3585121744410418,-0.8373782326686902,-0.7800730373193737
1769246059600,126,-2,0.1074817838234472,-0.2413024331353117,-0.3006491864209232
1769246059604,126,-2,0.5414422244427901,0.1138052027941016,0.1467466867735191
1769246059608,127,-1,0.9423438126016316,0.711675682343118,0.5597764821398863
1769246059612,127,-1,1.307772081893808,0.8203412141403641,0.9367109887790048
1769246059616,127,-1,1.6318278942194926,0.895971393094942,1.2732126558774657
1769246059620,128,0,1.9092007267286344,1.971848766394035,1.5644332228970652
1769246059624,128,0,2.1612035750868257,1.9088566138365548,1.830833404434815
1769246059628,128,0,2.456163273073774,1.847134623684895,2.13993443375768
1769246059632,129,1,2.881245805503529,2.731484138252842,2.578839999607359
1769246059636,129,1,3.474535362833574,2.9236330357015583,3.1857263022099995
1769246059640,130,2,4.1800141628504965,3.9619997484443408,3.904405854713812
1769246059644,131,3,4.872278235442439,4.873245901294749,4.60956991945323
1769246059648,131,3,5.433128067469429,4.858802881312635,5.183829983085426
1769246059652,132,4,5.821384620293336,5.72109557910612,5.586895985318859
1769246059656,132,4,6.092861466744352,5.908497401588089,5.874500724601257
1769246059660,132,4,6.36718342410235,5.961565620813372,6.165187989665803
1769246059664,133,5,6.762583536635622,6.8466430435001975,6.576169101397699
1769246059668,133,5,7.328203739008632,6.875523302886943,7.156431900262471
1769246059672,134,6,8.008228687360301,7.665410051504043,7.850604705537717
1769246059676,135,7,8.66439836747744,9.000928810858678,8.520865100894545
1769246059680,135,7,9.148545298890744,8.786213524752934,9.019454371054048
1769246059684,135,7,9.377312058017758,9.051533610018804,9.2635350133947
1769246059688,136,8,9.36317264564392,9.61078894597214,9.265906062964016
1769246059692,135,7,9.195245674011586,8.926624642043711,9.115477482437193
1769246059696,135,7,8.992098660491035,8.740046438418144,8.930052348624375
1769246059700,135,7,8.852848707401737,9.006895294655306,8.807665762634542
1769246059704,135,7,8.824816471574444,8.830357401133643,8.794998222071673
1769246059708,135,7,8.888574803075537,8.784485227973924,8.873296508880598
1769246059712,135,7,8.953986743587274,8.76565304871383,8.954009372831713
1769246059716,135,7,8.879457056345693,8.863723526713365,8.896400554647435
1769246059720,135,7,8.531523605810364,8.880143649403166,8.566355533636115
1769246059724,134,6,7.858178326589183,7.9256387050433315,7.910766841452325
1769246059728,133,5,6.909831073859938,6.656391094116518,6.979722208444605
1769246059732,132,4,5.779458313092064,5.899459365071095,5.866493056031219
1769246059736,131,3,4.516252252391213,4.688520881409609,4.620446111726083
1769246059740,129,1,3.0935835705307864,3.062698527700092,3.2149015165472115
1769246059744,128,0,1.456065104692422,1.7108835316752051,1.594456153460293
1769246059748,126,-2,-0.3995661935875967,-0.1585964577240359,-0.2440421371514894
1769246059752,124,-4,-2.378814945760219,-2.2855582951721,-2.205793708557259
1769246059756,122,-6,-4.317447018986705,-4.173892656661394,-4.126126107611062
1769246059760,120,-8,-6.059876889831001,-6.045593465054282,-5.849413930531892
1769246059764,119,-9,-7.520553598109984,-7.253626867357395,-7.290939367495519
1769246059768,118,-10,-8.681268689282687,-8.15889659436133,-8.433608524991982
1769246059772,117,-11,-9.547188611587847,-9.35667775648365,-9.282673615967544
1769246059776,116,-12,-10.124611167024543,-10.078727135365872,-9.843196485539773
1769246059780,116,-12,-10.442910036078525,-10.180133617814056,-10.143311767306372
1769246059784,116,-12,-10.576106554317088,-10.145161287564596,-10.257076457910538
1769246059788,116,-12,-10.617560954254088,-10.26159574272304,-10.278906218109684
1769246059792,116,-12,-10.623863477766305,-10.312813178098208,-10.26627896478813
1769246059796,116,-12,-10.586593231429664,-10.094658720337478,-10.210749030306689
1769246059800,116,-12,-10.464906764847893,-10.230650067694445,-10.070745497213355
1769246059804,116,-12,-10.250246325691922,-10.084587582888702,-9.83714677505024
1769246059808,117,-11,-9.997918658098392,-9.35468040383827,-9.565528078046244
1769246059812,117,-11,-9.788294644638576,-9.236245761817422,-9.336933277084974
1769246059816,117,-11,-9.654071744335097,-9.180163037352033,-9.184058871043742
1769246059820,117,-11,-9.550177557816056,-9.182263586663494,-9.06104641488742
1769246059824,117,-11,-9.396651756058963,-9.146736243736262,-8.887542844384186
1769246059828,118,-10,-9.14622568019166,-8.320623742779848,-8.617005130898722
1769246059832,118,-10,-8.812022314770388,-8.26885691609525,-8.263532485349018
1769246059836,118,-10,-8.44409773867864,-8.183611039032645,-7.877189596602673
1769246059840,119,-9,-8.090088952844019,-7.178301126990799,-7.504638961726357
1769246059844,119,-9,-7.772756339711243,-7.209355689869653,-7.167663082565955
1769246059848,119,-9,-7.491957405174184,-7.248140807411721,-6.866134206012926
1769246059852,120,-8,-7.237642178155546,-6.376013818957431,-6.591223741504499
1769246059856,120,-8,-6.996359704825499,-6.073266451574494,-6.330714319410177
1769246059860,120,-8,-6.75434146140548,-6.332547295823979,-6.070431327882152
1769246059864,120,-8,-6.512281157543908,-6.067570607119437,-5.809296378624563
1769246059868,121,-7,-6.297459686140101,-5.416759274542044,-5.573707694376701
1769246059872,121,-7,-6.139436427845711,-5.2277015700192715,-5.394374589386945
1769246059876,121,-7,-6.022532623560528,-5.209503881818332,-5.257263268375604
1769246059880,121,-7,-5.879871600310255,-5.261553771335234,-5.095707063897885
1769246059884,121,-7,-5.656975673496316,-5.122900995878493,-4.854114853762107
1769246059888,122,-6,-5.382562635622746,-4.430776008084382,-4.560220620416354
1769246059892,122,-6,-5.161114446546856,-4.181730997068099,-4.318402211677995
1769246059896,122,-6,-5.08203002368557,-4.292332740561418,-4.218527695516521
1769246059900,122,-6,-5.129686559594864,-4.198023762683086,-4.24558228198953
1769246059904,122,-6,-5.181162096718358,-4.212712456711827,-4.277059813276202
1769246059908,122,-6,-5.100691471308703,-4.393065500493808,-4.177063929996137
1769246059912,122,-6,-4.854942717651307,-4.181853650580243,-3.9117316574835286
1769246059916,123,-5,-4.546598944576939,-3.3485105059893376,-3.5835166312452618
1769246059920,123,-5,-4.326720273960598,-3.1195649892465087,-3.343747291642573
1769246059924,123,-5,-4.259720373731448,-3.3722707876784077,-3.256958082389635
1769246059928,123,-5,-4.267735537283974,-3.226890434655864,-3.244897277625207
1769246059932,123,-5,-4.207168738672939,-3.377548558373434,-3.1636723322695524
1769246059936,123,-5,-4.001906419827198,-3.157475977600068,-2.9376690743212452
1769246059940,124,-4,-3.7073095471002984,-2.3197692282294593,-2.6231910978676054
1769246059944,124,-4,-3.453258865017547,-2.226322888436519,-2.3502871730476076
1769246059948,124,-4,-3.332609760459266,-2.3776491507810693,-2.21073521403638
1769246059952,124,-4,-3.341225883718792,-2.261603266902485,-2.199296492945092
1769246059956,124,-4,-3.407241773017297,-2.2699141962380316,-2.244412919960728
1769246059960,124,-4,-3.461248708110848,-2.2433595100119077,-2.278006264052205
1769246059964,124,-4,-3.482670503388575,-2.3122710169309593,-2.2801320216382437
