timestamp_ms,ecg_u8_raw,ecg_counts_raw_int,ecg_counts_filt_monitor,ecg_counts_filt_diagnostic,ecg_counts_filt_st
1769249796116,130,2,1.6980536892178144,1.328416880513305,1.08412484731737
1769249796120,129,1,0.9708379924208096,0.0144260441920012,0.3598157832681472
1769249796124,128,0,0.2805049567327933,-0.5028126860377168,-0.3269409567108279
1769249796128,128,0,-0.3714997328913788,-0.9548563704390997,-0.9733120448198034
1769249796132,127,-1,-0.9796986354669012,-1.6359290253086267,-1.574453812138079
1769249796136,127,-1,-1.5196782574914838,-2.027024057835992,-2.1076172556285413
1769249796140,126,-2,-1.9334615511983213,-2.7207604925423343,-2.515811095359517
1769249796144,126,-2,-2.1499602809591387,-2.7734652096470143,-2.727653763140062
1769249796148,126,-2,-2.134936855463489,-2.771759514645346,-2.707929176838337
1769249796152,126,-2,-1.9255550064754563,-2.814853590263499,-2.4930655586143944
1769249796156,127,-1,-1.6106453214363716,-1.9006341149373551,-2.1719058316825404
1769249796160,127,-1,-1.2658776598845345,-1.8743814966539976,-1.8206541850363969
1769249796164,127,-1,-0.8998441390471972,-1.704082293649694,-1.4483650688684917
1769249796168,128,0,-0.4626059715003782,-0.8498118275690657,-1.0051696807785215
1769249796172,128,0,0.0897261057978137,-0.8110854505249572,-0.4469763024461608
1769249796176,129,1,0.7354941732710834,0.1100520805601081,0.2047406600971137
1769249796180,130,2,1.3918541556258983,1.0382654840839742,0.8671790236993038
1769249796184,130,2,1.9828656406005745,1.3431072069269945,1.4645020088583451
1769249796188,131,3,2.5076755626170963,2.054061126070035,1.9961556889236625
1769249796192,131,3,3.0409437977633003,2.245169292145143,2.536889247637457
1769249796196,132,4,3.661458224785682,3.0369105533492533,3.164923335419985
1769249796200,133,5,4.370132376526568,4.050083589400625,3.880376403344525
1769249796204,133,5,5.060884433242673,4.30482651034942,4.577087771008148
1769249796208,134,6,5.559598452462495,5.009122685092163,5.081660556570363
1769249796212,134,6,5.70315394114477,5.303366870536126,5.231577360199088
1769249796216,134,6,5.414283196629649,4.892158592295477,4.949570358792371
1769249796220,133,5,4.730406183836376,4.196370013545206,4.272971946282877
1769249796224,132,4,3.770699417766143,3.08028176304522,3.321192658892766
1769249796228,131,3,2.67140956686865,2.1840164826995787,2.2305665665290637
1769249796232,130,2,1.5420541415261213,1.1316563549331415,1.1099821431797143
1769249796236,129,1,0.4637998959623363,-0.0245445825690471,0.0395958690337263
1769249796240,128,0,-0.4999765604477058,-0.8573228640968916,-0.9176106355373582
1769249796244,127,-1,-1.3199941020077357,-1.9878967316402976,-1.731673393554467
1769249796248,126,-2,-2.036375320664582,-2.743804527379124,-2.441646311145987
1769249796252,126,-2,-2.7579098329428486,-3.001156695080917,-3.155815960291217
1769249796256,125,-3,-3.590076686347576,-3.9155675365183455,-3.9796790437734946
1769249796260,124,-4,-4.5363752050495965,-4.994731374448573,-4.916616541233876
1769249796264,123,-5,-5.465476036668331,-5.932368344117532,-5.835295912620581
1769249796268,122,-6,-6.186412994364154,-6.819367231677752,-6.545997920768514
1769249796272,122,-6,-6.575186884341802,-6.9895903139446105,-6.9271687610837995
1769249796276,122,-6,-6.653106055760507,-6.919067961759576,-7.001312959982874
1769249796280,122,-6,-6.565192652863017,-7.052278188672957,-6.910664454131556
1769249796284,122,-6,-6.485986192768847,-6.9236606460229035,-6.823778771583923
1769249796288,122,-6,-6.5186475635082,-6.873780945026199,-6.839937361322367
1769249796292,122,-6,-6.644918847811067,-7.001494706017928,-6.944704581848218
1769249796296,122,-6,-6.761795077354295,-6.8830471231512895,-7.046188188118229
1769249796300,122,-6,-6.807785591458902,-7.179775691614765,-7.092858155548223
1769249796304,121,-7,-6.908098001871095,-7.798728737184888,-7.208203658235405
1769249796308,121,-7,-7.373304606730538,-8.102764602018482,-7.686962266601409
1769249796312,120,-8,-8.387002090176306,-8.768754918907627,-8.693347907117687
1769249796316,120,-8,-9.435071943376489,-9.168556305984742,-9.70685465544964
1769249796320,121,-7,-8.892287021784552,-7.9045068349879966,-9.1165616582674
1769249796324,125,-3,-4.364864146735047,-4.139175381450162,-4.553825802614192
1769249796328,133,5,5.963072554717142,4.194404420591668,5.780609799189593
1769249796332,148,20,21.58227660921865,18.92447243363131,21.380365878058832
1769249796336,167,39,38.82605663006489,38.11103545942345,38.59555491157612
1769249796340,183,55,52.00216772122802,53.8171925640897,51.75194761905234
1769249796344,187,59,56.17286500608612,58.013299566706486,55.92351136534033
1769249796348,179,51,49.8457614026766,49.954996398724944,49.621591641136376
1769249796352,163,35,35.70993924522633,34.00993607614868,35.529392244611685
1769249796356,146,18,18.955014492691348,17.01701622280822,18.82044857276875
1769249796360,133,5,4.447794519769345,3.9380735910280262,4.341985079264178
1769249796364,124,-4,-5.335818057108677,-5.04059966094116,-5.44041079684447
1769249796368,119,-9,-10.564058667490404,-10.003448615331257,-10.688136568694883
1769249796372,117,-11,-12.840275386685285,-12.1260805707574,-12.98546091341782
1769249796376,115,-13,-13.727177039082042,-13.918075608926912,-13.877099107852189
1769249796380,114,-14,-14.011359741330647,-15.18884672327865,-14.143869144027589
1769249796384,114,-14,-13.872764839895964,-14.873657402591189,-13.9744321385213
1769249796388,116,-12,-13.397818243045933,-13.251957312258943,-13.471426383769122
1769249796392,117,-11,-12.81510317298445,-11.91260865693269,-12.87512449978967
1769249796396,117,-11,-12.340859354782376,-12.23704379219184,-12.400431941123154
1769249796400,116,-12,-11.982199964478658,-12.881367435701115,-12.042860742391603
1769249796404,117,-11,-11.59329314367716,-12.19410315471286,-11.646551503072065
1769249796408,118,-10,-11.093436204499088,-10.97656196825272,-11.131187469627166
1769249796412,119,-9,-10.563153396973023,-10.230028790828465,-10.585201685088606
1769249796416,119,-9,-10.127172109618094,-9.999820430451711,-10.138903677964937
1769249796420,119,-9,-9.801466969092338,-10.124590060816187,-9.806396500740048
1769249796424,119,-9,-9.488977102166592,-10.008715376914171,-9.48540236342891
1769249796428,120,-8,-9.098263848501992,-9.162317992950506,-9.082706633465031
1769249796432,121,-7,-8.62364541904058,-8.141895686466775,-8.595429042233025
1769249796436,121,-7,-8.110697784286966,-8.08291291030599,-8.071959779895888
1769249796440,121,-7,-7.586039069530319,-8.13202793170195,-7.538396890472244
1769249796444,122,-6,-7.045447722960646,-6.979496005101146,-6.988360198496819
1769249796448,123,-5,-6.487353739059774,-6.281771587236486,-6.419560109313826
1769249796452,123,-5,-5.92571315234008,-6.037824774956007,-5.846767556229114
1769249796456,124,-4,-5.369503260716048,-5.243538275884136,-5.279522959588492
1769249796460,124,-4,-4.8062551251602965,-5.005354262467711,-4.705248790879857
1769249796464,125,-3,-4.20951787022915,-4.14552151655493,-4.097645298714833
1769249796468,126,-2,-3.557843733257617,-3.1520323390154648,-3.435756070819785
1769249796472,126,-2,-2.853742464104995,-3.2189977436432153,-2.721963870393778
1769249796476,127,-1,-2.1385400332720828,-2.1021519746023096,-1.9967230618167504
1769249796480,128,0,-1.486671344972546,-1.1720902478068156,-1.3339761869462592
1769249796484,128,0,-0.9643518708005074,-1.0532799621344664,-0.8004750333135113
1769249796488,129,1,-0.5768799870864414,-0.2313829498508728,-0.4023197591696337
1769249796492,129,1,-0.2574247237324001,-0.2415718273382123,-0.0726893769240526
1769249796496,129,1,0.0816475369909273,-0.0746413129960972,0.2767884449472948
1769249796500,130,2,0.4785832038219324,0.7286521143153863,0.6847873048612481
1769249796504,130,2,0.9017727930864126,1.0245048092032518,1.1191405515068265
1769249796508,131,3,1.2981754164457655,1.6565380370158187,1.5259124212784867
1769249796512,131,3,1.6558639923013043,1.808571063164076,1.893067359755357
1769249796516,131,3,2.013048069165071,1.8616538382677308,2.2596254194571523
1769249796520,132,4,2.41075624059215,2.695984336176255,2.6674516546810567
1769249796524,132,4,2.850278625855954,3.099457854714154,3.118029666119835
1769249796528,133,5,3.304204061630026,3.4531427931235568,3.583571974897687
1769249796532,133,5,3.763547495597085,4.070309717315638,4.054362773121393
1769249796536,134,6,4.262682639347436,4.460929077219045,4.563932565012016
1769249796540,134,6,4.843728159751399,5.110117956383432,5.1541597876538034
1769249796544,135,7,5.477161989808806,5.638395619345614,5.796431151954889
1769249796548,135,7,6.006261190648124,5.849731498135071,6.3352020498191
1769249796552,136,8,6.188993946367835,6.699017224565415,6.528345617006623
1769249796556,136,8,5.839846685110334,6.691630246168892,6.189190989659526
1769249796560,134,6,4.964827328829538,4.930359992815679,5.323472983918827
1769249796564,133,5,3.76121465995499,3.689942628450817,4.129673374557689
1769249796568,132,4,2.4796502891486263,2.842118582460791,2.85924834501746
1769249796572,131,3,1.2855511292918629,1.6024869927738905,1.676620699687545
1769249796576,130,2,0.2391214966640928,0.7912391540007375,0.640357172139665
1769249796580,129,1,-0.6299416881364271,-0.2242861492078298,-0.2201651381582356
1769249796584,128,0,-1.2671588275114394,-1.2039159634235284,-0.8493269405039797
1769249796588,128,0,-1.6214391928905647,-1.283972484743986,-1.1949168101491217
1769249796592,128,0,-1.7128141475672678,-1.3351102728008324,-1.276813456685589
1769249796596,128,0,-1.6547626572794991,-1.2978475795674085,-1.2088871442041105
1769249796600,128,0,-1.598844811346581,-1.1623718664380356,-1.1430730935729136
1769249796604,128,0,-1.643923735829375,-1.339627130562279,-1.1787248844216225
1769249796608,128,0,-1.781123418098565,-1.155647645509794,-1.3074664723917664
1769249796612,128,0,-1.9198344680904456,-1.5423902814569623,-1.438355288079629
1769249796616,127,-1,-1.9783083606189868,-2.100977679715597,-1.4883802450042132
1769249796620,128,0,-1.9581965882199024,-1.4041039987812496,-1.4585248810426146
1769249796624,128,0,-1.9213568284727585,-1.1454281748799284,-1.4117071571923765
1769249796628,128,0,-1.884598496437897,-1.3781876067634895,-1.366321202329288
1769249796632,128,0,-1.7523529638822564,-1.3808198515174817,-1.2269140247703842
1769249796636,128,0,-1.37962942279802,-1.2796213219702437,-0.8471171732522967
1769249796640,129,1,-0.7112114735090389,-0.2920060714799337,-0.170649630328447
1769249796644,130,2,0.1511653853387734,0.7348816820194863,0.700369939870535
1769249796648,131,3,1.0306651291033289,1.6757778184523344,1.5880934549977097
1769249796652,132,4,1.8254203906182056,2.5451541170969865,2.3904662914487704
1769249796656,132,4,2.5731328108515608,2.740573587933804,3.1459282000548674
1769249796660,133,5,3.3645795102613167,3.627328229558956,3.9455603481459463
1769249796664,134,6,4.194535016826797,4.818302997704198,4.7831911759584775
1769249796668,135,7,4.896904727917243,5.499198164991198,5.491651863940814
1769249796672,135,7,5.222305822802901,5.760097070964493,5.821975334911223
1769249796676,135,7,4.988617483338425,5.4008992620295455,5.593765502974975
1769249796680,134,6,4.19041040075877,4.97490141023436,4.80287605328198
1769249796684,133,5,3.0002613634269935,3.4000577286016784,3.621520665851593
1769249796688,131,3,1.6722103027410296,1.8799127876981567,2.3020618850382224
1769249796692,131,3,0.4162245407939359,1.3958509001415165,1.052754079393051
1769249796696,129,1,-0.6782793758512748,-0.3585827001765402,-0.0374398613111062
1769249796700,128,0,-1.636220173303084,-1.2218623486576383,-0.9922273090110952
1769249796704,128,0,-2.5309459102718197,-1.5280268026778598,-1.8829122259012496
1769249796708,126,-2,-3.4101126851467685,-3.155530125388293,-2.7556970229254945
1769249796712,126,-2,-4.260682539567605,-3.652260598487067,-3.597884987658854
1769249796716,125,-3,-5.029605185074824,-4.32754559710428,-4.358888745142196
1769249796720,124,-4,-5.676479186489217,-5.3132178751656,-5.001553136372695
1769249796724,124,-4,-6.215554683440237,-5.4848519942292135,-5.541291493256917
1769249796728,123,-5,-6.7151553364486025,-6.193430422139764,-6.043194951698159
1769249796732,123,-5,-7.247319504585945,-6.710415154268931,-6.572790120796657
1769249796736,122,-6,-7.808224221240136,-7.239430138575995,-7.121728798562078
1769249796740,122,-6,-8.259004769179613,-7.532584658890163,-7.554283459992268
1769249796744,122,-6,-8.3599120483372,-7.2329605287161725,-7.641506518509053
1769249796748,122,-6,-7.950415819338619,-7.520232648639709,-7.233704872910128
1769249796752,122,-6,-7.2092166538051154,-7.3989530518245665,-6.510842152084794
1769249796756,123,-5,-6.75132258932973,-6.59343986685369,-6.076281667036418
1769249796760,123,-5,-7.289000607495501,-6.255041068053939,-6.623946273571695
1769249796764,122,-6,-8.87746138321413,-7.513935970034939,-8.19632603167531
1769249796768,120,-8,-10.233926183025863,-9.30532645318675,-9.51444064346857
1769249796772,122,-6,-8.823392678136338,-7.62354382653525,-8.064211037345014
1769249796776,128,0,-2.0478805182451714,-1.4370075538546436,-1.2722912952684906
1769249796780,139,11,10.901925615769306,9.58696264977107,11.660570125063597
1769249796784,156,28,27.680901217225333,26.620192654926203,28.40046654891472
1769249796788,174,46,43.10374248046225,44.5645890182733,43.784520805578126
1769249796792,184,56,51.405074709862305,54.408424604101434,52.066088002864326
1769249796796,181,53,49.2630873368003,51.44659063907318,49.93111456302003
1769249796800,167,39,37.612213088979274,37.56761430851674,38.31052745904376
1769249796804,149,21,20.996373019049702,19.58092403159172,21.73453053391393
1769249796808,134,6,4.975021980293706,4.595672711698346,5.742496558016174
1769249796812,124,-4,-6.597009209081257,-5.5533777959295385,-5.826822983432153
1769249796816,118,-10,-12.771369458322434,-11.585917161593578,-12.02575229118617
1769249796820,116,-12,-14.860176353210797,-13.39442966106292,-14.150446082033849
1769249796824,116,-12,-14.864852006968304,-13.605029363112983,-14.181086893694433
1769249796828,115,-13,-14.2170045384662,-14.231768393214226,-13.537062783634388
1769249796832,116,-12,-13.467852263194173,-13.814747432790176,-12.772983223442951
1769249796836,117,-11,-12.697370749739717,-12.266467035139334,-11.983622723527429
1769249796840,119,-9,-11.980282571611124,-10.820104861292387,-11.258645049431356
1769249796844,119,-9,-11.479069988420918,-10.208553461915074,-10.764972706292513
1769249796848,119,-9,-11.262502555101133,-10.713270773108407,-10.563406319603338
1769249796852,118,-10,-11.198588559533071,-11.360756394056525,-10.510245686944913
1769249796856,119,-9,-11.069977442267067,-10.698920075915922,-10.383717951738022
1769249796860,120,-8,-10.75203619125954,-9.482835135384311,-10.064386859226016
1769249796864,120,-8,-10.259580135580237,-9.52334169978298,-9.574221148948606
1769249796868,120,-8,-9.669572064607843,-9.550720436322162,-8.991585986550731
1769249796872,121,-7,-9.049379847519193,-8.446630049910688,-8.379988036578556
1769249796876,122,-6,-8.445220883508348,-7.74659240525511,-7.782245326117942
1769249796880,122,-6,-7.886513700941411,-7.367579724930059,-7.228040348691377
1769249796884,123,-5,-7.37324961044222,-6.772627856533084,-6.719709261989383
1769249796888,123,-5,-6.868833689978145,-6.299325609249519,-6.222078001495815
1769249796892,124,-4,-6.325810746372698,-5.767732916772911,-5.68703331665459
1769249796896,124,-4,-5.731523601369466,-5.438028795305165,-5.100477494897946
1769249796900,125,-3,-5.12739187921399,-4.69429353087339,-4.50363169714466
1769249796904,126,-2,-4.570686239223539,-3.530662908212542,-3.954982935139441
1769249796908,126,-2,-4.071933956932357,-3.5412761690468795,-3.465683953231236
1769249796912,126,-2,-3.582659553286914,-3.636977435801711,-2.986132733604285
1769249796916,127,-1,-3.0528483514598315,-2.5088050954197927,-2.465096101554285
1769249796920,128,0,-2.4839187349879523,-1.743260845274014,-1.9046134695599264
1769249796924,128,0,-1.9076647527465536,-1.4475389395888585,-1.3380827319811246
1769249796928,129,1,-1.3242470779197864,-0.741789256580246,-0.765942316793377
1769249796932,129,1,-0.6868575164714072,-0.4220204564478971,-0.1399949515159946
1769249796936,130,2,0.0437529960910019,0.1966450802452963,0.5800338317589131
1769249796940,131,3,0.8420059488417158,1.563260309600988,1.3677188132977416
1769249796944,132,4,1.6254144127969203,2.1719795233624786,2.1389756377603852
1769249796948,132,4,2.313975104671531,2.606183115178296,2.813676568777666
1769249796952,133,5,2.8731254467068967,3.1920412479893843,3.3588713409973083
1769249796956,133,5,3.3095685487823863,3.517255398254574,3.782605382748109
1769249796960,134,6,3.6530704922903814,4.258586307144401,4.114173662072841
1769249796964,134,6,3.9573213801988194,4.383344764519184,4.405723405171775
1769249796968,134,6,4.302958117160665,4.4092469545658615,4.737026510363538
1769249796972,135,7,4.768584132759389,5.2801887731433235,5.187118461117427
1769249796976,135,7,5.376490623967247,5.4603612093087746,5.779195102120216
1769249796980,136,8,6.061706244959648,6.210890436400127,6.448659078245985
1769249796984,137,9,6.701461643539265,7.47604173583028,7.07249155452123
1769249796988,137,9,7.1859741209511885,7.197167738725808,7.540662197684894
1769249796992,137,9,7.470284085326172,7.494916866054114,7.808259248276495
1769249796996,138,10,7.567944037463142,8.185285480122886,7.888898465508267
1769249797000,137,9,7.503644891234447,7.444260282191487,7.807221557189713
1769249797004,137,9,7.271444981218315,7.243822422690689,7.55720506281637
1769249797008,137,9,6.834082770801232,7.344258386518778,7.101399622953842
1769249797012,136,8,6.163951690233558,6.338653434555442,6.412057031306226
1769249797016,135,7,5.285767926867124,5.2659683311398,5.5141753599646695
1769249797020,134,6,4.275790262592184,4.36437686492051,4.484481843299555
1769249797024,133,5,3.2203808047122453,3.266564006759971,3.4092968178983876
1769249797028,132,4,2.1802127251728622,2.289505405873117,2.3487647713449196
1769249797032,131,3,1.1913119212780388,1.354816248756281,1.3387046077322642
1769249797036,130,2,0.2883364243239055,0.1871405425512438,0.4142085283040742
1769249797040,129,1,-0.4820624448469914,-0.5525761437226517,-0.3777049581623375
1769249797044,129,1,-1.0702048007147036,-0.8907886110608789,-0.9876882999139814
1769249797048,128,0,-1.4458227589808217,-1.561983151158396,-1.3860728795639283
1769249797052,128,0,-1.6207225839593484,-1.8569645428350376,-1.584741954527007
1769249797056,128,0,-1.6560808438781234,-1.6399970108412156,-1.644418303468918
1769249797060,128,0,-1.6382626581549888,-1.737640623056528,-1.6510327232327393
1769249797064,128,0,-1.627866360688102,-1.7838694604965115,-1.6650194142481394
1769249797068,128,0,-1.6172683996425354,-1.6515796107589853,-1.678754613857483
1769249797072,128,0,-1.5336713800356985,-1.8788263505707683,-1.6196078026991956
1769249797076,128,0,-1.288975326219428,-1.5990850006855672,-1.399950461944524
1769249797080,129,1,-0.8392230030868582,-0.8530046019082043,-0.9764342959575044
1769249797084,129,1,-0.2117759407392362,-0.6778800032177119,-0.3766210883915875
1769249797088,130,2,0.5130055454972744,0.1956050828580395,0.3196716334066516
1769249797092,131,3,1.248064363663722,1.22289669822237,1.0263627026334396
1769249797096,131,3,1.94374582301942,1.2674727370053145,1.6944708886899535
1769249797100,132,4,2.605216917626477,2.230926488868992,2.3289180341657785
1769249797104,133,5,3.276238033458551,3.2281476884120694,2.9724326749309027
1769249797108,133,5,3.9971823557170714,3.222870237743414,3.6644756703939274
1769249797112,134,6,4.753811216558832,4.174207647270252,4.390707452638957
1769249797116,135,7,5.445626209784042,5.2601582871255355,5.051189301969111
1769249797120,135,7,5.903125436991771,5.209367556064502,5.47709277251879
1769249797124,135,7,5.9537984232863845,5.21571846521121,5.4961752881447055
1769249797128,135,7,5.503183900822037,5.202554074454268,5.0137270598478905
1769249797132,134,6,4.5858304969493595,4.120873781057278,4.064247834130969
1769249797136,132,4,3.3512946665939953,2.314709537740852,2.797969214646522
1769249797140,131,3,1.991878632813736,1.0662701495651392,1.4075350948150105
1769249797144,130,2,0.6716036544221458,0.3924443594534201,0.0557608210443061
1769249797148,129,1,-0.4943010173116069,-1.074916704115109,-1.1438086892412307
1769249797152,127,-1,-1.434939671998526,-2.5881484992217625,-2.120330833101868
1769249797156,127,-1,-2.14470643034746,-3.0620124782345464,-2.86670370204048
1769249797160,126,-2,-2.710867516575328,-3.564360011249539,-3.469096710030402
1769249797164,126,-2,-3.281523696358124,-4.027329976244381,-4.07557560077176
1769249797168,125,-3,-3.968244476904133,-4.677858747585324,-4.797584644556812
1769249797172,124,-4,-4.764041651449434,-6.032214683038325,-5.627651309043139
1769249797176,123,-5,-5.5501782068790995,-6.677757293461417,-6.447841231721256
1769249797180,123,-5,-6.178241523776511,-6.96162015928251,-7.112550018215326
1769249797184,122,-6,-6.55745397402143,-7.697670245742264,-7.533159597636887
1769249797188,122,-6,-6.697466452805598,-7.980338709644555,-7.717186822166466
1769249797192,122,-6,-6.696136984842803,-7.83753977057414,-7.756283512491224
1769249797196,122,-6,-6.677925409339815,-7.856544034175305,-7.77004038939168
1769249797200,122,-6,-6.709974149995892,-7.894561314820344,-7.828362608116585
1769249797204,122,-6,-6.761616331046633,-7.718228311410148,-7.911602637876157
1769249797208,122,-6,-6.774585718368157,-8.057407359096857,-7.972789127228872
1769249797212,121,-7,-6.820598501003017,-8.748226372133342,-8.08369707893128
1769249797216,121,-7,-7.173939248112109,-9.04400643536366,-8.503156714067329
1769249797220,120,-8,-8.071468866664699,-9.716201537163768,-9.446746225169989
1769249797224,120,-8,-9.136828915441669,-9.936007124422616,-10.528793380847356
1769249797228,121,-7,-8.865693025977766,-8.862124880459529,-10.257975297537737
1769249797232,124,-4,-4.845284401909332,-5.971397228729207,-6.248764694770585
1769249797236,132,4,4.921972330738447,2.1000528762838115,3.4754399880247853
1769249797240,146,18,20.129732375138666,16.17094367463993,18.608318307636964
1769249797244,164,36,37.105959944974025,34.09814657614556,35.49610939470564
1769249797248,180,52,49.828655251944646,50.163666381822416,48.13934551031398
1769249797252,184,56,52.88024529151778,53.8591729106181,51.135920235305406
1769249797256,173,45,44.553859186156075,43.18931643771903,42.783381415577935
1769249797260,155,27,27.932553976848645,24.932914056274697,26.156977463379512
1769249797264,135,7,9.14661594957082,5.295453275520921,7.367857228989989
1769249797268,121,-7,-5.950088145128776,-8.978637181207894,-7.75268580224643
1769249797272,114,-14,-14.453671242106608,-15.91307182162002,-16.31297247356934
1769249797276,112,-16,-16.93340408904717,-18.027570037814193,-18.875091299335377
1769249797280,113,-15,-15.96803244955259,-16.94355251210477,-17.995675464933232
1769249797284,114,-14,-14.095702175055989,-15.913391785581211,-16.190535595420982
1769249797288,114,-14,-12.597122649413036,-15.856334194473405,-14.731724742493608
1769249797292,115,-13,-11.567841025979895,-14.984639692309129,-13.724214359884408
1769249797296,117,-11,-10.694629044803264,-13.027885181172223,-12.87502826213728
1769249797300,119,-9,-9.846929389696005,-10.968175771730762,-12.0698968421058
1769249797304,119,-9,-9.106510066151248,-10.991376357325963,-11.39084212579404
1769249797308,118,-10,-8.523427457120848,-11.797525791520716,-10.873647089860178
1769249797312,119,-9,-8.02384908442353,-11.045374695287377,-10.430220364414698
1769249797316,120,-8,-7.529683093076836,-10.005762740391548,-9.981140455296217
1769249797320,121,-7,-7.055112306100246,-9.030191737298274,-9.550274239372436
1769249797324,121,-7,-6.65120230191022,-8.9973415534811,-9.196679685414509
1769249797328,120,-8,-6.31728349458457,-9.818049119843067,-8.918178334197222
1769249797332,121,-7,-6.0122437394016695,-9.051923074023884,-8.667298276996474
1769249797336,122,-6,-5.715403373254659,-8.024941746831098,-8.42091783819355
1769249797340,122,-6,-5.417705003248775,-8.059843671661746,-8.17309816650221
1769249797344,122,-6,-5.059845205865872,-8.017063854717914,-7.867857305437097
1769249797348,122,-6,-4.540141874744194,-7.819422712047725,-7.403110564125384
1769249797352,123,-5,-3.822267017116568,-7.115005996639429,-6.740098540283496
1769249797356,124,-4,-3.019003805311678,-5.949212838927408,-5.990674515921016
1769249797360,125,-3,-2.330685994252252,-5.212396691833307,-5.3562541206075815
1769249797364,125,-3,-1.87789304571331,-4.883144687515399,-4.958167061186854
1769249797368,125,-3,-1.5932241589619158,-4.997575699431058,-4.7280529791683135
1769249797372,125,-3,-1.280900406701241,-5.005271035245198,-4.469062457009177
1769249797376,126,-2,-0.7814180509941572,-4.0362925508330765,-4.022693031017706
1769249797380,127,-1,-0.0845091902428687,-3.2224391217598507,-3.3810846331991327
1769249797384,127,-1,0.6908383310487076,-2.834327164353666,-2.6640328270796108
1769249797388,128,0,1.3948950004764402,-2.163379175666534,-2.0191074926004293
1769249797392,128,0,1.9291327830112055,-1.817821070290112,-1.541918738320646
1769249797396,129,1,2.277547651079773,-1.3221027295276042,-1.2478670152877105
1769249797400,129,1,2.505605277467597,-0.9102566994330314,-1.0735665708509832
1769249797404,129,1,2.734563959824194,-1.218413083107425,-0.9001989156810313
1769249797408,129,1,3.0809734915319225,-0.8039464443591093,-0.6118832016261191
1769249797412,130,2,3.5791967728373297,-0.2177155606382319,-0.1731044506653116
1769249797416,130,2,4.144608833987709,0.0129501818367678,0.3330763893965418
1769249797420,131,3,4.622966519415083,0.7766746252580075,0.753085037051092
1769249797424,131,3,4.905354520639799,1.0133628401365176,0.9776273009218476
1769249797428,131,3,5.024658427078203,0.9573092574910752,1.0391241712296932
1769249797432,131,3,5.148956121109631,0.9452426315635334,1.105860136852952
1769249797436,131,3,5.466294877601569,0.8277796571441685,1.3661087792915807
1769249797440,132,4,6.0530058298683125,1.932252750760898,1.8953149417298951
1769249797444,133,5,6.831751895502546,2.842050099493527,2.6146245383238655
1769249797448,133,5,7.632317586070851,3.0654841983689485,3.353618643638428
1769249797452,134,6,8.274529587405329,3.81564739212884,3.9339195496221375
1769249797456,134,6,8.606519239932213,3.877698353269178,4.205609177791665
1769249797460,134,6,8.5152120734774,3.8950787328782064,4.055668774135033
1769249797464,134,6,7.956059842582872,3.8112936762719145,3.4381029071002813
1769249797468,132,4,6.993022789105158,2.106018036565634,2.415914126213982
1769249797472,131,3,5.792452241982604,0.6625980159854592,1.1556487419231822
1769249797476,130,2,4.552524045132225,0.0566408306742789,-0.1442873852830817
1769249797480,129,1,3.418173470620217,-1.3797325136779566,-1.3392858175186642
1769249797484,127,-1,2.4382433129893477,-2.869310334044463,-2.3806846319277706
1769249797488,127,-1,1.5794654235336056,-3.2935082569570104,-3.3013379487319288
1769249797492,126,-2,0.7808767576161513,-3.9706916586906273,-4.161523668386241
1769249797496,125,-3,0.0148109491484829,-5.360979564517358,-4.988316212910153
1769249797500,124,-4,-0.6864565304604924,-5.996618604741003,-5.749357543106225
1769249797504,124,-4,-1.252556713574881,-6.250193274483218,-6.375079526179246
1769249797508,123,-5,-1.6209130133678409,-6.983557077315974,-6.804068866164646
1769249797512,123,-5,-1.776342491511312,-7.291832237929626,-7.021551879203352
1769249797516,123,-5,-1.7673744082560388,-7.131786810444293,-7.075412763587238
1769249797520,123,-5,-1.687090755992228,-7.198342394360485,-7.057737970960864
1769249797524,123,-5,-1.6190799105374212,-7.130805470391663,-7.051419816156457
1769249797528,123,-5,-1.5790364363450953,-7.069999721408414,-7.071930384402648
1769249797532,123,-5,-1.4965168575090866,-7.336410365087703,-7.049208283323107
1769249797536,123,-5,-1.254865051325981,-7.057375544007445,-6.867670361636434
1769249797540,124,-4,-0.7637779922140484,-6.362717881820792,-6.438159224223853
1769249797544,124,-4,-0.0203975690853475,-5.938975910182893,-5.757879223748309
1769249797548,125,-3,0.8727268285976468,-5.31516314633372,-4.928161183901237
1769249797552,126,-2,1.7470792244902928,-4.1569011413575705,-4.116315418610866
1769249797556,127,-1,2.456974363477502,-3.247479959453327,-3.46787847053458
1769249797560,127,-1,2.967261839696696,-3.2583055950040567,-3.018422022132559
1769249797564,127,-1,3.367227913372799,-2.9909197913570176,-2.6788736928601447
1769249797568,128,0,3.7899436843967673,-2.3713255107130617,-2.3164064507505
1769249797572,128,0,4.301315551194845,-2.0958232301093025,-1.8658306514753191
1769249797576,129,1,4.844950056308249,-1.395028216085266,-1.3842775337760398
1769249797580,129,1,5.271476201196416,-1.1042628042925298,-1.0210393238897275
1769249797584,129,1,5.415117356324863,-1.1803269325543542,-0.9408579427959732
1769249797588,129,1,5.162925125020153,-1.2203922060121826,-1.2554056574873151
1769249797592,128,0,4.488055302194123,-2.297087111637099,-1.9909275609558583
1769249797596,127,-1,3.451043005909499,-3.2539813565660705,-3.0873917851728354
1769249797600,126,-2,2.1837572777456344,-4.24166077623317,-4.41409841392303
1769249797604,124,-4,0.857870167038089,-6.0865050770857,-5.800256881788746
1769249797608,123,-5,-0.3693725985385336,-7.33338361992424,-7.088744456782866
1769249797612,122,-6,-1.4187181077316433,-8.249558738992807,-8.200047961016246
1769249797616,121,-7,-2.320434247282789,-9.341714960859951,-9.164161082722494
1769249797620,120,-8,-3.1827161428539226,-10.17216455236927,-10.088778665060524
1769249797624,119,-9,-4.111686242126882,-11.168772390670354,-11.079109700320238
1769249797628,118,-10,-5.1329976341533525,-12.310405829338483,-12.159954413738388
1769249797632,117,-11,-6.163303033280365,-13.3056367384256,-13.248025067797949
1769249797636,116,-12,-7.04923946009185,-14.358200989745646,-14.19142358406643
1769249797640,115,-13,-7.65121691218155,-15.14408301310045,-14.852963510397933
1769249797644,115,-13,-7.920344498940858,-15.235305960660387,-15.185361702570052
1769249797648,115,-13,-7.92112309791943,-15.268381411590116,-15.251601173070195
1769249797652,115,-13,-7.791391350587909,-15.41535101329791,-15.184350056555337
1769249797656,115,-13,-7.670815249053907,-15.28685061843747,-15.11805681607658
1769249797660,115,-13,-7.639500560931397,-15.236953393603784,-15.133665258494435
1769249797664,115,-13,-7.701727080632104,-15.165851067922926,-15.244822569144311
1769249797668,115,-13,-7.8426648030196,-15.36819673272744,-15.44862304649005
1769249797672,114,-14,-8.14484926037457,-16.383541717958167,-15.830774786490382
1769249797676,113,-15,-8.84831647382681,-17.355192051593527,-16.6192530243117
1769249797680,112,-16,-10.162593537098742,-18.192593122840904,-18.0026683640434
1769249797684,111,-17,-11.76473969330699,-19.234650338208485,-19.64465264666176
1769249797688,111,-17,-12.276558344814545,-19.314816673441683,-20.174205860911425
1769249797692,114,-14,-9.32492733669183,-16.516108717152733,-17.243214452204096
1769249797696,121,-7,-0.6335722450432799,-9.221405630336989,-8.599913275492653
1769249797700,134,6,14.155261039719662,3.6226937125573393,6.107584393446931
1769249797704,152,24,32.1169882770808,21.99918740429244,23.969460365159772
1769249797708,171,43,47.49352962054377,40.379171472643726,39.250016011928615
1769249797712,179,51,54.25050963482719,48.750042035834625,45.93193382871779
1769249797716,173,45,49.35531134330142,42.379611144815705,40.99014871398654
1769249797720,155,27,34.55360189598804,24.923797963686077,26.16759730393279
1769249797724,135,7,15.370561817086678,4.644534208461705,6.974535286958124
1769249797728,119,-9,-1.9214295687964904,-11.288015213673194,-10.340327064965145
1769249797732,109,-19,-13.28248692687577,-21.45466870143891,-21.75566205121776
1769249797736,104,-24,-18.09235061878847,-26.439181038750036,-26.650340499291993
1769249797740,104,-24,-18.29069229087835,-26.213758833155268,-26.943798015699755
1769249797744,106,-22,-16.52433113483696,-24.39402045572156,-25.258142532213903
1769249797748,106,-22,-14.654825701823931,-24.27105477834743,-23.442016446065907
1769249797752,107,-21,-13.34377202058719,-23.52541246771408,-22.162183356850814
1769249797756,109,-19,-12.50602502360744,-21.348560014567077,-21.351176268090512
1769249797760,110,-18,-11.920326864067349,-20.348681980789852,-20.804971393435107
1769249797764,110,-18,-11.491472007203622,-20.355825460731378,-20.433427028713385
1769249797768,110,-18,-11.18871710246121,-20.322877506630267,-20.19705580272121
1769249797772,110,-18,-10.95391183487055,-20.538084239439296,-20.02446401320061
1769249797776,110,-18,-10.72808042434568,-20.280271112179378,-19.850149762500447
1769249797780,111,-17,-10.50541902304274,-19.49689313580014,-19.67178397732329
1769249797784,111,-17,-10.296223762921391,-19.244352192414873,-19.50726518288632
1769249797788,111,-17,-10.037670061613603,-19.497509072176527,-19.297780270295902
1769249797792,111,-17,-9.58854562309232,-19.38663069141007,-18.90049327023275
1769249797796,112,-16,-8.847925100923838,-18.4231677413811,-18.211091157812714
1769249797800,113,-15,-7.878298579844549,-17.404509601481532,-17.290940427227316
1769249797804,114,-14,-6.893854563953929,-16.381372439005716,-16.3553248941397
1769249797808,115,-13,-6.112951162409409,-15.413331762162604,-15.623213267468422
1769249797812,115,-13,-5.608105447535353,-15.502759408334905,-15.16597703033894
1769249797816,115,-13,-5.27888560285097,-15.306220029894742,-14.88205079323765
1769249797820,116,-12,-4.9479884669186625,-14.575632429912698,-14.595220550829652
1769249797824,116,-12,-4.4809452195461965,-14.24294001167721,-14.17359703937696
1769249797828,117,-11,-3.847173845684577,-13.615708317462026,-13.587585192074377
1769249797832,117,-11,-3.1161305251753335,-13.295820253466507,-12.90469028743624
1769249797836,118,-10,-2.412722080595784,-12.558370166506228,-12.247189052001715
1769249797840,119,-9,-1.8431527449279577,-11.33767178547138,-11.72081494312237
1769249797844,119,-9,-1.417803253586051,-11.544852754967836,-11.33760058173612
1769249797848,119,-9,-1.0335336983207943,-11.365166855669187,-10.995988214694563
1769249797852,120,-8,-0.5518420484791207,-10.535380164590284,-10.557628660275691
1769249797856,120,-8,0.081223107341753,-10.392238159076143,-9.967807718876577
1769249797860,121,-7,0.780350813106276,-9.476339007662428,-9.311308094227297
1769249797864,122,-6,1.387032113987038,-8.50805863505489,-8.746682329984955
1769249797868,122,-6,1.8011589741898018,-8.404532887897908,-8.373988379090425
1769249797872,122,-6,2.0577910967872324,-8.547425953298923,-8.157679673995345
1769249797876,122,-6,2.2819004795701496,-8.391402398038318,-7.972710935859973
1769249797880,123,-5,2.5763447596712106,-7.520675295231177,-7.717164697229131
1769249797884,123,-5,2.952930065223283,-7.494333238275408,-7.380112909978939
1769249797888,123,-5,3.353410089966661,-7.473237565135255,-7.019339481304179
1769249797892,124,-4,3.7211147144730425,-6.47977750402413,-6.690225172038215
1769249797896,124,-4,4.058703961803484,-6.517920559289857,-6.389480105882949
1769249797900,124,-4,4.429548270917765,-6.4037549033385215,-6.054313366850614
1769249797904,125,-3,4.899794476116522,-5.668107469566477,-5.619752906478995
1769249797908,125,-3,5.46347492907798,-5.3306906553562285,-5.092542362997662
1769249797912,126,-2,6.010693542535383,-4.645341858013262,-4.582236837265452
1769249797916,126,-2,6.366993940674144,-4.390449120050006,-4.262059322831911
1769249797920,126,-2,6.3813370650741845,-4.548723820279613,-4.282122361217832
1769249797924,126,-2,6.010383994913358,-4.597454855962054,-4.686001938076818
1769249797928,125,-3,5.345551910153537,-5.396987114748737,-5.38306897862897
1769249797932,124,-4,4.556090896390264,-6.657216469237456,-6.204358761507604
1769249797936,123,-5,3.7801158366017664,-7.351459935470945,-7.011767977375478
1769249797940,123,-5,3.0497303573350063,-7.663381775463259,-7.773774073666045
1769249797944,122,-6,2.313615240194285,-8.501191117840865,-8.54227607202601
1769249797948,121,-7,1.522812777273099,-9.526242831141008,-9.365360810202429
1769249797952,120,-8,0.6863412224855268,-10.57700217295788,-10.23205730805818
1769249797956,119,-9,-0.1430019173662265,-11.432118216586716,-11.088921142752262
1769249797960,119,-9,-0.905628356239895,-11.652337359837505,-11.87813687963766
1769249797964,118,-10,-1.5460824978280607,-12.516236589135737,-12.54638522273447
1769249797968,117,-11,-2.0143873705555326,-13.56495374494122,-13.043665553208074
1769249797972,117,-11,-2.290782091790686,-13.558255865379651,-13.348432924348574
1769249797976,117,-11,-2.410056444051781,-13.484737306231429,-13.494306708169532
1769249797980,117,-11,-2.435772896900454,-13.644443492573748,-13.545209260788742
1769249797984,117,-11,-2.394430544632051,-13.53918206373076,-13.528320626572102
1769249797988,117,-11,-2.2405886210765247,-13.587359241220648,-13.398254336640372
1769249797992,117,-11,-1.897073640344844,-13.568267649702982,-13.077931479876469
1769249797996,118,-10,-1.3321069506117165,-12.506937797067868,-12.536416298776093
1769249798000,119,-9,-0.5992331275720434,-11.654911740442476,-11.827832718081876
1769249798004,119,-9,0.1874871580963197,-11.56037838604206,-11.065128962016168
1769249798008,120,-8,0.912454583285388,-10.582923261972546,-10.361919021436089
1769249798012,121,-7,1.5167506306479108,-9.645247698071795,-9.776718268283634
1769249798016,121,-7,2.0354182091623865,-9.423826283646015,-9.276299050673082
1769249798020,122,-6,2.583631448902122,-8.816841164459284,-8.747352966351343
1769249798024,122,-6,3.270098295213668,-8.367132747585096,-8.081062573675178
1769249798028,123,-5,4.082821488196722,-7.864763776465641,-7.287950393428455
1769249798032,124,-4,4.850784661744099,-6.368188640359564,-6.53817581694749
1769249798036,125,-3,5.338647109654596,-5.735769827043903,-6.067424005451209
1769249798040,124,-4,5.402491800980017,-6.5700570037435115,-6.020156566778239
1769249798044,124,-4,5.067846941020349,-6.566963744966979,-6.370938065980779
1769249798048,124,-4,4.469775107707411,-6.813435341237052,-6.98450352795897
1769249798052,122,-6,3.7244972377810406,-8.340217442236714,-7.744283769257565
1769249798056,122,-6,2.85097448901077,-8.905595235786887,-8.631177405235452
1769249798060,121,-7,1.8079106490955237,-9.31668603695244,-9.68705269072522
1769249798064,120,-8,0.6052689247887715,-10.93292742948817,-10.902665593256415
1769249798068,118,-10,-0.6330046127849078,-12.445882965719589,-12.153776306650146
1769249798072,117,-11,-1.7403596829128305,-13.745942842163426,-13.27295023458094
1769249798076,116,-12,-2.6493764487051226,-14.57801179663488,-14.192933675033398
1769249798080,116,-12,-3.448623396213705,-14.576826184014116,-15.003357208398398
1769249798084,115,-13,-4.28905380004624,-15.797639363560505,-15.854886534635185
1769249798088,113,-15,-5.238391125749435,-17.529116679007718,-16.813099175899353
1769249798092,113,-15,-6.220643322890522,-17.78684850621513,-17.800974657838314
1769249798096,112,-16,-7.071609856425166,-18.521722016179567,-18.656811776442403
1769249798100,111,-17,-7.645869764399991,-19.673778744755253,-19.23910117179013
1769249798104,111,-17,-7.905571615769115,-19.708593004878637,-19.51079040782529
1769249798108,111,-17,-7.945534051321265,-19.653171532265507,-19.56247256794667
1769249798112,111,-17,-7.930650783582672,-19.733666966835763,-19.552591467848757
1769249798116,111,-17,-7.972838992056578,-19.587214174508222,-19.590113637273223
1769249798120,111,-17,-8.039763456739307,-19.63620005471283,-19.64771454129255
1769249798124,111,-17,-7.995883343108178,-19.768635643879144,-19.60138419726749
1769249798128,111,-17,-7.789236768587398,-19.61706198532763,-19.40867618493965
1769249798132,111,-17,-7.649224017411924,-19.85231865678437,-19.29645833044308
1769249798136,110,-18,-8.054832370525908,-20.467148830722856,-19.727177820302153
1769249798140,110,-18,-9.303686674354486,-20.79379285189906,-20.97858998475832
1769249798144,109,-19,-10.820678030534552,-21.626705813925952,-22.46876648393118
1769249798148,109,-19,-10.736371618079584,-21.784060992142933,-22.34254749174494
1769249798152,113,-15,-6.3694165846695885,-17.775753454315016,-17.945121854001815
1769249798156,122,-6,4.231035076778369,-8.49252188165642,-7.344941810509683
1769249798160,137,9,20.4235299273776,6.153823905399083,8.817838057197196
1769249798164,156,28,38.17436086219597,25.516729045308946,26.527782106592312
1769249798168,173,45,51.34868024323929,41.951215951405494,39.671437327791296
1769249798172,176,48,54.71449199251779,45.44777763255636,43.03136138498397
1769249798176,166,38,46.82213152496854,35.15861030990578,35.16258161286382
1769249798180,148,20,30.77977321429043,17.40538942270497,19.16593053561717
1769249798184,130,2,12.42156369334959,-0.7338053932595887,0.8557816624677752
1769249798188,116,-12,-2.7864250482721022,-14.814116919322462,-14.325135324017344
1769249798192,107,-21,-12.079540752140623,-23.651978467568163,-23.623306489224877
1769249798196,104,-24,-15.787255212385034,-26.79141337117495,-27.358634462312075
1769249798200,104,-24,-16.055685158798845,-26.63981678601508,-27.654310671536923
1769249798204,104,-24,-15.106922610329155,-26.824170111643667,-26.712371158594305
1769249798208,104,-24,-14.181413370960994,-26.75434292000082,-25.768103612336024
1769249798212,105,-23,-13.524808487388484,-25.703417346647935,-25.07780195366683
1769249798216,106,-22,-12.971415650445785,-24.790793667057788,-24.493359002678535
1769249798220,107,-21,-12.435466727574964,-23.6412895718063,-23.94128024457146
1769249798224,108,-20,-11.985686754859897,-22.934983469308463,-23.489579254611392
1769249798228,107,-21,-11.673585385519536,-23.641309542012827,-23.17839101806011
1769249798232,107,-21,-11.435885655287866,-23.839907303655547,-22.933028864057302
1769249798236,108,-20,-11.164921608390497,-22.666034047108123,-22.644016801015017
1769249798240,109,-19,-10.8000152542446,-21.79425109112168,-22.257983389200735
1769249798244,109,-19,-10.323527425502276,-21.86325604387496,-21.764567213687812
1769249798248,109,-19,-9.723361746008637,-21.705147224346767,-21.152012375904675
1769249798252,110,-18,-9.01594883170602,-20.82970749510102,-20.432275160335937
1769249798256,111,-17,-8.291628566470672,-19.6685506152678,-19.692656970175197
1769249798260,112,-16,-7.682140158082609,-18.838178012260837,-19.065480960308292
1769249798264,112,-16,-7.254353099281826,-18.876116906378066,-18.619225788575257
1769249798268,112,-16,-6.942175349570247,-18.696054849823124,-18.288201907950103
1769249798272,113,-15,-6.590677766265777,-17.907123728240272,-17.917259244414506
1769249798276,113,-15,-6.06860908164376,-17.560210711230432,-17.375478968702932
1769249798280,114,-14,-5.3523922981384136,-17.02228577223473,-16.639974382187393
1769249798284,115,-13,-4.52585582925543,-15.698704909436318,-15.79467326165896
1769249798288,116,-12,-3.7112301100260225,-14.920152137197269,-14.960848584147822
1769249798292,116,-12,-2.992533926462362,-14.727464561004462,-14.221151672004758
1769249798296,117,-11,-2.3837855793771165,-13.717723901688933,-13.589290378531388
1769249798300,118,-10,-1.8444562370611703,-12.95633394318862,-13.026094600968571
1769249798304,118,-10,-1.3135375107449545,-12.739392637979217,-12.472132699731755
1769249798308,119,-9,-0.7462352101205265,-11.973552215868104,-11.882533575940066
1769249798312,119,-9,-0.1461154114248617,-11.643633586170685,-11.259399920543284
1769249798316,120,-8,0.4319997301410654,-10.876934806840458,-10.656718955998835
1769249798320,121,-7,0.9280215800447292,-9.777842691287052,-10.135261162358574
1769249798324,121,-7,1.3378579959445798,-9.99803714629017,-9.699994289795848
1769249798328,121,-7,1.7205470198976407,-9.71901794263982,-9.291651120931167
1769249798332,122,-6,2.1325354061192354,-8.938413930851441,-8.853095469992898
1769249798336,122,-6,2.5580192351810926,-8.614882899257571,-8.40030424124166
1769249798340,123,-5,2.914415194981775,-8.039052845707328,-8.016797334420243
1769249798344,123,-5,3.12985452544743,-7.810198486933405,-7.774805670110792
1769249798348,123,-5,3.215184441822508,-7.892081773669784,-7.662498206379088
1769249798352,123,-5,3.2648240336351098,-7.862831720449185,-7.583948732572899
1769249798356,123,-5,3.3954103541763825,-7.63693321615479,-7.422112008278768
1769249798360,124,-4,3.6843988071806737,-7.127592023082501,-7.100894018483599
1769249798364,124,-4,4.1502240784713695,-6.659936159811323,-6.603891470979589
1769249798368,125,-3,4.756286041519051,-6.160039346763645,-5.968610101347602
1769249798372,125,-3,5.401545993253169,-5.567503736525895,-5.29513578187553
1769249798376,126,-2,5.903946995515904,-4.992748798553636,-4.763607973066263
1769249798380,126,-2,6.028021034033222,-4.795147799122139,-4.608142565950118
1769249798384,126,-2,5.586785236995771,-4.991372861042928,-5.015746439184092
1769249798388,125,-3,4.568986637773569,-5.920501540048033,-5.998718440412625
1769249798392,123,-5,3.188299235624851,-7.77132977671997,-7.344584999310314
1769249798396,122,-6,1.7920865888598307,-8.900082210025761,-8.706691976513934
1769249798400,121,-7,0.6785688967208673,-9.824159276586418,-9.786738490242987
1769249798404,120,-8,-0.0500149152902051,-11.058190296508432,-10.481777630739485
1769249798408,120,-8,-0.4942549522261423,-10.83221437375648,-10.891800568976654
1769249798412,120,-8,-0.8261844086499857,-10.90964673778522,-11.1888595924862
1769249798416,119,-9,-1.1322194871584683,-11.821218819888706,-11.459556396645809
1769249798420,119,-9,-1.3655104971622922,-11.86724298545646,-11.65687217388233
1769249798424,119,-9,-1.4379662731420566,-12.122143814090638,-11.692585262266087
1769249798428,119,-9,-1.3436969574204372,-11.72124698284351,-11.561186709539614
1769249798432,120,-8,-1.181966940064674,-11.111523831246306,-11.362337302643288
1769249798436,119,-9,-1.0608145944435812,-11.607299540396056,-11.203816363060158
1769249798440,120,-8,-0.9827056702104756,-11.131576528688598,-11.08755938554299
1769249798444,120,-8,-0.823018925851786,-10.877482193929636,-10.88899906852136
1769249798448,120,-8,-0.4234611680615024,-11.006390023034566,-10.450471292776628
1769249798452,121,-7,0.2747820257312006,-9.8483014734087,-9.713637806873216
1769249798456,122,-6,1.168358538696324,-8.88921608400964,-8.78172323383032
1769249798460,123,-5,2.0561492496572717,-7.893467600897605,-7.855210370612275
1769249798464,124,-4,2.780461595513026,-7.120252506168959,-7.0910985785363465
1769249798468,124,-4,3.3280558002531855,-6.831139881985227,-6.50247759066062
1769249798472,125,-3,3.811007088910967,-6.028609264759368,-5.9778834339670555
1769249798476,125,-3,4.3497311618887675,-5.746200834607551,-5.397740646796118
1769249798480,126,-2,4.9567366998661795,-5.061405034819948,-4.749842649360694
1769249798484,127,-1,5.513178099308082,-3.966588451225065,-4.152592903844543
1769249798488,127,-1,5.851375047416458,-4.034291399827559,-3.772981808165606
1769249798492,127,-1,5.869628358744285,-3.850523438372737,-3.712490271181746
1769249798496,127,-1,5.5843915362985195,-3.94717508741587,-3.955148315823104
1769249798500,126,-2,5.084346130533966,-4.8993059516800095,-4.41284309037224
1769249798504,126,-2,4.4353942441043035,-5.146288373112239,-5.01951507755572
1769249798508,125,-3,3.6259692078574446,-5.87697988287384,-5.7859106160985
1769249798512,124,-4,2.6066979783603785,-7.0696386035510415,-6.760909196500554
1769249798516,123,-5,1.3919574794255214,-7.702258973226018,-7.930669900736207
1769249798520,122,-6,0.1231515271474559,-9.229692149224087,-9.154789784715785
1769249798524,120,-8,-0.9887283236570584,-10.79480329582527,-10.222675178953605
1769249798528,120,-8,-1.8157550239709637,-11.287364678719316,-11.006110522513405
1769249798532,119,-9,-2.4266961901745745,-11.683900458457869,-11.573571753539431
1769249798536,119,-9,-3.0411561343516276,-12.08914332336127,-12.144386299714045
1769249798540,118,-10,-3.848754009439517,-12.907280853520424,-12.9073277551662
1769249798544,117,-11,-4.848839974172052,-14.095224618458948,-13.860670035385146
1769249798548,116,-12,-5.847529551690835,-15.091385791852373,-14.810761191455326
1769249798552,115,-13,-6.60590788180826,-15.840361555660213,-15.521099793498784
1769249798556,115,-13,-7.008790275219946,-16.013703169339546,-15.879478978266311
1769249798560,115,-13,-7.123442109215402,-15.9482740184715,-15.953365451208178
1769249798564,115,-13,-7.121815604208683,-16.113355773843338,-15.910393921010138
1769249798568,115,-13,-7.143411564201666,-16.109987777814098,-15.883889418225651
1769249798572,115,-13,-7.202297920138477,-15.84123461593084,-15.885826454466551
1769249798576,115,-13,-7.200718121549079,-16.058892631898562,-15.82463321609147
1769249798580,115,-13,-7.04870127192636,-15.894296014365276,-15.622217996120078
1769249798584,116,-12,-6.824732531058849,-15.20763416661988,-15.365081340646494
1769249798588,115,-13,-6.854119448819969,-16.057495036566344,-15.3731480042559
1769249798592,114,-14,-7.557706902573891,-16.91804126457601,-16.04896888649644
1769249798596,114,-14,-9.000119332416023,-17.018824368471474,-17.439128532829137
1769249798600,113,-15,-10.30907872003978,-17.939311822912977,-18.669306945014135
1769249798604,114,-14,-9.450516597582745,-17.193271495425563,-17.723329247818732
1769249798608,119,-9,-3.889588787732538,-12.09951251335974,-12.091731120772277
1769249798612,129,1,7.839038733201983,-1.8913200287969456,-0.3234148478613843
1769249798616,145,17,24.47978363612483,13.934469220711785,16.331814419256133
1769249798620,164,36,41.638664897434914,33.13441127011633,33.498895531419514
1769249798624,179,51,53.37953776997817,47.6731489455549,45.260642870342
1769249798628,180,52,55.184580452443875,48.974887715327874,47.11061663221123
1769249798632,169,41,46.411520405025485,37.91069813790899,38.40836118614419
1769249798636,152,24,30.56018424957048,21.042877706108325,22.64444586151457
1769249798640,135,7,13.220344419041576,4.0255043277393785,5.389650790540568
1769249798644,122,-6,-0.8173217462917552,-9.172829885740295,-8.584679597521133
1769249798648,114,-14,-9.444882965624611,-17.083068946803007,-17.17749907600698
1769249798652,111,-17,-13.249521411602574,-20.06556754295331,-20.965631116740383
1769249798656,110,-18,-14.151049768969758,-21.031747011526512,-21.84861805991717
1769249798660,109,-19,-13.8931950322631,-21.99216379851561,-21.55307210776992
1769249798664,109,-19,-13.349179780853762,-22.153633468950673,-20.948385420273013
1769249798668,110,-18,-12.728048942480262,-21.10726984869954,-20.254749385862855
1769249798672,112,-16,-12.080171371898036,-19.06225901340807,-19.54025132572971
1769249798676,113,-15,-11.523667608542551,-18.09973452215587,-18.933541015575216
1769249798680,112,-16,-11.142349534010236,-18.975981439057342,-18.51401934690137
1769249798684,112,-16,-10.877023854569693,-19.18088886844979,-18.20931179556763
1769249798688,113,-15,-10.602011988073835,-18.084390676642577,-17.885444166847165
1769249798692,114,-14,-10.26031482006958,-17.098197023869616,-17.48836980526975
1769249798696,114,-14,-9.877182484743622,-17.11669979947031,-17.05133776951383
1769249798700,114,-14,-9.474348311650273,-16.9847855892771,-16.599732127473665
1769249798704,115,-13,-9.028695017865903,-16.218721555248493,-16.10761095701882
1769249798708,115,-13,-8.522838259545786,-16.029878584940597,-15.553328830700732
1769249798712,116,-12,-7.99788181119815,-15.200116982327533,-14.977229358269057
1769249798716,117,-11,-7.520613332072964,-14.015697997850468,-14.44863834080362
1769249798720,117,-11,-7.097281699696526,-14.156487046787309,-13.97576331214453
1769249798724,117,-11,-6.646745585681814,-14.058017656926184,-13.4765744085593
1769249798728,118,-10,-6.078717651969238,-13.204372589806706,-12.858941485866008
1769249798732,119,-9,-5.388318328297636,-12.061782230718658,-12.117950828966222
1769249798736,120,-8,-4.656899451777932,-11.150007007942126,-11.336399192847246
1769249798740,120,-8,-3.9678395581030057,-11.089600019484386,-10.5983231846038
1769249798744,121,-7,-3.339156472634466,-10.136876080918352,-9.920983910470618
1769249798748,122,-6,-2.7345105345470127,-9.149731465626656,-9.267133458514362
1769249798752,122,-6,-2.121323654880415,-9.148575181630328,-8.604040358013796
1769249798756,123,-5,-1.5100593924404058,-8.0605719673074,-7.942628969348481
1769249798760,124,-4,-0.9391813998993176,-7.233619439743515,-7.321972862810216
1769249798764,124,-4,-0.4242016638407372,-7.019612981100128,-6.757823872795136
1769249798768,125,-3,0.0726386221204891,-6.280601438367838,-6.212023319168775
1769249798772,125,-3,0.6127785255175808,-6.052968301917069,-5.62260499660419
1769249798776,126,-2,1.2177667665825656,-5.159079712218734,-4.968162146429093
1769249798780,127,-1,1.8378291079072624,-4.18415503820109,-4.299157176469887
1769249798784,127,-1,2.3848482673114417,-4.085084764040001,-3.703917666431419
1769249798788,128,0,2.79643782209467,-3.2544360310828924,-3.2440753243185982
1769249798792,128,0,3.075093245747617,-3.075520720035118,-2.916281061281305
1769249798796,128,0,3.2804882987727444,-3.190091163336605,-2.6611022993621987
1769249798800,129,1,3.495330996512015,-2.1616982912884537,-2.3970266298114935
1769249798804,129,1,3.7918519033812146,-2.1372766644394288,-2.0524290668291822
1769249798808,129,1,4.205937437994952,-2.250271968855082,-1.5905870997208842
1769249798812,130,2,4.722776733414973,-1.0419922151662488,-1.0252856183397316
1769249798816,131,3,5.291537387399921,-0.3251149487963376,-0.4076361875067125
1769249798820,131,3,5.866295633493111,0.0185035865391389,0.2154416598721908
1769249798824,132,4,6.42660105396908,0.5961173892595255,0.82336092199556
1769249798828,132,4,6.94342236741962,1.0324609242641785,1.387835934294122
1769249798832,133,5,7.328588554605416,1.6326265795754198,1.8209474408316968
1769249798836,133,5,7.43997597324087,1.9778909893473025,1.9798396188990273
1769249798840,133,5,7.157292119933744,1.7004963641167985,1.7437119983315084
1769249798844,132,4,6.4623515909227045,0.864792462686375,1.0952249418639104
1769249798848,131,3,5.45096410453786,-0.2324446600024856,0.1316059695159053
1769249798852,130,2,4.276496378280785,-1.1648033994214142,-0.9937128884380932
1769249798856,129,1,3.087512145164121,-2.2037841008939414,-2.1339522585199835
1769249798860,128,0,2.003099775662224,-3.1816544901142665,-3.171777484568497
1769249798864,127,-1,1.1073490366286185,-4.231981639339697,-4.0227739868551575
1769249798868,126,-2,0.4299232151924795,-5.207912042987212,-4.655298705618822
1769249798872,126,-2,-0.07083679267653,-5.17515470145227,-5.109696146933956
1769249798876,126,-2,-0.4768608331063673,-5.250974468660674,-5.468411172194122
1769249798880,125,-3,-0.8371952128079099,-6.119388802925302,-5.7817229526096945
1769249798884,125,-3,-1.1227864471007831,-6.349090599664551,-6.021171919476293
1769249798888,125,-3,-1.2587464741749788,-6.098118671341151,-6.111752795803181
1769249798892,125,-3,-1.2021536194870557,-6.333383737842066,-6.010168470128342
1769249798896,125,-3,-0.990486779607058,-6.101572630045782,-5.753472255468937
1769249798900,126,-2,-0.7159784520966213,-5.271328908086993,-5.433607754104548
1769249798904,126,-2,-0.4467020806453675,-5.255852221395585,-5.118696025936962
1769249798908,126,-2,-0.1645627388879397,-5.176889999863738,-4.791024813606619
1769249798912,127,-1,0.2201670248558366,-4.346761101041968,-4.361360508779856
1769249798916,127,-1,0.7856447288380015,-4.03523175642893,-3.7517451803164
1769249798920,128,0,1.516672967653078,-3.4230904367659374,-2.9770535881887144
1769249798924,129,1,2.297222544579724,-2.056860284438108,-2.152801575553826
1769249798928,130,2,2.9915793448703387,-1.4675634586456416,-1.4144507742379764
1769249798932,130,2,3.5491836918800552,-1.0535181238681526,-0.8125696186595492
1769249798936,131,3,4.037861667475049,-0.3532115074326176,-0.2794533027407615
1769249798940,131,3,4.569488102911482,-0.1397776242489534,0.2964217898349979
1769249798944,132,4,5.1807820342882875,0.6725986523171201,0.9511586201116992
1769249798948,133,5,5.772915081747521,1.733305672774053,1.585565406292849
1769249798952,133,5,6.158369634983173,1.7549711174395428,2.0126090621977513
1769249798956,133,5,6.171061890780123,1.7863126495791972,2.067197449306076
1769249798960,133,5,5.755214115952352,1.729116842171142,1.6939883356061634
1769249798964,132,4,4.980017766186596,0.7530359543889569,0.9617278870818478
1769249798968,131,3,3.9834105593948257,-0.3552043669841946,0.0077838106949572
1769249798972,130,2,2.89163513356982,-1.199914260068529,-1.0417340251004
1769249798976,129,1,1.7750351734386276,-2.2543589425887776,-2.116433347110041
1769249798980,128,0,0.6674758550284574,-3.276655201650394,-3.18251897223194
1769249798984,127,-1,-0.3855995874895188,-4.222669240811561,-4.194560751923412
1769249798988,126,-2,-1.314188092878052,-5.459984665444605,-5.082367512552274
1769249798992,125,-3,-2.068040454321724,-6.071771114590763,-5.795611642012824
1769249798996,125,-3,-2.6715695223586877,-6.437765259153603,-6.35896992642387
1769249799000,124,-4,-3.2240128270897257,-7.093040432942314,-6.87180769171821
1769249799004,124,-4,-3.833174488293695,-7.4164931621059615,-7.441277332046207
1769249799008,123,-5,-4.537272343604918,-8.333310709869911,-8.104573065023695
1769249799012,122,-6,-5.278747005068444,-9.17832691669317,-8.804214225360601
1769249799016,122,-6,-5.9443454388330315,-9.40609003642195,-9.428892906258191
1769249799020,121,-7,-6.434575057707265,-10.086502359249694,-9.881407448894215
1769249799024,121,-7,-6.71571529449056,-10.47679469356634,-10.127870988595076
1769249799028,121,-7,-6.827195451218648,-10.290157445245075,-10.203948252008807
1769249799032,121,-7,-6.842156681304255,-10.236353746071996,-10.17783756203454
1769249799036,121,-7,-6.808325568856707,-10.412289836728682,-10.0960650367998
1769249799040,121,-7,-6.720642633236433,-10.02890573031441,-9.959550440330002
1769249799044,122,-6,-6.56941035044112,-9.622682036876304,-9.769108439110235
1769249799048,121,-7,-6.454968174932814,-10.11885095456405,-9.631270278436304
1769249799052,121,-7,-6.670174425087479,-10.468462369362523,-9.832832052647008
1769249799056,120,-8,-7.577949529373299,-11.20384062806723,-10.720064425889785
1769249799060,119,-9,-9.17757170638262,-12.216978908038897,-12.27700031118905
1769249799064,119,-9,-10.53825493749524,-12.515444580153956,-13.571966633560717
1769249799068,119,-9,-9.61129295953882,-12.167005124534242,-12.5723732324225
1769249799072,124,-4,-3.9306280542541536,-7.534690930265182,-6.834656974982617
1769249799076,135,7,7.842137072997307,3.93475712457842,4.966472832381282
1769249799080,151,23,24.3807016969351,19.603670674714724,21.50934498332652
1769249799084,169,41,41.38854552773205,37.667584327002565,38.51480441025125
1769249799088,184,56,53.17050421403788,52.65600087284998,50.30587380774635
1769249799092,186,58,55.41637861033987,54.491150827443974,52.5832858959279
1769249799096,175,47,47.4690078563275,43.88969652047409,44.69142330071897
1769249799100,160,32,32.54754161157022,28.518121749367765,29.840769875381262
1769249799104,143,15,15.83639053873573,11.785665738917958,13.198115064386633
1769249799108,130,2,1.8262880280900635,-1.4372644540286608,-0.7641231045924153
1769249799112,122,-6,-7.402064974499504,-9.331271369020993,-9.972004813089326
1769249799116,117,-11,-12.195266105097309,-14.296499020731693,-14.761998246882866
1769249799120,115,-13,-14.13245810098696,-16.347139643599128,-16.693510603871346
1769249799124,114,-14,-14.71340156175534,-17.40494313709881,-17.250758931766462
1769249799128,113,-15,-14.73933795033481,-18.282354854537488,-17.233049855326904
1769249799132,114,-14,-14.452636520578409,-17.46096798650985,-16.893641534056975
1769249799136,115,-13,-13.9519658558576,-16.187262201874223,-16.345890483355873
1769249799140,116,-12,-13.403488850012804,-15.51136397392898,-15.763948388920843
1769249799144,116,-12,-12.963106229662571,-15.280860710952352,-15.300416522539187
1769249799148,116,-12,-12.647199800439546,-15.429822878318666,-14.961609075621322
1769249799152,116,-12,-12.355470703528104,-15.308256212579003,-14.63983531837756
1769249799156,117,-11,-12.00140530297184,-14.336877515580092,-14.24958300019116
1769249799160,118,-10,-11.57846507562101,-13.416985275768443,-13.790727345316968
1769249799164,118,-10,-11.106490533242765,-13.40263368935991,-13.28733082029414
1769249799168,118,-10,-10.567932686996992,-13.326985651621548,-12.72033961206548
1769249799172,119,-9,-9.932151083247629,-12.424309766352565,-12.055438747839863
1769249799176,120,-8,-9.221992949659798,-11.209145056231469,-11.314506005748662
1769249799180,121,-7,-8.519008187021903,-10.607734042788124,-10.580887524966876
1769249799184,121,-7,-7.896868118648001,-10.216680742816385,-9.929366053142475
1769249799188,122,-6,-7.364222344435931,-9.552312863454056,-9.367463994127371
1769249799192,122,-6,-6.870891724441586,-9.206792193662984,-8.843616836771453
1769249799196,123,-5,-6.349656546837247,-8.418310462949792,-8.291155002727118
1769249799200,124,-4,-5.745087942439657,-7.467094580188918,-7.656524008410855
1769249799204,124,-4,-5.026933900172762,-7.325204931285461,-6.910355405490641
1769249799208,125,-3,-4.2123576836105885,-6.544718173293875,-6.06887262764953
1769249799212,126,-2,-3.3857164528069537,-5.137962494733644,-5.215014852611549
1769249799216,127,-1,-2.6722602411355467,-4.581908973561652,-4.473460494637773
1769249799220,127,-1,-2.160008980358511,-4.265056802481034,-3.932486722322187
1769249799224,128,0,-1.8273365261513568,-3.5869539470403335,-3.5709736885075185
1769249799228,128,0,-1.5409786795682074,-3.320940816263706,-3.2560175278133903
1769249799232,128,0,-1.136344503431692,-3.322400988557201,-2.8231846815852393
1769249799236,129,1,-0.5268251266454034,-2.487675940651786,-2.186187210632693
1769249799240,130,2,0.2413240732900303,-1.2773372198359096,-1.391883240533323
1769249799244,131,3,1.0310643585893469,-0.7104889710211868,-0.5773192180890874
1769249799248,131,3,1.7104160632782044,-0.1289797853188581,0.1268791140586334
1769249799252,132,4,2.220670228988382,0.4073278700860534,0.6636958974592027
1769249799256,132,4,2.58315363753161,0.7902336388993731,1.0545145506743454
1769249799260,133,5,2.870823943857593,1.446183910783625,1.3703859592615784
1769249799264,133,5,3.173011717406024,1.4846415295071802,1.698703095191826
1769249799268,133,5,3.553836087654746,1.7299334254991203,2.103509739497934
1769249799272,134,6,4.009640315207885,2.4530791726563663,2.58271586056744
1769249799276,134,6,4.460096294619164,2.8001675055073356,3.0574793080169407
1769249799280,135,7,4.800726608166928,3.3667360942879387,3.423537029098574
1769249799284,135,7,4.9884331158469255,3.5717703041435147,3.6370523347617025
1769249799288,135,7,5.085274695652958,3.6022079932989453,3.7594584234078416
1769249799292,135,7,5.20816537393662,3.5699140177961386,3.9075467551116434
1769249799296,135,7,5.415653876897748,3.661069554769771,4.139598276687163
1769249799300,136,8,5.630237779695354,4.508290305817537,4.377351518485679
1769249799304,136,8,5.6687177297763,4.378206539256273,4.437398993243085
1769249799308,135,7,5.353289250502126,3.818841992470072,4.143362404118445
1769249799312,135,7,4.611746089981237,3.2735221214698296,3.425110703374351
1769249799316,133,5,3.508221468991173,1.9995929636233791,2.347133065031876
1769249799320,133,5,2.2141520402466632,1.095685574921788,1.0787999118071747
1769249799324,131,3,0.9490489460314016,-0.1791330775515653,-0.1627244306221813
1769249799328,130,2,-0.0975534548496902,-1.6624269663111535,-1.1881051437242824
1769249799332,129,1,-0.8438919012554422,-2.280106751639252,-1.9138453892756124
1769249799336,129,1,-1.341086200929646,-2.413115776112307,-2.3895724573270507
1769249799340,129,1,-1.7083577137066674,-2.5933663003052008,-2.734427529122519
1769249799344,128,0,-2.0234870865554044,-3.3893683713535325,-3.026896885210494
1769249799348,128,0,-2.2662460038652723,-3.599530285843585,-3.247457299013781
1769249799352,128,0,-2.360592920220142,-3.2511392340538348,-3.320483970965266
1769249799356,128,0,-2.2670819473990074,-3.561397405889577,-3.2063122203945493
1769249799360,128,0,-2.039357831720384,-3.3841606651464673,-2.9577993386879027
1769249799364,129,1,-1.7920186122347812,-2.6433156309446337,-2.6891568127084335
1769249799368,129,1,-1.5980776312540974,-2.367980281001563,-2.4739266430990785
1769249799372,129,1,-1.4051632228567876,-2.4885251781123774,-2.2602721380898236
1769249799376,129,1,-1.0627719118856145,-2.3805093487554467,-1.8974205336993748
1769249799380,130,2,-0.4523865548199096,-1.534299916860178,-1.2664560006927532
1769249799384,131,3,0.3996150090731598,-0.5431916046031295,-0.3941496133041697
1769249799388,132,4,1.3359365814556003,0.5522838584696057,0.5615520212682883
1769249799392,133,5,2.1902987520916684,1.5303311643113346,1.4347118885882573
1769249799396,133,5,2.8951810644889964,1.6145740124759111,2.158990899618411
1769249799400,134,6,3.483734770124406,2.406862291962483,2.767913844142802
1769249799404,135,7,4.008812269427659,3.5596755041058064,3.3132247603681275
1769249799408,135,7,4.46641620097304,3.3756179176940897,3.7898480772272505
1769249799412,135,7,4.7791821735776425,3.7444285513146607,4.1208009703803175
1769249799416,136,8,4.839167948928701,4.332070854875591,4.199212090640042
1769249799420,135,7,4.5793726882329615,3.694497517821695,3.958270375656476
1769249799424,135,7,4.026342756974804,3.250419697325449,3.4238224889794786
1769249799428,134,6,3.287959537327431,2.6739356591606125,2.7034853277307853
1769249799432,133,5,2.476225705005127,1.4306603220035372,1.9099519568861876
1769249799436,132,4,1.629336181234724,0.6109974807591199,1.081848491995566
1769249799440,132,4,0.7122622106621959,0.4168048527173997,0.1832705264657024
1769249799444,131,3,-0.2996284437670945,-0.5062699063266702,-0.8113791625056006
1769249799448,129,1,-1.351303968913787,-2.5455396970761672,-1.8463506667717944
1769249799452,128,0,-2.3439148875851132,-3.416672372920126,-2.8213841546853136
1769249799456,128,0,-3.2336400538453742,-3.5199115801866063,-3.6930551854520033
1769249799460,127,-1,-4.067954689355101,-4.523696084254683,-4.510653501990374
1769249799464,126,-2,-4.919101969198424,-5.506831135612285,-5.3465525140528625
1769249799468,125,-3,-5.8004712499154145,-6.606807808510039,-6.211730449068261
1769249799472,124,-4,-6.6488840041689246,-7.35207301148257,-7.041216595355722
1769249799476,124,-4,-7.362426504447002,-7.63470808742999,-7.734863370879517
1769249799480,123,-5,-7.843349265694554,-8.414807613985184,-8.198867342981279
1769249799484,123,-5,-8.032653031116912,-8.599501603161233,-8.376003119633243
1769249799488,123,-5,-7.945938236053498,-8.544780823757396,-8.278844423388868
1769249799492,123,-5,-7.689042402558448,-8.426396183769604,-8.007302112031333
1769249799496,124,-4,-7.412365660092139,-7.618590501199707,-7.708061329355831
1769249799500,124,-4,-7.21524314211992,-7.407093888425942,-7.483352434274652
1769249799504,124,-4,-7.091623109614151,-7.633797794352493,-7.336502187967077
1769249799508,124,-4,-7.004627642292723,-7.498289972237838,-7.240378981668027
1769249799512,124,-4,-7.0504572529542955,-7.533173983515144,-7.292074194183175
1769249799516,123,-5,-7.522288823780956,-8.52678362965727,-7.772182757447407
1769249799520,122,-6,-8.66764698438185,-9.511243296162382,-8.909197363608449
1769249799524,122,-6,-10.136525616371468,-9.516966267532329,-10.34317337153776
1769249799528,122,-6,-10.48290916695552,-9.635236020361742,-10.637609916228204
1769249799532,124,-4,-7.330880547618058,-7.427608047508237,-7.439940674624051
1769249799536,132,4,1.4347656763073964,0.3574691067290496,1.345175501320604
1769249799540,145,17,15.899344615788596,13.59740413185347,15.80043678880936
1769249799544,163,35,33.00300365210656,31.42870962774824,32.879988030432315
1769249799548,180,52,47.25019478875207,48.37309629661605,47.10753726537322
1769249799552,187,59,53.249847571176886,55.553944133087874,53.10641948676672
1769249799556,181,53,48.61179125529567,49.21947922997036,48.49258136819453
1769249799560,165,37,35.23795740213676,33.7155058692666,35.16460251727347
1769249799564,148,20,18.13157828995808,16.23133179689254,18.11157255380591
1769249799568,133,5,2.6397804191966583,1.6497947614192094,2.6597990290506264
1769249799572,124,-4,-7.978734355748772,-7.654487165531169,-7.947114246023053
1769249799576,119,-9,-13.305109165387988,-12.551084596560178,-13.28794655023312
1769249799580,117,-11,-14.855903681285964,-14.505461315002702,-14.860362637122826
1769249799584,117,-11,-14.570564757456063,-14.660990553218369,-14.582338971400883
1769249799588,117,-11,-13.770599008341543,-14.441457264554224,-13.766191753602326
1769249799592,118,-10,-12.98078113158261,-13.599569755017452,-12.94388939488303
1769249799596,119,-9,-12.293692743088316,-12.569737184081015,-12.22390402288316
1769249799600,120,-8,-11.73290416038687,-11.531634682676552,-11.642456261102772
1769249799604,121,-7,-11.336026914091082,-10.695002823826751,-11.238775340423611
1769249799608,120,-8,-11.06907602158397,-11.400812850555509,-10.970338728132354
1769249799612,120,-8,-10.813594601219116,-11.672268291620062,-10.708440330456028
1769249799616,121,-7,-10.480302290305769,-10.43779117801678,-10.36072398736314
1769249799620,122,-6,-10.093072884715117,-9.730011089428466,-9.956237288129149
1769249799624,122,-6,-9.729080271280674,-9.51767415413025,-9.578429501376885
1769249799628,122,-6,-9.40268308773398,-9.581530273543382,-9.24229766185844
1769249799632,122,-6,-9.045817597555931,-9.537658773536975,-8.875686167363233
1769249799636,123,-5,-8.594092058570254,-8.500572376063054,-8.411329223937999
1769249799640,124,-4,-8.053278232825328,-7.767487694039238,-7.85648689080214
1769249799644,124,-4,-7.467937697724654,-7.434070251423348,-7.258947410778352
1769249799648,125,-3,-6.852577282288667,-6.743625367927759,-6.633997579926744
1769249799652,125,-3,-6.185642956461994,-6.3376057900211435,-5.9577136982468115
1769249799656,126,-2,-5.471414095804201,-5.727726422673975,-5.231938976460586
1769249799660,127,-1,-4.777358292164742,-4.553447704465798,-4.5245990084144765
1769249799664,128,0,-4.179603269701183,-3.658466709701594,-3.914459213861961
1769249799668,128,0,-3.671452474507609,-3.5651196104840865,-3.396200121760393
1769249799672,128,0,-3.1551399136236955,-3.4821992241838635,-2.870540453945519
1769249799676,129,1,-2.5449648464227144,-2.638744685909507,-2.2496910788083424
1769249799680,130,2,-1.865572508490097,-1.6111724051256615,-1.5584973253962169
1769249799684,131,3,-1.22526565020626,-0.6657741834473736,-0.9070944775480784
1769249799688,131,3,-0.6951349566563256,-0.5192205732642927,-0.3671311784604958
1769249799692,131,3,-0.2359062764388122,-0.5897895764746028,0.1020456283868442
1769249799696,132,4,0.2524772341435473,0.5002172149979174,0.6014553439842567
1769249799700,133,5,0.8277060665978055,1.191492699368073,1.187841233257104
1769249799704,133,5,1.456567638368584,1.5500506287526257,1.8266576452040049
1769249799708,134,6,2.0481613346410183,2.249766461983345,2.4271762063786095
1769249799712,134,6,2.522461904960024,2.619405060214392,2.910592346930441
1769249799716,135,7,2.864662046900564,3.2876440734920465,3.262757826525055
1769249799720,135,7,3.138749885238763,3.3618942655248167,3.547382854852449
1769249799724,135,7,3.4517140918696008,3.4034773081808307,3.87100916441676
1769249799728,136,8,3.8870298264016143,4.3544555842054535,4.316850878578599
1769249799732,136,8,4.453681617322435,4.547385874308925,4.893450715406808
1769249799736,137,9,5.088415300526781,5.280001427451685,5.536878681959526
1769249799740,138,10,5.702997846723684,6.42659045039847,6.158880286244531
1769249799744,138,10,6.228779374876455,6.257436458313156,6.692246859498693
1769249799748,138,10,6.621553346596613,6.553178045939186,7.094645415818883
1769249799752,139,11,6.845704905622613,7.295945357324646,7.330437779684691
1769249799756,139,11,6.884456484768979,7.518477073396707,7.380510279849296
1769249799760,139,11,6.76875726656618,7.198828271547156,7.273765235066934
1769249799764,138,10,6.558890566276202,6.437689273034881,7.070924867106891
1769249799768,138,10,6.262571740065237,6.4134285061743075,6.781538151948897
1769249799772,138,10,5.779687339134697,6.362309499149753,6.306410491725703
1769249799776,137,9,4.964837092015882,5.4908284687993785,5.49996883392121
1769249799780,136,8,3.770959484395723,4.176017399167836,4.315213870844915
1769249799784,134,6,2.3397757328975213,2.4824680193315753,2.8941782880428413
1769249799788,133,5,0.9532663129216092,1.332747748211779,1.518163788628747
1769249799792,132,4,-0.1155912540419383,0.4276966452464625,0.4585284761233019
1769249799796,131,3,-0.7469497393582472,-0.5626389156811618,-0.1657299467969748
1769249799800,131,3,-1.0258525290727425,-0.801900638318318,-0.4388283000250901
1769249799804,131,3,-1.1714337908694763,-0.5115358549725677,-0.5783977407038936
1769249799808,131,3,-1.3833621184631155,-0.7327480341161063,-0.7831167360245583
1769249799812,130,2,-1.708101684999213,-1.4983321438178328,-1.099151771306695
1769249799816,130,2,-2.022498387110391,-1.6562607450954094,-1.403704731073041
1769249799820,130,2,-2.1383963417776295,-1.719538702050726,-1.5097557833653372
1769249799824,130,2,-1.9363844436919453,-1.5813382020392277,-1.2992712084768063
1769249799828,131,3,-1.432821409178232,-0.7097230482415027,-0.7890693093003645
1769249799832,131,3,-0.7557855887869266,-0.4915214026437118,-0.1064101817103777
1769249799836,132,4,-0.0684245909558904,0.2701801111868001,0.5866700048107711
1769249799840,133,5,0.5092421191139588,1.4103505984829194,1.1706659245387376
1769249799844,133,5,0.9433061299197496,1.212142090749695,1.6119144827151306
1769249799848,133,5,1.2776178520345225,1.5374745538617232,1.954629797492374
1769249799852,134,6,1.591759057086507,2.2137096811815393,2.2781413210127504
1769249799856,134,6,1.9666652180445163,2.558818859352499,2.661941286005252
1769249799860,135,7,2.4720588792540164,3.140713370324045,3.17420615367042
1769249799864,135,7,3.144636700616189,3.4309367620640545,3.85162506518404
1769249799868,136,8,3.938512929488672,4.361718899678518,4.64995086820298
1769249799872,137,9,4.69129225221673,5.303874548601194,5.408511307281821
1769249799876,137,9,5.16998113901613,5.535697299169975,5.894567347630939
1769249799880,138,10,5.196924492852309,6.078112214307841,5.929234719097368
1769249799884,137,9,4.766383960604273,5.568565538046046,5.5055768500711935
1769249799888,136,8,4.044314497745254,4.126099671871849,4.7896637688060935
1769249799892,135,7,3.2376316856084353,3.580406030602771,3.989273866391553
1769249799896,135,7,2.447394066450154,3.22649967723026,3.205655516966451
1769249799900,134,6,1.6393861974428068,2.378390988507907,2.4040203769316344
1769249799904,133,5,0.7421074349217767,1.3152188352297802,1.5125783703030449
1769249799908,132,4,-0.2429333258599268,0.2861223187473065,0.5331310655082975
1769249799912,131,3,-1.227455758574799,-0.5288849599886554,-0.4458008787078551
1769249799916,130,2,-2.1210034844032326,-1.7333381451510346,-1.333886650180232
1769249799920,129,1,-2.923481891394604,-2.6234493834792607,-2.131199974708601
1769249799924,129,1,-3.7295765013627022,-2.6759645651048913,-2.9321467963562116
1769249799928,128,0,-4.632419529999288,-3.784900906110552,-3.828940239074222
1769249799932,126,-2,-5.616488254025031,-5.414579353198786,-4.805439285608168
1769249799936,126,-2,-6.542549177038842,-5.944477561917038,-5.723848224861998
1769249799940,125,-3,-7.234485779305575,-6.318640129133922,-6.411248892447049
1769249799944,125,-3,-7.592866372692744,-7.057222694548724,-6.769430089885493
1769249799948,124,-4,-7.65815109564809,-7.358515309784181,-6.834951045873272
1769249799952,125,-3,-7.582988980092963,-6.889140367985986,-6.753796688953408
1769249799956,125,-3,-7.517294837130652,-6.505258947824592,-6.6731090496544105
1769249799960,125,-3,-7.484154836066558,-6.691598532565811,-6.621747073597703
1769249799964,125,-3,-7.378976994257282,-6.775826500386476,-6.507047625670129
1769249799968,125,-3,-7.149806435857578,-6.543676714300836,-6.285950968823994
1769249799972,125,-3,-7.021751767642439,-6.843581458705325,-6.179703390918323
1769249799976,124,-4,-7.481435204735448,-7.470146376969081,-6.657322963354371
1769249799980,124,-4,-8.822509675533784,-7.780524219294795,-7.992855101154996
1769249799984,123,-5,-10.41294032967588,-8.658433312875749,-9.549172466642704
1769249799988,123,-5,-10.274789503488552,-8.669460535254649,-9.364424331607502
1769249799992,127,-1,-5.652105031774852,-4.774923553378903,-4.709457797684746
1769249799996,136,8,5.320443204870969,4.51477557890615,6.262943571568238
1769249800000,152,24,21.71401770233173,20.204717156924875,22.62637377286408
1769249800004,171,43,39.14096886575879,39.44084026029165,40.01203547675266
1769249800008,186,58,51.29229890125438,54.16959602891966,52.13317858218128
1769249800012,188,60,53.10696397048527,56.33330049802024,53.94424412096602
1769249800016,176,48,43.59953244733389,44.317882809882576,44.46382046646801
1769249800020,157,29,26.407537494350446,25.308942359585817,27.31940054628204
1769249800024,139,11,7.711551104234081,7.381001526354419,8.66935876901589
1769249800028,125,-3,-6.992343393638997,-6.728962523527326,-6.013262290696216
1769249800032,117,-11,-15.200366030688407,-14.658681949969676,-14.233357384876532
1769249800036,116,-12,-17.640358277816727,-15.661223959320749,-16.707262329911593
1769249800040,117,-11,-16.79622452593734,-14.77270215386002,-15.895708261349691
1769249800044,117,-11,-15.03855950133172,-14.571889553582052,-14.149531176868058
1769249800048,118,-10,-13.581237736198004,-13.813127536898635,-12.677623689460804
1769249800052,119,-9,-12.580736815807038,-12.547769053015031,-11.648007642524204
1769249800056,121,-7,-11.808089373435672,-10.785405894092582,-10.850954483248808
1769249800060,122,-6,-11.141639318437203,-9.66814030250745,-10.177700233524773
1769249800064,122,-6,-10.60775986576854,-9.701522998909256,-9.652521371441743
1769249800068,122,-6,-10.211634083862515,-9.700860496660972,-9.267546379210971
1769249800072,122,-6,-9.871726325801989,-9.623605864592992,-8.929848596419582
1769249800076,123,-5,-9.49943009148871,-8.75060941567589,-8.550170653946003
1769249800080,124,-4,-9.06517103322096,-7.666571459539243,-8.106656800030917
1769249800084,124,-4,-8.56647864329226,-7.767811706619982,-7.603398385764312
1769249800088,124,-4,-7.981261176449748,-7.6061422320349745,-7.018033748203764
1769249800092,125,-3,-7.296625861866138,-6.731830144814526,-6.333605758888161
1769249800096,126,-2,-6.568357524309193,-5.659364418231047,-5.603887453328012
1769249800100,127,-1,-5.90896060646941,-4.729398529178554,-4.942486078425184
1769249800104,127,-1,-5.401705476949077,-4.765358296031877,-4.4336102314922545
1769249800108,127,-1,-5.036465639330118,-4.562353408889228,-4.066215256384528
1769249800112,128,0,-4.72582670425468,-3.841509310154573,-3.752091527534324
1769249800116,128,0,-4.362634110579101,-3.498923135558124,-3.3852666706303407
1769249800120,129,1,-3.862023346224026,-2.9409592529211035,-2.8827610594799316
1769249800124,129,1,-3.185652338475877,-2.509941387794009,-2.206425471418831
1769249800128,130,2,-2.366582367921014,-1.873838067473856,-1.3876645182871594
1769249800132,131,3,-1.5152295893223695,-0.5092643455154979,-0.5353723206313434
1769249800136,132,4,-0.7710216745380178,0.1517133978529745,0.2109722291483713
1769249800140,132,4,-0.2153474356600617,0.4037575103343247,0.7688069187256703
1769249800144,133,5,0.1843057396483165,1.165801751413058,1.1697401942815313
1769249800148,133,5,0.5447075075550791,1.389404906275983,1.530814460900439
1769249800152,133,5,0.9706198514928526,1.271888423489541,1.9577922623252215
1769249800156,134,6,1.474917155605839,2.307704877776362,2.463824079378834
1769249800160,135,7,1.9907494219961752,3.326642531632049,2.9810851262544613
1769249800164,135,7,2.4599246656104885,3.1591455905268893,3.4505442439207714
1769249800168,135,7,2.89454813023878,3.45688659282256,3.884855234396433
1769249800172,136,8,3.341233576438974,4.122916686067548,4.331727095250099
1769249800176,136,8,3.7976132112852783,4.497937348361509,4.788894015787919
1769249800180,137,9,4.186584747784842,5.130474634036269,5.178426840131387
1769249800184,137,9,4.423299999552523,5.346449608319237,5.415085362451706
1769249800188,137,9,4.507701010146348,5.281363222475969,5.499476605281258
1769249800192,137,9,4.552205639268421,5.232968277627403,5.544804611018933
1769249800196,137,9,4.719827880032647,5.439052606681036,5.713825285647765
1769249800200,138,10,5.124761316191089,6.145264829210901,6.1196445729372035
1769249800204,138,10,5.764451444180126,6.393157855027578,6.759031189036335
1769249800208,139,11,6.516212470075726,7.169640473367711,7.509581718960494
1769249800212,140,12,7.191026435415049,8.35906153397178,8.182962769261803
1769249800216,140,12,7.6107463221583265,8.290148211552347,8.601581710576083
1769249800220,140,12,7.663609614478424,8.297814801559552,8.654019151105192
1769249800224,140,12,7.313138381074082,8.276932221384381,8.303774089669382
1769249800228,139,11,6.577636236744556,7.215467271855066,7.568607387324976
1769249800232,138,10,5.514619297103355,6.352110324728151,6.505338550127085
1769249800236,137,9,4.220616710533294,5.242466503972471,5.21032993677486
1769249800240,135,7,2.827893459260515,3.398939718934516,3.8163745468559025
1769249800244,134,6,1.4816477320341992,2.153843226886329,2.469203252702976
1769249800248,133,5,0.3080156663276183,1.338133896118344,1.294853362498115
1769249800252,132,4,-0.6057229075897277,0.2038881455195218,0.3802553224049925
1769249800256,131,3,-1.2174956996630215,-0.6077752121320064,-0.2324558529953391
1769249800260,131,3,-1.5353648006506084,-0.7295349116060095,-0.5511831128267373
1769249800264,131,3,-1.6179596407382353,-0.7320954299865301,-0.6350010398891968
1769249800268,131,3,-1.5588255126572086,-0.7723621277545663,-0.5781506280006239
1769249800272,131,3,-1.459600219688795,-0.723235742206163,-0.4821048026936125
1769249800276,131,3,-1.4060866025497527,-0.664910935033654,-0.4313681377594189
1769249800280,131,3,-1.4470923170276253,-0.6738694906204579,-0.4734360894683611
1769249800284,131,3,-1.567894889271892,-0.7795568076601755,-0.59365835705999
1769249800288,131,3,-1.66950554839369,-0.7431681029544066,-0.694697036747848
1769249800292,131,3,-1.5884318975525722,-0.7653762766963945,-0.6149247790075636
1769249800296,131,3,-1.1787210040874636,-0.6258439398032598,-0.2087805609537198
1769249800300,132,4,-0.420705264452015,0.302699238988243,0.5448122361426977
1769249800304,133,5,0.5310318315221324,1.2457167508690752,1.4930950361613888
1769249800308,134,6,1.4262815769604853,2.2164350244578417,2.3864214126333483
1769249800312,135,7,2.0891280855787397,3.2656864761849356,3.047976529774597
1769249800316,135,7,2.5464845918382752,3.3301340060487252,3.5037089990177135
1769249800320,135,7,2.9936540919714623,3.3613682503284217,3.9489745030181345
1769249800324,136,8,3.6125416142289817,4.185369024321442,4.56609339223761
1769249800328,137,9,4.400536481651168,5.266904675991632,5.352092440026243
1769249800332,138,10,5.160514563862327,6.2113045299956315,6.109010672447357
1769249800336,138,10,5.644853548237214,6.380959855565674,6.589119889438304
1769249800340,138,10,5.710165262063283,6.319598070689074,6.649881499287347
1769249800344,138,10,5.35846389056414,6.208934013826871,6.294291908389456
1769249800348,137,9,4.665716747528052,5.2500402649132365,5.598844751822414
1769249800352,136,8,3.6943393805122553,4.1944499609101396,4.625854146207652
1769249800356,135,7,2.4815643362397326,3.447623412593959,3.411687534713588
1769249800360,134,6,1.1078173021574351,2.2032982049939323,2.0356185155154503
1769249800364,132,4,-0.2485670946059754,0.3821208040164761,0.675686410512693
1769249800368,131,3,-1.3693205826039998,-1.0005960684388049,-0.4490578260550615
1769249800372,130,2,-2.147148257755657,-1.4944045747282797,-1.2307827160242293
1769249800376,130,2,-2.6879402285991425,-1.9154587644590435,-1.7759892907916148
1769249800380,129,1,-3.248098469750621,-2.373406677633822,-2.34167892411835
1769249800384,129,1,-4.0465040370459295,-3.078507848273231,-3.145565341127908
1769249800388,127,-1,-5.1090643522494075,-4.546293658823101,-4.211129919419324
1769249800392,126,-2,-6.26470295773284,-5.952874228162371,-5.36670293219129
1769249800396,125,-3,-7.267357507567441,-6.479198211527507,-6.369527974452129
1769249800400,125,-3,-7.92736336338001,-6.748715809072307,-7.034507380269314
1769249800404,124,-4,-8.177074817444261,-7.748089471638609,-7.2943684476768365
1769249800408,124,-4,-8.07751690958144,-7.845748421156245,-7.204479463112961
1769249800412,125,-3,-7.7825100664360685,-6.70530113567454,-6.911718241122443
1769249800416,125,-3,-7.456823366213303,-6.702802845750103,-6.579669807814256
1769249800420,125,-3,-7.187492176062844,-6.5156948853623256,-6.302850739023409
1769249800424,126,-2,-6.980952360081471,-5.972738521248234,-6.0995596428756125
1769249800428,125,-3,-6.884279149891013,-6.643812781466265,-6.023483427095459
1769249800432,125,-3,-7.11418830264848,-6.930532449665326,-6.284432972487125
1769249800436,124,-4,-7.968455942176638,-7.461995298837378,-7.161232754622583
1769249800440,123,-5,-9.389720735358557,-8.745342553679032,-8.578891121013008
1769249800444,123,-5,-10.378820070099206,-8.731341698142765,-9.537875316388304
1769249800448,125,-3,-8.807523288527387,-6.893753315614476,-7.9304514939519635
1769249800452,130,2,-2.186053892218437,-1.7162173718020814,-1.2939017287349497
1769249800456,141,13,10.64442929754298,9.3820350287051,11.517296388272982
1769249800460,158,30,27.84885455238707,26.41305978397698,28.676680226525868
1769249800464,177,49,44.39084008201883,45.16132082117791,45.16964054123233
1769249800468,189,61,54.00857770580291,57.16023878389902,54.75508223306273
1769249800472,187,59,52.48450628377633,55.18043211444467,53.226950600015854
1769249800476,172,44,40.09363145656086,40.39238997785003,40.86022796542932
1769249800480,152,24,21.496302290804973,20.380428883233837,22.302698722306488
1769249800484,134,6,3.1473653153369696,2.1939936536546565,3.986753499998697
1769249800488,122,-6,-9.980375056393246,-9.75841524503878,-9.136151942375554
1769249800492,117,-11,-16.29746022752338,-14.823481262863131,-15.482183639635188
1769249800496,116,-12,-17.290659026625786,-15.563490994076176,-16.52255432998567
1769249800500,117,-11,-15.74009482224017,-14.708785856378626,-15.011135230580551
1769249800504,118,-10,-13.9133108857551,-13.79143713357366,-13.197206457734453
1769249800508,119,-9,-12.765598094415257,-12.757967451743951,-12.037302264426192
1769249800512,120,-8,-12.210956200422356,-11.825407113227914,-11.462044923399118
1769249800516,120,-8,-11.841714399629204,-11.505408400702487,-11.08163468381233
1769249800520,121,-7,-11.43720891295832,-10.827234666322068,-10.682987075772449
1769249800524,122,-6,-11.01661401457871,-9.685985278596284,-10.280552227583474
1769249800528,122,-6,-10.630562236211738,-9.86067745262534,-9.913558966185532
1769249800532,121,-7,-10.22747611387908,-10.70242413228404,-9.520939241258809
1769249800536,122,-6,-9.725428249920054,-9.571912172071393,-9.02004055842517
1769249800540,124,-4,-9.134642578279347,-7.836525596457744,-8.428741925330964
1769249800544,124,-4,-8.546847925532761,-7.657894758233917,-7.8463130726316574
1769249800548,124,-4,-8.027993802134418,-7.909248202929483,-7.33823633670114
1769249800552,124,-4,-7.576414719876615,-7.606734403102719,-6.89635538205734
1769249800556,125,-3,-7.175107388007367,-6.659211997447679,-6.499966418169498
1769249800560,126,-2,-6.816994459961016,-5.796600437848159,-6.145090575645539
1769249800564,126,-2,-6.452694529159773,-5.672503428769892,-5.787060855068677
1769249800568,126,-2,-5.969820266114841,-5.926018344534047,-5.313448958557055
1769249800572,126,-2,-5.29141866537607,-5.520443905877313,-4.643472654180732
1769249800576,128,0,-4.493778178610149,-3.784988239415322,-3.8517113181890448
1769249800580,129,1,-3.773060141913038,-2.662961993705773,-3.136745089260381
1769249800584,129,1,-3.266414065081803,-2.815964588626134,-2.6380841958854195
1769249800588,129,1,-2.9269833834746652,-2.784383153872253,-2.307557419810151
1769249800592,129,1,-2.5943794454606546,-2.618515004145435,-1.9819223928160377
1769249800596,130,2,-2.1669382880444745,-1.7432308750789964,-1.5594307072760216
1769249800600,131,3,-1.675661111814865,-0.6498878319045707,-1.0739316106298509
1769249800604,131,3,-1.2006898305110716,-0.8774471247099571,-0.6074379805944026
1769249800608,131,3,-0.7579525104358535,-0.671584288174687,-0.1744119752644906
1769249800612,132,4,-0.289123710402229,0.2486255283495788,0.2862223048404804
1769249800616,132,4,0.2567298875322525,0.3844989650986141,0.8260894851478131
1769249800620,133,5,0.8592288615855712,1.2228714181389586,1.4228520373329223
1769249800624,134,6,1.447167542390226,2.2742961080074853,2.0031339169354174
1769249800628,134,6,1.9652211860166768,2.1576533637603017,2.5117533552529503
1769249800632,134,6,2.4048017225211775,2.461146618295883,2.942293716139268
1769249800636,135,7,2.7762357677849496,3.1041366760469336,3.306530667760337
1769249800640,135,7,3.079363330252568,3.5651041125966874,3.6033483411752623
1769249800644,136,8,3.320289753659036,3.888090482081484,3.837000366919394
1769249800648,135,7,3.5430132714368687,3.619519712391658,4.051118059864138
1769249800652,136,8,3.8183361393336552,3.931968157845791,4.317661663205139
1769249800656,136,8,4.194832805079637,4.672765700172898,4.6860964350381344
1769249800660,137,9,4.669391693215196,4.962379285862646,5.153108282725148
1769249800664,137,9,5.204975269935605,5.526573173774541,5.681146959536702
1769249800668,138,10,5.763495416997686,6.014968312376684,6.231948128169246
1769249800672,138,10,6.31253666077686,6.470806980095831,6.772952301655279
1769249800676,139,11,6.802725357342285,7.201673484826784,7.254471615708113
1769249800680,139,11,7.14325401581801,7.337535545812298,7.585736677091098
1769249800684,139,11,7.203742153602068,7.282923034362425,7.63703964783911
1769249800688,139,11,6.855875703300917,7.16731360846548,7.280691854088479
1769249800692,138,10,6.044675302287909,6.40082927118311,6.461615478416221
1769249800696,137,9,4.846166222506327,5.171985475173088,5.2553698346754825
1769249800700,135,7,3.456585561753539,3.447970730347821,3.858016071597547
1769249800704,134,6,2.1044090373633635,2.133624010119613,2.4979882637513704
1769249800708,133,5,0.9474786427665643,1.3824892348331206,1.3327621298800532
1769249800712,132,4,0.0315682617338473,0.1444072189322689,0.4077063150585216
1769249800716,131,3,-0.6739011750436681,-0.5662322738403818,-0.3075373603578013
1769249800720,131,3,-1.2113378057889006,-0.8053393797950239,-0.8545039103640577
1769249800724,130,2,-1.597980630025951,-1.6093444896376763,-1.2496289937289804
1769249800728,130,2,-1.8343310199289495,-1.840165034185198,-1.4935416662133267
1769249800732,130,2,-1.9318026888921993,-1.65844494288055,-1.5988960020969962
1769249800736,130,2,-1.921619760372415,-1.76067871923013,-1.5981387082648082
1769249800740,130,2,-1.8383412959320231,-1.6142901832098966,-1.5254127554895978
1769249800744,130,2,-1.704026594746699,-1.767150145008507,-1.4007852450637597
1769249800748,130,2,-1.526310684033696,-1.689874963262878,-1.2306275809910838
1769249800752,131,3,-1.2914783675520718,-0.7928208864067257,-1.0024991856586398
1769249800756,131,3,-0.9467128517614872,-0.6570425089425411,-0.666031800400166
1769249800760,131,3,-0.4119032105609392,-0.6897233348829155,-0.1417577314815528
1769249800764,132,4,0.3496620797432455,0.3152360344562144,0.608855025861037
1769249800768,133,5,1.2571624462096525,1.2471408935755497,1.50688648590834
1769249800772,134,6,2.132254342281586,2.250763116542104,2.373835059243109
1769249800776,135,7,2.8257815801155775,3.3153513306491487,3.0590140326846473
1769249800780,135,7,3.3365720914621586,3.326767789150603,3.560550122666627
1769249800784,135,7,3.7949698930367335,3.324364233359674,4.00953246692791
1769249800788,136,8,4.3184997057814885,4.2460725350341395,4.524166154207049
1769249800792,137,9,4.883052921229247,5.227746897748098,5.07993875150532
1769249800796,137,9,5.331212936639583,5.3860938007752095,5.518827349163866
1769249800800,137,9,5.493426880809197,5.210163315514573,5.671324518064432
1769249800804,137,9,5.3020615719635655,5.517615557151819,5.4700036245778545
1769249800808,137,9,4.8100203897476685,4.979833749347192,4.967834074727793
1769249800812,135,7,4.114303940411113,3.557127037777482,4.26229635528274
1769249800816,135,7,3.2593981501413634,3.018876821492941,3.3985347304386107
1769249800820,134,6,2.2186140462866897,2.616552726527913,2.349611638793159
1769249800824,133,5,0.9812716275291812,1.1232087711164531,1.1037977015518037
1769249800828,131,3,-0.3501071097058887,-0.6540042871835805,-0.2369484234663934
1769249800832,130,2,-1.5779976924879144,-1.754869405346656,-1.4748123295189832
1769249800836,129,1,-2.5473085725899254,-2.7397387811260163,-2.454376156161071
1769249800840,128,0,-3.271867585577908,-3.525534709958765,-3.189458560295175
1769249800844,128,0,-3.923597101395548,-3.7927599242420142,-3.851706456672571
1769249800848,127,-1,-4.686057162439492,-4.673215682295348,-4.623795349781931
1769249800852,126,-2,-5.596578871788358,-5.7858900883998166,-5.542355486987423
1769249800856,125,-3,-6.509879598775648,-6.686830968890195,-6.462903231943347
1769249800860,124,-4,-7.209098669115483,-7.568384951984742,-7.171002124109105
1769249800864,124,-4,-7.56724517112756,-7.738959818712131,-7.541613258251173
1769249800868,124,-4,-7.629540592867586,-7.696390021976668,-7.618545529871503
1769249800872,124,-4,-7.561575737493385,-7.789846670381395,-7.562265137291009
1769249800876,124,-4,-7.515640889228502,-7.6650680116007806,-7.520334789371855
1769249800880,124,-4,-7.524683006023772,-7.590256970521544,-7.52728105506536
1769249800884,124,-4,-7.512803298984973,-7.69942985088859,-7.516734660830393
1769249800888,124,-4,-7.4319915537383885,-7.718701355748807,-7.4517138133924785
1769249800892,124,-4,-7.428058206386787,-7.778768206326155,-7.4796236785426915
1769249800896,123,-5,-7.854149590536018,-8.670278813818616,-7.940349341829809
1769249800900,122,-6,-8.970310142131993,-9.57388467800553,-9.073558084326349
1769249800904,122,-6,-10.368558116830892,-9.71049053090964,-10.460506815269484
1769249800908,122,-6,-10.503491053806425,-9.668670328717276,-10.565756590564568
1769249800912,125,-3,-6.923632538142514,-6.868364429119104,-6.9627878944672865
1769249800916,133,5,2.473828712555026,1.4928873639956546,2.429676157173609
1769249800920,147,19,17.643221461305753,15.218202828982896,17.562947506897785
1769249800924,165,37,35.29524288738227,33.60542477678129,35.16300328198782
1769249800928,183,55,49.683151694275814,50.97074734483323,49.50458612081503
1769249800932,189,61,55.259086538605914,57.51450444588349,55.05609638402899
1769249800936,182,54,49.67401746271088,50.007257531767536,49.47470021441958
1769249800940,165,37,35.09656970179094,33.65485417539452,34.92346505895972
1769249800944,147,19,16.93881156417514,15.152719975943802,16.797447642841007
1769249800948,131,3,0.9185748560508422,-0.516087734822793,0.7927745953917658
1769249800952,122,-6,-9.572161092336692,-9.85180445974191,-9.712128567809836
1769249800956,118,-10,-14.30491017955238,-13.593184255304966,-14.484765472909464
1769249800960,117,-11,-15.189940796544926,-14.718131610454304,-15.416364644179987
1769249800964,117,-11,-14.5038036162659,-14.569661716638596,-14.76208501990371
1769249800968,117,-11,-13.653984796434726,-14.759719063558869,-13.919076590148268
1769249800972,117,-11,-13.01892418752078,-14.62015832966642,-13.271996494033436
1769249800976,119,-9,-12.48558372827703,-12.746867840272373,-12.725120069697908
1769249800980,120,-8,-11.958828076348832,-11.611634330101143,-12.198860890342289
1769249800984,120,-8,-11.46705825665616,-11.678196660361326,-11.724364064769414
1769249800988,120,-8,-11.025587135602663,-11.66118107379098,-11.306730510196694
1769249800992,120,-8,-10.579503909972136,-11.67324417221702,-10.8785132387308
1769249800996,121,-7,-10.098434163782173,-10.680797931938454,-10.40541862060704
1769249801000,122,-6,-9.649388630043893,-9.643252033478396,-9.960221733717074
1769249801004,122,-6,-9.32377125089832,-9.706593958753547,-9.641654993667444
1769249801008,122,-6,-9.109909548358276,-9.5775089998691,-9.439397163959969
1769249801012,122,-6,-8.877728919554375,-9.780332120005568,-9.219308101673658
1769249801016,122,-6,-8.496079403620326,-9.511655786872064,-8.847066057936734
1769249801020,124,-4,-7.941446255124665,-7.832090987354155,-8.300593156064467
1769249801024,124,-4,-7.2845695712806275,-7.500049793662335,-7.653802327934768
1769249801028,124,-4,-6.603847404806258,-7.796592538809712,-6.985365169309292
1769249801032,125,-3,-5.943837656154324,-6.526768437149615,-6.337176337778774
1769249801036,126,-2,-5.339113512561069,-5.755471297711857,-5.741945346340263
1769249801040,126,-2,-4.82716893188093,-5.588921808964011,-5.238105060336222
1769249801044,127,-1,-4.412029222500197,-4.714927592267886,-4.831748649029084
1769249801048,127,-1,-4.030782505145353,-4.6026593624487075,-4.4607283631226196
1769249801052,127,-1,-3.584875346962006,-4.688469815514614,-4.025672426013698
1769249801056,128,0,-3.020012526710389,-3.578552797611989,-3.47142905227245
1769249801060,129,1,-2.3734222950452692,-2.7710002534363234,-2.8352312320371436
1769249801064,129,1,-1.7379012519836516,-2.491261308303375,-2.2100003889310393
1769249801068,130,2,-1.1810467439321746,-1.8614837334167524,-1.6629396680563588
1769249801072,130,2,-0.6964231677716477,-1.369693989982895,-1.1874378683491242
1769249801076,131,3,-0.2208357506910045,-0.939453289943315,-0.7210792164899074
1769249801080,131,3,0.3051880247991625,-0.3450332924619852,-0.2053647052504379
1769249801084,132,4,0.8791051299819799,0.0603847364778413,0.3572999251857212
1769249801088,132,4,1.4209735048561951,0.6032210524691415,0.8881776242162793
1769249801092,133,5,1.8206116862558948,1.203595507659034,1.2779626410511815
1769249801096,133,5,2.025018888951398,1.4324909915127373,1.4732895065343463
1769249801100,133,5,2.0991073637196065,1.3960619885789836,1.5380969898341483
1769249801104,133,5,2.1963714634076617,1.2143171754416562,1.6254265114729272
1769249801108,133,5,2.4495667044583223,1.574013269973963,1.8683041420689568
1769249801112,134,6,2.8726124490635785,2.1460933277138254,2.2810099818110023
1769249801116,134,6,3.36349599261721,2.5719340654533625,2.7615652262095276
1769249801120,135,7,3.805828402933475,3.25121669412595,3.1935277577032615
1769249801124,135,7,4.17372374554776,3.350091397815735,3.5512584940103
1769249801128,135,7,4.5422126717518045,3.492599737137719,3.910212538924739
1769249801132,136,8,4.995484002834515,4.166596604421721,4.354579525290212
1769249801136,136,8,5.520408025171738,4.643893257765995,4.870463372465598
1769249801140,137,9,5.9822776047332376,5.1409272347834944,5.322097439110479
1769249801144,137,9,6.20039839082412,5.506104880228623,5.528481542413429
1769249801148,137,9,6.053189512232654,5.337602141137158,5.369186984320985
1769249801152,136,8,5.526192409461693,4.2941813360860746,4.8316700752187955
1769249801156,135,7,4.683629637820106,3.588695436375426,3.980884342822379
1769249801160,135,7,3.6215372251092215,3.15634249725289,2.911364818386984
1769249801164,133,5,2.4559454139145913,1.560151585597913,1.7369167303414494
1769249801168,132,4,1.3253152217134312,0.2595385684172369,0.5954078809307157
1769249801172,131,3,0.3562945502142886,-0.6197152099162162,-0.3851896196205686
1769249801176,130,2,-0.3985419774004182,-1.4560795083285978,-1.1508275748899837
1769249801180,130,2,-0.984432890478449,-1.8250321464423265,-1.7465098370388294
1769249801184,129,1,-1.4914175114828565,-2.370543497443389,-2.2629903014677417
1769249801188,129,1,-1.9656474530446968,-2.8736856802878132,-2.7469983639455284
1769249801192,128,0,-2.364617141893934,-3.427661890393808,-3.155929583586501
1769249801196,128,0,-2.5948809960811734,-3.6696403377758977,-3.395915595352428
1769249801200,128,0,-2.5941580277478606,-3.5847494212336737,-3.404593761673826
1769249801204,128,0,-2.3814471088162845,-3.553814806566847,-3.2014574497272705
1769249801208,129,1,-2.0325843877466485,-2.7431825795075504,-2.862876772005692
1769249801212,129,1,-1.6118285363004503,-2.476779670724831,-2.4528811912015924
1769249801216,129,1,-1.1307393942777717,-2.69272272877656,-1.982131028017826
1769249801220,130,2,-0.5687331543523287,-1.473295967451472,-1.429581543889392
1769249801224,131,3,0.0804632677400154,-0.6733275763636986,-0.7894635624247841
1769249801228,131,3,0.7880315572441888,-0.6229905765983816,-0.0912793468289754
1769249801232,132,4,1.503798248037005,0.4584234225104708,0.6145914324411841
1769249801236,133,5,2.1824712918373907,1.3052765111245126,1.2828950639302388
1769249801240,133,5,2.8015701867012472,1.6305174665221758,1.89133672820944
1769249801244,134,6,3.3574091310079477,2.1761054280014296,2.436810543618684
1769249801248,134,6,3.842516927074392,2.5951333419702216,2.912441586460403
1769249801252,135,7,4.23272500575378,3.210565533148894,3.293910112537154
1769249801256,135,7,4.504243484958129,3.5730043430337117,3.556624519159108
1769249801260,135,7,4.656955447325034,3.400751503017859,3.699862215017076
1769249801264,135,7,4.702741774187457,3.3919041555118223,3.7353966672388985
1769249801268,135,7,4.621421157829145,3.449304360322188,3.643090392383245
1769249801272,135,7,4.335739603165086,3.289439618819266,3.3460077439566724
1769249801276,134,6,3.7438905329790457,2.5785279400835464,2.7434027965211687
1769249801280,133,5,2.792863957709494,1.3611896680299784,1.7834207961913258
1769249801284,132,4,1.5438750381749349,0.4882087323534101,0.5270017455244727
1769249801288,131,3,0.1849610546680031,-0.6451072573618108,-0.8396165941993319
1769249801292,129,1,-1.0373373601106226,-2.624416435640856,-2.071363549799156
1769249801296,128,0,-1.952132997783087,-3.461514984006564,-2.997197047577024
1769249801300,128,0,-2.577450941864451,-3.6040380077322545,-3.634114181246119
1769249801304,127,-1,-3.106111718136745,-4.497135924046601,-4.174158402464151
1769249801308,127,-1,-3.753451407459397,-4.666451380481475,-4.831983297597685
1769249801312,126,-2,-4.58792371533442,-5.579877758120874,-5.675041140438005
1769249801316,124,-4,-5.489186949968323,-7.514306296355199,-6.582812513116692
1769249801320,124,-4,-6.25846610979213,-7.518736786249792,-7.358899013566057
1769249801324,124,-4,-6.767623000098468,-7.555615727382204,-7.878933383158815
1769249801328,123,-5,-7.024493828823448,-8.600503815916895,-8.15141263673034
1769249801332,123,-5,-7.135737190938086,-8.612110233373091,-8.277923134195282
1769249801336,123,-5,-7.220321414719418,-8.492862133700193,-8.37035268702233
1769249801340,123,-5,-7.322765454824228,-8.527176103553106,-8.471414965087916
1769249801344,123,-5,-7.37386738896699,-8.495908431808893,-8.519141026027418
1769249801348,123,-5,-7.25822041854641,-8.676758218175042,-8.41036863391068
1769249801352,123,-5,-6.990889787662602,-8.476812839197258,-8.1674769205271
1769249801356,123,-5,-6.869238502584783,-8.671592364510154,-8.081670563613105
1769249801360,122,-6,-7.371744741721717,-9.292885757377896,-8.613104340563744
1769249801364,122,-6,-8.67560445602211,-9.730383214437763,-9.921451168624133
1769249801368,121,-7,-9.992777362145985,-10.399702937724664,-11.21718674363096
1769249801372,122,-6,-9.286176275179702,-9.751846818865276,-10.481348157710528
1769249801376,126,-2,-3.947125193075879,-5.387405760589067,-5.130206260981145
1769249801380,136,8,7.559251332289836,4.4702852068078744,6.35773927076297
1769249801384,152,24,23.983807819439225,20.52394786281976,22.739464526038425
1769249801388,171,43,40.8992330690202,39.44168721782509,39.60598882299998
1769249801392,185,57,52.38023121063227,53.343340937498915,51.05018545009988
1769249801396,186,58,54.011878374214675,54.558097704761025,52.668350352878186
1769249801400,175,47,45.2923041408713,43.37323298646163,43.960920460435645
1769249801404,158,30,29.78024112420269,26.673758567622187,28.47790816248519
1769249801408,142,14,12.966797548667012,10.246326623423698,11.691284173496078
1769249801412,129,1,-0.5681908518541103,-2.2921555573018653,-1.83933231768909
1769249801416,122,-6,-8.900012146677822,-9.737063079105624,-10.196524282097425
1769249801420,118,-10,-12.657394483422443,-13.278845937368173,-13.997387962818545
1769249801424,117,-11,-13.671850050917504,-14.689142436761948,-15.051275761302886
1769249801428,116,-12,-13.576203353844706,-15.456635282768865,-14.974100129250017
1769249801432,116,-12,-13.18640130873584,-15.5013732772333,-14.580707250820112
1769249801436,117,-11,-12.687994699101434,-14.546504749487257,-14.069752960772014
1769249801440,118,-10,-12.096182178474235,-13.369391249006451,-13.47262458939625
1769249801444,119,-9,-11.499789850725431,-12.686348986343578,-12.885724911703743
1769249801448,119,-9,-11.010263114538771,-12.425410984513308,-12.415732738458148
1769249801452,119,-9,-10.644415216576762,-12.515119726590926,-12.068566353274193
1769249801456,119,-9,-10.331614449026016,-12.49655865883,-11.766655824207891
1769249801460,120,-8,-10.010450432685836,-11.342869438284549,-11.450444310233095
1769249801464,121,-7,-9.673293202472276,-10.78657104224098,-11.118757813918322
1769249801468,120,-8,-9.322278179028263,-11.261651071679712,-10.777130777873262
1769249801472,121,-7,-8.928457264527154,-10.708140264176931,-10.39450217182542
1769249801476,121,-7,-8.457922285086237,-10.210001906295773,-9.933673831894977
1769249801480,122,-6,-7.915766237722512,-9.63033441569814,-9.399799034763966
1769249801484,123,-5,-7.338923495432048,-8.495054373094291,-8.832294317262907
1769249801488,123,-5,-6.75667790817107,-8.531359670738862,-8.261119303869677
1769249801492,123,-5,-6.187279417319796,-8.463055195587586,-7.702184410418391
1769249801496,124,-4,-5.6712571415422435,-7.337425650309288,-7.194139952501806
1769249801500,125,-3,-5.26446166381057,-6.562759552618116,-6.79435217335565
1769249801504,125,-3,-4.964632664308861,-6.474731671607601,-6.503471120278074
1769249801508,125,-3,-4.664605740320436,-6.614853432248095,-6.2146057657514255
1769249801512,125,-3,-4.223805742722734,-6.31497751961038,-5.784471936529888
1769249801516,126,-2,-3.602033731194722,-5.466126305662162,-5.170867536714697
1769249801520,127,-1,-2.901133246945391,-4.404219283784654,-4.476998446094516
1769249801524,128,0,-2.2548037144196753,-3.5992774639809637,-3.8394935978910456
1769249801528,128,0,-1.6877239983048855,-3.520081663352734,-3.2837192705404417
1769249801532,128,0,-1.1081641632203147,-3.355169366940017,-2.7154901790811015
1769249801536,129,1,-0.4421409896212697,-2.438152682246224,-2.0583010648222477
1769249801540,130,2,0.2536232550702086,-1.3545002775089912,-1.3693368111286817
1769249801544,131,3,0.8391487373604891,-0.6627220393140858,-0.7913004286024443
1769249801548,131,3,1.2469531791134716,-0.4223046795477385,-0.3933202203696462
1769249801552,131,3,1.5642951446524291,-0.4577683334290645,-0.0869551296119124
1769249801556,131,3,1.943213467546506,-0.312530695855691,0.2821026792733851
1769249801560,132,4,2.435831647563192,0.5683553162514299,0.766515845884693
1769249801564,133,5,2.936665781408688,1.425356529105959,1.2592159409830073
1769249801568,133,5,3.2946021649802204,1.5249516101455454,1.6076530465021983
1769249801572,133,5,3.47450560640297,1.586632960223743,1.7772835615507008
1769249801576,133,5,3.603223768797118,1.66743805906595,1.896766690060784
1769249801580,133,5,3.861516548139618,1.6204764401935474,2.1475192999273007
1769249801584,134,6,4.334686266157003,2.3993655971496546,2.6133424066910633
1769249801588,135,7,4.957800046388572,3.5828400899983146,3.2273836660563866
1769249801592,135,7,5.579328308961427,3.541136016846214,3.838223655748865
1769249801596,135,7,6.054814675791542,3.7046455258802817,4.303390172858838
1769249801600,136,8,6.289578331527449,4.659632641862789,4.529410449495164
1769249801604,136,8,6.233144065598471,4.312000062372157,4.464863241609865
1769249801608,135,7,5.864891554142671,3.7885673759055822,4.087677204097435
1769249801612,135,7,5.186107827555098,3.260726201824098,3.399177551621233
1769249801616,133,5,4.2198145836037195,2.0704907980242133,2.4236316038921166
1769249801620,133,5,3.0261621201057496,1.268625419675265,1.221943046123537
1769249801624,131,3,1.7266265566106578,-0.2380983090241155,-0.0850234560063523
1769249801628,130,2,0.5025729527278757,-1.6328202181262466,-1.317215061861818
1769249801632,129,1,-0.4598528909717738,-2.3243573572323797,-2.289176334168721
1769249801636,128,0,-1.0586725817352145,-3.287394523364514,-2.8982417591544993
1769249801640,128,0,-1.3355397098379342,-3.4107796069739287,-3.184625993025576
1769249801644,128,0,-1.4479518238081042,-3.4422014485737997,-3.3052484855244018
1769249801648,128,0,-1.5570865827654652,-3.487143646554283,-3.42233447362734
1769249801652,128,0,-1.7123700221314886,-3.37661759541979,-3.586650299400125
1769249801656,127,-1,-1.8366303700649012,-4.288154211217554,-3.7207966488357855
1769249801660,127,-1,-1.832050198028488,-4.349964059798754,-3.7254364526245407
1769249801664,128,0,-1.6983206458079785,-3.4754982883097036,-3.599547101055115
1769249801668,128,0,-1.5300845427937222,-3.4320798122361844,-3.4387396930761103
1769249801672,128,0,-1.3934394600125124,-3.3901215632443744,-3.310334364344299
1769249801676,128,0,-1.223459287609916,-3.2901919811551052,-3.1494342458254065
1769249801680,128,0,-0.8655529376608875,-3.305467452347567,-2.8006915755084254
1769249801684,129,1,-0.2267283140386717,-2.5170343763937515,-2.17083846073933
1769249801688,130,2,0.6151305036986451,-1.3085799491460717,-1.338128132760271
1769249801692,131,3,1.4542380484146062,-0.5436233666632346,-0.508332485361779
1769249801696,131,3,2.1138495796959917,-0.0621191677659345,0.1426051307727514
1769249801700,132,4,2.5779043562833635,0.4126917748540135,0.5991176157600737
1769249801704,132,4,2.990528840723063,0.8474368793303064,1.004579269479014
1769249801708,133,5,3.5281816298221553,1.332337946947372,1.5342882064744685
1769249801712,133,5,4.240555794162861,1.8520692817721416,2.23775258000516
1769249801716,134,6,4.979001617528874,2.5869665026131345,2.966932895550705
1769249801720,135,7,5.476275162803878,3.7065478386255393,3.4548658538746526
1769249801724,135,7,5.524599526552375,3.688831824758432,3.4937762946812363
1769249801728,134,6,5.103940504962225,2.392091954243525,3.064201174418882
1769249801732,133,5,4.352179844513688,1.9647858610487647,2.304743098549452
1769249801736,133,5,3.42570916119482,1.348934139069624,1.3713941470024815
1769249801740,131,3,2.3986446872710134,0.0681811346330496,0.3369242565583459
1769249801744,131,3,1.2821905651636538,-0.6979190655675866,-0.7881386378357575
1769249801748,129,1,0.1089669307354457,-2.159443802253042,-1.970417777251176
1769249801752,128,0,-1.0253774211832214,-3.449770829876966,-3.113184233454566
1769249801756,127,-1,-2.007336666713357,-4.265997321374863,-4.103021759387495
1769249801760,126,-2,-2.7872452775402548,-5.241082992790677,-4.891422399016905
1769249801764,126,-2,-3.4165078776388853,-5.415297105524464,-5.530256170345716
1769249801768,125,-3,-4.009054300406079,-6.323914256196929,-6.1320609772032615
1769249801772,124,-4,-4.661406067416614,-7.343833934258686,-6.791536052134089
1769249801776,124,-4,-5.385268259602391,-7.297389794156199,-7.520771061743296
1769249801780,123,-5,-6.090163032902761,-8.243568284554817,-8.23216599828903
1769249801784,122,-6,-6.6349159619233875,-9.340710857665112,-8.787042456504121
1769249801788,122,-6,-6.929775813313845,-9.360078140851796,-9.094851483247908
1769249801792,122,-6,-7.0122259059731915,-9.297941224491058,-9.18889748278954
1769249801796,122,-6,-7.014988386295656,-9.320080075027263,-9.197191123600934
1769249801800,122,-6,-7.039457355404351,-9.217098414473163,-9.22014828410692
1769249801804,122,-6,-7.055549546573782,-9.301576668914407,-9.233338843835108
1769249801808,122,-6,-6.949860015111389,-9.393827386670672,-9.133518955802934
1769249801812,122,-6,-6.718297843233098,-9.20146858556586,-8.923299713974874
1769249801816,122,-6,-6.634517391683282,-9.460834994390746,-8.871327876646912
1769249801820,121,-7,-7.15260215583032,-9.99797618967779,-9.415232430114443
1769249801824,121,-7,-8.429399820603006,-10.519316683471876,-10.695545623053189
1769249801828,120,-8,-9.67996126183169,-11.120966858970654,-11.925450163053249
1769249801832,121,-7,-8.916043503225652,-10.44363572177562,-11.132998516102456
1769249801836,125,-3,-3.613619376052505,-6.244512274945198,-5.817190395688774
1769249801840,135,7,7.706686585725256,3.8940956181299153,5.488409922085891
1769249801844,151,23,23.856924651290782,19.56893879134902,21.600587731773665
1769249801848,169,41,40.614049160223985,37.93493593700705,38.31263655521013
1769249801852,184,56,52.3032546373717,52.43279819405509,49.96691541836317
1769249801856,185,57,54.62538878779597,53.91091836082033,52.27600772825856
1769249801860,175,47,46.92873789387991,43.6398210764327,44.59162256042677
1769249801864,160,32,32.400951665818205,28.82959044622976,30.09324776548866
1769249801868,144,16,16.155302353224187,12.727940271497433,13.875200566587374
1769249801872,131,3,2.613341384888068,-0.2981247172123442,0.3395267246052604
1769249801876,123,-5,-6.179749274107127,-8.168812275180422,-8.475105146800127
1769249801880,119,-9,-10.588958747351274,-12.342506356832896,-12.922764965066436
1769249801884,117,-11,-12.229876968796187,-14.08407618612052,-14.59915043105105
1769249801888,116,-12,-12.661420147459364,-15.456145574245069,-15.047931918871887
1769249801892,115,-13,-12.732792979181784,-16.01252634160104,-15.116411263717136
1769249801896,116,-12,-12.681238306793796,-15.430500590842785,-15.052384474572037
1769249801900,116,-12,-12.5315513069928,-15.06540949986102,-14.895082210890084
1769249801904,117,-11,-12.331032192390024,-14.324436993105754,-14.700014965593905
1769249801908,117,-11,-12.12014126312427,-14.26186305325271,-14.504888895180573
1769249801912,116,-12,-11.848486308914392,-15.08996223183198,-14.249567063163209
1769249801916,117,-11,-11.419071257405676,-14.38764671380648,-13.829512814577798
1769249801920,118,-10,-10.808843403920571,-12.986585088024382,-13.222267980688567
1769249801924,119,-9,-10.102147596765738,-12.48412207918956,-12.518270978845786
1769249801928,119,-9,-9.402358360620866,-12.0041378124825,-11.82521937072263
1769249801932,120,-8,-8.745428742144828,-11.35669731056084,-11.177953985499322
1769249801936,120,-8,-8.11691753788577,-11.06641926557688,-10.558272336932724
1769249801940,121,-7,-7.528429778254087,-10.26291123169879,-9.976112499770066
1769249801944,122,-6,-7.038267356873352,-9.234505632180358,-9.491366549058288
1769249801948,122,-6,-6.683034972315846,-9.165253421662648,-9.142553514687718
1769249801952,122,-6,-6.409086307384306,-9.22953372889273,-8.875674208393438
1769249801956,122,-6,-6.096687755885857,-9.077307019794723,-8.569585900799328
1769249801960,123,-5,-5.652537833628855,-8.30895980133283,-8.131242675729261
1769249801964,124,-4,-5.068510226526078,-7.094275550248108,-7.554131655200617
1769249801968,124,-4,-4.403793112507474,-7.322068050411154,-6.897579453370463
1769249801972,124,-4,-3.738570618973292,-7.011196619987622,-6.23990064291859
1769249801976,126,-2,-3.1403634051805556,-5.2579771160636355,-5.647482866418466
1769249801980,126,-2,-2.632832263349254,-5.139647566699972,-5.145119892694099
1769249801984,126,-2,-2.17263214943768,-5.192749230048509,-4.690992107688911
1769249801988,127,-1,-1.6758818629127117,-4.2307997230039165,-4.201130257128096
1769249801992,127,-1,-1.0933992261341925,-4.025536296627193,-3.625260523959659
1769249801996,128,0,-0.4627856735049286,-3.2565212510776216,-3.0006119315451114
1769249802000,129,1,0.1223914838843025,-2.072142101275005,-2.421401418910619
1769249802004,129,1,0.5965356084150315,-2.264945934971649,-1.9537763695960797
1769249802008,129,1,0.97135079764768,-2.106871443542472,-1.58580009967304
1769249802012,130,2,1.3056912653458417,-1.1140714629335688,-1.2580443205421283
1769249802016,130,2,1.6382690849542243,-1.1639752219806092,-0.9313981266055564
1769249802020,130,2,1.955105671749432,-1.098098105185875,-0.6197970502089305
1769249802024,131,3,2.22116066104155,-0.2388313558806607,-0.3588272708185784
1769249802028,131,3,2.4447708314235572,-0.0723104377072756,-0.1409922662217639
1769249802032,131,3,2.705335149628472,-0.1457997471485868,0.1130179890570266
1769249802036,131,3,3.0972108650901022,-0.0695489823313852,0.4984080920667564
1769249802040,132,4,3.6328367304942466,0.794785734823499,1.0281335282521584
1769249802044,133,5,4.210567910466591,1.9554400798891232,1.600104135570545
1769249802048,133,5,4.690957739050905,1.71808069833238,2.0745486559031434
1769249802052,133,5,5.005034547099368,2.1349852509770635,2.3830790562662107
1769249802056,134,6,5.1886001809930775,2.6572123533464467,2.5620203915541837
1769249802060,133,5,5.319581551139277,2.080863274654754,2.6885870726234735
1769249802064,134,6,5.423711361634276,2.7460859708926657,2.78709471155188
1769249802068,134,6,5.4281119544658,2.917350695282414,2.784324245945827
1769249802072,133,5,5.192783731836071,2.02495843187664,2.5417687181501294
1769249802076,133,5,4.594259762619524,1.7353753855674965,1.9377026194801124
1769249802080,132,4,3.614535980518557,1.0745954038374208,0.9540507516086904
1769249802084,131,3,2.3860636192613573,-0.2488280483255418,-0.2782892957342966
1769249802088,129,1,1.1478899535174918,-2.019880992071906,-1.521223980729927
1769249802092,128,0,0.1184105583435363,-3.0044914522702544,-2.556034660779953
1769249802096,128,0,-0.6237516133841217,-3.234865850906229,-3.3036788502736036
1769249802100,127,-1,-1.1461231935049323,-3.8821735564130737,-3.8317483198899938
1769249802104,127,-1,-1.557444035327309,-4.306228892392895,-4.248781852125885
1769249802108,126,-2,-1.9012029711242515,-4.858858748010482,-4.597575935371717
1769249802112,126,-2,-2.1429664749214363,-5.191755068514977,-4.843547054080547
1769249802116,126,-2,-2.2405539372242176,-4.993885930710073,-4.945470600640287
1769249802120,126,-2,-2.213508518969954,-5.099121734904665,-4.923829243335753
1769249802124,126,-2,-2.1481909737754097,-5.061180095926446,-4.8645356132249775
1769249802128,126,-2,-2.139252922514346,-5.0171870427453324,-4.860812477841175
1769249802132,126,-2,-2.2122836214806108,-5.070210445968209,-4.937585747089644
1769249802136,126,-2,-2.2821819888436323,-5.028180820573627,-5.010619981849704
1769249802140,126,-2,-2.1867994386088507,-5.0997755035516334,-4.919044600289485
1769249802144,126,-2,-1.7912109327897712,-4.947193991476024,-4.528300745961664
1769249802148,127,-1,-1.0946267262463536,-4.143792243612232,-3.8371550131205137
1769249802152,128,0,-0.2471027190444795,-2.869450067881514,-2.9952363917154567
1769249802156,129,1,0.5518498180810366,-2.2421179881082764,-2.2017170106781645
1769249802160,129,1,1.1920854107100411,-1.835624827332687,-1.566109002015784
1769249802164,130,2,1.711921356385406,-1.163081176056051,-1.049564971133909
1769249802168,130,2,2.237402325311834,-0.914648966999029,-0.5265055710618984
1769249802172,131,3,2.865954619077951,-0.0272289703904675,0.0991189427121397
1769249802176,132,4,3.588128277935624,0.8898874787593396,0.8169029326142674
1769249802180,132,4,4.288286925907409,1.128991388404085,1.5116583121522869
1769249802184,133,5,4.801182171127274,1.8540604364043611,2.0192928131714245
1769249802188,133,5,4.981429781675333,2.167509698604002,2.1949232918129424
1769249802192,133,5,4.753682038053799,1.8535100007638643,1.962954313320799
1769249802196,132,4,4.123545505645284,1.096344967414404,1.3289392777849338
1769249802200,131,3,3.1518707012327036,-0.089613761347925,0.353993521864699
1769249802204,130,2,1.9275187248826828,-0.8497923796754256,-0.8732200333858842
1769249802208,129,1,0.5695641627401665,-2.1050339121896657,-2.2342303553406957
1769249802212,127,-1,-0.7639545137858721,-3.845907875203415,-3.571045939894404
1769249802216,126,-2,-1.9118233257542443,-5.153275114908786,-4.722062593157556
1769249802220,125,-3,-2.7867094904797036,-5.83863317276924,-5.6004126415494735
1769249802224,125,-3,-3.4239656964319582,-6.012973172356517,-6.242625978337115
1769249802228,124,-4,-3.954351726882249,-6.946514835746864,-6.779212238801848
1769249802232,123,-5,-4.529172716774764,-7.922041880076749,-7.359028726928641
1769249802236,123,-5,-5.24852483761626,-8.102213584714676,-8.080106066801475
1769249802240,122,-6,-6.109463035766127,-8.81540977033799,-8.940646119454437
1769249802244,121,-7,-6.985855531722285,-10.026524776532025,-9.818209136075282
1769249802248,120,-8,-7.673508330552514,-10.859411747694589,-10.511309872714406
1769249802252,120,-8,-8.003716441064322,-10.98790505640347,-10.849978784275178
1769249802256,120,-8,-7.953827579838211,-11.017853873808203,-10.806404226026991
1769249802260,120,-8,-7.661748234743746,-10.843248921885143,-10.513279153845527
1769249802264,121,-7,-7.323589176672377,-9.97976477692499,-10.16710677281684
1769249802268,121,-7,-7.061190561281652,-9.82524050843852,-9.898155766296629
1769249802272,121,-7,-6.89381507750564,-10.029543430801652,-9.736969870226252
1769249802276,121,-7,-6.865645734162479,-9.9303056072608,-9.731225524175318
