timestamp_ms,ecg_u8_raw,ecg_counts_raw_int,ecg_counts_filt_monitor,ecg_counts_filt_diagnostic,ecg_counts_filt_st
1768725256512,135,7,7.324707301942558,7.295239647220166,7.409742349384669
1768725256516,135,7,7.330737502663128,7.371569419117213,7.406490992751244
1768725256520,135,7,7.057219750736418,7.3372756840929005,7.124417197714522
1768725256524,134,6,6.413917567527556,6.470515450810663,6.473657513205041
1768725256528,133,5,5.420828371740511,5.1858268954550395,5.474331729909288
1768725256532,132,4,4.199313399570229,4.440646074063755,4.24725946631159
1768725256536,131,3,2.934254900887936,3.1229031255249,2.9760862757513697
1768725256540,129,1,1.8221271835425124,1.6251978189754033,1.8563631609405504
1768725256544,129,1,1.0086750129691795,1.1280032261228834,1.0341580389333775
1768725256548,128,0,0.5323154770633969,0.5521619157860675,0.5491194277590281
1768725256552,128,0,0.3096771029652911,0.0447359085803289,0.3187372180631629
1768725256556,128,0,0.1863729166421581,0.4781720566195964,0.1882851121473419
1768725256560,128,0,0.0267190883408612,0.2837253720620811,0.0211329517480296
1768725256564,127,-1,-0.2252525585621847,-0.6096772404880024,-0.2389915858623368
1768725256568,127,-1,-0.5599035168675952,-0.6305287855470203,-0.581889246001553
1768725256572,127,-1,-0.9599620262201424,-0.8913974529814022,-0.9897211242989687
1768725256576,126,-2,-1.426109883390085,-1.524388568982836,-1.463083517490694
1768725256580,126,-2,-1.940231334687152,-1.8012334957446825,-1.983974025382144
1768725256584,125,-3,-2.4154206060041927,-2.4929603288465847,-2.465618197557015
1768725256588,125,-3,-2.703288251645776,-2.7775279767659065,-2.7600048854093657
1768725256592,125,-3,-2.6773851635879526,-2.767471769056323,-2.741393777577008
1768725256596,125,-3,-2.3386786176842045,-2.6555506449536663,-2.4113568580040794
1768725256600,126,-2,-1.8575053473705423,-1.719082647187476,-1.9400324218447036
1768725256604,126,-2,-1.5054537712947067,-1.5424138400220468,-1.5977344384495114
1768725256608,126,-2,-1.5110955975514702,-1.7912227141785353,-1.6114462881252378
1768725256612,126,-2,-1.9291239994751836,-1.7357917527074251,-2.035343756753998
1768725256616,125,-3,-2.604338002614379,-2.7460079754465077,-2.7153790119774532
1768725256620,124,-4,-3.2546857502805704,-3.6423167461886914,-3.3714237958309776
1768725256624,124,-4,-3.6259111070297423,-3.6010769776194427,-3.750360059459312
1768725256628,124,-4,-3.623264251886837,-3.788008304557227,-3.756934657679525
1768725256632,124,-4,-3.338948365531847,-3.702781124613046,-3.4818053988200353
1768725256636,125,-3,-2.9625454149306547,-2.8654432692763616,-3.113461103817993
1768725256640,125,-3,-2.6408965397054893,-2.489996584642012,-2.798850082496424
1768725256644,125,-3,-2.3938415439735,-2.8072849571757037,-2.558513880570283
1768725256648,125,-3,-2.1509246760081866,-2.5683127275779913,-2.3225747596793127
1768725256652,126,-2,-1.8651959268497993,-1.9514214570947723,-2.044416745402012
1768725256656,126,-2,-1.5876283402961373,-1.665869117473933,-1.7748975839192946
1768725256660,126,-2,-1.4322366455896105,-1.651721713734417,-1.6272850272369228
1768725256664,126,-2,-1.4707192725518554,-1.7303436179380354,-1.6726259399835248
1768725256668,126,-2,-1.6529867311490989,-1.5765500088361537,-1.861193811253267
1768725256672,126,-2,-1.824865676034826,-2.053057578180028,-2.039791565501888
1768725256676,125,-3,-1.8411679156590677,-2.52427403367082,-2.0636583514285727
1768725256680,126,-2,-1.6907959187549373,-1.838077880993089,-1.921347478870841
1768725256684,126,-2,-1.521633602648905,-1.5548838160015823,-1.76023900263232
1768725256688,126,-2,-1.5291724401572258,-1.7298252695617569,-1.7754772079197996
1768725256692,126,-2,-1.798498822472622,-1.9930741281600397,-2.051931567140076
1768725256696,125,-3,-2.2341973609972823,-2.5280516103172386,-2.4941997795076953
1768725256700,125,-3,-2.632926232614053,-2.947298137151374,-2.8992013477720353
1768725256704,124,-4,-2.83252104608347,-3.357570259164654,-3.1051081913411154
1768725256708,125,-3,-2.8137131076163264,-3.0164494649268527,-3.0930025298166077
1768725256712,125,-3,-2.6771486255023724,-2.6729717356385954,-2.9638288980783516
1768725256716,125,-3,-2.530508658258648,-2.9029653595660947,-2.8251481552790256
1768725256720,125,-3,-2.399348632446198,-2.6000138543338003,-2.7017427772523455
1768725256724,125,-3,-2.2433790070557844,-2.67627478388082,-2.552473521640352
1768725256728,125,-3,-2.0477424117048453,-2.7735049440575272,-2.3626467477192943
1768725256732,126,-2,-1.8807241064835405,-1.8622634964722808,-2.201903231922982
1768725256736,126,-2,-1.8485653657995451,-1.8104703608474808,-2.17747204463503
1768725256740,125,-3,-1.9949221867124936,-2.651897628994406,-2.3320324728395376
1768725256744,125,-3,-2.2522110793971883,-2.684585999149745,-2.595920663272058
1768725256748,125,-3,-2.486543113869144,-2.7419915903600605,-2.8346418973745364
1768725256752,125,-3,-2.581579797943717,-2.955555402416159,-2.933659822939009
1768725256756,125,-3,-2.494938109561531,-2.689313117259464,-2.85298602850082
1768725256760,125,-3,-2.27239974141179,-2.832798995884028,-2.6391621309418967
1768725256764,125,-3,-2.032581088406209,-2.487499027958554,-2.409408463339202
1768725256768,126,-2,-1.9240528777033283,-1.973126493736734,-2.309754760128455
1768725256772,125,-3,-2.0552905038411176,-2.7508316946740874,-2.4466495853070733
1768725256776,125,-3,-2.419888372618548,-2.8912303798150836,-2.813817808581343
1768725256780,125,-3,-2.8599719531987855,-2.679759973589795,-3.2559252653583197
1768725256784,124,-4,-3.114186739808707,-3.621936755701713,-3.5145622499420375
1768725256788,124,-4,-2.964129081191538,-3.892600637660516,-3.3723161538431556
1768725256792,125,-3,-2.406228424841954,-2.811876445038582,-2.8243585858998013
1768725256796,126,-2,-1.7050826025130363,-1.8783280463159255,-2.132997237923042
1768725256800,126,-2,-1.2461842856197052,-1.6913618345857515,-1.6815113391442722
1768725256804,126,-2,-1.2742776093339685,-1.623941686379644,-1.71358487328635
1768725256808,126,-2,-1.7105244177034735,-1.938867697450438,-2.151470651818909
1768725256812,125,-3,-2.190941091306148,-2.758243800287808,-2.6339403596187387
1768725256816,125,-3,-2.3132459491795268,-2.9835600502783124,-2.761025158370763
1768725256820,125,-3,-1.9274264635835152,-2.563948872378165,-2.382968964658126
1768725256824,126,-2,-1.256532489956652,-1.7733061115048634,-1.7213591231681469
1768725256828,127,-1,-0.7433888834342066,-0.8198284054372029,-1.2171164225264894
1768725256832,127,-1,-0.7288057188217918,-0.8731493666526577,-1.2093951876741125
1768725256836,126,-2,-1.209248312640354,-1.943103095526108,-1.6935880008744308
1768725256840,125,-3,-1.8581288823001223,-2.5661999987802595,-2.343515046232715
1768725256844,125,-3,-2.272808865482794,-2.8308282073359052,-2.75906308956088
1768725256848,125,-3,-2.237043498700052,-2.748834068447587,-2.727259106552207
1768725256852,126,-2,-1.8155918160883529,-1.959619391749565,-2.314014622686816
1768725256856,126,-2,-1.2628298021481303,-1.8953545741614164,-1.7713859954745232
1768725256860,126,-2,-0.8548468152716018,-1.604072794652837,-1.371631253307335
1768725256864,127,-1,-0.7565084973430021,-0.851891769855273,-1.2775893671475886
1768725256868,126,-2,-0.9693098140511835,-1.7075830996343973,-1.4918819926806366
1768725256872,126,-2,-1.3568372048748116,-2.054697445900756,-1.88094373962846
1768725256876,126,-2,-1.7240275564643337,-1.780110986768728,-2.2518285096152675
1768725256880,125,-3,-1.9142501101832583,-2.7691048219792846,-2.447872706392185
1768725256884,125,-3,-1.881272146535769,-2.6950314675459905,-2.421323164674374
1768725256888,126,-2,-1.6953697872448967,-1.8611453239522544,-2.2412598111618176
1768725256892,126,-2,-1.4732112926762695,-1.9577039575137187,-2.024156161660299
1768725256896,126,-2,-1.2837942104615658,-1.840597326430824,-1.8389586175696184
1768725256900,126,-2,-1.1124733645666582,-1.7837338388653332,-1.670784460456238
1768725256904,126,-2,-0.907243090942906,-1.6644072520741742,-1.468149858649702
1768725256908,127,-1,-0.6487394189233167,-0.9336609780215732,-1.213224231436585
1768725256912,127,-1,-0.3774923355971833,-0.8746048307533043,-0.9474879609257932
1768725256916,127,-1,-0.1717244351587366,-0.9597125575085864,-0.7480946231948046
1768725256920,127,-1,-0.1072142340892907,-0.6657648133434579,-0.6887187627959415
1768725256924,127,-1,-0.2150439462610428,-0.8338954219297832,-0.7996019146119986
1768725256928,127,-1,-0.4411041356913268,-0.7621894221740491,-1.0276691933208089
1768725256932,127,-1,-0.6371109624694811,-1.0562708348400764,-1.2260030003094795
1768725256936,126,-2,-0.6208894012361609,-1.8031968312406328,-1.212951770936073
1768725256940,127,-1,-0.2843103127948099,-0.8291196767662714,-0.8805235584304978
1768725256944,128,0,0.3369674101304234,0.2809737048564588,-0.2644236372264282
1768725256948,128,0,1.0904455843549283,0.1377023115784713,0.4836617285123312
1768725256952,129,1,1.8001482307525962,1.0084620912464166,1.1892594738554672
1768725256956,130,2,2.358000050090977,2.15260613542832,1.7447657816072475
1768725256960,130,2,2.769385688268451,2.1250712458478853,2.154331955015649
1768725256964,130,2,3.131735567826642,2.370456747087778,2.5140250532037225
1768725256968,131,3,3.548600190613831,2.9708853555261983,2.9274414880519646
1768725256972,131,3,4.031804505277655,3.2337624290273705,3.407398366362737
1768725256976,132,4,4.4716157351097925,3.851813838656577,3.8445376930395616
1768725256980,132,4,4.705637970882648,4.442132048283623,4.075656752730204
1768725256984,132,4,4.626791131430293,3.99946786884387,3.992776825503357
1768725256988,131,3,4.2327855051469605,3.337420711710859,3.5938987761866197
1768725256992,131,3,3.5837389161343136,2.8785777057488393,2.940533579263644
1768725256996,130,2,2.7360620892106606,2.1328627453661695,2.0904395431090403
1768725257000,129,1,1.7404361820918075,1.219295904953225,1.0945859837905738
1768725257004,128,0,0.7056164384224319,0.1020394275671021,0.0605550442602975
1768725257008,127,-1,-0.1615188370805596,-0.6689355422963961,-0.8069798126975931
1768725257012,127,-1,-0.627095859645102,-1.229856265193586,-1.2758791568360135
1768725257016,126,-2,-0.6016353573122802,-1.690448319883698,-1.2563223183703554
1768725257020,127,-1,-0.2839411050721755,-1.046442029215955,-0.944808315602652
1768725257024,127,-1,-0.1211862608709419,-0.6031289564439279,-0.7862116994465729
1768725257028,127,-1,-0.5501183154900964,-1.0048388288699464,-1.216711877278294
1768725257032,126,-2,-1.682469830686356,-1.900315044714049,-2.349001563495948
1768725257036,124,-4,-3.188998508161717,-4.043806746909737,-3.854992548210001
1768725257040,122,-6,-4.502067229305099,-5.7368110925659,-5.167886511381963
1768725257044,122,-6,-5.190099761426184,-5.905284082696842,-5.857159648485643
1768725257048,122,-6,-5.205062182612476,-5.720519768284592,-5.875786321484455
1768725257052,123,-5,-4.8230742931542565,-5.178747456271506,-5.499177565849964
1768725257056,123,-5,-4.37446229961939,-4.788903184508501,-5.054531397422548
1768725257060,123,-5,-4.020658286210381,-5.035359752574051,-4.700300611661696
1768725257064,123,-5,-3.742872734140908,-4.640416682716507,-4.418881832714107
1768725257068,124,-4,-3.4862225335968935,-3.964159630324879,-4.161273102732434
1768725257072,124,-4,-3.2791771952398454,-3.983202448938722,-3.961407236526695
1768725257076,124,-4,-3.204450758193663,-3.9334573845748904,-3.900608975871205
1768725257080,124,-4,-3.229307963604694,-4.0051584230696315,-3.9369719651066273
1768725257084,124,-4,-2.9940814067853836,-3.633885629337159,-3.700489188516919
1768725257088,126,-2,-1.6986734119529912,-2.0267381213167583,-2.388717814226105
1768725257092,129,1,1.7610798838845536,1.1233324128758948,1.0929420481339625
1768725257096,136,8,8.313955584115202,7.931231430497411,7.65749253458472
1768725257100,145,17,17.981304346960272,17.112810401115354,17.316183832842494
1768725257104,155,27,29.248533505993773,27.212992999876175,28.55815533230916
1768725257108,166,38,39.058866543168335,38.12000051002639,38.34107936802759
1768725257112,172,44,43.760618423438,43.96980940972555,43.02730527414242
1768725257116,169,41,40.74215594405195,41.0240088392123,40.01019453632223
1768725257120,158,30,29.854257087933323,29.9695824635963,29.136410028878373
1768725257124,140,12,13.65374646806164,12.277589353956852,12.954796290738484
1768725257128,122,-6,-3.776841128707552,-5.9499385358996335,-4.459756548618473
1768725257132,108,-20,-18.68221805580418,-19.900983610272455,-19.357980166181616
1768725257136,99,-29,-28.971840047863186,-29.079230837277375,-29.652480033413287
1768725257140,94,-34,-34.35500196927487,-33.89473718277472,-35.05028716555995
1768725257144,92,-36,-35.55919462684568,-35.91125404387717,-36.27085978149973
1768725257148,93,-35,-33.491395623901504,-34.80147418643764,-34.212248279343896
1768725257152,98,-30,-28.955800258002153,-30.070049728499516,-29.675494590528228
1768725257156,104,-24,-22.854610909756772,-23.898300530679563,-23.567246263035273
1768725257160,111,-17,-16.367911089964647,-17.10343959413602,-17.07502748718351
1768725257164,117,-11,-10.750781127735031,-10.71025893193984,-11.458140297943372
1768725257168,121,-7,-6.851812049489059,-7.10071881738497,-7.563561752778834
1768725257172,122,-6,-4.772569257592991,-5.766875502863924,-5.487740617727905
1768725257176,123,-5,-3.9769052251455177,-5.22528199146028,-4.690909603664843
1768725257180,123,-5,-3.75390028740336,-4.774573186905448,-4.463426690886573
1768725257184,124,-4,-3.643389162766243,-4.037242408611055,-4.349878419778559
1768725257188,124,-4,-3.523791993722187,-3.8361830856904993,-4.231979816539976
1768725257192,124,-4,-3.4085818873653357,-4.0029903699858576,-4.121729768250715
1768725257196,124,-4,-3.2349526967162374,-4.048921360876955,-3.951840838616346
1768725257200,124,-4,-2.8551738796324067,-3.9062822674219886,-3.571876808569299
1768725257204,125,-3,-2.190243463987928,-2.986290707441576,-2.904533829974609
1768725257208,126,-2,-1.3498478018891389,-1.8509764830893465,-2.0633748328892274
1768725257212,127,-1,-0.5884568323320938,-1.0635292527348097,-1.3044161445537434
1768725257216,127,-1,-0.1435900476074989,-0.9362414903910732,-0.8627171996345828
1768725257220,127,-1,-0.0950870818299973,-1.1003430006115855,-0.8147072308532015
1768725257224,127,-1,-0.3317026297122543,-0.7640496983607095,-1.0487717382541826
1768725257228,127,-1,-0.6175696295249535,-1.1460547430846215,-1.3318237244952142
1768725257232,126,-2,-0.71387425337696,-1.7372861907572754,-1.4276163731667817
1768725257236,127,-1,-0.5053914578025891,-1.2918175686097275,-1.22097389863848
1768725257240,127,-1,-0.0635192394538812,-0.7539892716265924,-0.7816770339119297
1768725257244,128,0,0.4086938775511739,-0.1356364730017764,-0.3113068969345283
1768725257248,128,0,0.7200650026567825,0.189941764085388,-0.000343573916066
1768725257252,128,0,0.8126600002357998,-0.0558819901473396,0.0933225871105238
1768725257256,128,0,0.7689025917338432,-0.0288488344554114,0.051316367141268
1768725257260,128,0,0.7158564812451396,0.0152510954992932,-0.0008529477962421
1768725257264,128,0,0.7194018114883696,0.0092730866501913,0.0015763443077085
1768725257268,128,0,0.7505753112449587,0.0897430895319187,0.0303162126606154
1768725257272,128,0,0.7362706918296944,-0.011650070341343,0.0144124839976579
1768725257276,128,0,0.647494856263249,-0.0595554994064601,-0.0735609565988929
1768725257280,128,0,0.5606128926550722,0.0134398654774358,-0.1578825546030018
1768725257284,128,0,0.6415538393100113,-0.0236858940930115,-0.0748595848067514
1768725257288,128,0,1.044478859572985,0.1310889070148041,0.327896393056131
1768725257292,129,1,1.7814417547601926,0.9124189791776594,1.0624368090114884
1768725257296,130,2,2.6663207749292828,2.028810721073937,1.9441442043280237
1768725257300,131,3,3.40161611267315,2.8804453171243765,2.6775012868892616
1768725257304,131,3,3.764939125535713,3.0983365578840316,3.041437912877631
1768725257308,131,3,3.761404378664492,2.984909107373611,3.0407175343750907
1768725257312,131,3,3.6260126530430705,3.0391739217068356,2.9083063023837368
1768725257316,131,3,3.6674820094331553,2.9036033401790307,2.950743869911627
1768725257320,131,3,4.056069755089646,2.963413808549407,3.337721533615952
1768725257324,132,4,4.703990205523494,4.028559573320409,3.982673497848999
1768725257328,133,5,5.333456493847356,5.006764879602562,4.609665856380595
1768725257332,133,5,5.688720291737764,5.0317942520392025,4.964337195030129
1768725257336,133,5,5.727418386827306,4.87060659760956,5.004551520563084
1768725257340,133,5,5.6425620741697635,4.984554244659415,4.922146499641586
1768725257344,133,5,5.707828684779107,4.9789561213954725,4.989014605304777
1768725257348,133,5,6.07257683861796,5.045724137402237,5.3535037539064705
1768725257352,134,6,6.66019509831247,5.991185160537763,5.9392693131726135
1768725257356,135,7,7.241477922829709,6.8923144936271425,6.518109305536184
1768725257360,135,7,7.619518128982606,6.9354564183033665,6.894376802309517
1768725257364,135,7,7.772098612501723,7.008579496439913,7.047043999435772
1768725257368,135,7,7.83898047811545,6.9865284865300294,7.116131807840856
1768725257372,135,7,7.983367073721867,7.058861317022721,7.263363755151071
1768725257376,136,8,8.2589722483455,7.790984034993514,7.5399498132615
1768725257380,136,8,8.583178656590366,8.04505363207113,7.861944236424763
1768725257384,136,8,8.805856287468202,7.845320877124515,8.080566945054457
1768725257388,136,8,8.796672256375688,8.156054555211252,8.068527215782366
1768725257392,136,8,8.498084936922634,7.857422226274667,7.770426612085752
1768725257396,135,7,7.943001841225336,6.984749371371501,7.218625923001146
1768725257400,135,7,7.249052623416973,6.83785546269453,6.527968177340257
1768725257404,134,6,6.582245338835008,6.027651915981301,5.86172833789501
1768725257408,133,5,6.077774318841085,4.945693478804888,5.3546505407070235
1768725257412,133,5,5.744011328798566,5.078423815784172,5.017113484087208
1768725257416,133,5,5.426457382657047,4.7194271869588675,4.697191211945953
1768725257420,132,4,4.894775315815636,4.1198869435928005,4.165639633069022
1768725257424,132,4,4.017081177704457,3.7003474936030183,3.289696641853189
1768725257428,130,2,2.888141956083662,2.2565421620016597,2.1624507921936966
1768725257432,129,1,1.7884879973761123,0.7610196284493667,1.0633702465359225
1768725257436,128,0,0.9854516693081354,-0.007820193969112,0.259595123777948
1768725257440,128,0,0.5359250720097495,-0.1078850342259285,-0.1918029364341755
1768725257444,128,0,0.2620314367109193,-0.1681971639345054,-0.4681075861844386
1768725257448,127,-1,-0.0823980640129555,-0.7885626229028715,-0.8142288195018255
1768725257452,127,-1,-0.6036200592554657,-1.3356667953168024,-1.3352944828299838
1768725257456,126,-2,-1.1894781202810316,-1.8100885743115505,-1.9194287586544867
1768725257460,126,-2,-1.6129331516111198,-2.4359413869651516,-2.3412661730759576
1768725257464,125,-3,-1.7277860359889678,-2.7575445370482408,-2.456296964728381
1768725257468,126,-2,-1.6013246382938473,-2.278058411506935,-2.332269897316028
1768725257472,126,-2,-1.4778993765975756,-1.8268230787582311,-2.212411601724342
1768725257476,126,-2,-1.6021506945471038,-2.3523753451424416,-2.339207250408778
1768725257480,125,-3,-2.043182701373009,-2.923190701271116,-2.78012701929234
1768725257484,125,-3,-2.6490211757816606,-3.262407792387094,-3.3836572644545253
1768725257488,124,-4,-3.14936823608799,-3.826823128124856,-3.88176736679552
1768725257492,124,-4,-3.326173490056079,-4.246795861352071,-4.058421505165743
1768725257496,124,-4,-3.1433308883303033,-3.993955325838942,-3.8778009519919463
1768725257500,125,-3,-2.757082177523843,-3.251325909084016,-3.4950075034149264
1768725257504,125,-3,-2.403618843422112,-2.9978103653523056,-3.144640295650153
1768725257508,125,-3,-2.246699616021371,-3.067503682835577,-2.989159564315913
1768725257512,125,-3,-2.293042589520312,-3.0598799284700915,-3.0349577238770724
1768725257516,125,-3,-2.419110187766249,-3.173928134546789,-3.1594445288020503
1768725257520,125,-3,-2.46798691498773,-3.1080948773537935,-3.207203443108246
1768725257524,125,-3,-2.344695639988125,-3.140576718428496,-3.084195544734256
1768725257528,125,-3,-2.060592600841981,-2.9453999470587138,-2.801905878159339
1768725257532,126,-2,-1.713140457256644,-2.1970984518787806,-2.4575098893608427
1768725257536,126,-2,-1.422163478551054,-2.0573041566931223,-2.170017957368594
1768725257540,126,-2,-1.2687002516232626,-2.2429647173406337,-2.018870642693899
1768725257544,126,-2,-1.270458340566437,-2.026270699569479,-2.0203630841882423
1768725257548,126,-2,-1.384714374783484,-2.0590052883481147,-2.1322438587329646
1768725257552,126,-2,-1.5141882227068335,-2.1348882822225983,-2.2597364803147117
1768725257556,126,-2,-1.5266628184769084,-2.0857622289355127,-2.2730187685354935
1768725257560,126,-2,-1.3215352146069217,-2.290294916654288,-2.0715219871135577
1768725257564,126,-2,-0.9278637933672074,-1.9388215273662932,-1.6821081096204369
1768725257568,127,-1,-0.5444592113942666,-1.2043249011401689,-1.3014082646685348
1768725257572,127,-1,-0.4414577496185576,-0.9864404157068384,-1.1991415055443662
1768725257576,127,-1,-0.7637248317065319,-1.244171407459818,-1.521120100868952
1768725257580,126,-2,-1.394426447788392,-2.1808943281872497,-2.151397085681668
1768725257584,125,-3,-2.011808334331103,-3.0272276321457685,-2.768548585696993
1768725257588,125,-3,-2.308207578467772,-3.185161532739867,-3.065298231705747
1768725257592,125,-3,-2.1946474775365985,-2.9608238432256697,-2.9533936598226296
1768725257596,126,-2,-1.8300777753254929,-2.3239255360893054,-2.5920191221102584
1768725257600,126,-2,-1.471827362754203,-2.0801884414210163,-2.237400655801141
1768725257604,126,-2,-1.2883379877008272,-2.1802282988482196,-2.0561519790680074
1768725257608,126,-2,-1.2800963058401804,-2.0500228111459373,-2.0479392138865564
1768725257612,126,-2,-1.3405645173994525,-2.1040483357036757,-2.107312158208624
1768725257616,126,-2,-1.377470488651357,-2.2006956639705457,-2.144050124993554
1768725257620,126,-2,-1.3908680521642829,-2.197598275654963,-2.1595227080384403
1768725257624,126,-2,-1.4581187390353882,-2.09795097834697,-2.230661713222299
1768725257628,126,-2,-1.6533099223761991,-2.1653727846979685,-2.4295128914972643
1768725257632,125,-3,-1.97590079410387,-2.97503811460332,-2.753287820707868
1768725257636,125,-3,-2.343436465532997,-3.3844874137701404,-3.1192991409876316
1768725257640,125,-3,-2.637775023941073,-2.9680100795162745,-3.412018271756726
1768725257644,125,-3,-2.762041620619658,-3.405257379954682,-3.537686698725307
1768725257648,124,-4,-2.6910465343262837,-3.847056121431653,-3.471408751423322
1768725257652,125,-3,-2.5085398608057,-3.304871470033441,-3.2941159184027313
1768725257656,125,-3,-2.3903036577314456,-3.107916843445052,-3.1786420535946047
1768725257660,125,-3,-2.49648207151054,-3.17991176216502,-3.2846756803322763
1768725257664,125,-3,-2.8257349363326054,-3.317573457365509,-3.612627142799
1768725257668,124,-4,-3.163072942048913,-3.8458951068779097,-3.949331894117415
1768725257672,124,-4,-3.2070918424198713,-4.431664624264178,-3.994049743258399
1768725257676,124,-4,-2.804378490048456,-3.905986041651879,-3.593537335271998
1768725257680,126,-2,-2.0976053669563717,-2.438593222652515,-2.890793161978647
1768725257684,126,-2,-1.450849459604302,-2.064473883738576,-2.2493530523693295
1768725257688,126,-2,-1.2105578321923778,-2.0937436127301763,-2.0133508804877396
1768725257692,126,-2,-1.491970110965666,-2.2654352435674676,-2.295620597562346
1768725257696,125,-3,-2.1301089951921828,-3.028799427203774,-2.9314670093693285
1768725257700,125,-3,-2.7931823594824277,-3.3878627551882574,-3.592234460314784
1768725257704,124,-4,-3.166937703260293,-4.070323991852592,-3.9667376790314424
1768725257708,124,-4,-3.1091423198902,-4.132355881983768,-3.9130765661437024
1768725257712,125,-3,-2.7003917424175325,-3.2490807139566935,-3.509645197222484
1768725257716,125,-3,-2.166849154181749,-3.0363897349645157,-2.980094348842364
1768725257720,126,-2,-1.7235731899055509,-2.4472316407173405,-2.5384873179185012
1768725257724,126,-2,-1.4439329020260807,-1.9460352731171464,-2.2588720724022986
1768725257728,126,-2,-1.2470482874551907,-2.352683533590516,-2.061749709627155
1768725257732,126,-2,-1.0074248384471536,-2.0048021714621056,-1.8228551033843443
1768725257736,127,-1,-0.692132620245652,-1.3101747119034457,-1.5099501686971584
1768725257740,127,-1,-0.409516288150081,-1.2142912292625856,-1.2311461919045057
1768725257744,127,-1,-0.3343301744697324,-1.1080905009490076,-1.1599193321532504
1768725257748,127,-1,-0.5768445915020451,-1.3149828200272955,-1.4050908555192465
1768725257752,126,-2,-1.0951564196265495,-1.96620893489924,-1.9244014889626833
1768725257756,126,-2,-1.7052683258281047,-2.470661641900858,-2.5347592784006743
1768725257760,125,-3,-2.176164444396032,-2.9766216963912058,-3.0062528292343815
1768725257764,125,-3,-2.3484826420686615,-3.397966326170851,-3.1800007287995395
1768725257768,125,-3,-2.2026603341927444,-3.028625177929123,-3.0365323961715864
1768725257772,126,-2,-1.8368123113825447,-2.2628111397365696,-2.6739565245894523
1768725257776,126,-2,-1.3852506300173264,-2.244705719361821,-2.2260746533517186
1768725257780,126,-2,-0.9538254076382532,-2.1390889099147667,-1.7976987017565709
1768725257784,127,-1,-0.6114562828391608,-1.3167849605365496,-1.4572016136868342
1768725257788,127,-1,-0.4041592323382934,-1.0678015427082517,-1.2511416823240298
1768725257792,127,-1,-0.3464080188929375,-1.2977230337631636,-1.1948131012879166
1768725257796,127,-1,-0.3961716831415949,-1.2077226285058942,-1.2463638440822509
1768725257800,127,-1,-0.4517862550071112,-1.172686852624076,-1.3038184271374471
1768725257804,127,-1,-0.3895117635746251,-1.3302045360375254,-1.24325029315226
1768725257808,127,-1,-0.1259476768335085,-1.0153581119973318,-0.9814403509646028
1768725257812,128,0,0.3313517107163297,-0.4405194049905979,-0.5263635388082482
1768725257816,128,0,0.8792130505713207,-0.0241680698842473,0.0184556194216595
1768725257820,129,1,1.3667361725385438,0.5971408795702289,0.5022343342358504
1768725257824,129,1,1.6679301689813546,0.904353594885148,0.7997671520060367
1768725257828,129,1,1.7386179216608004,0.7381922400750491,0.8679278302617044
1768725257832,129,1,1.635100450423108,0.7450446547567924,0.7634394226907314
1768725257836,129,1,1.498748711699476,0.8216963437440963,0.6269897962057933
1768725257840,129,1,1.5163571041401729,0.6922147045313003,0.6441737246563738
1768725257844,129,1,1.8555488905870063,0.851973119831354,0.9818354165588256
1768725257848,130,2,2.583251413932996,1.7347138509725302,1.7067739512552005
1768725257852,131,3,3.6057832157183425,2.7390510262457335,2.725526172322102
1768725257856,132,4,4.677140119145551,3.810382500597938,3.7925708591858927
1768725257860,133,5,5.485483662248345,4.687468683260496,4.5968847777688415
1768725257864,133,5,5.778875388003711,4.862345405948976,4.887360210954215
1768725257868,133,5,5.469238391762221,4.67816309532068,4.576203533219767
1768725257872,132,4,4.665988924748188,3.7853833850527927,3.772423682889272
1768725257876,131,3,3.624228435859603,2.728746279120851,2.730443725901251
1768725257880,130,2,2.631856782778349,1.7857726266634462,1.7375385381772503
1768725257884,129,1,1.8912336975961723,0.7450802948679963,0.9953193919087951
1768725257888,129,1,1.4550019688156777,0.7778457147783343,0.5556208756341884
1768725257892,129,1,1.239026260595474,0.6695452729201359,0.3344496954716066
1768725257896,128,0,1.08210792761719,-0.1968687236912723,0.1724128969099077
1768725257900,128,0,0.809708328780202,-0.2546875874598451,-0.102917944804761
1768725257904,128,0,0.2959776177941784,-0.2750849979965548,-0.6172232358212033
1768725257908,127,-1,-0.4695145401770959,-1.1746580740966377,-1.3827850231319267
1768725257912,126,-2,-1.3496254771604257,-2.45242100802183,-2.2641200218374555
1768725257916,125,-3,-2.1190460127577726,-3.0459408895386684,-3.035830989179512
1768725257920,125,-3,-2.6005650299631244,-3.447271757066206,-3.519630229610904
1768725257924,124,-4,-2.7784257868789384,-4.0699923524324495,-3.699517985081399
1768725257928,125,-3,-2.793660842295607,-3.403665837710933,-3.7177532275308383
1768725257932,125,-3,-2.824227105138539,-3.250410805439052,-3.7533218002787745
1768725257936,124,-4,-2.956685499395643,-4.254970666562208,-3.891303214892021
1768725257940,124,-4,-3.159736704408063,-4.2721243792807035,-4.096802486942876
1768725257944,124,-4,-3.357143958448877,-4.226011488564581,-4.291550629840483
1768725257948,124,-4,-3.4970942372709635,-4.311416646907524,-4.426474235615145
1768725257952,124,-4,-3.5487331945679665,-4.295643949362693,-4.4771712074925
1768725257956,124,-4,-3.467111098656592,-4.298684150278635,-4.403685018204431
1768725257960,124,-4,-3.2018639427957565,-4.166433629410456,-4.1539249375997915
1768725257964,124,-4,-2.734104890530742,-4.425663209165927,-3.700247442112294
1768725257968,125,-3,-2.0219517722512226,-3.0557783267022804,-2.9910556923363263
1768725257972,128,0,-0.7852273506934669,-0.6261774610822533,-1.7432068568813333
1768725257976,129,1,1.7056120253293283,1.077548682301544,0.7662479803391242
1768725257980,134,6,6.486987090337134,5.393186038967094,5.561471690202035
1768725257984,141,13,14.224186713679613,13.044109293547212,13.29737746806614
1768725257988,151,23,24.30193624194247,22.422897712988764,23.35691651380819
1768725257992,161,33,34.371490578645925,32.90995787743733,33.39975033118088
1768725257996,169,41,40.9198258188328,40.543614971226894,39.926079110271765
1768725258000,169,41,40.78660572261272,40.8389294016064,39.78501116837863
1768725258004,161,33,32.81870262727932,32.609166532948834,31.824094094222986
1768725258008,146,18,18.604181490383652,17.70344845101386,17.62515766756591
1768725258012,128,0,1.7550840141252166,-0.282218760225337,0.7923387365061085
1768725258016,112,-16,-13.810474941461578,-16.33919376112624,-14.762818716324013
1768725258020,102,-26,-25.452349423459328,-26.145135108587336,-26.405082458330096
1768725258024,97,-31,-32.32080316390842,-31.46018057382797,-33.28601827511048
1768725258028,93,-35,-34.788182530162565,-35.185988886761024,-35.772234024984314
1768725258032,93,-35,-33.60077226572767,-35.45315173050304,-34.59916249738056
1768725258036,97,-31,-29.508591464989983,-31.19167186053606,-30.50980426514059
1768725258040,104,-24,-23.418618532755772,-24.302892893799587,-24.41431955176939
1768725258044,111,-17,-16.574486421124615,-17.317376222352532,-17.565524873702298
1768725258048,117,-11,-10.372248671714551,-11.31047178277851,-11.365257034864689
1768725258052,122,-6,-5.885791661014165,-6.413098706189729,-6.885701190266639
1768725258056,124,-4,-3.472161525622733,-4.249515398986499,-4.4781318456000125
1768725258060,124,-4,-2.7546469826749744,-4.30527976508203,-3.761504997982305
1768725258064,124,-4,-2.9756599532955312,-4.2762663537997705,-3.978479374849224
1768725258068,124,-4,-3.4378549074269307,-4.3441160829757015,-4.436192241146156
1768725258072,124,-4,-3.732759871211507,-4.424736614028869,-4.731440858675493
1768725258076,124,-4,-3.694764987055712,-4.224225146817635,-4.70018535518472
1768725258080,124,-4,-3.266917940121723,-4.416354368999964,-4.281648423508189
1768725258084,124,-4,-2.4731702917398724,-4.0833759255389745,-3.4939384857557045
1768725258088,126,-2,-1.4825877671154335,-2.6097914485993563,-2.503898575867324
1768725258092,127,-1,-0.5938356906082877,-1.1208232944611485,-1.6134287475260676
1768725258096,128,0,-0.0621209445697445,-0.6086407235026601,-1.0821998423662935
1768725258100,127,-1,0.0854843901560112,-1.0272095287754788,-0.9378029662027336
1768725258104,127,-1,0.0446137708070166,-1.4784735382023575,-0.9814610404970576
1768725258108,127,-1,0.0353533643819362,-1.2478693370069511,-0.9912184542024608
1768725258112,128,0,0.1180508536353356,-0.4496920785028307,-0.9087652887968676
1768725258116,128,0,0.1939959503773646,-0.3697820761708619,-0.8356240065544247
1768725258120,127,-1,0.1426285138383687,-1.1956071196513556,-0.8918507625695566
1768725258124,127,-1,-0.0734935544086248,-1.414949067918545,-1.1118898746498047
1768725258128,127,-1,-0.4095512379865602,-1.2362928062397134,-1.4494975247360191
1768725258132,127,-1,-0.7822487230508819,-1.568172734610302,-1.822725924917084
1768725258136,126,-2,-1.0921242759573997,-2.1800265334499564,-2.1335305310285486
1768725258140,126,-2,-1.2358825555397444,-2.467140033940761,-2.2782826861039704
1768725258144,126,-2,-1.1348877933300403,-2.104285302820088,-2.1778223572622712
1768725258148,127,-1,-0.7655961661335475,-1.6094101614944796,-1.809701007816264
1768725258152,127,-1,-0.1719288451806111,-1.175839882183466,-1.219467575425979
1768725258156,128,0,0.5319776302571184,-0.6011309646809317,-0.520955518829944
1768725258160,128,0,1.1657980794553957,-0.0532531529093533,0.1080558551183769
1768725258164,129,1,1.5284518436780683,0.4626657132625668,0.4688802206080765
1768725258168,129,1,1.5100324345391187,0.7864841352295895,0.4516200602452573
1768725258172,129,1,1.2113736502614332,0.4514903379799078,0.1550473835647482
1768725258176,128,0,0.945999041044188,-0.2894506545440523,-0.1095029663674945
1768725258180,128,0,1.0624427809221668,-0.3151098624600967,0.0053513205116237
1768725258184,129,1,1.6911578248432968,0.6254612229331724,0.6299084112591319
1768725258188,130,2,2.619842063851754,1.6971263345805156,1.55277884487165
1768725258192,131,3,3.4144646190433825,2.45179202770941,2.342126734534197
1768725258196,131,3,3.707526456997039,2.7789304810989903,2.6329367940718673
1768725258200,131,3,3.4480494019188024,2.516744851253178,2.374955142357984
1768725258204,130,2,2.940484245792641,1.8208652778724188,1.8706448208467383
1768725258208,130,2,2.6479567967706807,1.448266633318534,1.579850210514747
1768725258212,130,2,2.8930285695390685,1.7280148265216817,1.8230599373858407
1768725258216,131,3,3.657607606028912,2.4952176172513445,2.5826659885196994
1768725258220,132,4,4.616011283771826,3.7640458853320022,3.535384513976838
1768725258224,133,5,5.371082523339517,4.5805822971628585,4.286658416302061
1768725258228,133,5,5.7180839432075246,4.6137172999826594,4.63302401509837
1768725258232,133,5,5.7485204769202625,4.626332225628571,4.665231365426242
1768725258236,133,5,5.7381329869173054,4.5104214975463455,4.656686924624653
1768725258240,133,5,5.9275898598698,4.804207157375627,4.845777300252938
1768725258244,134,6,6.366046120246629,5.455025632387075,5.281248991711441
1768725258248,134,6,6.914127650572144,5.779836006738171,5.825499895403716
1768725258252,135,7,7.37484229197643,6.417194215310028,6.283767093942029
1768725258256,135,7,7.63923600778745,6.730284842088431,6.547722852936307
1768725258260,135,7,7.7397148379115395,6.548629936728123,6.648523724953457
1768725258264,135,7,7.7794493442281345,6.684311781345634,6.6877710372593615
1768725258268,135,7,7.802263084829144,6.559715594783266,6.708891178820139
1768725258272,135,7,7.71888830730949,6.597713923003942,6.6233807282774135
1768725258276,135,7,7.36430663975046,6.587845663018126,6.267075672867218
1768725258280,134,6,6.648295786276115,5.616517818030577,5.5499588719186885
1768725258284,133,5,5.670798015710918,4.6348696876006645,4.57175622460651
1768725258288,132,4,4.69327848210887,3.5667153319217486,3.593899158898717
1768725258292,131,3,3.9781328829927407,2.596355257869544,2.8789754241975967
1768725258296,131,3,3.6241890866137463,2.588881365410709,2.5255399782996037
1768725258300,131,3,3.530878296338326,2.5874720494041243,2.4318605796606687
1768725258304,131,3,3.507891025260397,2.651863406924386,2.4065073815652624
1768725258308,131,3,3.415744859729706,2.5281204163584885,2.3105687048380608
1768725258312,130,2,3.206659426765943,1.624257883913276,2.0986475139886243
1768725258316,130,2,2.857081414664835,1.5479287909731565,1.7491260200654777
1768725258320,130,2,2.3103722462993943,1.6174918052589151,1.204649727748794
1768725258324,129,1,1.5262792119984268,0.5928534605492852,0.4223045212470314
1768725258328,128,0,0.5835585747342267,-0.4109431202268848,-0.5209145089722067
1768725258332,127,-1,-0.3079385243737944,-1.4614555486142595,-1.4144091517670538
1768725258336,126,-2,-0.9411562011496232,-2.3772164848732635,-2.049132310490534
1768725258340,126,-2,-1.2798946584175772,-2.4723366316226563,-2.3880940581628853
1768725258344,126,-2,-1.4923158811236257,-2.328837959166154,-2.600637762910127
1768725258348,126,-2,-1.803711417590372,-2.4939458065510274,-2.9133822485956435
1768725258352,125,-3,-2.3027009478540617,-3.401376989317383,-3.4143127741546015
1768725258356,124,-4,-2.880061243551208,-4.447072925266349,-3.992185210888615
1768725258360,124,-4,-3.3372722798386403,-4.453791907742899,-4.44774096486483
1768725258364,124,-4,-3.536216696365192,-4.3065622659350895,-4.644488460146423
1768725258368,124,-4,-3.455146628107228,-4.578620322706877,-4.562747304539598
1768725258372,124,-4,-3.1441054911219113,-4.254302360717206,-4.252934625121107
1768725258376,125,-3,-2.6650762939462385,-3.6913161606173728,-3.775845146473092
1768725258380,125,-3,-2.07935240922631,-3.184813104348971,-3.1914360540031272
1768725258384,126,-2,-1.4735482765159789,-2.610776227593891,-2.5857177557633566
1768725258388,126,-2,-0.9738758381532736,-2.269665153032741,-2.0852331646004707
1768725258392,127,-1,-0.707659652827199,-1.5538042103046774,-1.8183005902164804
1768725258396,127,-1,-0.725175787345741,-1.4604942659412905,-1.8358427598063536
1768725258400,126,-2,-0.9522324866468777,-2.3917145184428272,-2.063074310183246
1768725258404,126,-2,-1.2318372464867,-2.4721595203057105,-2.3418988379523085
1768725258408,126,-2,-1.425366198018184,-2.340680151308723,-2.5337380821200246
1768725258412,126,-2,-1.4831597865736916,-2.554777055011135,-2.59032745366006
1768725258416,126,-2,-1.4372017567255173,-2.429436284522826,-2.544774712379056
1768725258420,126,-2,-1.3510310622594752,-2.4789163455375314,-2.460159766306913
1768725258424,126,-2,-1.2837769495571911,-2.399843982736734,-2.394016544362857
1768725258428,126,-2,-1.28237624695399,-2.3784442809833544,-2.392079334135766
1768725258432,126,-2,-1.3752748946057969,-2.5881353406118413,-2.483060678002768
1768725258436,126,-2,-1.547119903339493,-2.3390055732131207,-2.6529512872936065
1768725258440,126,-2,-1.7156190622059846,-2.675797660486148,-2.8203628226575734
1768725258444,125,-3,-1.7558506478944895,-3.1468043510440933,-2.859950095491828
1768725258448,126,-2,-1.5794692964069206,-2.6830219569590437,-2.6825802132023484
1768725258452,126,-2,-1.2076828845790384,-2.259827104463313,-2.3097895597707105
1768725258456,127,-1,-0.7666158790133835,-1.6996674332221704,-1.868844579218391
1768725258460,127,-1,-0.4073273514175447,-1.339673255690356,-1.510846761083806
1768725258464,127,-1,-0.2245532054142052,-1.4846761993352875,-1.3286313244795682
1768725258468,127,-1,-0.2340759377287558,-1.3799032798068531,-1.3359815279035403
1768725258472,127,-1,-0.3951846970425113,-1.531489618445646,-1.4927494375458563
1768725258476,127,-1,-0.6291747903370912,-1.4967430641146549,-1.7233420877293626
1768725258480,127,-1,-0.8282980711138688,-1.5033830241633528,-1.9223175935981809
1768725258484,126,-2,-0.8995153081781895,-2.391009272892351,-1.9953125712541808
1768725258488,126,-2,-0.8487355981411732,-2.4357223712402196,-1.944897240239853
1768725258492,127,-1,-0.8168633875328808,-1.5191752444825113,-1.9107809234306945
1768725258496,127,-1,-0.9826440298505758,-1.5033451271343832,-2.073718070987775
1768725258500,126,-2,-1.3961288648272427,-2.522582861406405,-2.485817318994756
1768725258504,125,-3,-1.9166479407149584,-3.38210746035443,-3.0059865747605197
1768725258508,125,-3,-2.3302999181543984,-3.4704526333198986,-3.4185922637523296
1768725258512,125,-3,-2.5255534141989604,-3.487076133626245,-3.611379199358103
1768725258516,125,-3,-2.5531399753618107,-3.5486461699250205,-3.635824423710134
1768725258520,125,-3,-2.531260700571423,-3.471233165462089,-3.611430738201333
1768725258524,125,-3,-2.509652307453971,-3.4695168578547952,-3.5888912387923955
1768725258528,125,-3,-2.431540311046212,-3.395816273355887,-3.511201420137783
1768725258532,125,-3,-2.231259127471235,-3.5840582855706034,-3.310972847064696
1768725258536,125,-3,-1.9679858770523255,-3.451666898882147,-3.045625397377662
1768725258540,126,-2,-1.8388611005944553,-2.5655204936846485,-2.9126924481002026
1768725258544,126,-2,-2.0176699858295577,-2.4110446591141956,-3.088216309321538
1768725258548,125,-3,-2.462126119069783,-3.455922039822671,-3.531085841512504
1768725258552,124,-4,-2.906106638546845,-4.5688690771344245,-3.9738669942527
1768725258556,124,-4,-3.075840828071719,-4.448352810552437,-4.141306752305861
1768725258560,125,-3,-2.9213080666053464,-3.59428033652698,-3.984066999200626
1768725258564,125,-3,-2.6336345590666292,-3.3747782086684883,-3.694819630206345
1768725258568,125,-3,-2.4490002595808433,-3.509832072981943,-3.509501025797654
1768725258572,125,-3,-2.4435433968364944,-3.550756697933565,-3.5024242068571696
1768725258576,125,-3,-2.4970550576432005,-3.4701050339145945,-3.552505483542531
1768725258580,125,-3,-2.42651110675281,-3.59907897003476,-3.477894410504951
1768725258584,125,-3,-2.156455668915009,-3.3529193470777336,-3.204890592661924
1768725258588,126,-2,-1.7883361146109142,-2.5481823817922917,-2.835451364922778
1768725258592,126,-2,-1.5243438265349816,-2.540168878973352,-2.5707584376529806
1768725258596,126,-2,-1.5156625247456046,-2.4962440477957677,-2.5605652490015345
1768725258600,126,-2,-1.7577355942248032,-2.587544452399197,-2.799641041883456
1768725258604,125,-3,-2.1096323670593433,-3.370663933776678,-3.1474945648148083
1768725258608,125,-3,-2.4113702534055412,-3.528529895668396,-3.445338654516439
1768725258612,125,-3,-2.5951287130462135,-3.5990448430587807,-3.6265639141682233
1768725258616,125,-3,-2.699192348424724,-3.437799414234659,-3.7296242410938714
1768725258620,125,-3,-2.7886140366946544,-3.6646837194126625,-3.818107670610166
1768725258624,124,-4,-2.8695020148058106,-4.293443026747777,-3.8961752352329633
1768725258628,125,-3,-2.871046877933453,-3.617719375344934,-3.892788101360805
1768725258632,125,-3,-2.6950805900776507,-3.540135481090303,-3.711763635391338
1768725258636,125,-3,-2.2904428898029696,-3.5058462075328345,-3.3040564613696106
1768725258640,126,-2,-1.7136548650673655,-2.6032989470679913,-2.726356681240177
1768725258644,126,-2,-1.1409084088648165,-2.3561612605917643,-2.153318485386409
1768725258648,127,-1,-0.802030033646357,-1.5823379285519794,-1.8131695039510929
1768725258652,127,-1,-0.8529811269666758,-1.581591852080591,-1.8611576249167836
1768725258656,126,-2,-1.2667288622905422,-2.50326912167059,-2.2702844965129607
1768725258660,126,-2,-1.8293128590536512,-2.5935635208603323,-2.8271716697067704
1768725258664,125,-3,-2.2548193284705818,-3.3787134266233716,-3.2471663711774355
1768725258668,125,-3,-2.3428660368301557,-3.584581286587647,-3.331576536007381
1768725258672,126,-2,-2.074636395512135,-2.568439439598498,-3.062482560367234
1768725258676,126,-2,-1.5972588117111053,-2.5629918783471934,-2.5857839374557487
1768725258680,126,-2,-1.1261065222503144,-2.505558047559257,-2.1140299512893037
1768725258684,127,-1,-0.82697515564395,-1.5152889626135653,-1.8112024020957624
1768725258688,127,-1,-0.7239337069188678,-1.421535946038819,-1.7023266369886685
1768725258692,127,-1,-0.6710182937395877,-1.8136884582303472,-1.643842717204476
1768725258696,127,-1,-0.4231583560836562,-1.2423848697508628,-1.3919315254688234
1768725258700,128,0,0.2110209498844457,-0.928447630379875,-0.7546228391916644
1768725258704,128,0,1.2316774143679252,-0.0151620355452346,0.2690840242402743
1768725258708,131,3,2.4338296820112015,2.003693791994509,1.473887656304492
1768725258712,131,3,3.5294662444075957,2.7720983550791747,2.5710622832273873
1768725258716,132,4,4.2983154217209805,3.1698009774551577,3.3409394762881073
1768725258720,132,4,4.646353475294798,3.6011877802117205,3.691316114490285
1768725258724,132,4,4.563713814324121,3.5059786065520955,3.613342890209372
1768725258728,132,4,4.076623504780462,3.384460745295077,3.1322030799438942
1768725258732,131,3,3.2614266747389236,2.477182813608822,2.322174477170623
1768725258736,130,2,2.2824082424812646,1.3662915748150437,1.3464070063795912
1768725258740,129,1,1.3681482243020398,0.46298383995448,0.4340693734785668
1768725258744,128,0,0.7063901154899406,-0.4235311763147464,-0.2256355352689908
1768725258748,128,0,0.336682653620499,-0.6706444867182214,-0.5922364692521184
1768725258752,128,0,0.1421549076729699,-0.473712033017691,-0.7828093239206041
1768725258756,128,0,-0.0440057275196679,-0.6983808733840025,-0.9649552251533507
1768725258760,127,-1,-0.3115303424617422,-1.4817815432228774,-1.2290601535971937
1768725258764,127,-1,-0.6361865844089033,-1.508321628358669,-1.5511550138226362
1768725258768,127,-1,-0.9522291175794042,-1.599038551617848,-1.865056283365503
1768725258772,126,-2,-1.2549902256539376,-2.5456418923094413,-2.164818299723642
1768725258776,126,-2,-1.6329902473413864,-2.6282200009737884,-2.5380672260427857
1768725258780,126,-2,-2.186477526714326,-2.5743047164034216,-3.086146072299775
1768725258784,125,-3,-2.8943801275297556,-3.431228916632664,-3.7902817051068025
1768725258788,124,-4,-3.5697702805679605,-4.7056727356261785,-4.464288907327318
1768725258792,123,-5,-3.984068466459017,-5.419323503485548,-4.877758820857311
1768725258796,124,-4,-4.059085137094684,-4.786841636712442,-4.949998589747352
1768725258800,124,-4,-3.9293854486432234,-4.402483514111,-4.814497126679122
1768725258804,124,-4,-3.805024876249278,-4.6347334580004,-4.682285914360007
1768725258808,124,-4,-3.775956071678943,-4.5186935640109205,-4.646301536470897
1768725258812,124,-4,-3.753088483900511,-4.592816039868407,-4.621517547781202
1768725258816,124,-4,-3.5921543214535703,-4.681539445678712,-4.4657655122783115
1768725258820,124,-4,-3.253642470522692,-4.436938886697831,-4.136185833209341
1768725258824,125,-3,-2.78730555792263,-3.7022569021483713,-3.674050744094158
1768725258828,126,-2,-2.064311697943733,-2.369941859806506,-2.9425304644310404
1768725258832,128,0,-0.4460481545631956,-0.8302303060626977,-1.302553588303207
1768725258836,131,3,3.233638383587829,2.594320588204117,2.4025387362678625
1768725258840,138,10,10.107037148582783,9.260989800274098,9.29089570081469
1768725258844,147,19,20.28673534710375,18.58826617487079,19.46615711570489
1768725258848,159,31,32.065332423896656,30.368574328655843,31.2238566887319
1768725258852,170,42,42.01255454685544,41.38370989626287,41.14670146388139
1768725258856,175,47,46.224242313881305,46.38697789049034,45.345139441495306
1768725258860,171,43,42.177878349462915,42.38603022378732,41.30439404371254
1768725258864,158,30,30.09773344099079,29.428860873433784,29.246020326825946
1768725258868,140,12,12.93821108877991,11.479407188063686,12.113668015774213
1768725258872,122,-6,-5.020709269601486,-6.721434233806152,-5.824919969927395
1768725258876,107,-21,-20.06486630939197,-21.458078007179115,-20.86253276825565
1768725258880,98,-30,-30.280237232083323,-30.736283730073,-31.083971646495264
1768725258884,93,-35,-35.55886031147262,-35.417624162802426,-36.37425938427388
1768725258888,92,-36,-36.71583274512399,-36.7088725416806,-37.54046165169158
1768725258892,93,-35,-34.596171630276636,-35.5605074594276,-35.4225745837512
1768725258896,97,-31,-29.834515866948134,-31.634194924275825,-30.655104368974087
1768725258900,104,-24,-23.209667914401095,-24.578385352003377,-24.021188157697654
1768725258904,112,-16,-15.980097677249802,-16.551204494793367,-16.78515271386068
1768725258908,119,-9,-9.681912121003716,-9.634848576337436,-10.486058904697016
1768725258912,123,-5,-5.46848356543452,-5.624715118471738,-6.274819809520041
1768725258916,124,-4,-3.5558888936466113,-4.655258512286121,-4.361918431046785
1768725258920,124,-4,-3.2541441952291583,-4.53377202241324,-4.05408000675433
1768725258924,124,-4,-3.540093163208003,-4.630369197928257,-4.330473382475782
1768725258928,124,-4,-3.690923486926712,-4.520114202876963,-4.474098614756642
1768725258932,125,-3,-3.5243870014861858,-3.756698123000301,-4.306646584198328
1768725258936,125,-3,-3.1887777053890343,-3.52306045799735,-3.975024192671045
1768725258940,125,-3,-2.8129412146621684,-3.7077093390415254,-3.602838811465965
1768725258944,125,-3,-2.356174351270422,-3.451396027287834,-3.1451570864082536
1768725258948,126,-2,-1.7260285196756937,-2.7179777821805,-2.509915493130075
1768725258952,127,-1,-0.961655014440118,-1.5530912570159,-1.740176737451232
1768725258956,128,0,-0.2627381987272315,-0.727920288604207,-1.0386759392767924
1768725258960,128,0,0.1578427814296095,-0.5507265196678799,-0.6177047270550196
1768725258964,128,0,0.2429287803986215,-0.5874208374269173,-0.531822492921081
1768725258968,128,0,0.1312149335490424,-0.6440417739778916,-0.641183840726986
1768725258972,128,0,0.0500601842590386,-0.5749210986119826,-0.719625369055334
1768725258976,128,0,0.1553828692754935,-0.7564128096597962,-0.6126142755297558
1768725258980,128,0,0.4361322665286136,-0.5047463126888652,-0.3310199313290349
1768725258984,129,1,0.7500251001545033,0.3327937771306882,-0.0160785608570399
1768725258988,129,1,0.9627369629870663,0.4235964793155535,0.1983419257701623
1768725258992,129,1,1.0728230918708055,0.3658403060629209,0.3104575066839158
1768725258996,129,1,1.2044272522004331,0.2821848523488834,0.4438715245892999
1768725259000,129,1,1.4689406119355644,0.4470231489792766,0.7095230925000755
1768725259004,130,2,1.8283175436377967,1.357144814358295,1.0691927010665216
1768725259008,130,2,2.09607159885625,1.4010060176140893,1.3368983672816477
1768725259012,130,2,2.08250351837305,1.3767821790246029,1.323963346117573
1768725259016,130,2,1.7615993773842344,1.282467393701482,1.0048695659243831
1768725259020,129,1,1.3219191501479826,0.3888289607258363,0.5675254418337516
1768725259024,129,1,1.0570050998264051,0.4314333616843515,0.3044923994782847
1768725259028,129,1,1.1716109518370272,0.2958800159210661,0.420278372074057
1768725259032,129,1,1.647627059019388,0.5100021369003891,0.8969157706155015
1768725259036,131,3,2.277957657892346,2.128331269312155,1.526927708543551
1768725259040,131,3,2.8431274386963694,2.5294063021831423,2.0906170317094213
1768725259044,131,3,3.2721938354141864,2.253407103700528,2.518437947493024
1768725259048,131,3,3.6432551526039503,2.487602269119843,2.8905846870765304
1768725259052,132,4,4.052375564815204,3.293835687970584,3.3030178019912695
1768725259056,133,5,4.5142799054159575,4.3593683855178735,3.7676687304323178
1768725259060,133,5,4.987562371059627,4.274670938133395,4.240852128146804
1768725259064,133,5,5.450494129846983,4.487154757126412,4.701658107972278
1768725259068,134,6,5.914271106153115,5.252323446577194,5.163831069572372
1768725259072,134,6,6.37029054329241,5.504721927522513,5.619976459182912
1768725259076,135,7,6.757154957147719,6.163902110787163,6.007680309744346
1768725259080,135,7,6.999986740077104,6.453448109895247,6.250567748471645
1768725259084,135,7,7.084249010500586,6.287241065255271,6.33401707881387
1768725259088,135,7,7.086827489184632,6.441586024455378,6.33624401754258
1768725259092,135,7,7.1306790078665205,6.29712743559556,6.381199139977821
1768725259096,135,7,7.303383791311342,6.384758711217127,6.555504455718303
1768725259100,136,8,7.609227904449146,7.212364708498519,6.861104726329299
1768725259104,136,8,7.981219156096277,7.533920636993545,7.22997155925432
1768725259108,136,8,8.316724277653012,7.146353831398967,7.561473313770099
1768725259112,136,8,8.501151940562632,7.613111674058737,7.744156359480669
1768725259116,137,9,8.441264848460259,8.042468690141767,7.685539355701428
1768725259120,136,8,8.135394512685501,7.55422924370305,7.381707442322617
1768725259124,136,8,7.727867104169245,7.197686999804694,6.974614082368226
1768725259128,135,7,7.452871843880142,6.4268094030573675,6.698316642441844
1768725259132,135,7,7.467298025183502,6.3638639016273,6.710919550903364
1768725259136,136,8,7.708853574586076,7.245683895787824,6.950526239803512
1768725259140,136,8,7.91992213084623,7.394325518973895,7.158994540170302
1768725259144,136,8,7.824411178119018,7.314017474963066,7.060489854115585
1768725259148,135,7,7.302499018511474,6.315440269234737,6.536600756549012
1768725259152,134,6,6.430791667611454,5.422735690940317,5.66470582657394
1768725259156,134,6,5.394468790089137,5.2049613746555305,4.629019841164176
1768725259160,132,4,4.367658384621917,3.430157536052748,3.602183640904032
1768725259164,131,3,3.4397848651891323,2.280413970076446,2.6729101497020027
1768725259168,131,3,2.61373833383337,2.3316987143254577,1.8439088479752308
1768725259172,130,2,1.8604458055133768,1.3724672502129445,1.0864273060661551
1768725259176,129,1,1.1722192401739355,0.2512516647863021,0.394406255587553
1768725259180,128,0,0.5582200983183352,-0.5892856210822223,-0.220955010876926
1768725259184,128,0,0.0049412989971258,-0.7394420943757474,-0.7734600557743742
1768725259188,128,0,-0.5200918762368314,-0.6346912372810908,-1.2986024242529486
1768725259192,127,-1,-1.0146458122291069,-1.714628556139786,-1.7963249848754184
1768725259196,126,-2,-1.429202005760818,-2.6441782399999103,-2.2156454407461195
1768725259200,126,-2,-1.7422992887766382,-2.6923795212160204,-2.5320837371333114
1768725259204,126,-2,-2.031273173835511,-2.6582840256624523,-2.8223841261271376
1768725259208,126,-2,-2.423423047562864,-2.7195326001805364,-3.2160001086152383
1768725259212,125,-3,-2.959275369689608,-3.6530756779281264,-3.7550195107040505
1768725259216,124,-4,-3.520535510305301,-4.710130469556559,-4.320056360448863
1768725259220,124,-4,-3.908163696156643,-4.627874060470173,-4.710013198410108
1768725259224,124,-4,-3.9904183643838422,-4.734957623263707,-4.792855508709495
1768725259228,124,-4,-3.7783504186637344,-4.659673812480906,-4.581550846878878
1768725259232,125,-3,-3.379472830200373,-3.7020612190995417,-4.185784014266631
1768725259236,125,-3,-2.905552348057014,-3.691001001014405,-3.7175646954899735
1768725259240,125,-3,-2.4368476929802507,-3.6416444146424793,-3.255112314428644
1768725259244,126,-2,-2.057571014994261,-2.7416485856692385,-2.8801129881727014
1768725259248,126,-2,-1.8797655544204548,-2.6690863845008073,-2.703772421286934
1768725259252,126,-2,-1.983626657025192,-2.6828798735581065,-2.8076753148702065
1768725259256,126,-2,-2.314335879692035,-2.735875895207384,-3.13928174971462
1768725259260,125,-3,-2.657513458066348,-3.581771066119885,-3.485538704889363
1768725259264,125,-3,-2.76441157802271,-3.8601313161734825,-3.597325214521163
1768725259268,125,-3,-2.549851845042763,-3.5000188651467936,-3.38818591665704
1768725259272,126,-2,-2.186879829285827,-2.922070606172726,-3.030180288620197
1768725259276,126,-2,-1.9901714197789504,-2.424135111097971,-2.837618468169711
1768725259280,126,-2,-2.167767885597183,-2.965431299490006,-3.018468498034543
1768725259284,125,-3,-2.646245625905998,-3.4726265005268315,-3.4994218706935323
1768725259288,125,-3,-3.115376664396038,-3.8949442748087906,-3.9707000943943
1768725259292,124,-4,-3.2535257894808134,-4.570862381761983,-4.111388466845728
1768725259296,125,-3,-2.948978066864803,-3.699304863916831,-3.810453685181325
1768725259300,126,-2,-2.3446582122965327,-2.769809561677328,-3.211032998350975
1768725259304,126,-2,-1.6908988820766873,-2.622926417764709,-2.5628565440197626
1768725259308,127,-1,-1.1529498021110105,-1.812511218263384,-2.030005936129406
1768725259312,127,-1,-0.7392763579904436,-1.6333706018939989,-1.6201338100668647
1768725259316,127,-1,-0.386913311717985,-1.643382058207053,-1.2706174115179327
1768725259320,128,0,-0.0940359494633292,-0.8420417149486642,-0.9809434725474134
1768725259324,128,0,0.0396063230492117,-0.5342225971948169,-0.8518741015788154
1768725259328,128,0,-0.100635385365487,-0.9642691121362336,-0.9975547011740976
1768725259332,127,-1,-0.5231585943765474,-1.43679386358222,-1.424766368624792
1768725259336,127,-1,-1.0908684565568805,-1.8886960927144776,-1.9955323647616188
1768725259340,126,-2,-1.594986185100853,-2.574926406872574,-2.502069324283075
1768725259344,126,-2,-1.8789112472150815,-2.818808464039676,-2.789716958885446
1768725259348,126,-2,-1.9219702836113113,-2.7011528286818733,-2.838685767544416
1768725259352,126,-2,-1.832534404682379,-2.685684196639963,-2.756137488128839
1768725259356,126,-2,-1.7648850740671551,-2.6626391194506995,-2.6940968953276787
1768725259360,126,-2,-1.817506691805908,-2.79796918924985,-2.7500000924399335
1768725259364,126,-2,-1.9728385131616308,-2.6142208516886707,-2.907522126454158
1768725259368,126,-2,-2.115454890315543,-2.9199354705201657,-3.0533651742667924
1768725259372,125,-3,-2.12680706827724,-3.4698608614499675,-3.069870016689652
1768725259376,126,-2,-1.996861557687137,-2.8757183017647825,-2.94626194496259
1768725259380,126,-2,-1.8558829190187056,-2.6095730242124016,-2.811618522679673
1768725259384,126,-2,-1.8791385034936063,-2.781460429241589,-2.840422148874653
1768725259388,126,-2,-2.1328581452059394,-2.8159561384448235,-3.0984678865378465
1768725259392,125,-3,-2.4945674022356816,-3.510036513688544,-3.4631959384002857
1768725259396,125,-3,-2.721907849219459,-3.932329574887573,-3.692970598215741
1768725259400,125,-3,-2.617337156305784,-3.464552782638428,-3.5918304913371952
1768725259404,126,-2,-2.1610683576322316,-3.0152990361696155,-3.1412924404779123
1768725259408,126,-2,-1.522434543664783,-2.532134029144526,-2.5102902431522303
1768725259412,127,-1,-0.9589426362422132,-1.8185137244018368,-1.954315141222697
1768725259416,127,-1,-0.6788906450251889,-1.65920031949622,-1.6798119419423283
1768725259420,127,-1,-0.7447887462450262,-1.6974524122157946,-1.749154444200158
1768725259424,127,-1,-1.0602069963844425,-1.8603027146059956,-2.0672593795793244
1768725259428,126,-2,-1.4396846736963562,-2.6169131861316544,-2.4501019752499262
1768725259432,126,-2,-1.7182292775087793,-2.8095709375564804,-2.7333235372379545
1768725259436,126,-2,-1.831343553768606,-2.619513459025919,-2.852318759601685
1768725259440,126,-2,-1.817939565622904,-2.7851753057836546,-2.84538721484516
1768725259444,126,-2,-1.7604134656884671,-2.759008897911875,-2.7939887340854423
1768725259448,126,-2,-1.720053321536052,-2.721404463503091,-2.7587060344000505
1768725259452,126,-2,-1.7118186234668027,-2.7359344146841864,-2.75466008803825
1768725259456,126,-2,-1.719018849604935,-2.6753058101039096,-2.766051354675575
1768725259460,126,-2,-1.722695329970736,-2.7635019054733654,-2.7746661980031786
1768725259464,126,-2,-1.7213348083731626,-2.767661046376717,-2.7789677841334695
1768725259468,126,-2,-1.7280573108486228,-2.7221535949725535,-2.7914891188015463
1768725259472,126,-2,-1.7473103774741594,-2.754412361954519,-2.816090589138969
1768725259476,126,-2,-1.75034783577542,-2.6511139172860116,-2.823742156096371
1768725259480,126,-2,-1.6758667910039935,-2.810726934520452,-2.7532892021013593
1768725259484,126,-2,-1.4639242021238286,-2.712538794193623,-2.545493825526255
1768725259488,127,-1,-1.100523572855795,-1.791248854928256,-2.187233586205856
1768725259492,127,-1,-0.6427618418573914,-1.6864095482323829,-1.735682372754074
1768725259496,127,-1,-0.2133187117144233,-1.7389550817628188,-1.3125931895550726
1768725259500,128,0,0.0367118687298249,-0.7158674318258406,-1.0682771427717013
1768725259504,128,0,-0.0048345464089212,-0.832343394726337,-1.1150345052116686
1768725259508,127,-1,-0.3430208989456712,-1.662347761146206,-1.4582215697186007
1768725259512,127,-1,-0.8612337102482508,-1.8365235167056984,-1.9809077474994692
1768725259516,126,-2,-1.3793591907655744,-2.582760988560932,-2.5026815183159585
1768725259520,126,-2,-1.7383451400958505,-2.906736187688114,-2.8651734860736298
1768725259524,126,-2,-1.85052897426153,-2.604954937679963,-2.9820504747014565
1768725259528,126,-2,-1.7024402738388145,-2.931318121256986,-2.8404292363439123
1768725259532,126,-2,-1.340200457179211,-2.5469109613123058,-2.485528967793239
1768725259536,127,-1,-0.8580231234400861,-1.8912845291087683,-2.0099632491591137
1768725259540,127,-1,-0.3742228782507368,-1.6317083735593152,-1.5311147838936137
1768725259544,128,0,0.0222578908909184,-0.8355806932351231,-1.1382004710899538
1768725259548,128,0,0.3300759267313879,-0.7590261674575807,-0.8335658324068098
1768725259552,128,0,0.6443192922484844,-0.6743276025086989,-0.523123300453296
1768725259556,129,1,1.0895959181471495,0.1736697671356563,-0.0828113361232472
1768725259560,129,1,1.7156062062246815,0.3348304943725269,0.5371338083011594
1768725259564,130,2,2.4345448817155826,1.1631332460119914,1.2494581449563742
1768725259568,131,3,3.058324977114677,2.279349400298984,1.8668320154415443
1768725259572,131,3,3.4193856563635516,2.243780312928872,2.22244321727186
1768725259576,131,3,3.487254145274409,2.2593299104482236,2.2862524010137766
1768725259580,131,3,3.391690007339728,2.233191020602703,2.1876946116846834
1768725259584,131,3,3.3363977326224665,2.247991357939865,2.129478854354761
1768725259588,131,3,3.464275823978915,2.2315838395313365,2.253545788876297
1768725259592,131,3,3.7612410075335054,2.2483468206993993,2.545228932801036
1768725259596,132,4,4.060893462745345,3.2708886521646225,2.837821781261939
1768725259600,132,4,4.147796662477855,3.1946962484825976,2.916410725875494
1768725259604,131,3,3.8842751527037658,2.2766805034846396,2.645406293747251
1768725259608,131,3,3.274328455313089,2.2290659142275597,2.0314455494168375
1768725259612,130,2,2.4466186719435616,1.2084009803293272,1.203755791187399
1768725259616,129,1,1.6008472238223992,0.320866609961107,0.3590656575676599
1768725259620,129,1,0.9490848652114308,0.1312593725416854,-0.2952445827337036
1768725259624,128,0,0.6389471369654488,-0.6660581222723483,-0.6138680336045829
1768725259628,128,0,0.6517161705044001,-0.8098361650078603,-0.6127955033014993
1768725259632,128,0,0.7385144585022528,-0.7794343908151176,-0.5350960036209096
1768725259636,128,0,0.5039418129408056,-0.6988207580240007,-0.772523697808846
1768725259640,128,0,-0.3387187002391426,-0.8535265664628127,-1.6136393065527572
1768725259644,126,-2,-1.705337525178075,-2.6924684829627337,-2.979742406722387
1768725259648,124,-4,-3.125410638492294,-4.771805447616868,-4.404531486068804
1768725259652,123,-5,-4.0524819542883215,-5.850287016455506,-5.3413852574581195
1768725259656,123,-5,-4.2663807681639145,-5.627847720641133,-5.565776044405695
1768725259660,124,-4,-4.0105319873149785,-4.914963776548601,-5.315119242014337
1768725259664,124,-4,-3.734821927475682,-4.638230835668352,-5.035974182783652
1768725259668,124,-4,-3.6787095366488303,-4.789036035388245,-4.971788605344212
1768725259672,124,-4,-3.680262379742782,-4.930292638947243,-4.97182567721204
1768725259676,124,-4,-3.404430605042578,-4.509008039239552,-4.710708773385155
1768725259680,124,-4,-2.810899593412818,-5.051393861846053,-4.144843930448424
1768725259684,124,-4,-2.403705169847312,-4.526872043615402,-3.761144089390249
1768725259688,125,-3,-2.8573730277272813,-3.746571777811843,-4.217237736633139
1768725259692,125,-3,-4.091247353943419,-4.276243159066488,-5.431277685677696
1768725259696,125,-3,-4.526934645186126,-2.8292006494607587,-5.839524332019922
1768725259700,126,-2,-1.4863446540514302,-4.115367498933644,-2.781275249406335
1768725259704,128,0,7.0571247733625775,0.9237677151046748,5.759443276976825
1768725259708,151,23,20.482624116188973,20.51727496928384,19.15875674475984
1768725259712,163,35,34.96750355563115,35.6857080791641,33.60115124457757
1768725259716,173,45,45.07604141083768,43.07192928870251,43.671403152778765
1768725259720,174,46,46.52148384658018,46.00115602860868,45.1058900916542
1768725259724,167,39,38.33606928862749,37.7483581862479,36.941996708293715
1768725259728,151,23,23.20259941463355,22.447602941052196,21.84404129173103
1768725259732,132,4,5.859867865332644,3.081696775808643,4.525722538900155
1768725259736,115,-13,-9.398565103102438,-13.615378081140642,-10.73239074460249
1768725259740,108,-20,-20.560073761863304,-20.8636011446764,-21.915166938478077
1768725259744,102,-26,-27.963816870458217,-26.748190779779165,-29.34962171921255
1768725259748,95,-33,-32.863868296164355,-33.82042082079261,-34.27357920670859
1768725259752,91,-37,-35.87191682977174,-37.813940972186195,-37.285887430948854
1768725259756,90,-38,-36.522357940296445,-38.6303089189052,-37.92148118919688
1768725259760,93,-35,-34.040407231004366,-35.91709340556751,-35.42114367712716
1768725259764,99,-29,-28.418287276990377,-29.65710996934323,-29.79503792600964
1768725259768,107,-21,-20.869996921213264,-21.934405246302724,-22.261904231635302
1768725259772,114,-14,-13.38691176655018,-14.67248568033338,-14.801996396099703
1768725259776,120,-8,-7.780603879742944,-8.81129643124562,-9.211425263549932
1768725259780,123,-5,-4.8585634382335225,-5.783006120621532,-6.290485008756368
1768725259784,123,-5,-4.210794570961664,-5.808383630865988,-5.632886581675971
1768725259788,122,-6,-4.669373077816553,-6.780030072833631,-6.079670994214952
1768725259792,122,-6,-5.08055076399533,-6.806128530281952,-6.485311300811621
1768725259796,123,-5,-4.8663395168712,-5.666787807463803,-6.276081420568072
1768725259800,124,-4,-4.0829245856957606,-4.951703785289021,-5.50659312962213
1768725259804,124,-4,-3.1064296765435055,-4.630510742822999,-4.545692114653544
1768725259808,125,-3,-2.2969695603966356,-3.973730105289136,-3.744992242651583
1768725259812,125,-3,-1.8509361393446109,-3.6060310211253226,-3.2978414086117116
1768725259816,126,-2,-1.79114343978009,-2.8800562343705067,-3.231824499913451
1768725259820,126,-2,-1.97454131994317,-2.7468951911647728,-3.4115423071367723
1768725259824,125,-3,-2.12198880346728,-3.831209233934243,-3.5613559812473614
1768725259828,125,-3,-1.946953432982042,-3.792207269640861,-3.392434569672235
1768725259832,126,-2,-1.3486646010308887,-2.7670076784748954,-2.800182789641857
1768725259836,127,-1,-0.5035248610251468,-1.7537287371023966,-1.9596045602196368
1768725259840,128,0,0.2537642287529129,-0.8400257066087022,-1.2059452783504532
1768725259844,128,0,0.6696754322400413,-0.7605086005720332,-0.7928236794478297
1768725259848,128,0,0.7332139880408497,-0.8747463926068788,-0.7305516590484211
1768725259852,128,0,0.6459094093917517,-0.6884347908788497,-0.8177114415543771
1768725259856,128,0,0.6529593694302176,-0.8556631182316955,-0.8106541521106234
1768725259860,128,0,0.8759011186075583,-0.7030045712236288,-0.5896040243076024
1768725259864,129,1,1.2549301155269823,0.0865810884766002,-0.2147793346178645
1768725259868,129,1,1.6140995692548863,0.2815081291909868,0.1391827371137814
1768725259872,129,1,1.7815223163039111,0.1222072764213424,0.3023711264982659
1768725259876,129,1,1.6813062775905223,0.3435672754622085,0.1999788529145766
1768725259880,129,1,1.3582598784908009,0.0908135687724631,-0.1235919210200011
1768725259884,128,0,0.9447938543403565,-0.6945490996290895,-0.537129143842847
1768725259888,128,0,0.6002917359424227,-0.9470394040402011,-0.8823655925534305
1768725259892,128,0,0.456101737260268,-0.6795720495227315,-1.0285331407119278
1768725259896,128,0,0.5849601265194273,-0.8255535733569552,-0.9025924332130324
1768725259900,128,0,0.9883589540855162,-0.7805305749169641,-0.502049509906061
1768725259904,129,1,1.5944718829383069,0.2497836264710549,0.1018467280949488
1768725259908,130,2,2.280831727388759,1.0141239444349175,0.7860745460809575
1768725259912,130,2,2.9282980982656888,1.4255036629646145,1.4307677215750043
1768725259916,131,3,3.475378697405069,1.993207966326156,1.9749293222915596
1768725259920,131,3,3.9350415228640063,2.4628467332437545,2.433088399380826
1768725259924,132,4,4.372456332301719,2.9754392953031488,2.871324275416509
1768725259928,132,4,4.870481756423447,3.2847996957995544,3.371208021540565
1768725259932,133,5,5.500796566977334,4.158698699881224,4.001412223279295
1768725259936,134,6,6.292128116799263,5.221272657734848,4.788743282139387
1768725259940,134,6,7.180700700228522,5.298236424290661,5.671107468555398
1768725259944,135,7,7.969218640397764,6.071071191498105,6.455262259469247
1768725259948,136,8,8.374081009118507,7.252302432475847,6.8598045797748295
1768725259952,136,8,8.202150480323857,7.103308286810291,6.689826653151042
1768725259956,135,7,7.547351918683848,6.337074422681378,6.036098661792316
1768725259960,134,6,6.803197394086962,5.1507582093142465,5.29120019926442
1768725259964,133,5,6.417508666624742,4.226504680578169,4.9042443357647585
1768725259968,134,6,6.573974061296912,5.092512697324706,5.059620521313859
1768725259972,135,7,7.084094450814624,6.245065102865737,5.567873736406505
1768725259976,135,7,7.5792989189179005,6.2312077867102325,6.05987292251694
1768725259980,135,7,7.809415711280442,6.228121449842714,6.286834327758155
1768725259984,135,7,7.784319075990127,6.170733783361586,6.26045959368515
1768725259988,135,7,7.682298490526652,6.0692824342754355,6.1591540867077255
1768725259992,135,7,7.659969312715517,6.336752414670002,6.13818530770472
1768725259996,135,7,7.739806991665929,6.0981321491315414,6.218851911154373
1768725260000,135,7,7.84284466059002,6.4183876898135175,6.321656383969798
1768725260004,136,8,7.902362868864925,6.932941978273055,6.379583870078259
1768725260008,135,7,7.931990469624623,6.281483693901483,6.406565441534404
1768725260012,135,7,7.968823893586092,6.147086852419925,6.441036971406289
1768725260016,135,7,7.947486625011339,6.2776231359519,6.418866043943048
1768725260020,135,7,7.661406148893686,6.276307172171162,6.133085467870606
1768725260024,135,7,6.8986239862764975,6.033964175446961,5.370303959700656
1768725260028,133,5,5.6458804868000385,4.1712295897041685,4.116958889376308
1768725260032,131,3,4.155046788890519,2.250444553986829,2.626163685896282
1768725260036,130,2,2.791629448480581,1.1803033676744414,1.264048432493888
1768725260040,129,1,1.8005703902685115,0.4025748069316556,0.2741031825516255
1768725260044,129,1,1.189919107735676,-0.1255532953839921,-0.3374937384417343
1768725260048,128,0,0.7986078876765976,-0.6496090431994557,-0.7315359283011409
1768725260052,128,0,0.4510874329090699,-0.96617414511124,-1.081212688805393
1768725260056,127,-1,0.0651761053360626,-1.5783571009250417,-1.4669037153394882
1768725260060,127,-1,-0.3411701623468681,-1.8391546130802143,-1.8713465966445573
1768725260064,127,-1,-0.7111235276026926,-1.901746627323702,-2.239909446457069
1768725260068,126,-2,-1.017536760805001,-2.8528183317821503,-2.5466629331944843
1768725260072,126,-2,-1.2943523078417818,-2.81661211646912,-2.8247918156837546
1768725260076,126,-2,-1.611878169889918,-2.66498901017888,-3.1430584054625976
1768725260080,125,-3,-2.011097379687568,-3.8046949229642584,-3.541736665694223
1768725260084,125,-3,-2.448248083356025,-3.898762428093381,-3.977673974874244
1768725260088,125,-3,-2.801688513719497,-3.880493587791262,-4.330234027332575
1768725260092,124,-4,-2.949586074988267,-4.814106811518556,-4.477731350589589
1768725260096,124,-4,-2.8697761601834166,-4.619811089049037,-4.397453525250119
1768725260100,125,-3,-2.678351272806728,-3.8901815901928978,-4.2056558486555975
1768725260104,125,-3,-2.5569969219194166,-3.7751117999077017,-4.0849987930282445
1768725260108,125,-3,-2.6227717438024256,-4.043659704979875,-4.152474559379901
1768725260112,124,-4,-2.859800866089354,-4.644519399473219,-4.3902378388767245
1768725260116,124,-4,-3.164357184868224,-4.795619252106158,-4.692705131994503
1768725260120,124,-4,-3.4307406171638344,-4.709464472482345,-4.9549243009483
1768725260124,124,-4,-3.5826442778353287,-4.94333036664435,-5.103583191688582
1768725260128,124,-4,-3.55112274975092,-4.894840849923183,-5.072006849670425
1768725260132,124,-4,-3.2788888161171177,-4.783376104849834,-4.8021785224850415
1768725260136,124,-4,-2.787584984420631,-4.681006978411775,-4.312905447350211
1768725260140,125,-3,-2.234566814670971,-3.804938312807087,-3.759598995222624
1768725260144,126,-2,-1.853936856977547,-2.8428321250386173,-3.376905879528743
1768725260148,126,-2,-1.788670568432769,-3.0113419747267276,-3.309344131463926
1768725260152,125,-3,-1.9623986603478345,-3.6545860198192086,-3.480985104663565
1768725260156,125,-3,-2.1300164358725766,-3.850776952624856,-3.6463623939026326
1768725260160,125,-3,-2.074511357408129,-3.603879946737725,-3.5889633005641715
1768725260164,126,-2,-1.775459745046289,-3.0526481822688805,-3.289607543557873
1768725260168,126,-2,-1.4133842238183296,-2.7817082205461263,-2.9289159991427067
1768725260172,126,-2,-1.226485967361962,-2.8923106705949553,-2.743391021991623
1768725260176,126,-2,-1.3390203989017238,-2.6484848064772977,-2.8553648656447246
1768725260180,126,-2,-1.6753024326563364,-2.780929728765915,-3.188538611693353
1768725260184,125,-3,-2.0082598064462216,-3.898421290335127,-3.516670708032922
1768725260188,125,-3,-2.1070868588346414,-3.8933148520025833,-3.610962049454086
1768725260192,126,-2,-1.8778320436789595,-2.806950505158749,-3.379980218471278
1768725260196,126,-2,-1.401855580379863,-2.7458893903522275,-2.906042438993479
1768725260200,126,-2,-0.8741479802526071,-2.669838258360172,-2.3818002853072855
1768725260204,127,-1,-0.5093885111184786,-2.018638246953439,-2.0179127600961135
1768725260208,127,-1,-0.4541089590303371,-1.7522002671694783,-1.9590095147168536
1768725260212,127,-1,-0.7099899351467384,-1.9728370695128643,-2.2086503732545797
1768725260216,126,-2,-1.105225197166311,-2.5843085246571276,-2.5986792293931193
1768725260220,126,-2,-1.3722744157194204,-2.8241535230142008,-2.863796369662678
1768725260224,126,-2,-1.322831074294724,-2.8750922059851303,-2.8151155408125756
1768725260228,126,-2,-1.0055224429018077,-2.8541892564933167,-2.4990217893782725
1768725260232,127,-1,-0.7049386952589196,-1.9247782219449387,-2.1983854782413923
1768725260236,127,-1,-0.74814813863303,-1.5822624306761357,-2.2399626667570485
1768725260240,126,-2,-1.2558101902828036,-2.885108090747933,-2.7447411460374105
1768725260244,125,-3,-2.0437215829381983,-3.7686625525351856,-3.528888571627619
1768725260248,125,-3,-2.756356370211517,-3.984037413758968,-4.2375738207041875
1768725260252,124,-4,-3.114798725780539,-4.797879073557819,-4.592876254604357
1768725260256,124,-4,-3.0809784264868303,-4.689423886617556,-4.557393399349236
1768725260260,125,-3,-2.8277316572672246,-3.790601589003833,-4.303887080905687
1768725260264,125,-3,-2.5647588535751784,-3.847237676540841,-4.04111017782187
1768725260268,125,-3,-2.379774686908589,-3.920227697091798,-3.855141826080017
1768725260272,125,-3,-2.223599951920058,-3.866583379841643,-3.6956490919721143
1768725260276,125,-3,-2.0199459510860978,-3.623195134739036,-3.4871505493907216
1768725260280,126,-2,-1.7662680170135383,-2.849371414788694,-3.2295094190435636
1768725260284,126,-2,-1.5309103931977806,-2.776676636262891,-2.992619752268567
1768725260288,126,-2,-1.380352585318392,-2.999632672030515,-2.8419480721906214
1768725260292,126,-2,-1.3296242069030442,-2.795052904553082,-2.7902027640331344
1768725260296,126,-2,-1.3515953406696617,-2.7005858358951507,-2.80917616549566
1768725260300,126,-2,-1.4081226574171453,-2.7679331762065917,-2.861643422950798
1768725260304,126,-2,-1.4648259745361671,-2.8357420707544603,-2.9147548344841963
1768725260308,126,-2,-1.4914866507421338,-2.94904552617239,-2.939013375886455
1768725260312,126,-2,-1.4660615574707905,-2.863902327664657,-2.9120556931937944
1768725260316,126,-2,-1.3861049132970569,-2.619877846784876,-2.830522709018277
1768725260320,126,-2,-1.27754072520142,-2.866608684216343,-2.719467257687491
1768725260324,126,-2,-1.188015080363185,-2.6877410390403984,-2.626468975374549
1768725260328,127,-1,-1.15922840571195,-2.135645811909517,-2.5941547694630205
1768725260332,126,-2,-1.1953459238417938,-2.661486476713601,-2.627605210870078
1768725260336,126,-2,-1.2634426970164157,-2.8531692358655016,-2.6937072851379114
1768725260340,126,-2,-1.336089599023483,-2.60151342449803,-2.7640863033703273
1768725260344,126,-2,-1.4316723950602157,-2.9556496194683173,-2.8567238215794175
1768725260348,126,-2,-1.5987967569545174,-2.8621821688419944,-3.020821506643056
1768725260352,126,-2,-1.850486832743418,-2.941945118272418,-3.269992640154129
1768725260356,125,-3,-2.1165033908348105,-3.5927496729801045,-3.533451592405575
1768725260360,125,-3,-2.2732749704651143,-3.837913390868544,-3.6864895504077473
1768725260364,125,-3,-2.2307707751526955,-3.716211590084227,-3.639252411504776
1768725260368,126,-2,-1.9916986740834024,-3.103807883156106,-3.39646417674403
1768725260372,126,-2,-1.6327914448052565,-2.69098917290515,-3.0364023717248
1768725260376,126,-2,-1.249540272512975,-2.871376225563407,-2.65322155744112
1768725260380,126,-2,-0.930117439569886,-2.5354803643811037,-2.3319949942555276
1768725260384,127,-1,-0.7531671532668389,-2.019488558534458,-2.1501471072461524
1768725260388,127,-1,-0.7563683370892051,-1.8115022632429616,-2.147424386227099
1768725260392,127,-1,-0.8830598985391906,-1.9513405876964596,-2.2698566987643956
1768725260396,126,-2,-0.9910175298426376,-2.6669938353654414,-2.375521370465614
1768725260400,126,-2,-0.9625105971430102,-2.6749395649525622,-2.345120870718626
1768725260404,127,-1,-0.8220168265153577,-1.9469429070060955,-2.202343238267611
1768725260408,127,-1,-0.7270518056619162,-1.7995551901452531,-2.1052919408173905
1768725260412,127,-1,-0.8228396473565877,-2.0374834345836224,-2.1991960253661045
1768725260416,126,-2,-1.0973791136639472,-2.5100788492906423,-2.4705265908388103
1768725260420,126,-2,-1.3682038521743345,-2.91266152631006,-2.735694378280667
1768725260424,126,-2,-1.397984489296567,-2.6470533443420265,-2.7587830551795816
1768725260428,127,-1,-1.0347394011505933,-2.1258883043725856,-2.390838117191903
1768725260432,127,-1,-0.2894938835612495,-1.6800248045128274,-1.644443014097999
1768725260436,128,0,0.6667124710056278,-0.867590185681414,-0.6892039953863228
1768725260440,129,1,1.572782039374006,0.4040032111656282,0.2167326548071164
1768725260444,130,2,2.196185422081731,1.0835600662465217,0.842994938882502
1768725260448,130,2,2.4542683226283946,1.089399774798799,1.1071896404346204
1768725260452,130,2,2.463980143308687,1.1955209921742354,1.1245990236715715
1768725260456,130,2,2.474908076406724,1.1629512404557556,1.141907579968717
1768725260460,130,2,2.715413634796368,1.4430517076927902,1.3851513096426475
1768725260464,131,3,3.2382006128285603,1.9829585970257524,1.9073808300411184
1768725260468,131,3,3.8584613959796865,2.2561901904270276,2.526817145296582
1768725260472,132,4,4.240675345478824,3.015477152021712,2.9109269346002455
1768725260476,132,4,4.109376838515852,3.33144536256235,2.784585922880878
1768725260480,131,3,3.454228037522962,2.2838947793557303,2.1355350163076574
1768725260484,130,2,2.5608797023139136,1.0952942121341829,1.2475577174794514
1768725260488,129,1,1.8143455917698512,0.22748682947427,0.505005395144283
1768725260492,129,1,1.422402576636736,-0.0219126882143383,0.1156303898902558
1768725260496,129,1,1.29023958909848,0.443276818166942,-0.0150830088430288
1768725260500,129,1,1.1413936430861995,0.1118742824496729,-0.1624782431887914
1768725260504,128,0,0.7592380644370607,-0.7071317152175448,-0.5416196124022805
1768725260508,128,0,0.1378932231734969,-0.9572637956589488,-1.1581027418453695
1768725260512,127,-1,-0.5607991814356211,-1.868138577248919,-1.851811860203968
1768725260516,126,-2,-1.178953311297188,-2.662083326488326,-2.4668427759545724
1768725260520,126,-2,-1.7100430375055813,-2.832281835858714,-2.996682345568491
1768725260524,125,-3,-2.2998439120521694,-3.707455759481048,-3.585149199091034
1768725260528,125,-3,-3.093798564474689,-4.000146202151541,-4.375733779875656
1768725260532,124,-4,-4.053287610368777,-4.776737439028478,-5.329567891346426
1768725260536,122,-6,-4.908437193419582,-6.793566710358107,-6.178524904847938
1768725260540,122,-6,-5.312428117043067,-6.683252914277177,-6.578540698032451
1768725260544,123,-5,-5.085011819121708,-5.839729045621843,-6.350766996171753
1768725260548,123,-5,-4.354258684047126,-5.893563424500946,-5.620932974401949
1768725260552,124,-4,-3.4935874695079088,-4.816923013654922,-4.757607210166638
1768725260556,125,-3,-2.8981887716884813,-3.8141560417349054,-4.154000315268087
1768725260560,125,-3,-2.743824551045918,-3.637301898325763,-3.990379551216389
1768725260564,125,-3,-2.8965930085306333,-3.896589242165549,-4.140335957273445
1768725260568,124,-4,-3.0570740005182935,-4.834772104930417,-4.307264490619842
1768725260572,124,-4,-3.0169535386284707,-4.842015639559708,-4.277175193809717
1768725260576,125,-3,-2.741747113880553,-3.821123912502543,-4.005270787342987
1768725260580,126,-2,-2.1029418746078576,-2.5987808216849433,-3.355968815176248
1768725260584,128,0,-0.4609203318560415,-0.9508819567862168,-1.691470763343434
1768725260588,131,3,3.4019117117372737,2.250247618310868,2.195351075232077
1768725260592,138,10,10.648596907702936,9.0676826923543,9.454493888722356
1768725260596,148,20,21.27771608602586,19.266751192757837,20.07741749459004
1768725260600,160,32,33.29925498582367,31.34697484345832,32.07802055701537
1768725260604,171,43,42.97850160913181,42.0873587472417,41.73405272764322
1768725260608,175,47,46.30592469901998,46.24610779048251,45.04896206797291
1768725260612,170,42,40.966613183414104,40.9706925173524,39.71431426032679
1768725260616,155,27,27.605103956782493,26.364753199488483,26.37274437913062
1768725260620,136,8,9.55987910152073,7.1783213475333145,8.354571054693551
1768725260624,118,-10,-8.738235406256578,-10.665183431713428,-9.920209417338388
1768725260628,104,-24,-23.639035432283904,-24.94646970589745,-24.81048048254329
1768725260632,95,-33,-33.32000459258249,-33.79417763892074,-34.49653521591979
1768725260636,91,-37,-37.66968759687486,-37.81442813925664,-38.86145769367464
1768725260640,90,-38,-37.51750928452621,-38.71991399226361,-38.72399054184811
1768725260644,93,-35,-33.9744539790283,-35.70556850331229,-35.18616812696562
1768725260648,99,-29,-28.234236460894913,-29.95167876506868,-29.440277340937143
1768725260652,106,-22,-21.613640939646587,-22.74256483240994,-22.808913766373763
1768725260656,113,-15,-15.438782260370033,-15.875374034536437,-16.6253249133337
1768725260660,117,-11,-10.682865411356977,-11.70738076977274,-11.865478254138084
1768725260664,120,-8,-7.630223753515082,-8.698282959922384,-8.811604118989042
1768725260668,122,-6,-5.886779541570421,-7.007052235805013,-7.066322955374143
1768725260672,122,-6,-4.769545055982327,-6.615406802857125,-5.945468694383639
1768725260676,124,-4,-3.7872674242512008,-5.034205011532146,-4.959206422033676
1768725260680,125,-3,-2.8581447034192555,-3.4979144352307987,-4.027906418043308
1768725260684,126,-2,-2.149475944820165,-2.9529500642844204,-3.319405191247334
1768725260688,126,-2,-1.7525674284019452,-2.718706540384828,-2.9230955541590906
1768725260692,126,-2,-1.5198605479571132,-2.9017403697591915,-2.6888945053887
1768725260696,126,-2,-1.193464777298013,-2.757594841079636,-2.3585661866743712
1768725260700,127,-1,-0.6595698989941938,-1.737204408745261,-1.8206568731921264
1768725260704,128,0,-0.0633045572768054,-0.756958931588548,-1.222728193179864
1768725260708,128,0,0.3180539192255858,-0.8485912816214869,-0.841795626866082
1768725260712,128,0,0.3144057731935485,-0.8208893223363751,-0.8454091988135096
1768725260716,128,0,0.0078374066798105,-0.7875155857351108,-1.149501275648359
1768725260720,127,-1,-0.3202278838208856,-1.7643224009489324,-1.473058444815566
1768725260724,127,-1,-0.3842067654493517,-1.6757227476770788,-1.532612281944139
1768725260728,128,0,-0.0803391851421926,-0.9427980584639848,-1.2264031126714774
1768725260732,128,0,0.4673400252679411,-0.697405010000497,-0.6789859060238767
1768725260736,129,1,1.0154347691980736,0.0812951833905493,-0.1325398277489504
1768725260740,129,1,1.3641584644463,0.3631021377042027,0.2152549177947198
1768725260744,129,1,1.455941373313194,0.1930306453528931,0.3084441877002296
1768725260748,129,1,1.365403890261511,0.2128559783004853,0.2216879738249797
1768725260752,129,1,1.2257449690884243,0.1440263464115058,0.0865724179082927
1768725260756,129,1,1.163413844490614,0.259381675286251,0.0274378266425615
1768725260760,129,1,1.268658944295927,0.1663045969312095,0.1335106752443456
1768725260764,129,1,1.5792966045448598,0.4097341512134662,0.4432960710525817
1768725260768,130,2,2.05888981391397,0.9971475692070212,0.9219440710546248
1768725260772,130,2,2.590770122255243,1.3772304642047932,1.4539387875497956
1768725260776,131,3,3.0224717249375375,2.033094209696803,1.8868960953328289
1768725260780,131,3,3.2549922369395747,2.3718379725183563,2.121279033832328
1768725260784,131,3,3.3163282450785054,2.242656773634508,2.184752559633103
1768725260788,131,3,3.352177832319747,2.118249591679857,2.222934198855793
1768725260792,131,3,3.5303058797869484,2.342384385126497,2.4030318315385566
1768725260796,132,4,3.931490440424268,2.9855974095034323,2.804731733324554
1768725260800,132,4,4.5077315654869015,3.5148018839943216,3.3797201384745694
1768725260804,133,5,5.123797838510834,4.018315171735413,3.994247663007041
1768725260808,133,5,5.638584540545611,4.425493165004931,4.5093140773759615
1768725260812,134,6,5.978747631525973,4.983956005074254,4.851951683329208
1768725260816,134,6,6.177170227695964,5.385436346205107,5.0531337592672525
1768725260820,134,6,6.354784150601866,5.101382940886057,5.231666927548093
1768725260824,134,6,6.639615150814967,5.436818295025014,5.515469316944902
1768725260828,135,7,7.067649494992781,6.03643889851414,5.942368026678387
1768725260832,135,7,7.548589309237024,6.344569058966249,6.423779992720039
1768725260836,136,8,7.94026930381901,7.07963645766827,6.817307866224176
1768725260840,136,8,8.176462283247101,7.360288351051358,7.054881938319078
1768725260844,136,8,8.327320311206634,7.233659315758399,7.20538958301819
1768725260848,136,8,8.517829566633468,7.19193626663712,7.394585593235503
1768725260852,136,8,8.769395440102471,7.25131435369291,7.645475094566189
1768725260856,137,9,8.932060185513544,8.124302276276751,7.808372540667755
1768725260860,137,9,8.805480514680525,8.387313769003356,7.68197835784401
1768725260864,136,8,8.346031011287991,7.157002950324218,7.2225047814747665
1768725260868,135,7,7.746782598298148,6.306687762695871,6.624030074668902
1768725260872,135,7,7.300431810986416,6.126003823043221,6.179370719067998
1768725260876,135,7,7.174235333839443,6.235694581393646,6.05405793095791
1768725260880,135,7,7.29395422750304,6.356599863053337,6.172294982951116
1768725260884,135,7,7.410071253021962,6.123376208123399,6.285253034978978
1768725260888,135,7,7.269718232590108,6.41784807793677,6.142320067119649
1768725260892,135,7,6.766855165472499,5.935297131092083,5.639104253435516
1768725260896,133,5,5.98153723302079,4.478337289025336,4.855557913961235
1768725260900,133,5,5.099318292365786,4.122397904219449,3.975711437625414
1768725260904,132,4,4.281276691770836,3.360566237322081,3.1587353599488095
1768725260908,131,3,3.5785391680048853,2.214102278943555,2.4546206645934383
1768725260912,131,3,2.9363534289276005,2.083735787211058,1.8090052643233945
1768725260916,130,2,2.262935324287835,1.4040885433707049,1.131993835658645
1768725260920,129,1,1.5024429126637182,0.1432933384912593,0.3700600979211789
1768725260924,128,0,0.6680748926112412,-0.5744747234939225,-0.4628123033124034
1768725260928,128,0,-0.1625674118815308,-0.9129505735744502,-1.2908882562329702
1768725260932,127,-1,-0.8705878202309836,-1.7571205223785458,-1.9982084207289292
1768725260936,126,-2,-1.3438646190359005,-2.7487934910702836,-2.4737402073106427
1768725260940,126,-2,-1.5549998358139694,-2.7028466373117777,-2.688501406768943
1768725260944,126,-2,-1.6169405764486489,-2.676072353463526,-2.7531651400700587
1768725260948,126,-2,-1.7400329066802334,-2.863527904804814,-2.877265205777882
1768725260952,126,-2,-2.090833314736254,-2.761618379637898,-3.2281528038907608
1768725260956,125,-3,-2.6595977094146996,-3.7582089964159424,-3.7971382598859904
1768725260960,124,-4,-3.2567790203906717,-4.686916434560729,-4.3950057650944405
1768725260964,124,-4,-3.650495039930232,-4.638154330812174,-4.78968299260093
1768725260968,124,-4,-3.729478239940742,-4.970637395365253,-4.869762711942262
1768725260972,124,-4,-3.557537294638535,-4.565805748809298,-4.6990564752989314
1768725260976,125,-3,-3.2904112443861258,-4.011211314364344,-4.433306018093107
1768725260980,124,-4,-3.046421748095038,-4.36893632759799,-4.190962254921979
1768725260984,125,-3,-2.847917293155959,-3.978907617477965,-3.994738400129165
1768725260988,125,-3,-2.6697255762560017,-3.631613631648283,-3.819496760444396
1768725260992,125,-3,-2.529144189652103,-3.872857574417955,-3.6814925061481367
1768725260996,125,-3,-2.5177938894835705,-3.733536238282203,-3.6708772905292566
1768725261000,125,-3,-2.7269135001674254,-3.5613245441161925,-3.878933776896503
1768725261004,125,-3,-3.1186949263276658,-3.870015553537997,-4.269997611258563
1768725261008,124,-4,-3.4756491263912315,-4.6496505997482975,-4.628698027065479
1768725261012,124,-4,-3.5237415550428053,-4.934908606563365,-4.680723534401473
1768725261016,124,-4,-3.161239183089653,-4.580568755146015,-4.322084277462203
1768725261020,125,-3,-2.5834037348822867,-3.7472210164991058,-3.746421104823739
1768725261024,126,-2,-2.1507178891833503,-2.6457640659673856,-3.314719241159842
1768725261028,126,-2,-2.0876819981266266,-2.8792360573111524,-3.25283756309787
1768725261032,125,-3,-2.2855672562543528,-3.720106188705661,-3.452312582577187
1768725261036,125,-3,-2.403750814789263,-3.762306919019544,-3.5717448879574696
1768725261040,125,-3,-2.180944542484802,-3.577256191815511,-3.349688667579142
1768725261044,126,-2,-1.6667002993171902,-2.7755995718927475,-2.836869476534509
1768725261048,127,-1,-1.1666273595487218,-1.7422288863020423,-2.3400475564158025
1768725261052,127,-1,-0.9697293889696144,-1.861983757541966,-2.147607056600245
1768725261056,126,-2,-1.118522118556394,-2.605990562003242,-2.2999230719157757
1768725261060,126,-2,-1.4144881867049353,-2.7494606917038373,-2.597028798619111
1768725261064,126,-2,-1.6145667186535704,-2.566886023424062,-2.7965951645711447
1768725261068,126,-2,-1.617502176311186,-2.9440611720648997,-2.799413615372651
1768725261072,126,-2,-1.489325102257656,-2.641069823068307,-2.6730697053792625
1768725261076,127,-1,-1.34361801188919,-1.821926311097837,-2.5311847858684104
1768725261080,126,-2,-1.2158053904053214,-2.54547497631416,-2.4077133528246373
1768725261084,126,-2,-1.058056977688616,-2.7432222988234933,-2.252981124501572
1768725261088,127,-1,-0.8449187603559546,-1.7614541358019598,-2.041114026425549
1768725261092,127,-1,-0.6553734502981003,-1.7998100594790585,-1.8525687420946857
1768725261096,127,-1,-0.6275904525959202,-1.6719000977312133,-1.827102165928295
1768725261100,127,-1,-0.8304160740642296,-1.6693777258870364,-2.0333102947153057
1768725261104,126,-2,-1.1857285564004334,-2.639174830133455,-2.3912786310718155
1768725261108,126,-2,-1.5182713956770613,-2.827911240738494,-2.7246479163472612
1768725261112,126,-2,-1.682072033688056,-2.7281534917551413,-2.8885783608024287
1768725261116,126,-2,-1.6513703737445675,-2.741194169087134,-2.8595999958115823
1768725261120,126,-2,-1.518090945815385,-2.5648426513797085,-2.730555126987451
1768725261124,126,-2,-1.4270295049159023,-2.7680489885640673,-2.644779368598678
1768725261128,126,-2,-1.5060624653522898,-2.6629631872499786,-2.727867253628189
1768725261132,126,-2,-1.814849860159976,-2.8965699628091026,-3.0384961743207155
1768725261136,125,-3,-2.3116085368746684,-3.560789278836125,-3.5356297666599565
1768725261140,125,-3,-2.8504153867235993,-3.724851704028369,-4.074631341681746
1768725261144,124,-4,-3.231703091021362,-4.609243791113599,-4.456766694480931
1768725261148,124,-4,-3.298491032483463,-4.809679390859481,-4.525623658821026
1768725261152,125,-3,-3.0230859598612163,-3.72805382817442,-4.2540428599300215
1768725261156,125,-3,-2.52538811303769,-3.7255764093643338,-3.761583138120912
1768725261160,125,-3,-2.015915997861524,-3.5397542010438374,-3.2570252189221263
1768725261164,126,-2,-1.699134139213519,-2.784073276670868,-2.9431092648973056
1768725261168,126,-2,-1.6737274643749698,-2.6506073536527497,-2.918508841505411
1768725261172,126,-2,-1.8718557102172375,-2.8474341960283973,-3.1166716879203777
1768725261176,125,-3,-2.091455983242344,-3.616814576371458,-3.3366589002042013
1768725261180,125,-3,-2.127510995218828,-3.610449138255397,-3.374228238728297
1768725261184,126,-2,-1.914475302422498,-2.7280770113280433,-3.164627222744338
1768725261188,126,-2,-1.57081089459724,-2.678193107640696,-2.8262502672266465
1768725261192,126,-2,-1.323788811869623,-2.8204869356314206,-2.584620530204333
1768725261196,126,-2,-1.3786252016159022,-2.6073757794658627,-2.642897279952785
1768725261200,126,-2,-1.8035739194337932,-2.6393102464599707,-3.0690138552778587
1768725261204,125,-3,-2.4805291483010263,-3.671516151417325,-3.746177331271071
1768725261208,124,-4,-3.1547934110006044,-4.745913270575982,-4.421042895100226
1768725261212,124,-4,-3.5681780115174715,-4.708591466767839,-4.836131716559525
1768725261216,124,-4,-3.5899716942738764,-4.727143780004182,-4.860997966174516
1768725261220,124,-4,-3.258673408166896,-4.485383058054891,-4.533765581523962
1768725261224,125,-3,-2.726787225862301,-3.836001631852561,-4.005800938947024
1768725261228,125,-3,-2.1697384404201223,-3.5552799278844405,-3.4515889977420233
1768725261232,126,-2,-1.718138094349896,-2.899749560202805,-3.002133266495731
1768725261236,126,-2,-1.4329526549587046,-2.513479993651787,-2.7196631640534306
1768725261240,126,-2,-1.3159485530682646,-2.690025257544926,-2.606262443256025
1768725261244,126,-2,-1.3372462484218597,-2.632185727613502,-2.630645150402623
1768725261248,126,-2,-1.4528550773361857,-2.7224392498727203,-2.747297478269666
1768725261252,126,-2,-1.5915636059897873,-2.7606317925770236,-2.88553604625782
1768725261256,126,-2,-1.631578097958564,-2.5826569014903376,-2.9260149774184767
1768725261260,126,-2,-1.4279782637256582,-2.661035241940199,-2.7256602008795037
1768725261264,126,-2,-0.9222650297680248,-2.606279744205505,-2.225376771075126
1768725261268,127,-1,-0.2598552199876771,-1.7693923481611815,-1.5685700547304455
1768725261272,128,0,0.2268883577586105,-0.6872861021023375,-1.086276538032692
1768725261276,128,0,0.2235518537399616,-0.6291678933889921,-1.0925296227333832
1768725261280,127,-1,-0.3115114074996092,-1.6275239291264856,-1.6285271355258546
1768725261284,126,-2,-1.0631145121077483,-2.5960196876477113,-2.378925697681966
1768725261288,126,-2,-1.5314113708868626,-2.8340106880034712,-2.8454744823342173
1768725261292,126,-2,-1.3332775452364578,-2.5342789152781315,-2.6480354399994304
1768725261296,127,-1,-0.422859820230725,-1.8229137376689537,-1.7424916109499464
1768725261300,128,0,0.8949188813798559,-0.3343400070257896,-0.4323956967200475
1768725261304,130,2,2.14346857810089,1.036400244050251,0.8090456450441026
1768725261308,130,2,2.931251275632783,1.5923413312635089,1.592998189511203
1768725261312,131,3,3.142580737826154,1.997015040213162,1.804142464722168
1768725261316,130,2,2.964205408169027,1.7149299290338749,1.62759705618456
1768725261320,130,2,2.746234204500382,1.123091851066706,1.411153049046101
1768725261324,130,2,2.79208592099993,1.586987122505393,1.4562885539147357
1768725261328,131,3,3.2052571482160372,2.0683761644476264,1.8656801406900951
1768725261332,131,3,3.865348687552838,2.486079192522708,2.519789525399513
1768725261336,132,4,4.512159352735659,3.339457353500326,3.160637722530495
1768725261340,132,4,4.8674576009142125,3.4143190037446343,3.512025819802889
1768725261344,132,4,4.739852016643949,3.3971712484064063,3.3828990302683115
1768725261348,132,4,4.0888279001029915,3.1578412476876556,2.7315157990291183
1768725261352,130,2,3.032341865427072,1.5048674867309162,1.6744821092655129
1768725261356,129,1,1.7902665990852498,0.2730599318136841,0.4310823012559632
1768725261360,128,0,0.5898373997760546,-0.4306298251216734,-0.771570745359067
1768725261364,127,-1,-0.4125909037144815,-1.8160735283040996,-1.7770838417984676
1768725261368,126,-2,-1.1581377707083296,-2.5788301005360528,-2.526142152173377
1768725261372,126,-2,-1.6673346900335528,-2.762238453565965,-3.038467953343482
1768725261376,125,-3,-2.0039723957341087,-3.4203599829406888,-3.3773375971440966
1768725261380,125,-3,-2.241446099111833,-3.72245264607359,-3.616563535208557
1768725261384,125,-3,-2.4400986348287224,-3.5258900584229877,-3.8175027887548056
1768725261388,125,-3,-2.6386253374754545,-3.8633796777099585,-4.019156849959096
1768725261392,124,-4,-2.86215115016205,-4.461732503306512,-4.245644039043005
1768725261396,124,-4,-3.1347005591572032,-4.676600604622987,-4.520087394434654
1768725261400,124,-4,-3.4638354565416907,-4.481215372566988,-4.850794153733578
1768725261404,124,-4,-3.793511952245282,-4.720272347499462,-5.182959623054805
1768725261408,123,-5,-3.9882108720751255,-5.7168290447885255,-5.380333259591853
1768725261412,123,-5,-3.909424448982557,-5.528793917549753,-5.3021006450469965
1768725261416,124,-4,-3.5398686989410777,-4.636279088749568,-4.930635018168564
1768725261420,124,-4,-3.0337100821633225,-4.461856335835037,-4.423839544082416
1768725261424,125,-3,-2.633667273388104,-3.761826457163438,-4.029581767363259
1768725261428,125,-3,-2.519779299835627,-3.646316666548252,-3.928913466724416
1768725261432,124,-4,-2.690384970316691,-4.602754814422834,-4.1139829497935505
1768725261436,124,-4,-2.897123804796645,-4.533544069707223,-4.32638777162238
1768725261440,125,-3,-2.5841330115350196,-3.5424644719519565,-4.004360278919043
1768725261444,127,-1,-0.8474551711333103,-1.676110189233858,-2.248123437919804
1768725261448,131,3,3.413689657095186,2.3064268845277764,2.0303579647574113
1768725261452,138,10,10.971752513597778,9.445660052958278,9.590623563086972
1768725261456,148,20,21.473381287962415,19.45652153582156,20.075491461437515
1768725261460,159,31,32.86831436843296,30.481026097445543,31.442849162019954
1768725261464,169,41,41.67820138446488,40.3149384974554,40.22851311091503
1768725261468,173,45,44.29889279968994,44.31126142603552,42.838922005803674
1768725261472,167,39,38.76129401826388,38.42344848712172,37.30669861818874
1768725261476,153,25,25.86074748602067,24.44000367406965,24.42151230116294
1768725261480,135,7,8.847284643596236,6.52198996940897,7.424878320100422
1768725261484,118,-10,-8.156338062360106,-10.73829689076009,-9.567993786213222
1768725261488,105,-23,-21.951110252933702,-23.507253651405644,-23.362288214009286
1768725261492,97,-31,-31.15682964395136,-31.735662619111885,-32.577342272050785
1768725261496,92,-36,-35.8830759035217,-36.31723543328157,-37.31795616504061
1768725261500,91,-37,-36.78898288890365,-37.75788287148761,-38.236681455114905
1768725261504,92,-36,-34.44546240198545,-36.45832616758669,-35.89971347424627
1768725261508,97,-31,-29.410973611060612,-31.772806948886863,-30.865193441239153
1768725261512,104,-24,-22.662913316176834,-24.43721902074032,-24.1142240118039
1768725261516,112,-16,-15.70815745983505,-16.564948560052095,-17.158299884106704
1768725261520,118,-10,-10.076998110032116,-10.54816726785203,-11.529630276482932
1768725261524,121,-7,-6.570239452661044,-7.655020192319228,-8.02698039506396
1768725261528,122,-6,-4.921956232860229,-6.636688138299696,-6.3806749072418025
1768725261532,122,-6,-4.189223247600692,-6.4756526781578,-5.6462332810235525
1768725261536,123,-5,-3.535780371928774,-5.558986861988279,-4.9900254940407365
1768725261540,125,-3,-2.7523625332075023,-3.439662046818756,-4.207357141602772
1768725261544,126,-2,-2.142026867933114,-2.8372504947506565,-3.603004015612483
1768725261548,125,-3,-1.9944389802196412,-3.384437031194521,-3.463195714424648
1768725261552,125,-3,-2.1978942389509584,-3.757354560690879,-3.670830426505273
1768725261556,124,-4,-2.321086716639951,-4.2336263628591135,-3.7927303602880102
1768725261560,125,-3,-2.016707139643505,-3.737225490856318,-3.4851157379566953
1768725261564,126,-2,-1.3316806755247788,-2.540090503114328,-2.8002739993913166
1768725261568,127,-1,-0.6515823056951202,-1.6273687154891006,-2.1256607490220225
1768725261572,127,-1,-0.3655277414604225,-1.552081509472742,-1.8469071252793468
1768725261576,126,-2,-0.5653088404130104,-2.363684463447663,-2.0504207175174254
1768725261580,126,-2,-1.010015963856018,-2.663434779354858,-2.4934294383139344
1768725261584,126,-2,-1.3276926643662743,-2.530471238408321,-2.807293410929522
1768725261588,126,-2,-1.259274896066144,-2.6648782350280635,-2.737749184526348
1768725261592,126,-2,-0.7846884179564348,-2.451706267908895,-2.2665427140505994
1768725261596,127,-1,-0.0937517448360722,-1.4626583291145014,-1.581719115381759
1768725261600,128,0,0.5476039404645585,-0.5625686949897801,-0.9462033252309516
1768725261604,128,0,0.9459559497297318,-0.59397395235537,-0.5511324232730823
1768725261608,128,0,1.0576950518052617,-0.6122241286551495,-0.4393489827161114
1768725261612,128,0,0.969767690640192,-0.4415074088777642,-0.5251315559383165
1768725261616,128,0,0.8313106506815606,-0.5028657778806207,-0.6620765327681517
1768725261620,128,0,0.7897143660026573,-0.4683405637292093,-0.7049884251868674
1768725261624,128,0,0.9375834227902468,-0.698061204381645,-0.5611051857980047
1768725261628,128,0,1.2648435647839962,-0.4663691128819316,-0.2385089124039519
1768725261632,129,1,1.6487861819830625,0.4304550017572357,0.1419175506970813
1768725261636,129,1,1.9211766119794416,0.6302638644770495,0.4125751613873887
1768725261640,129,1,1.9850451335035215,0.4314058500084299,0.4762690814366717
1768725261644,129,1,1.8926244030539372,0.3988243070270743,0.3844049448320112
1768725261648,129,1,1.8201059128837125,0.4766185623802468,0.3118296522471855
1768725261652,129,1,1.9541226332192436,0.4906159342391509,0.4441540552286456
1768725261656,129,1,2.3643986439817164,0.6029014854234607,0.851337340669994
1768725261660,130,2,2.9499738400786093,1.475064427694254,1.4335475824909385
1768725261664,131,3,3.508147167313205,2.366523766532998,1.9890143703691243
1768725261668,131,3,3.885850417523929,2.5442456649558194,2.3650815269253305
1768725261672,131,3,4.0941292032012955,2.417762373278107,2.5729013477229317
1768725261676,131,3,4.290229904144555,2.719045739445136,2.769304134498248
1768725261680,132,4,4.648142409348083,3.3486814047923925,3.127182452212022
1768725261684,132,4,5.227601229530481,3.5390585698941184,3.705160636844842
1768725261688,133,5,5.937681850105375,4.380607249212736,4.412086572951191
1768725261692,134,6,6.609608501865307,5.613102965260953,5.080166747831025
1768725261696,134,6,7.113355733249284,5.531669943419248,5.5811545324291645
1768725261700,134,6,7.427912705938228,5.548689406683594,5.895283423071235
1768725261704,135,7,7.627714489040703,6.364151483003654,6.096255468363954
1768725261708,135,7,7.821072811913895,6.576963734037696,6.290162430108852
1768725261712,135,7,8.087570122584413,6.437009799471929,6.555243294496097
1768725261716,135,7,8.429697482968985,6.743154709911844,6.894687876558942
1768725261720,136,8,8.754144375332636,7.3209797181181395,7.216497017926844
1768725261724,136,8,8.911893352812966,7.643987234250269,7.371999504712129
1768725261728,136,8,8.789314850330513,7.293813131242384,7.247320324823071
1768725261732,135,7,8.385845909225582,6.767442284263888,6.842190465282738
1768725261736,135,7,7.819723370130648,6.413519790789004,6.275639521453035
1768725261740,134,6,7.268065718712197,5.6649367525877325,5.724969529751059
1768725261744,134,6,6.89423750949415,5.3256253788358805,5.352397082179484
1768725261748,134,6,6.802570571883688,5.638763201833661,5.26045827543392
1768725261752,134,6,7.016022655417675,5.462749126776029,5.471335720869754
1768725261756,134,6,7.452208427065649,5.708265354216914,5.90376743706846
1768725261760,135,7,7.9061007003140515,6.416003338675927,6.3546438227602104
1768725261764,135,7,8.089995209330702,6.544975922089871,6.537116204702772
1768725261768,135,7,7.756625517056213,6.509219840267857,6.203316623618244
1768725261772,134,6,6.8425907071349075,5.559576705862192,5.289052575007487
1768725261776,132,4,5.518299672006447,3.6747381651785336,3.9647043222442537
1768725261780,131,3,4.094253856751784,2.410475858844648,2.5409509840540796
1768725261784,130,2,2.855572902969433,1.6075476496566106,1.302526898844808
1768725261788,129,1,1.9456226849253553,0.4710267818036726,0.392248614872593
1768725261792,128,0,1.3545259918451045,-0.3710099930789808,-0.199880420872017
1768725261796,128,0,0.980502670908959,-0.3564817261133858,-0.5756867821834813
1768725261800,128,0,0.7017632555099906,-0.607413512094282,-0.8571139523019631
1768725261804,127,-1,0.4133310298978174,-1.2886554136796868,-1.1485063241958802
1768725261808,127,-1,0.0222384201702805,-1.6636014027725654,-1.541154893410334
1768725261812,126,-2,-0.5553722466765341,-2.138012279468633,-2.1178779136646426
1768725261816,126,-2,-1.342932308324568,-2.6350962414346553,-2.9032497887093514
1768725261820,125,-3,-2.220922209225214,-3.2894478871518027,-3.7799358074332456
1768725261824,124,-4,-2.9223252201416914,-4.594093490368268,-4.481632969044194
1768725261828,123,-5,-3.1785046157646852,-5.332456705507292,-4.738679268883183
1768725261832,124,-4,-2.926396200203945,-4.404931500807917,-4.487460775397947
1768725261836,125,-3,-2.3858163489418605,-3.395944197986179,-3.948661110815219
1768725261840,125,-3,-1.9208857397283965,-3.4751299529219315,-3.4867621270070965
1768725261844,125,-3,-1.803311540920034,-3.41866244657786,-3.3717742908465955
1768725261848,125,-3,-2.0668712221814296,-3.4614492576021956,-3.635191068464955
1768725261852,124,-4,-2.532747760463294,-4.261557285200194,-4.097917581565266
1768725261856,124,-4,-2.944378545093974,-4.525844012508672,-4.505661512976572
1768725261860,124,-4,-3.1039471311697877,-4.3111226718819955,-4.663476865653494
1768725261864,124,-4,-2.946851052328454,-4.568431876423597,-4.507883852912226
1768725261868,124,-4,-2.551684758969301,-4.276400696474937,-4.116275369686068
1768725261872,125,-3,-2.103299029582237,-3.4160418115988125,-3.671293002196841
1768725261876,125,-3,-1.8168175348025115,-3.381135516543994,-3.3863406155680655
1768725261880,125,-3,-1.8383618597958704,-3.4008318027696447,-3.4068927219973877
1768725261884,125,-3,-2.164309913247243,-3.4911900662090076,-3.729848196713467
1768725261888,124,-4,-2.626537830984156,-4.2924099131211335,-4.188685097732961
1768725261892,124,-4,-2.9631442252492577,-4.409468675463772,-4.523421596037016
1768725261896,124,-4,-2.9503587793815393,-4.339849699023203,-4.51113973203249
1768725261900,124,-4,-2.531743816413846,-4.441510919188118,-4.094506216049055
1768725261904,125,-3,-1.863873533385032,-3.4032947404606255,-3.4284435575664416
1768725261908,126,-2,-1.2292774394931385,-2.3617379730799213,-2.7945666252149057
1768725261912,126,-2,-0.8572647505747323,-2.3213844546209548,-2.422188616908283
1768725261916,126,-2,-0.7801616261922678,-2.406154231158786,-2.343731068205991
1768725261920,126,-2,-0.8367475934718248,-2.359907310632002,-2.3979366350766353
1768725261924,126,-2,-0.8126078606693043,-2.464122254537261,-2.370849628474768
1768725261928,126,-2,-0.5971464025324611,-2.253066453078789,-2.153161950897456
1768725261932,127,-1,-0.2401089207451193,-1.4274603732541449,-1.7959578594465928
1768725261936,127,-1,0.1095669685363765,-1.245459646032561,-1.44817313560515
1768725261940,127,-1,0.3039945613931936,-1.542730287262665,-1.2559218688996996
1768725261944,127,-1,0.2545356644198413,-1.2224942716804592,-1.3056762905275878
1768725261948,127,-1,-0.0587555697971757,-1.495248595246618,-1.616641590844756
1768725261952,126,-2,-0.5847416470456044,-2.144870398547396,-2.1387293173577033
1768725261956,126,-2,-1.1928004406999368,-2.496115145736306,-2.7430849286093713
1768725261960,125,-3,-1.692079867308014,-3.2954279862613904,-3.2401423486900898
1768725261964,125,-3,-1.9069901231127349,-3.421926924660418,-3.454535348941343
1768725261968,125,-3,-1.7833220952866315,-3.2883617041343345,-3.331329602304553
1768725261972,125,-3,-1.4498409584032437,-3.302807786796657,-2.99831535429787
1768725261976,126,-2,-1.1673474121874934,-2.3258851565632015,-2.7157592299201134
1768725261980,126,-2,-1.1735967779045031,-2.4321044297871124,-2.7212097623703713
1768725261984,125,-3,-1.52583176774506,-3.2921174359300247,-3.0714363178387725
1768725261988,125,-3,-2.0608246604858067,-3.3636771338284945,-3.602658777934521
1768725261992,124,-4,-2.5023202921387706,-4.22279018120443,-4.039123170732002
1768725261996,124,-4,-2.6295592180275738,-4.366659669754486,-4.162173177600007
1768725262000,125,-3,-2.3870401588195693,-3.3566110457436453,-3.9185844795106695
1768725262004,125,-3,-1.8851533300213603,-3.368906513962297,-3.418675665171127
1768725262008,125,-3,-1.3315023107259645,-3.227299203127351,-2.8670201759464717
1768725262012,126,-2,-0.9490138178839868,-2.371538791029426,-2.4832899311241765
1768725262016,126,-2,-0.8925660092386586,-2.1556768504742925,-2.4220776203212013
1768725262020,126,-2,-1.1698925776776907,-2.588451507183864,-2.693751030078649
1768725262024,125,-3,-1.6196882038021951,-3.0585712056784535,-3.139660650215456
1768725262028,125,-3,-2.000484864656178,-3.5688025540774686,-3.518743387820659
1768725262032,124,-4,-2.153688239864283,-3.9549481162477824,-3.6709886881540146
1768725262036,125,-3,-2.1140474139163983,-3.5808606533857485,-3.6298824070766993
1768725262040,125,-3,-2.0641762850485916,-3.11493838854346,-3.5778976663396516
1768725262044,125,-3,-2.1670121202095385,-3.496872544238608,-3.6781580178887783
1768725262048,124,-4,-2.4289736240343536,-4.1406097376145565,-3.936875205546523
1768725262052,124,-4,-2.714156929548739,-4.31573180126853,-4.21821512103576
1768725262056,124,-4,-2.8785837145756705,-4.259855147735607,-4.379131861378678
1768725262060,124,-4,-2.890166422678803,-4.328431925875147,-4.388314327725217
1768725262064,124,-4,-2.836898367683243,-4.315568906770748,-4.333162569300356
1768725262068,124,-4,-2.833047362598454,-4.2392095857960745,-4.326635171054046
1768725262072,124,-4,-2.9057187931968196,-4.25579548043189,-4.395464465460021
1768725262076,124,-4,-2.9513526280877063,-4.256614806470461,-4.436834342650888
1768725262080,124,-4,-2.806521254198437,-4.325887784215944,-4.287853624837689
1768725262084,124,-4,-2.3930159562668702,-4.254328457405654,-3.8702559885666648
1768725262088,125,-3,-1.8182713129250976,-3.302128961729946,-3.292000482277313
1768725262092,126,-2,-1.326060771501807,-2.1528205245504832,-2.798030950795911
1768725262096,126,-2,-1.1269758014067035,-2.3579022058199945,-2.5985120958631107
1768725262100,125,-3,-1.2644744263364236,-3.170893689922755,-2.7338737791460312
1768725262104,125,-3,-1.627619296148166,-3.3893643879922006,-3.090698236624938
1768725262108,125,-3,-2.053258208099903,-3.152577673069813,-3.50753587254142
1768725262112,125,-3,-2.3930353071189048,-3.264564139224029,-3.840518937163159
1768725262116,124,-4,-2.528007113302791,-4.228803762115758,-3.9729817943818895
1768725262120,124,-4,-2.406180867681631,-4.24564324010168,-3.8509381052890785
1768725262124,125,-3,-2.1098378854111077,-3.303603765525446,-3.553271345946544
1768725262128,125,-3,-1.8544343568701669,-3.219892194446851,-3.2940018115782976
1768725262132,125,-3,-1.8595294287590145,-3.1596991694041683,-3.293509922085488
1768725262136,125,-3,-2.1742588971723285,-3.3090582798306016,-3.6023144156348894
1768725262140,124,-4,-2.608352505940867,-4.125286571787745,-4.030823079347668
1768725262144,124,-4,-2.8399708784366178,-4.41733520499732,-4.257116827423623
1768725262148,124,-4,-2.6237174815473407,-4.078001989381406,-4.035597087516887
1768725262152,125,-3,-1.9388258434736183,-3.2592371084526666,-3.3456837908697823
1768725262156,126,-2,-0.9716129284504262,-2.186832677010715,-2.3741781432271853
1768725262160,127,-1,0.0320888042762166,-1.1754840476374877,-1.3671242947531694
1768725262164,128,0,0.9087444153713576,-0.422053504649587,-0.4874799214673542
1768725262168,128,0,1.6052081490747834,0.0279756475175987,0.2128165199099216
1768725262172,129,1,2.107756839440575,0.5699917784647583,0.7209076441476485
1768725262176,129,1,2.3833233456346083,1.1292401891596782,1.0033840000205658
1768725262180,130,2,2.415342809269444,1.4498125392807313,1.04250598487734
1768725262184,129,1,2.290577784351856,1.0431917469429142,0.9242118615937098
1768725262188,129,1,2.2136395081873355,0.5281808486752444,0.8530028073329783
1768725262192,129,1,2.391995998139403,1.1183917448532918,1.0363199700675088
1768725262196,130,2,2.873055145326423,1.6472250129766084,1.5215174366323585
1768725262200,130,2,3.4727413159541705,1.9162161449418873,2.125074179731739
1768725262204,131,3,3.865072616868676,2.6829576188680417,2.522035842761359
1768725262208,131,3,3.781759193418435,2.793949270461109,2.4445703644633223
1768725262212,130,2,3.186132970858985,1.984132987950793,1.8555738973823055
1768725262216,129,1,2.2916652502621933,0.7297849368908982,0.9679494482201072
1768725262220,128,0,1.408124396661946,-0.0549324519525589,0.0913145765908467
1768725262224,128,0,0.7400629057186769,-0.3676515211676816,-0.5697716706172395
1768725262228,127,-1,0.2978465941779987,-1.1170559439463856,-1.0052751351266265
1768725262232,127,-1,-0.0268629689785597,-1.0738772063173831,-1.3242511868921576
1768725262236,127,-1,-0.3155185239018032,-1.1728948716165415,-1.6084651817220337
1768725262240,126,-2,-0.5547427857479503,-2.120329737846724,-1.8434641418111848
1768725262244,126,-2,-0.7075011763824394,-2.271295187895114,-1.9903132464326192
1768725262248,126,-2,-0.8307096639374129,-2.220212155652463,-2.105426684778152
1768725262252,126,-2,-1.0835636279094594,-1.9041567802155233,-2.349870793803648
1768725262256,126,-2,-1.5912323587136492,-2.328458425005925,-2.850875658266447
1768725262260,124,-4,-2.3086021402414834,-3.898585195056805,-3.562952619143136
1768725262264,124,-4,-3.044884403687297,-4.507188665904097,-4.29322653507803
1768725262268,123,-5,-3.62962887461804,-4.956399434435545,-4.870559615452919
1768725262272,123,-5,-4.041650971728808,-5.12770262696399,-5.2754226065312775
1768725262276,123,-5,-4.373661653236946,-5.064841522388303,-5.601811634413431
1768725262280,122,-6,-4.692481516409837,-6.079772865868928,-5.914942483762728
1768725262284,122,-6,-4.953597303694055,-6.391023275665686,-6.167353136896699
1768725262288,122,-6,-5.047164682152405,-5.980654994822738,-6.249004806379466
1768725262292,122,-6,-4.91263991430251,-6.1501846543761065,-6.10357458156298
1768725262296,122,-6,-4.610506395790349,-5.902124419062528,-5.79709252367278
1768725262300,123,-5,-4.288100336127535,-5.248514365160869,-5.478358196593289
1768725262304,123,-5,-4.044190162422763,-5.203049197646397,-5.24029777998203
1768725262308,123,-5,-3.743108967538,-5.163278982779695,-4.936677171994888
1768725262312,124,-4,-2.857404129802907,-3.936316746949338,-4.032827040394723
1768725262316,127,-1,-0.4461440663666614,-1.0406035496231725,-1.5914052216961558
1768725262320,132,4,4.596778163774587,3.9440561230561553,3.4800025861676724
1768725262324,140,12,12.9448783883146,11.60015981009278,11.84067044479134
1768725262328,150,22,24.049990577511487,22.07165297226176,22.938167428352223
1768725262332,162,34,35.64655692786435,33.83971639884335,34.515422045487874
1768725262336,171,43,44.11356044697048,43.26232749286231,42.966191910218434
1768725262340,174,46,45.83384336886989,45.66718012254496,44.68465039652279
1768725262344,167,39,38.9545383220392,38.8174793479715,37.82019316800613
1768725262348,152,24,24.489386774473353,23.880311190316345,23.381108445143013
1768725262352,132,4,5.986997416845581,3.9566138631619374,4.907898901288245
1768725262356,113,-15,-12.089486818422984,-14.658539466365848,-13.143725118414656
1768725262360,101,-27,-26.245616399916948,-27.41655407632928,-27.28562179880464
1768725262364,93,-35,-34.96270717792072,-34.93235815067115,-36.00276520851923
1768725262368,90,-38,-38.45289219939483,-38.413764474740766,-39.50415351305398
1768725262372,89,-39,-37.7424709083773,-38.689769222554325,-38.80488363126642
1768725262376,92,-36,-33.96342696638139,-35.979978039342555,-35.02464379233002
1768725262380,98,-30,-28.21549084600594,-30.09971581923241,-29.260529308424232
1768725262384,106,-22,-21.67855350540389,-22.144486089785936,-22.70227248149633
1768725262388,113,-15,-15.521120742012531,-15.277657312057334,-16.5308153114022
1768725262392,116,-12,-10.575334052326138,-11.705458528497902,-11.581017068246544
1768725262396,119,-9,-7.11824737122772,-9.044483708373535,-8.122184335955437
1768725262400,122,-6,-4.975259003789599,-5.937680817504017,-5.971996601370511
1768725262404,124,-4,-3.793544269129742,-4.318189528959082,-4.777798126520775
1768725262408,124,-4,-3.22225544449771,-4.030034360869619,-4.1938405790151165
1768725262412,124,-4,-2.942531216889666,-3.903284384752124,-3.904314763339424
1768725262416,124,-4,-2.670700847449076,-3.850241821745622,-3.6249796278903856
1768725262420,125,-3,-2.21826137743975,-3.0933865700317185,-3.1662879372061
1768725262424,126,-2,-1.5696198153254377,-2.129333878308823,-2.5125253639366085
1768725262428,126,-2,-0.9020904246309048,-2.160541101925278,-1.8401281775880136
1768725262432,126,-2,-0.5112059815818311,-1.720613394642177,-1.4424821165603068
1768725262436,127,-1,-0.6470366838093704,-1.0358310195307825,-1.5684378772767609
1768725262440,126,-2,-1.323662647100598,-1.8953903757534496,-2.233256663770084
1768725262444,125,-3,-2.2335638997139613,-3.270975885405622,-3.1316679764966455
1768725262448,124,-4,-2.8775195391401516,-3.986213939507399,-3.765818320776774
1768725262452,124,-4,-2.858472433086404,-3.808404259187672,-3.738719525811826
1768725262456,125,-3,-2.1292176030201952,-2.9955890655683373,-3.0025725121888005
1768725262460,126,-2,-1.003686759155488,-1.8345537655581108,-1.8706697083569497
1768725262464,128,0,0.0720182830476863,-0.367898087824088,-0.7886233453469234
1768725262468,128,0,0.8057871200175215,0.2407585651499235,-0.0478812343790391
1768725262472,128,0,1.1854546166867377,-0.0654946024257068,0.3403989238012201
1768725262476,128,0,1.3752124430836188,0.2958934756546196,0.5408888446194831
1768725262480,129,1,1.5158191233332168,0.9108201682069555,0.6931949422967265
1768725262484,129,1,1.6243176622626916,0.8900914288015063,0.8120566986022828
1768725262488,129,1,1.655328777640585,1.1272053683605154,0.8506324813478163
1768725262492,129,1,1.6129691876893792,0.9834263375523664,0.8138125880280285
1768725262496,128,0,1.5730209798612966,0.3428382324762951,0.7797018317627751
1768725262500,129,1,1.5995105901399378,0.8030898418580721,0.814162452478228
1768725262504,129,1,1.668246642710904,1.120542050760071,0.8929790816729675
1768725262508,129,1,1.7010388830271244,0.9197327793482613,0.9364544168169986
1768725262512,129,1,1.684803296186839,1.245397659406468,0.9298988649096036
1768725262516,129,1,1.7462849993639011,1.0853954083628383,0.9995041456106412
1768725262520,129,1,2.0847295153146206,1.0443704574195969,1.345281045234834
1768725262524,130,2,2.801189637148828,1.9925421229542843,2.069564504390457
1768725262528,131,3,3.776393246172886,3.055401235793748,3.0535299424709192
1768725262532,132,4,4.724450786352488,4.209259269050956,4.01033580557022
1768725262536,133,5,5.394527349764626,5.07125075388332,4.687918812196517
1768725262540,133,5,5.748385312666955,5.106028991455507,5.048382228425696
1768725262544,133,5,5.95545811621974,4.959201296221709,5.2632729157356986
1768725262548,133,5,6.220094941750717,5.171255444729566,5.538445644602383
1768725262552,134,6,6.620245513443079,6.129266749604112,5.950410359678597
1768725262556,135,7,7.110988312332087,7.15983977306536,6.451037543700439
1768725262560,135,7,7.647845171799419,7.048831586970193,6.994594784517664
1768725262564,135,7,8.248032752506358,7.039951467762485,7.600340203824038
1768725262568,136,8,8.9057875239253,8.187089425109464,8.265017691311824
1768725262572,137,9,9.48164794444761,9.108238363856204,8.849302511531123
1768725262576,137,9,9.729297737680897,9.242544442807793,9.105478409362124
1768725262580,137,9,9.464044793781005,8.954842081835663,8.848409525005657
1768725262584,136,8,8.722035810979735,8.198402645768248,8.115132694149693
1768725262588,135,7,7.77086346733563,7.073943541403539,7.173728701107102
1768725262592,134,6,6.965392065918741,6.250777122339139,6.3781145897006075
1768725262596,134,6,6.558651463504272,6.1533325855389185,5.979988180115245
1768725262600,134,6,6.592436095864857,6.0388382384304125,6.021029242758277
1768725262604,134,6,6.920078130724716,6.204458923111412,6.355633212138943
1768725262608,135,7,7.325137613515274,7.075769085921051,6.768112967370424
1768725262612,135,7,7.647523286086827,7.320195417840063,7.098172399223847
1768725262616,135,7,7.83035808918522,7.081994549599677,7.2887061346520685
1768725262620,135,7,7.865731436590256,7.146628889839752,7.332161677326278
1768725262624,135,7,7.714006233664407,7.156555447537951,7.189088585222458
1768725262628,135,7,7.301371804385567,7.133787611752095,6.785160475167926
1768725262632,134,6,6.608694474388031,6.370928575949221,6.100836028113304
1768725262636,133,5,5.747695632944206,4.972035119157759,5.24818542576589
1768725262640,132,4,4.922888365287134,4.366483623689668,4.432000973043052
1768725262644,132,4,4.298347673857935,3.9131358802592104,3.8157374780146736
1768725262648,131,3,3.882429281835179,3.469883886007647,3.407058512955221
1768725262652,131,3,3.5189263250566367,3.088516229861314,3.0501173910604136
1768725262656,130,2,2.9861072292767834,2.237680896105427,2.524003873312268
