timestamp_ms,ecg_u8_raw,ecg_counts_raw_int,ecg_counts_filt_monitor,ecg_counts_filt_diagnostic,ecg_counts_filt_st
1769239625132,122,-6,-5.522281633372506,-5.684317975040197,-6.023152682486269
1769239625136,122,-6,-5.430711946995675,-5.795926154705181,-5.931202246406125
1769239625140,122,-6,-5.456399094334336,-5.761185170281221,-5.956214915855791
1769239625144,122,-6,-5.485768316313833,-5.69274892654907,-5.984768561896622
1769239625148,122,-6,-5.39366521802557,-5.872416357970958,-5.891968051874274
1769239625152,122,-6,-5.140769008710938,-5.653347429975595,-5.638745010920719
1769239625156,123,-5,-4.806167627847186,-4.875059415713526,-5.304368445245844
1769239625160,123,-5,-4.5256130536490495,-4.6617996728371605,-5.0243837946051455
1769239625164,123,-5,-4.38963091843576,-4.829627273870679,-4.888496809344657
1769239625168,123,-5,-4.389943098353822,-4.744111890749133,-4.887683563731697
1769239625172,123,-5,-4.448866682858112,-4.768916562365861,-4.944640436142812
1769239625176,123,-5,-4.489209108221886,-4.782394880142284,-4.983523113770671
1769239625180,123,-5,-4.483002313231788,-4.733580528236001,-4.977224559914935
1769239625184,123,-5,-4.453998285866526,-4.804235411748564,-4.948871046294569
1769239625188,123,-5,-4.446336372476762,-4.759626916783269,-4.9411967084925585
1769239625192,123,-5,-4.483174647105377,-4.761662171810231,-4.976738938150975
1769239625196,123,-5,-4.5375921382698685,-4.7976390644691795,-5.02930082282894
1769239625200,123,-5,-4.5367135927703846,-4.7063989148181955,-5.027042839335724
1769239625204,123,-5,-4.408019482548312,-4.875767559472589,-4.89760170977331
1769239625208,123,-5,-4.142503225852928,-4.673000814411247,-4.631451088960697
1769239625212,124,-4,-3.8186971601949153,-3.868979742117665,-4.30695612201669
1769239625216,124,-4,-3.554234641097526,-3.677060365421581,-4.042029036924919
1769239625220,124,-4,-3.422960373049353,-3.8381711856374823,-3.910374994219292
1769239625224,124,-4,-3.413903926930461,-3.7682858042303247,-3.900308021142657
1769239625228,124,-4,-3.4618167560463036,-3.785319615977595,-3.9462372367258367
1769239625232,124,-4,-3.506405977597104,-3.774362939088595,-3.988498084279503
1769239625236,124,-4,-3.523715886368543,-3.743844866012756,-4.004119190203166
1769239625240,124,-4,-3.5175721403930926,-3.798808660707481,-3.9972942716863327
1769239625244,124,-4,-3.498731132435742,-3.809307341815435,-3.978298449666577
1769239625248,124,-4,-3.477367633409213,-3.776071286205698,-3.956509006677761
1769239625252,124,-4,-3.467548171015257,-3.774716006376592,-3.94549521609819
1769239625256,124,-4,-3.4857505866366867,-3.744937943614105,-3.961787218497379
1769239625260,124,-4,-3.534352062387907,-3.792199439654655,-4.008252934765448
1769239625264,124,-4,-3.5825286045644944,-3.8527044999158626,-4.054623746538901
1769239625268,124,-4,-3.5685965812589857,-3.7304281192552966,-4.039351563192443
1769239625272,124,-4,-3.435566605359017,-3.8428925901027498,-3.905050254065298
1769239625276,124,-4,-3.1797045122389367,-3.6501875826605046,-3.647652880574934
1769239625280,125,-3,-2.8681536638945624,-2.904441572427772,-3.334624127998496
1769239625284,125,-3,-2.60137273309342,-2.75492801602516,-3.066951404669844
1769239625288,125,-3,-2.450402193884309,-2.846339602842964,-2.915432517992465
1769239625292,125,-3,-2.424121864720348,-2.7330063557906437,-2.887966233151878
1769239625296,125,-3,-2.483858190438601,-2.752026102871849,-2.945311711816794
1769239625300,125,-3,-2.573648543735295,-2.8114328030143723,-3.032092737391932
1769239625304,125,-3,-2.634728977585346,-2.8610102117711573,-3.0906975893509836
1769239625308,125,-3,-2.609404242806088,-2.7574118501635634,-3.063980049979971
1769239625312,125,-3,-2.458052732241308,-2.8263696743875757,-2.9118409601515327
1769239625316,125,-3,-2.1903596909138465,-2.6526271662972114,-2.643192235088538
1769239625320,126,-2,-1.8781029878418345,-1.918606251927931,-2.3296041260967932
1769239625324,126,-2,-1.6215387786954931,-1.7661811175365838,-2.071534176571169
1769239625328,126,-2,-1.488729831417241,-1.8708052417528744,-1.9369601316919112
1769239625332,126,-2,-1.4786263569529463,-1.717936826789641,-1.9245412905140584
1769239625336,126,-2,-1.5339681457558192,-1.7581117410862224,-1.9772351642761272
1769239625340,126,-2,-1.585232868363469,-1.826155652596367,-2.026290040100376
1769239625344,126,-2,-1.591949198337748,-1.8555467399627752,-2.0317194913895316
1769239625348,126,-2,-1.5602413983522978,-1.8154691529842937,-1.999249097665822
1769239625352,126,-2,-1.5305933559458365,-1.7564220229472869,-1.968455019573769
1769239625356,126,-2,-1.5428464936426884,-1.7443429498123582,-1.9786588062191155
1769239625360,126,-2,-1.5991662556453805,-1.8190469205553752,-2.0323993042894375
1769239625364,126,-2,-1.6512848643217026,-1.9016634689777017,-2.082276591550464
1769239625368,126,-2,-1.626191922581001,-1.758387175283069,-2.0556640887824966
1769239625372,126,-2,-1.4781585152761978,-1.8417959672344173,-1.9062626265413805
1769239625376,126,-2,-1.2292553798416717,-1.6426521630295978,-1.6554105069861182
1769239625380,127,-1,-0.9581293366236734,-0.9296602903481486,-1.3819916988023897
1769239625384,127,-1,-0.736562889908436,-0.8097664330418176,-1.158751921640874
1769239625388,127,-1,-0.5710163899801479,-0.8480310571601133,-0.9923846619163476
1769239625392,127,-1,-0.4116485872722144,-0.787664013323217,-0.832038099248381
1769239625396,127,-1,-0.2181517583378878,-0.6615651129201022,-0.636463934028045
1769239625400,128,0,-0.0018192559234333,0.0381152828639594,-0.4173262757651743
1769239625404,128,0,0.2082526622479512,0.2731330938148564,-0.2047719788541755
1769239625408,128,0,0.4289733592708225,-0.0082446918708354,0.0177928499639481
1769239625412,128,0,0.7297352956887302,0.4259847594607464,0.320241859862697
1769239625416,129,1,1.1621530972435354,1.0611694866309846,0.7543979339040074
1769239625420,129,1,1.6818276986994656,1.3592704781200196,1.2754471716467335
1769239625424,130,2,2.139398501662079,1.9152833307438684,1.7337286367875369
1769239625428,130,2,2.354878833915666,2.362212142189139,1.94970706845374
1769239625432,130,2,2.222577248338445,2.0213358349489146,1.818683836658859
1769239625436,129,1,1.7721736813360058,1.470091675200664,1.370985109112559
1769239625440,129,1,1.1470989605393946,0.9394956631286177,0.7494980234115876
1769239625444,128,0,0.5238535693382702,0.3336530825220865,0.1292062450666591
1769239625448,128,0,0.0288726176005424,-0.0589745445817928,-0.36452585918
1769239625452,127,-1,-0.3059871821707505,-0.5783841074568946,-0.6993603131762416
1769239625456,127,-1,-0.5372166575573325,-0.9229349793902302,-0.9303832737094944
1769239625460,127,-1,-0.7574781039038252,-0.6934430926074648,-1.14942818337373
1769239625464,127,-1,-1.0231532368178384,-1.0075342278186077,-1.413041167404111
1769239625468,126,-2,-1.3127132900279666,-1.7657176259835077,-1.700166812609794
1769239625472,126,-2,-1.5526538276096409,-1.8384899601420712,-1.9378074791988964
1769239625476,126,-2,-1.6848585835288885,-1.7219033116637992,-2.0685411078922855
1769239625480,126,-2,-1.7103470494122086,-1.851639497846984,-2.0936586315214236
1769239625484,126,-2,-1.6785432597146754,-1.8879164508680435,-2.061573154426525
1769239625488,126,-2,-1.6464030544443844,-1.861005805335821,-2.027619334525422
1769239625492,126,-2,-1.643776941137518,-1.7876629039917502,-2.0214400046941834
1769239625496,126,-2,-1.661753012900557,-1.7613607679792067,-2.036268308080313
1769239625500,126,-2,-1.6674609745191535,-1.8332870021111125,-2.041996671843272
1769239625504,126,-2,-1.6405003181485522,-1.8889893951535224,-2.018496572864832
1769239625508,126,-2,-1.6062603561220752,-1.8807221017831044,-1.987483014704126
1769239625512,126,-2,-1.6264554880666888,-1.778272963293114,-2.005274839514895
1769239625516,126,-2,-1.7328904909829408,-1.781778318302424,-2.101520565659178
1769239625520,126,-2,-1.8551255212576816,-1.8210087258543477,-2.210680974514394
1769239625524,126,-2,-1.835661301009865,-1.884925964144173,-2.185561066857062
1769239625528,126,-2,-1.5771810945099265,-1.917929905712564,-1.9367308305839543
1769239625532,126,-2,-1.2247387381683053,-1.7312450557967354,-1.6061460090837083
1769239625536,126,-2,-1.156976548958369,-1.8637861980762809,-1.557510992891609
1769239625540,126,-2,-1.603002968668758,-1.7203488645270208,-2.0033083856671707
1769239625544,127,-1,-1.99284632489236,-0.9939851180563074,-2.3690954499299592
1769239625548,128,0,-0.5410677532124464,0.1815773329586676,-0.8821167269530625
1769239625552,133,5,5.317558226064905,5.161672746122597,5.002050273721512
1769239625556,144,16,17.481966272738404,16.237693311983378,17.168413780917273
1769239625560,161,33,35.44026657073347,33.207033499231954,35.105827097279615
1769239625564,183,55,55.516712159957926,55.088965415000445,55.15007296440567
1769239625568,202,74,71.99980075815485,74.10902016155275,71.60388875227453
1769239625572,209,81,79.7416172610674,81.15905824059153,79.3317320208711
1769239625576,204,76,76.63086687269691,76.16315080440845,76.22992527322714
1769239625580,191,63,64.36136035077183,63.20895107380841,63.990100763384376
1769239625584,174,46,47.17281800106424,46.059951496669264,46.83755763154943
1769239625588,157,29,29.61694860018677,29.22458163026516,29.304501533157847
1769239625592,143,15,14.800907216778423,15.097671577001714,14.486728824472982
1769239625596,132,4,3.8908747683067784,4.254488903193138,3.554811155547685
1769239625600,125,-3,-3.3337864901351946,-2.9192632419724767,-3.695989574970337
1769239625604,120,-8,-7.632605392358801,-7.846016943971259,-8.009285327480116
1769239625608,117,-11,-9.78162260255215,-10.844863723074388,-10.155138479552395
1769239625612,117,-11,-10.4759781824983,-10.818988972328375,-10.835099117646353
1769239625616,118,-10,-10.369725903919608,-9.82805281201653,-10.715852147615156
1769239625620,118,-10,-10.004490737437395,-9.900968788074069,-10.347580920533906
1769239625624,118,-10,-9.673496843150746,-9.890573881397206,-10.021982030255373
1769239625628,118,-10,-9.413072723167556,-9.792309390299977,-9.7671828813301
1769239625632,118,-10,-9.16053852294927,-9.864062310721543,-9.51454635461622
1769239625636,119,-9,-8.907102302540684,-8.766074198695682,-9.25677181871721
1769239625640,120,-8,-8.688951542085197,-8.009466884118417,-9.035652370091784
1769239625644,119,-9,-8.474458148418737,-8.80515837173999,-8.822136071217962
1769239625648,119,-9,-8.137824095731865,-8.861858496818694,-8.48775320791029
1769239625652,120,-8,-7.583715956346524,-7.806041266686873,-7.933858762648479
1769239625656,121,-7,-6.874783388828994,-6.793327001262062,-7.223607106916914
1769239625660,122,-6,-6.201374148922343,-6.040360611968901,-6.550178398874537
1769239625664,122,-6,-5.724892821001992,-5.756710978508859,-6.075624213123926
1769239625668,122,-6,-5.463392184714229,-5.947051701789287,-5.815440410381914
1769239625672,122,-6,-5.3150313285390665,-5.700433378304109,-5.665566964135317
1769239625676,123,-5,-5.155262078798185,-4.901512090160496,-5.502620408823055
1769239625680,123,-5,-4.897776096922337,-4.960383309203357,-5.243487919604803
1769239625684,123,-5,-4.497578157298495,-4.823541267074877,-4.844712991974481
1769239625688,124,-4,-3.949553219433934,-3.9169396026100265,-4.299577550913565
1769239625692,124,-4,-3.307529961010828,-3.7037256166324575,-3.659151295877413
1769239625696,125,-3,-2.684389153898437,-2.927534515398305,-3.035306203158542
1769239625700,126,-2,-2.1928134713005942,-1.9192271990899143,-2.542210276649669
1769239625704,126,-2,-1.8568292721158088,-1.8980383739483095,-2.205804244200866
1769239625708,126,-2,-1.5833339969220934,-1.8455904003855748,-1.933036421893619
1769239625712,126,-2,-1.2414357344121805,-1.7661843625355036,-1.5916031379600906
1769239625716,127,-1,-0.779557419007127,-0.9059690498669256,-1.1293457602829244
1769239625720,128,0,-0.2584447526369784,0.113544152105627,-0.6079702739886649
1769239625724,128,0,0.2287044351919402,-0.0108258998613796,-0.1214880750165112
1769239625728,128,0,0.6523358435708946,0.330605106446308,0.3010826213744786
1769239625732,129,1,1.05951653184658,0.9833672506795548,0.7077510012512513
1769239625736,129,1,1.5088800329946084,1.3783450525640637,1.1572736698802908
1769239625740,130,2,2.0057371819307095,1.8131242172575,1.654440943021917
1769239625744,130,2,2.4967128487347923,2.2753608200610533,2.1454304340804184
1769239625748,131,3,2.9223013108869567,3.0690366009833228,2.570595182528338
1769239625752,131,3,3.2769943456480206,3.175245147561703,2.9246270972044046
1769239625756,131,3,3.6180729056785186,3.245644658994129,3.265281064059156
1769239625760,132,4,4.010747486233084,3.8754428282347337,3.6579881171327866
1769239625764,132,4,4.464147781137486,4.27123242742813,4.111431363582229
1769239625768,133,5,4.923574043103081,5.017936347849353,4.570367593086541
1769239625772,133,5,5.32206618853087,5.241055411714356,4.968057366520364
1769239625776,133,5,5.634873984946027,5.167961298599919,5.280436763216947
1769239625780,134,6,5.890360264006086,5.927054451826133,5.535964730797271
1769239625784,134,6,6.140010055801641,6.253413822011884,5.78564686915045
1769239625788,134,6,6.4134026289840085,5.985100364738872,6.058984310825755
1769239625792,134,6,6.682853018876285,6.300425319548623,6.328545716369612
1769239625796,135,7,6.86588642023832,7.086452626653674,6.51144748503447
1769239625800,135,7,6.8744074807483795,6.979348844368125,6.518888944325181
1769239625804,134,6,6.665090688152399,6.256764931273956,6.308039576765071
1769239625808,134,6,6.234263722651317,5.888473693406397,5.8767335133133045
1769239625812,133,5,5.573032336893526,5.484796082570801,5.216538382634344
1769239625816,133,5,4.654492552634551,4.785082524022709,4.2991702618566245
1769239625820,131,3,3.4753435097922023,3.381403971155671,3.1198258595077117
1769239625824,130,2,2.09177427776665,1.7675212084021934,1.734825330102156
1769239625828,128,0,0.5947178592216624,0.4309755796911465,0.2364724878657655
1769239625832,127,-1,-0.9495818324746814,-1.1141811373922756,-1.3079987884308264
1769239625836,125,-3,-2.523041126165138,-2.6076318477347704,-2.880743168503274
1769239625840,124,-4,-4.114805765370818,-4.20984867830226,-4.471910684195307
1769239625844,122,-6,-5.660275326907122,-5.6791143722582875,-6.017599798538593
1769239625848,121,-7,-7.030766584338474,-7.081022549225079,-7.388797920586322
1769239625852,119,-9,-8.098847344265607,-8.689021084438133,-8.457153213902084
1769239625856,119,-9,-8.824577652879844,-8.96052623912772,-9.1824845326999
1769239625860,119,-9,-9.275559201617586,-8.93060710998471,-9.633216926599893
1769239625864,118,-10,-9.558153391168943,-9.877772238985791,-9.916422881536628
1769239625868,118,-10,-9.731726815255644,-9.979426207673956,-10.091035641421204
1769239625872,118,-10,-9.78789042419041,-9.727678170739292,-10.147584714347165
1769239625876,118,-10,-9.699648787561951,-10.018600763754591,-10.05852920460208
1769239625880,118,-10,-9.47930080584416,-9.782920159571596,-9.836778649690151
1769239625884,119,-9,-9.1867913540915,-9.086811112931034,-9.54364443934307
1769239625888,119,-9,-8.885834540283533,-8.743948170539458,-9.243597030899728
1769239625892,119,-9,-8.602543284148272,-9.00091755339156,-8.961830426111508
1769239625896,119,-9,-8.33596806191892,-8.76762534822354,-8.695722969421077
1769239625900,120,-8,-8.09753776747258,-7.995760046669666,-8.456304195762119
1769239625904,120,-8,-7.914529918305491,-7.914364463270064,-8.272029288733844
1769239625908,120,-8,-7.78758763613125,-7.878546300529151,-8.144563406529754
1769239625912,120,-8,-7.663630187011828,-7.929911856286448,-8.020638154069115
1769239625916,120,-8,-7.467995296646267,-7.826498105976732,-7.825061825047745
1769239625920,121,-7,-7.1641155299221175,-6.946643300463549,-7.521261962443014
1769239625924,121,-7,-6.781911630449004,-6.9460767585458925,-7.139163397465238
1769239625928,121,-7,-6.397269368697461,-6.862649456067558,-6.754215145979866
1769239625932,122,-6,-6.084601081350772,-5.955978892998573,-6.4407206819160105
1769239625936,122,-6,-5.871472355525908,-5.842465602177759,-6.2269099902861775
1769239625940,122,-6,-5.726561347669296,-5.89772896361829,-6.081896860728052
1769239625944,122,-6,-5.601260767599896,-6.013823913663867,-5.956582213366118
1769239625948,122,-6,-5.492698440387998,-5.772905327519681,-5.847614631040415
1769239625952,123,-5,-5.45512617602605,-5.105039592268036,-5.809617494702275
1769239625956,122,-6,-5.535139480650033,-5.670527392352418,-5.8895680128315915
1769239625960,122,-6,-5.698576271940539,-6.102696712884567,-6.052728019496863
1769239625964,122,-6,-5.830206708477881,-5.766098859857698,-6.1830670517823245
1769239625968,122,-6,-5.806543134018684,-6.055427703623583,-6.157427542745164
1769239625972,122,-6,-5.573659978931808,-5.8447874476488515,-5.9232563156017
1769239625976,123,-5,-5.1731625377699455,-4.914441258270202,-5.52302323462432
1769239625980,123,-5,-4.715416438590261,-4.89643661303812,-5.066332487797526
1769239625984,123,-5,-4.333571146130167,-4.917138598422124,-4.6848233499217145
1769239625988,124,-4,-4.138302095728397,-3.9665630452692673,-4.4887736702918435
1769239625992,124,-4,-4.1728479442127675,-3.923282687301539,-4.522265031023961
1769239625996,123,-5,-4.386892138777831,-4.864908471062324,-4.73533315939342
1769239626000,123,-5,-4.66307144631899,-4.932537440802122,-5.009936150931985
1769239626004,123,-5,-4.883789373567135,-4.869200179773893,-5.2283768543906195
1769239626008,123,-5,-4.9776195379976205,-5.052992151630864,-5.320572994780498
1769239626012,123,-5,-4.917257437723238,-4.8234866509171415,-5.2604057017507255
1769239626016,123,-5,-4.7071911232225565,-4.995032098191043,-5.05159705145444
1769239626020,123,-5,-4.396855523209678,-4.792764038528402,-4.741554291793725
1769239626024,124,-4,-4.0914943338712,-3.992325595015746,-4.4345970037226605
1769239626028,124,-4,-3.910022502055726,-3.984119196049277,-4.250814596856994
1769239626032,124,-4,-3.901702370086808,-3.8537757855911488,-4.241171671741752
1769239626036,124,-4,-4.002559450713328,-4.029617638399413,-4.34185150050112
1769239626040,123,-5,-4.089043244000646,-4.705417685573011,-4.427930356495974
1769239626044,124,-4,-4.083866749488937,-4.130562134366093,-4.421171882765387
1769239626048,124,-4,-4.006070133041723,-3.810064100882723,-4.341337682566701
1769239626052,124,-4,-3.917139780788282,-4.078694879191609,-4.251259843088572
1769239626056,124,-4,-3.832368955717539,-3.779287007147652,-4.166424324856946
1769239626060,124,-4,-3.701354388174259,-3.976373450097725,-4.035302102086053
1769239626064,124,-4,-3.4761371576351285,-3.87387917969388,-3.80896414987424
1769239626068,125,-3,-3.1847044493530543,-3.04642781380568,-3.5157022159146303
1769239626072,125,-3,-2.9246528233741658,-2.888191750590506,-3.254113532616151
1769239626076,125,-3,-2.783365161381807,-2.933891011752828,-3.1119604715744646
1769239626080,125,-3,-2.7686081221177887,-2.8628603387445377,-3.096516239204359
1769239626084,125,-3,-2.8143698575835825,-2.976243485016128,-3.1412797797775287
1769239626088,125,-3,-2.8466562965561675,-2.9689681764220106,-3.172326071966708
1769239626092,125,-3,-2.8432102053124915,-2.9516350697974323,-3.1676658783306824
1769239626096,125,-3,-2.8367130547197372,-2.8923211077001563,-3.1599981839483884
1769239626100,125,-3,-2.8645016698091097,-2.8863646893545125,-3.186539208018832
1769239626104,125,-3,-2.9129971699317214,-2.99645936658652,-3.2337460052663385
1769239626108,125,-3,-2.910109487827647,-2.9261667914391025,-3.22964440026566
1769239626112,125,-3,-2.779341648191278,-3.026335707602546,-3.0977139518831116
1769239626116,125,-3,-2.512315861451846,-2.79606392391531,-2.8295592980301976
1769239626120,126,-2,-2.1911950611588216,-2.0041866533765837,-2.507524528640636
1769239626124,126,-2,-1.9335889053477908,-1.8821952846359864,-2.2492417244168625
1769239626128,126,-2,-1.8086237234593812,-2.052652158802518,-2.1233566287318535
1769239626132,126,-2,-1.800135159423021,-1.9077251812321645,-2.1132968383931683
1769239626136,126,-2,-1.8398587263451396,-1.9122305561094124,-2.1512311394847172
1769239626140,126,-2,-1.868005968443036,-1.9092988398199964,-2.178201061321994
1769239626144,126,-2,-1.8697177304045351,-1.9597486938861175,-2.1793822396497715
1769239626148,126,-2,-1.869493422626052,-2.013753656664431,-2.17839189373938
1769239626152,126,-2,-1.8948602617533803,-1.9204557706398149,-2.202203815973263
1769239626156,126,-2,-1.9348252142756903,-1.936172332938321,-2.240420521220772
1769239626160,126,-2,-1.9271741684821495,-1.867010563876398,-2.2317118745224622
1769239626164,126,-2,-1.7985679955858234,-2.0243030376069218,-2.1026116033826874
1769239626168,126,-2,-1.536042703801352,-1.9475508977711429,-1.8392668486443016
1769239626172,127,-1,-1.2208142888716855,-1.0057186748021674,-1.5226638478195085
1769239626176,127,-1,-0.974551600272481,-0.8326952122779498,-1.2752289886012846
1769239626180,127,-1,-0.8588656855767409,-1.0140233036403512,-1.15903207858048
1769239626184,127,-1,-0.8287639059674738,-0.8298406384805017,-1.1284075292835365
1769239626188,127,-1,-0.7869944934601882,-1.2201067883403314,-1.0852596283464808
1769239626192,127,-1,-0.6769627396281499,-0.685220366476922,-0.9733105984658844
1769239626196,128,0,-0.5163399453409121,-0.1834654794610077,-0.811418370667292
1769239626200,127,-1,-0.3479628628982554,-0.6639362557947783,-0.6429278691623094
1769239626204,128,0,-0.1742935236834162,-0.1566963655944357,-0.4694554753457824
1769239626208,128,0,0.0539639504790678,0.0320927350363005,-0.2404818291740174
1769239626212,128,0,0.391657623156056,0.1212566389369929,0.0991684757531883
1769239626216,129,1,0.8449992938361852,0.9422022876897136,0.5548529425637352
1769239626220,129,1,1.3545587524467972,1.2830738307889202,1.0658060074764224
1769239626224,130,2,1.8197829498460476,1.823699224988009,1.530709962755087
1769239626228,130,2,2.1354582661098416,2.0799499192772246,1.8448660275009197
1769239626232,130,2,2.2131816480443964,2.035951095060696,1.921479208027104
1769239626236,130,2,1.9913301227960372,2.024514041772109,1.7004554772091365
1769239626240,129,1,1.4566369878136798,1.2434871132647731,1.1685282245706363
1769239626244,129,1,0.6827416416711176,0.782007714890391,0.3975210518610887
1769239626248,128,0,-0.1510635573135559,0.1967401305992737,-0.435193434232467
1769239626252,127,-1,-0.8155086662929847,-1.190334442828993,-1.1002671769614008
1769239626256,126,-2,-1.1614707063326517,-1.6588543779591656,-1.446827886219313
1769239626260,127,-1,-1.2264985367959054,-1.129103878879186,-1.5115024888826885
1769239626264,127,-1,-1.2022299498246936,-0.82525392645643,-1.486848342992509
1769239626268,127,-1,-1.2746166771493417,-1.205657288702,-1.559690074313368
1769239626272,126,-2,-1.4871064124407385,-1.8317152571438051,-1.7727183136684377
1769239626276,126,-2,-1.748523078642826,-1.9766877299151977,-2.0335866559899025
1769239626280,126,-2,-1.947216292723264,-1.8716755957847615,-2.2309132338612003
1769239626284,126,-2,-2.039556174826025,-2.0172309720660104,-2.322305665627681
1769239626288,126,-2,-2.0430124434783403,-2.087937458698251,-2.325555255642265
1769239626292,126,-2,-1.9768891465740768,-1.896771047623134,-2.259035395933353
1769239626296,126,-2,-1.8304511774307444,-1.981863018441476,-2.1116017684276143
1769239626300,126,-2,-1.5879549910443385,-1.822305246679757,-1.8690358339724005
1769239626304,127,-1,-1.2749082035867518,-1.0998245803938356,-1.558912339047542
1769239626308,127,-1,-0.9738337040367784,-0.986474158456532,-1.2629334842103512
1769239626312,127,-1,-0.7927127360011532,-1.0296971431567576,-1.0840863264376386
1769239626316,127,-1,-0.8051897867394725,-0.8441635215132582,-1.090942871557794
1769239626320,127,-1,-0.9916059221594355,-0.9851679985499346,-1.265361047831536
1769239626324,127,-1,-1.2206035646508822,-0.9180210238181647,-1.4858157743205158
1769239626328,127,-1,-1.3239945826311652,-1.1824201241350227,-1.594937763569739
1769239626332,126,-2,-1.2654504700359464,-1.8419667423849877,-1.5572102041467413
1769239626336,126,-2,-1.257917958157306,-2.0393016220632756,-1.5727248555168614
1769239626340,126,-2,-1.5824805365602137,-1.8143342378721357,-1.904964317626064
1769239626344,127,-1,-2.0244305427301663,-1.0575187729741864,-2.3312373979716847
1769239626348,128,0,-1.2796296149927378,-0.0758791325745353,-1.5558677944746389
1769239626352,131,3,2.9862048398810455,3.087033689137372,2.736973059247114
1769239626356,140,12,13.004079799066014,11.9661742232732,12.762937236515684
1769239626360,155,27,29.13382890758158,27.248206366273426,28.87804264640676
1769239626364,176,48,48.68949030872103,47.84169475460543,48.40332751906065
1769239626368,196,68,66.47845583690889,68.11002390128381,66.15886451268412
1769239626372,207,79,77.03939044750499,78.80816892788286,76.69748580585316
1769239626376,205,77,77.25633518565579,77.19248340537663,76.91438570059049
1769239626380,195,67,67.69157996414894,66.90743590889332,67.3730830333327
1769239626384,179,51,51.92221483663868,51.164485492602935,51.6381347574557
1769239626388,162,34,34.53743861353862,33.849685621261315,34.27885725491182
1769239626392,147,19,19.15333798232527,19.14040049140503,18.897491794136265
1769239626396,136,8,7.474937652787094,7.898959277047356,7.200029880978494
1769239626400,128,0,-0.4488426133415517,0.1383686629100688,-0.7512023007633515
1769239626404,123,-5,-5.365967694286196,-5.047214079637779,-5.688172664286773
1769239626408,119,-9,-8.097273562800238,-8.966932006460512,-8.423014117104525
1769239626412,118,-10,-9.293326067747648,-9.9705786475914,-9.60937309399667
1769239626416,119,-9,-9.508128693685236,-9.043559901197243,-9.812584061349373
1769239626420,119,-9,-9.253484799075116,-8.951677898949951,-9.55440189939593
1769239626424,119,-9,-8.91593643619475,-8.98716083494749,-9.222112286152177
1769239626428,119,-9,-8.669884600574951,-9.016388834695212,-8.983094168644369
1769239626432,119,-9,-8.511320291603047,-8.895062714959382,-8.827191417311887
1769239626436,120,-8,-8.365858285357717,-8.144177182699742,-8.680679860907464
1769239626440,120,-8,-8.16035850283917,-7.874141993086125,-8.47516966417869
1769239626444,120,-8,-7.841349134896534,-8.087748446513363,-8.15937219804799
1769239626448,120,-8,-7.397955636800498,-7.89849896348903,-7.720055259380818
1769239626452,121,-7,-6.892393198045067,-6.990328156448525,-7.216693294344824
1769239626456,122,-6,-6.4317271768495905,-6.085446336144364,-6.756923840754378
1769239626460,122,-6,-6.07152789261558,-5.928265776334131,-6.398604064900728
1769239626464,122,-6,-5.754850118308646,-6.081313107197895,-6.0850847361367375
1769239626468,122,-6,-5.375288160584306,-5.87116063864616,-5.708094902199553
1769239626472,123,-5,-4.902427930814158,-5.017664267110259,-5.236365384953281
1769239626476,124,-4,-4.420538385114478,-4.081558671978351,-4.755765875741034
1769239626480,124,-4,-4.03333535326721,-3.9129883769405818,-4.37169245477882
1769239626484,124,-4,-3.750245064503561,-4.164826391438686,-4.092807299290229
1769239626488,124,-4,-3.4839755807304025,-3.730161815689908,-3.829570827801646
1769239626492,125,-3,-3.1483812222683234,-3.201807944548987,-3.495024932869655
1769239626496,125,-3,-2.7365899018430673,-2.8792346638548394,-3.0838770862923752
1769239626500,126,-2,-2.302647983640372,-2.1184568727286788,-2.6522286069290724
1769239626504,126,-2,-1.888242400352206,-2.0071672207745133,-2.2420447221494872
1769239626508,126,-2,-1.486179086274802,-1.8424465658461584,-1.8444911111295177
1769239626512,127,-1,-1.0730227813080635,-1.1458196800306444,-1.434406617368891
1769239626516,127,-1,-0.6566858140295784,-0.8858434068740009,-1.019573116216117
1769239626520,128,0,-0.2721187548690063,-0.1638125237021263,-0.6362813194262951
1769239626524,128,0,0.0722603066727978,0.0592969819174908,-0.2942654874449145
1769239626528,128,0,0.4301163089887398,0.0666500302327359,0.0600298010570765
1769239626532,129,1,0.883088712315963,0.9391395860723212,0.5091962658284632
1769239626536,129,1,1.462154028577019,1.054653655769632,1.0851140123434262
1769239626540,130,2,2.103783670562856,1.8341568876992036,1.724166857248377
1769239626544,131,3,2.6935994001341887,3.1292175475770048,2.311161347362367
1769239626548,131,3,3.1626352224393255,2.9078757214779634,2.7768479589250457
1769239626552,131,3,3.5407007225733693,3.159073316710885,3.1517689424741957
1769239626556,132,4,3.913813544219597,3.792383919394788,3.5224806361455325
1769239626560,132,4,4.336455228379739,4.086849434100174,3.9427274270382697
1769239626564,133,5,4.789214527442759,4.907371742517949,4.392017626206555
1769239626568,133,5,5.209136216951695,5.07175672483879,4.8076409427373665
1769239626572,133,5,5.546353480297859,5.053651174041884,5.1411048848173335
1769239626576,134,6,5.798049594036636,5.819347102736205,5.390251400940344
1769239626580,134,6,6.009473414939021,6.1147674015481694,5.599541349677406
1769239626584,134,6,6.246624624340446,5.823215431050177,5.833996617739435
1769239626588,134,6,6.545956273352429,6.194210906014505,6.12995157393874
1769239626592,135,7,6.870736206188147,6.908368967847573,6.450965701740099
1769239626596,135,7,7.117877905065865,6.939317142274468,6.694085237843349
1769239626600,135,7,7.177377488694305,7.025970550894916,6.749583476883514
1769239626604,135,7,6.992417331503203,6.861051597907837,6.561282692961718
1769239626608,134,6,6.57121429405251,6.19861177316573,6.1377680163348955
1769239626612,134,6,5.95237499707461,5.858854205597089,5.517047787693903
1769239626616,133,5,5.162213321635054,4.995480933076287,4.724201257403468
1769239626620,132,4,4.194993407406298,3.9709149944324977,3.7528021536292098
1769239626624,131,3,3.018956513053273,2.892336809323361,2.5716843531120595
1769239626628,129,1,1.5983857805673414,1.199558380855954,1.1464557651576557
1769239626632,128,0,-0.0724399206614645,-0.2014196251049951,-0.5277258508852984
1769239626636,126,-2,-1.9303144866791897,-1.9030091993335372,-2.387728907652194
1769239626640,124,-4,-3.825451940486566,-4.175938143348235,-4.284448911099533
1769239626644,122,-6,-5.554758473984728,-5.9334758945506465,-6.0157304253873845
1769239626648,121,-7,-6.93968109960351,-6.987967037830273,-7.403951760394112
1769239626652,120,-8,-7.902715785731525,-8.033610398736865,-8.371801383338793
1769239626656,119,-9,-8.497327249207604,-9.053850490608507,-8.971692786680975
1769239626660,119,-9,-8.873127765011558,-9.051252250228323,-9.351792230190544
1769239626664,119,-9,-9.18676860354444,-9.043656393623674,-9.668265962854347
1769239626668,118,-10,-9.505650396315282,-9.894417238321514,-9.98919059002768
1769239626672,118,-10,-9.77491551440142,-10.143352751370797,-10.260707290562076
1769239626676,118,-10,-9.87972445299509,-9.935135653348675,-10.368529762297838
1769239626680,118,-10,-9.755237310649315,-10.194821471195256,-10.247675136779144
1769239626684,118,-10,-9.45535112350174,-9.882675320061615,-9.951569422454318
1769239626688,119,-9,-9.12297757925024,-9.06336923939731,-9.622973524652016
1769239626692,119,-9,-8.883409822983934,-8.99956178090917,-9.387297069405683
1769239626696,119,-9,-8.75241683386454,-9.062634110357372,-9.259981647366558
1769239626700,119,-9,-8.64285393053364,-9.104122037645752,-9.153203132694015
1769239626704,119,-9,-8.457128591152175,-8.946452483588963,-8.969459547560936
1769239626708,120,-8,-8.167707077585046,-8.028817463164106,-8.682370331736545
1769239626712,120,-8,-7.814523157532764,-8.014294747178159,-8.332739869437603
1769239626716,120,-8,-7.446923091675772,-8.081106115465342,-7.969422323647509
1769239626720,121,-7,-7.083523251046009,-7.0688752266536765,-7.609893591139615
1769239626724,121,-7,-6.72058050088483,-7.009841260927897,-7.249918803145993
1769239626728,121,-7,-6.364135099839296,-6.956796187015439,-6.8959686510225815
1769239626732,122,-6,-6.047941926890167,-6.087554344022534,-6.582553873283975
1769239626736,122,-6,-5.818657508111798,-6.023816502768774,-6.356690072527636
1769239626740,122,-6,-5.702118140061721,-6.129101055906636,-6.243811808243653
1769239626744,122,-6,-5.683736381701048,-5.957870264587252,-6.228585718352374
1769239626748,122,-6,-5.718925321514225,-6.014777068310001,-6.266189294935643
1769239626752,122,-6,-5.75897028256437,-6.0303964403872925,-6.308436338587168
1769239626756,122,-6,-5.771884834183219,-6.081515970602657,-6.32405308897943
1769239626760,122,-6,-5.751381791104313,-6.093131673367025,-6.3070211379571965
1769239626764,122,-6,-5.714971399995411,-5.9831323010647965,-6.274532696763067
1769239626768,122,-6,-5.692181110862106,-6.010052735380907,-6.255429789072534
1769239626772,122,-6,-5.705980789853272,-6.027999263738444,-6.272051715651383
1769239626776,122,-6,-5.754420105656048,-6.087630131673343,-6.322400553441382
1769239626780,122,-6,-5.800988499760119,-6.111344274517433,-6.370684372262871
1769239626784,122,-6,-5.782882738370029,-5.9478636709797765,-6.3549849709884825
1769239626788,122,-6,-5.643539935842206,-6.076363985081273,-6.218923817904948
1769239626792,122,-6,-5.37817972578253,-5.937056073878174,-5.9571548763216775
1769239626796,123,-5,-5.055783238761887,-5.204365703420385,-5.638098135093923
1769239626800,123,-5,-4.7858074712965735,-4.992359693709168,-5.371053898427218
1769239626804,123,-5,-4.6472915759165705,-5.0764850242896165,-5.235025788700344
1769239626808,123,-5,-4.639491825449869,-4.957030662020728,-5.229256698250399
1769239626812,123,-5,-4.6939781161069245,-5.048843694237987,-5.285633974399245
1769239626816,123,-5,-4.73230807163597,-5.119873687745409,-5.326307415392829
1769239626820,123,-5,-4.720848048831046,-5.056475596169993,-5.317905438089227
1769239626824,123,-5,-4.6844476184792505,-5.04231629710602,-5.284843115151098
1769239626828,123,-5,-4.673732422191921,-4.975665500290904,-5.277016240225002
1769239626832,123,-5,-4.712696961632255,-5.043952092703572,-5.318135453010614
1769239626836,123,-5,-4.766572525811583,-5.13881312437317,-5.373836475186048
1769239626840,123,-5,-4.756778574137259,-5.025573319010377,-5.366094910747471
1769239626844,123,-5,-4.616834122161725,-5.10249547862607,-5.228518822382611
1769239626848,123,-5,-4.349089841810041,-4.89239880598825,-4.963210058424602
1769239626852,124,-4,-4.033328869253581,-4.154132393335686,-4.649927221414048
1769239626856,124,-4,-3.77421513176071,-4.019906960602248,-4.393527243313459
1769239626860,124,-4,-3.63225127630733,-4.1596944675782614,-4.2544166712146465
1769239626864,124,-4,-3.598921185577027,-3.974728432444401,-4.22365914430617
1769239626868,124,-4,-3.62781272198849,-4.016419515961228,-4.254586659963527
1769239626872,124,-4,-3.678726335895864,-4.057061318263761,-4.307119040330437
1769239626876,124,-4,-3.7310837113625994,-4.084691947165609,-4.36097505059929
1769239626880,124,-4,-3.764086093657923,-4.143947959522246,-4.395667635997794
1769239626884,124,-4,-3.7360720671191334,-3.952067697777198,-4.369754582344315
1769239626888,124,-4,-3.59678484873281,-4.085318567477723,-4.232956073241468
1769239626892,124,-4,-3.3328158433499713,-3.9643255189278466,-3.971666276627744
1769239626896,125,-3,-3.003992513890889,-3.1956029955047867,-3.645562654909982
1769239626900,125,-3,-2.7242884322342484,-3.03162942246151,-3.3684217416903968
1769239626904,125,-3,-2.5907772800042066,-3.073998047242011,-3.236910409633647
1769239626908,125,-3,-2.6154352376014556,-2.9668856359865226,-3.262805522162786
1769239626912,125,-3,-2.7117916974924032,-3.098475221141935,-3.3601287636387465
1769239626916,125,-3,-2.7455583073730003,-3.0564017813146114,-3.395321918518174
1769239626920,125,-3,-2.618862559412653,-3.177248895710451,-3.2706340054887555
1769239626924,125,-3,-2.335511394828396,-2.9334990605929465,-2.9895028671630923
1769239626928,126,-2,-1.997485190627942,-2.106697220130971,-2.6538200278852093
1769239626932,126,-2,-1.729481150787322,-1.979025623817603,-2.388426323922092
1769239626936,126,-2,-1.5945829082012175,-2.164479091712013,-2.2560548262262663
1769239626940,126,-2,-1.573882601073045,-2.0884474177242605,-2.237086774369235
1769239626944,126,-2,-1.6128292474719874,-2.018971727616322,-2.27692976107759
1769239626948,126,-2,-1.670282075406587,-2.0345332092695623,-2.3353414209397014
1769239626952,126,-2,-1.7210166119650785,-2.0545293144737364,-2.38786878759621
1769239626956,126,-2,-1.728089818362469,-2.077311441318117,-2.3972335845282347
1769239626960,126,-2,-1.633563319166576,-2.209500187125495,-2.3045303290260737
1769239626964,126,-2,-1.3855011609464434,-1.8674192111475711,-2.0575946101640445
1769239626968,127,-1,-0.9730304870274402,-1.239420113808597,-1.646466148865641
1769239626972,127,-1,-0.4366370621379567,-0.8021141379464722,-1.1124254537104492
1769239626976,128,0,0.1460804195409673,-0.3696122333893861,-0.5325232495045906
1769239626980,128,0,0.6815601832133185,0.0984343682592574,0.0009286610969372
1769239626984,129,1,1.0865728434158934,0.8045035530603049,0.4049992917899332
1769239626988,129,1,1.3231482779128227,1.0736697825102506,0.6407797591016333
1769239626992,129,1,1.4185886263745997,0.906553796371102,0.7347816375927512
1769239626996,129,1,1.4370968945293243,0.8959876517013383,0.7514804324535624
1769239627000,129,1,1.415081941851967,0.8441008373772252,0.727857984154652
1769239627004,129,1,1.322476807158391,1.0334435805091478,0.6336995781090571
1769239627008,129,1,1.0930948310661557,0.8451698452223926,0.402286969347186
1769239627012,128,0,0.6932089211731103,0.1480128760176358,9.556783115982626e-07
1769239627016,128,0,0.1596905424818162,-0.3691462321197767,-0.5355327072437446
1769239627020,127,-1,-0.4199690332820773,-0.879753489950196,-1.1163948519241678
1769239627024,127,-1,-0.9528931016835912,-1.2783490926658434,-1.6500139591326903
1769239627028,126,-2,-1.3701517708028643,-1.8237010785666936,-2.067923927868483
1769239627032,126,-2,-1.6335223067478597,-2.180202023336795,-2.3321547258397484
1769239627036,126,-2,-1.735195097373765,-2.0625309179419555,-2.4352796311365816
1769239627040,126,-2,-1.700088154927499,-2.1634497385994735,-2.4027678447081695
1769239627044,126,-2,-1.5893646218897806,-2.0648477053710788,-2.2956738425667016
1769239627048,126,-2,-1.4970341297467664,-1.958309292888063,-2.2066621704630904
1769239627052,126,-2,-1.5252621626593907,-2.128767130411187,-2.2362050171287655
1769239627056,126,-2,-1.7303610904588282,-2.0341190043676294,-2.4402957884727465
1769239627060,126,-2,-2.0641746702695127,-2.2843991965220054,-2.772484713881298
1769239627064,125,-3,-2.369785229163699,-2.893548553334763,-3.0783793730532203
1769239627068,125,-3,-2.470096805177141,-3.167733283186091,-3.1823490539863473
1769239627072,125,-3,-2.3017173805303157,-2.895132941268134,-3.020213251428605
1769239627076,126,-2,-1.978026248085465,-2.2740032521239195,-2.702145373474079
1769239627080,126,-2,-1.7080583249946155,-2.0680278565094654,-2.432889809821929
1769239627084,126,-2,-1.6264835432051463,-2.096456753438428,-2.34514945607746
1769239627088,126,-2,-1.67886904718535,-1.9978222992576384,-2.388439321569195
1769239627092,126,-2,-1.6737523911247478,-2.036850591207788,-2.3804670785797857
1769239627096,126,-2,-1.4854774128771355,-2.1619425602923203,-2.203112010531079
1769239627100,126,-2,-1.247854649235144,-2.1691249847007916,-1.9879327051988016
1769239627104,126,-2,-1.3097646400287688,-2.009368655036871,-2.070439100693287
1769239627108,126,-2,-1.827057103955537,-2.0908265998234885,-2.5906986215191727
1769239627112,126,-2,-2.1596545988387685,-1.9374771194816467,-2.903285456847831
1769239627116,128,0,-0.5578536300342827,-0.2735460677307135,-1.269657401320964
1769239627120,133,5,5.3494353911651285,4.943622598745277,4.6606434244725925
1769239627124,144,16,17.196523581659818,15.885659623815904,16.506770699532733
1769239627128,160,32,34.318655468050494,32.0261708271112,33.60416785429139
1769239627132,180,52,53.12139100866053,51.969833116798185,52.37125972272099
1769239627136,198,70,68.17061203580838,69.79952927144396,67.38982478174377
1769239627140,204,76,74.64751740101113,75.8398755132311,73.85315426103911
1769239627144,198,70,70.70384573380738,69.88884247280012,69.91845489924759
1769239627148,185,57,58.20149186576634,56.99107938780881,57.44371846267943
1769239627152,168,40,41.463086611476086,39.95462605021012,40.73750324524492
1769239627156,152,24,25.016464464891097,23.89772940739803,24.30971372051354
1769239627160,140,12,11.79392925739312,11.814709458883524,11.082137200701496
1769239627164,131,3,2.6422249506026976,2.9360786598161406,1.9055972630345357
1769239627168,125,-3,-3.0286063847233775,-3.065933307073928,-3.794211742559312
1769239627172,121,-7,-6.261887969278112,-7.04505533822584,-7.044342441972793
1769239627176,119,-9,-7.9345364888808305,-9.08530016415562,-8.715544801130234
1769239627180,119,-9,-8.645353455557625,-9.188390941725029,-9.41326898148692
1769239627184,119,-9,-8.82588518080811,-9.044543833496958,-9.581771564899432
1769239627188,119,-9,-8.786955557096451,-9.136688040904229,-9.540536100031575
1769239627192,119,-9,-8.673428782164146,-9.002024072362644,-9.43376169888118
1769239627196,119,-9,-8.467033864611807,-9.136013449211696,-9.23595617557553
1769239627200,119,-9,-8.105370893939845,-9.115162928489683,-8.878247296393708
1769239627204,120,-8,-7.616529797559095,-8.087359045213608,-8.388354037782552
1769239627208,121,-7,-7.125210762336355,-7.143731059894246,-7.895709460012323
1769239627212,121,-7,-6.728282122400434,-7.004113588845779,-7.5011204637026525
1769239627216,121,-7,-6.396349131244038,-7.1536993322234155,-7.174038317879388
1769239627220,121,-7,-6.026973996473519,-7.06966299162902,-6.80783501693864
1769239627224,122,-6,-5.58181218317776,-6.121242076980609,-6.362478898442142
1769239627228,123,-5,-5.131415597676861,-5.140218158312446,-5.911265205040769
1769239627232,123,-5,-4.753184024427092,-5.014815577001039,-5.534899492894812
1769239627236,123,-5,-4.421219331501243,-5.16286652174628,-5.2071190923130475
1769239627240,123,-5,-4.036007114514483,-5.0346257208817065,-4.825303525121785
1769239627244,124,-4,-3.5566031925452024,-4.159355056545472,-4.347001457317316
1769239627248,125,-3,-3.0646159396828656,-3.12499858444809,-3.855521333934423
1769239627252,125,-3,-2.678389854221031,-3.014872952357714,-3.471196613469476
1769239627256,125,-3,-2.421948707209984,-3.215489152172737,-3.2175255745369853
1769239627260,125,-3,-2.1974089669176493,-2.9100448325349797,-2.994805473953829
1769239627264,126,-2,-1.877162788199728,-2.3676519580391098,-2.6752746409359824
1769239627268,126,-2,-1.407772423604856,-1.845698439577745,-2.2072307943115588
1769239627272,127,-1,-0.8348228394762582,-1.3672310591907826,-1.637302035913902
1769239627276,127,-1,-0.2540061745149415,-0.8172260499299455,-1.0599722990721558
1769239627280,128,0,0.2547520766613509,-0.3320359470955026,-0.553250201703315
1769239627284,128,0,0.6704460432460078,0.0431636270025816,-0.1379987041814612
1769239627288,129,1,1.0402097917533777,0.760234633282382,0.2311555621349996
1769239627292,129,1,1.448264492923243,0.9839913652956092,0.637100259097936
1769239627296,129,1,1.94738524238204,0.877427536067426,1.1332261416421403
1769239627300,130,2,2.498032127069337,1.920327791087169,1.6812609632528015
1769239627304,131,3,2.9867399451192136,2.8366755646413595,2.167862718867652
1769239627308,131,3,3.3314312291094614,2.9072671108202948,2.510457860999312
1769239627312,131,3,3.5750113072504077,2.887240845306055,2.75228790132917
1769239627316,131,3,3.86480086775677,2.9224532979454185,3.041313341152678
1769239627320,132,4,4.336919813210471,3.9010368476447583,3.513011804825375
1769239627324,133,5,5.0181257736492455,4.835150029554263,4.192634228285055
1769239627328,133,5,5.816223746004666,4.918503851024368,4.987608525702583
1769239627332,134,6,6.576914609516045,5.873618199025131,5.744749316509844
1769239627336,135,7,7.156925000445209,6.923633636900682,6.321799566068409
1769239627340,135,7,7.483702237753072,6.885985455894399,6.646356204098927
1769239627344,135,7,7.578283496157498,6.851330380932669,6.739498523845288
1769239627348,135,7,7.528145624936821,6.908655965280762,6.688905119058956
1769239627352,135,7,7.434876764252091,6.869055144640585,6.595704378907881
1769239627356,135,7,7.378941980102952,6.9321313566324,6.5390209178431355
1769239627360,135,7,7.408531670332226,6.860273971317696,6.566034952543119
1769239627364,135,7,7.523041998589286,6.880092837297785,6.676690161371503
1769239627368,135,7,7.64045779013097,6.890168002823982,6.7906556528292965
1769239627372,135,7,7.58855702911667,6.861913113578022,6.736804069847309
1769239627376,135,7,7.166950540768673,6.953275051424368,6.314276651842984
1769239627380,134,6,6.260048430309197,5.811499119654917,5.406320295432851
1769239627384,132,4,4.910129787093375,3.940762831622163,4.054712257351476
1769239627388,131,3,3.281113738830266,2.8206942788990648,2.4237052900913083
1769239627392,129,1,1.5457327656853446,0.9255246620963776,0.6865002144690542
1769239627396,127,-1,-0.2022641353661329,-1.1146851516577392,-1.0630159564499368
1769239627400,126,-2,-1.941670614134054,-2.121505946664261,-2.803809057139607
1769239627404,124,-4,-3.64617970912163,-4.115670134226008,-4.509792369690602
1769239627408,122,-6,-5.224889666476623,-6.155329150028137,-6.090166149464038
1769239627412,121,-7,-6.5493483613237515,-7.060647956104466,-7.416599971879301
1769239627416,120,-8,-7.544446358461448,-8.195777050780814,-8.414108866709217
1769239627420,119,-9,-8.254063185525549,-8.972608238212546,-9.126269336139297
1769239627424,119,-9,-8.815142304348422,-9.32117677190896,-9.689269856787446
1769239627428,118,-10,-9.353089546796753,-9.907022441046635,-10.22810878410198
1769239627432,118,-10,-9.87844559128736,-10.359521740237236,-10.75384225107499
1769239627436,117,-11,-10.273723312957882,-10.879741171711368,-11.1499127748077
1769239627440,117,-11,-10.395227257123,-11.30083756062782,-11.27310966689413
1769239627444,117,-11,-10.213717347857322,-10.98836621200418,-11.09407723164429
1769239627448,118,-10,-9.868511843233003,-10.23077024819054,-10.75171426747144
1769239627452,118,-10,-9.576393076250092,-10.065337965618257,-10.46211601286205
1769239627456,118,-10,-9.468698181985951,-10.161615166478134,-10.35579045264765
1769239627460,118,-10,-9.495934553888295,-10.038041463822712,-10.383016578366377
1769239627464,118,-10,-9.476335258027987,-10.246906797475765,-10.362983453052038
1769239627468,118,-10,-9.243326682706597,-9.97326656056275,-10.130641798264412
1769239627472,119,-9,-8.775312390677831,-9.328037477088053,-9.665119478295928
1769239627476,119,-9,-8.21350202586805,-8.906712449937846,-9.106874716204654
1769239627480,120,-8,-7.759764560900407,-8.281150796395728,-8.656221363866186
1769239627484,120,-8,-7.5318858329736,-8.037867267091489,-8.429819746857477
1769239627488,120,-8,-7.481887169392154,-8.142904045958874,-8.37965704387977
1769239627492,120,-8,-7.436017411159916,-8.225131410120277,-8.332903935704707
1769239627496,120,-8,-7.223542210245055,-7.942292844299053,-8.120184531691258
1769239627500,121,-7,-6.795344330805705,-7.319791669815409,-7.693457789916316
1769239627504,121,-7,-6.248804812472679,-6.928832557462361,-7.150143025164319
1769239627508,122,-6,-5.754645761060457,-6.313070799798193,-6.65974086345578
1769239627512,122,-6,-5.450246528432328,-6.023764221691501,-6.3578744272109216
1769239627516,122,-6,-5.371324928414852,-6.173778303849917,-6.279276015318754
1769239627520,122,-6,-5.450249493870382,-6.087227797461007,-6.357000005495097
1769239627524,122,-6,-5.561273783868803,-6.14894322414643,-6.467193219698777
1769239627528,122,-6,-5.5792562930189415,-6.116590582122279,-6.486117684886696
1769239627532,122,-6,-5.433320413479978,-6.197962551239964,-6.342566676583546
1769239627536,122,-6,-5.142041864308976,-6.0343229138775465,-6.053726664027886
1769239627540,123,-5,-4.805447789496986,-5.207070955737896,-5.718819703537689
1769239627544,123,-5,-4.543261154142348,-5.0420496822263745,-5.457789345220796
1769239627548,123,-5,-4.418862121932307,-5.219189403630887,-5.3343362689365135
1769239627552,123,-5,-4.4116507497686825,-5.104086421478203,-5.32776222003079
1769239627556,123,-5,-4.454383569854185,-5.139028645531392,-5.370811513081468
1769239627560,123,-5,-4.4905177465338735,-5.111544345826683,-5.407355578535439
1769239627564,123,-5,-4.501236146296938,-5.116031029301073,-5.418960014756122
1769239627568,123,-5,-4.4944856637605,-5.167264957785399,-5.413474488263237
1769239627572,123,-5,-4.481972117243803,-5.138785955610372,-5.4022681131791686
1769239627576,123,-5,-4.468059959279333,-5.141665042996111,-5.389596637278156
1769239627580,123,-5,-4.454133011127208,-5.09395752002048,-5.376925805878257
1769239627584,123,-5,-4.44736030524141,-5.134648450666697,-5.3712869270527195
1769239627588,123,-5,-4.4610164010123725,-5.1515762343047005,-5.385576517568303
1769239627592,123,-5,-4.500512964520642,-5.149285770425877,-5.425146071959119
1769239627596,123,-5,-4.542501587070761,-5.167566697887843,-5.46722772304793
1769239627600,123,-5,-4.528944492782069,-5.042348186206887,-5.454424553218139
1769239627604,123,-5,-4.397056159184303,-5.206598940572925,-5.323857195820912
1769239627608,123,-5,-4.134629364310933,-5.056766230224778,-5.062682679651816
1769239627612,124,-4,-3.8109469508356217,-4.267543592728285,-4.7399176344855825
1769239627616,124,-4,-3.5409657982568588,-4.0552769128089,-4.470805141828496
1769239627620,124,-4,-3.4054160413268284,-4.155519119211604,-4.33619059073018
1769239627624,124,-4,-3.3992248435094634,-4.092897224146695,-4.330660921991624
1769239627628,124,-4,-3.451544527981981,-4.16636973198962,-4.383177304812058
1769239627632,124,-4,-3.489796807823137,-4.179137417871456,-4.421536690529681
1769239627636,124,-4,-3.4879836367912707,-4.136690496813069,-4.420257331856736
1769239627640,124,-4,-3.4667018575263944,-4.089723616152325,-4.39998760401631
1769239627644,124,-4,-3.4582181432986654,-4.133449182676388,-4.3926009092905325
1769239627648,124,-4,-3.472709369184312,-4.154401080841177,-4.40797345247735
1769239627652,124,-4,-3.49114340251154,-4.173990801150746,-4.427159888803743
1769239627656,124,-4,-3.4839969097806915,-4.183243823186277,-4.420754888766953
1769239627660,124,-4,-3.436864151931589,-4.003741243910846,-4.374076842578229
1769239627664,124,-4,-3.362159761966456,-4.2493860802634025,-4.29926695424836
1769239627668,124,-4,-3.2849859066038176,-4.015152138601044,-4.221978843104409
1769239627672,125,-3,-3.21116274381698,-3.3407937640066754,-4.149067549377502
1769239627676,124,-4,-3.1123990606683973,-4.020839726516368,-4.052230455004527
1769239627680,124,-4,-2.958943804235527,-4.155043364159775,-3.900318899713176
1769239627684,125,-3,-2.770202900596575,-3.1139003754086407,-3.711703476301186
1769239627688,125,-3,-2.61183786837266,-3.1241503315786803,-3.5526678479966813
1769239627692,125,-3,-2.525547867509186,-3.285225454357793,-3.4662252567922156
1769239627696,125,-3,-2.4701860766624564,-3.0231021539951084,-3.4116837059234344
1769239627700,125,-3,-2.3501809210057685,-3.219735324776897,-3.292940349219185
1769239627704,125,-3,-2.110118982746282,-2.992798492350998,-3.0539841793213403
1769239627708,126,-2,-1.8000463973729524,-2.2818157059639823,-2.744732291223987
1769239627712,126,-2,-1.543053283585652,-2.1193616331583187,-2.4883394063542217
1769239627716,126,-2,-1.4321760367178706,-2.183766337204307,-2.37779864685779
1769239627720,126,-2,-1.4494463593922635,-2.0935399564366373,-2.395210385638393
1769239627724,126,-2,-1.4767491255760743,-2.082574951844497,-2.422785374903947
1769239627728,126,-2,-1.3889119776980108,-2.2406232632794487,-2.3355771593095502
1769239627732,126,-2,-1.1527475957100348,-2.1051790490333957,-2.100352029546512
1769239627736,127,-1,-0.8463500009669693,-1.2626642781475776,-1.7951382744808415
1769239627740,127,-1,-0.5768446794371265,-0.9522749158895668,-1.5268623601970948
1769239627744,127,-1,-0.371911337102667,-1.2975646556321518,-1.3225673815953087
1769239627748,127,-1,-0.150477100674836,-0.9616155789989566,-1.1007406351914502
1769239627752,128,0,0.2027678061656135,-0.4438368439956783,-0.7468088677945516
1769239627756,128,0,0.7329373005130142,0.1063521861645302,-0.2170347788389321
1769239627760,129,1,1.364796416761052,0.6773496493035718,0.4130132044514663
1769239627764,129,1,1.931609864832779,1.0417938129089632,0.9777148708061684
1769239627768,130,2,2.257433198770491,1.752168595870932,1.3022694568465285
1769239627772,130,2,2.2464364215399177,1.749064923426794,1.2908830506572526
1769239627776,129,1,1.9259125903211551,1.0129418669849406,0.9702083347431504
1769239627780,129,1,1.412410752952226,0.6596264315594131,0.4563742306689726
1769239627784,128,0,0.8298571217227833,0.1699311457672865,-0.1267015951528853
1769239627788,128,0,0.249965658825962,-0.4836713489197776,-0.70718098482205
1769239627792,127,-1,-0.3018696000140601,-0.934073643637392,-1.2596216756647614
1769239627796,127,-1,-0.7987001151610273,-1.359660991772448,-1.757140830825789
1769239627800,126,-2,-1.1836633742126643,-1.9463117470777231,-2.1429596342305786
1769239627804,126,-2,-1.3993264731163009,-2.2201376587743717,-2.359651174462485
1769239627808,126,-2,-1.451090699803232,-2.1289423917212753,-2.412620517592025
1769239627812,126,-2,-1.437986392971469,-2.2476068644884206,-2.4010166028349076
1769239627816,126,-2,-1.5048163173527955,-2.092950510139214,-2.4696873935725625
1769239627820,126,-2,-1.7405623802269037,-2.1718517825666375,-2.7071150276667826
1769239627824,125,-3,-2.104434359181486,-3.0337991604280616,-3.0714472203316183
1769239627828,125,-3,-2.4443592251140847,-3.304588171085004,-3.410013696119756
1769239627832,125,-3,-2.59420691761371,-3.0783151469869585,-3.5577488900386123
1769239627836,125,-3,-2.4752610222236413,-3.2645293542907474,-3.4384551363659406
1769239627840,125,-3,-2.138228989004401,-2.988361528376279,-3.1050026212638073
1769239627844,126,-2,-1.7324856423220154,-2.224773596673898,-2.7063673731407905
1769239627848,126,-2,-1.4281003208115643,-2.131028069729713,-2.408597498053223
1769239627852,126,-2,-1.3317648286939456,-2.2434880960143357,-2.3125390117299807
1769239627856,126,-2,-1.432275929513712,-2.11524575341978,-2.4043193279838473
1769239627860,126,-2,-1.5955755418388344,-2.117666172860822,-2.5550088404676323
1769239627864,126,-2,-1.6266516683054475,-2.118722590703709,-2.5811223541287376
1769239627868,126,-2,-1.40803197342959,-2.2210979892989693,-2.374351482333206
1769239627872,126,-2,-1.0547831742908609,-2.1846172149081564,-2.0468241149286115
1769239627876,126,-2,-0.9121769865938782,-2.1406087844892667,-1.9276780511159215
1769239627880,126,-2,-1.2135248238139242,-2.128023717470678,-2.2319557371583736
1769239627884,127,-1,-1.4545864125114178,-1.074203771631267,-2.4501386951610593
1769239627888,129,1,0.0576387884488802,0.6965163430714312,-0.9025094380259038
1769239627892,133,5,5.836591600986138,4.926158032898341,4.901996072143833
1769239627896,144,16,17.79514956362243,15.734700768471969,16.860624865021006
1769239627900,161,33,35.446359007741265,33.03656815280637,34.486367216287675
1769239627904,182,54,55.064573591856806,53.75828483012032,54.06624406470022
1769239627908,200,72,70.7908633999868,71.88360739120314,69.75829875478792
1769239627912,207,79,77.33463351229703,78.68906625881125,76.28642867621821
1769239627916,200,72,72.6365369351471,71.88358828835365,71.59859777974688
1769239627920,185,57,58.764190062289046,56.82978952660066,57.75805026448355
1769239627924,167,39,40.55898853189139,38.92190595772716,39.589526032968976
1769239627928,150,22,23.087192612535407,21.82514045540606,22.138724501317544
1769239627932,137,9,9.55024976689814,8.809288122409885,8.595877691646509
1769239627936,129,1,0.6911906452175698,0.8349324296551026,-0.2907696114824454
1769239627940,124,-4,-4.421943239751862,-4.19213683484528,-5.4359616163527
1769239627944,120,-8,-7.153515039434973,-8.062662797949415,-8.186351323332515
1769239627948,118,-10,-8.500473673997602,-10.213500083344911,-9.5314521373373
1769239627952,118,-10,-8.999930549551024,-10.095858047776852,-10.014998037427004
1769239627956,119,-9,-8.987045041681545,-9.274143952463898,-9.986897335510768
1769239627960,119,-9,-8.750420518511312,-9.118873324114064,-9.746909530987097
1769239627964,119,-9,-8.480035924848561,-9.15850063215936,-9.484694219385457
1769239627968,119,-9,-8.203577047700062,-9.136680180211057,-9.218738417870313
1769239627972,119,-9,-7.863274893348535,-9.109130734698866,-8.882963653534532
1769239627976,120,-8,-7.455208708170056,-8.295230299853674,-8.473190266148936
1769239627980,121,-7,-7.0614984486464785,-7.076368990548812,-8.077422279581123
1769239627984,121,-7,-6.751083304815795,-7.2639423232123725,-7.76887346598797
1769239627988,120,-8,-6.4973702352137535,-8.002970398713392,-7.519371983279581
1769239627992,121,-7,-6.224553684272415,-7.22791183207661,-7.249267476494557
1769239627996,122,-6,-5.907959575695244,-6.189740962263137,-6.933190343310133
1769239628000,122,-6,-5.589043755085823,-6.15838755246678,-6.61496826053371
1769239628004,122,-6,-5.299993715697734,-6.253538486866684,-6.32819331452732
1769239628008,122,-6,-5.010798416821838,-5.940014936592647,-6.0417329632345895
1769239628012,123,-5,-4.659450248447232,-5.368553691229367,-5.692126880227544
1769239628016,123,-5,-4.213684862604952,-4.949803464540691,-5.247263258496419
1769239628020,124,-4,-3.693456195019186,-4.497590188850202,-4.728267010185483
1769239628024,124,-4,-3.145043641123419,-3.8468593916777,-4.182072726168533
1769239628028,125,-3,-2.604883604570254,-3.4091959976326938,-3.644677335813156
1769239628032,125,-3,-2.0869335562440448,-2.8648671603545948,-3.1290440600046185
1769239628036,126,-2,-1.5958729186731673,-2.439669113641173,-2.639284398749113
1769239628040,126,-2,-1.1419973471935547,-2.05780763090854,-2.186208709613351
1769239628044,127,-1,-0.7347662239161323,-1.2268601365219611,-1.780440113849015
1769239628048,127,-1,-0.362672268863236,-1.1225813787700756,-1.4109055203522485
1769239628052,127,-1,0.0076277813567067,-1.0487035176382764,-1.043272921878446
1769239628056,128,0,0.4015331608830923,-0.3433483528937593,-0.6509247708283847
1769239628060,128,0,0.8122092798950842,-0.0757160473594984,-0.2409380938235269
1769239628064,129,1,1.2197465867634962,0.7002657369598021,0.1653013267326653
1769239628068,129,1,1.6330221924832964,1.0254704637882048,0.5759679222479757
1769239628072,129,1,2.0944198547311377,0.7417025081248421,1.0345094699314603
1769239628076,130,2,2.633049353000391,1.917011847943019,1.5713999856291512
1769239628080,131,3,3.226348305776744,2.635801694413976,2.163960475071068
1769239628084,131,3,3.824445419105837,2.96642563301967,2.7610938040114332
1769239628088,132,4,4.4083701514717095,3.8095558065617943,3.343173421680225
1769239628092,132,4,5.007652981285151,3.895223527962793,3.94019375047613
1769239628096,133,5,5.654063120707437,4.821600663868005,4.584572941450199
1769239628100,134,6,6.324726212058276,5.684861801781646,5.253493272050267
1769239628104,134,6,6.938160306388992,5.923056857306157,5.865225188031067
1769239628108,135,7,7.409272288148936,6.877007317410554,6.334681605755681
1769239628112,135,7,7.712983178490298,6.790291815986955,6.636972876050992
1769239628116,135,7,7.902120461220528,6.9614033928774415,6.824880969352614
1769239628120,136,8,8.066125725105689,7.5049676347241245,6.987568190030452
1769239628124,135,7,8.26291674220529,7.121832074579384,7.182842395873913
1769239628128,136,8,8.474639185072618,7.677626270906691,7.39299359210785
1769239628132,136,8,8.620689085762322,7.98692821193742,7.537476842290072
1769239628136,136,8,8.616690665918647,7.773754327403292,7.531824546220371
1769239628140,136,8,8.426047963359167,7.657330334091786,7.339515912511221
1769239628144,135,7,8.056508149525007,7.0066183007548535,6.968570759629628
1769239628148,135,7,7.511082003051799,6.745830874351019,6.422093814990878
1769239628152,134,6,6.749764930714075,5.974980789528278,5.659797218211146
1769239628156,133,5,5.7048850108220694,4.736656436429628,4.613571808236114
1769239628160,132,4,4.338522679057107,3.7146289253723817,3.2453357884525933
1769239628164,130,2,2.6903786841978548,1.9419229213662752,1.5952721869794826
1769239628168,128,0,0.8714107508100701,-0.2091624549587046,-0.2247601017909217
1769239628172,126,-2,-0.991065411041566,-2.0257042750201415,-2.0871865579091766
1769239628176,125,-3,-2.801856445874014,-3.31474671045808,-3.897859335215588
1769239628180,123,-5,-4.497615542571389,-5.187252683223128,-5.594743868528636
1769239628184,121,-7,-6.020425022445883,-7.201561207169657,-7.119910157103537
1769239628188,120,-8,-7.315403303204995,-8.032248466257062,-8.417145904167253
1769239628192,119,-9,-8.356458962695061,-9.218771380915296,-9.459176272847817
1769239628196,118,-10,-9.158807099199109,-10.127196636930227,-10.261265283198384
1769239628200,118,-10,-9.753646574537962,-10.352464826683002,-10.855722802157327
1769239628204,117,-11,-10.148888716551568,-11.074747929211547,-11.25161066045372
1769239628208,117,-11,-10.321362658800805,-11.12248173614059,-11.425865535441408
1769239628212,117,-11,-10.25850606351163,-11.161295470099908,-11.364798170908449
1769239628216,117,-11,-10.013169778571228,-11.1670335785196,-11.1200510571458
1769239628220,118,-10,-9.706963300473037,-10.320838129732495,-10.81338112795898
1769239628224,118,-10,-9.458454418219356,-10.105373926303647,-10.564740713311863
1769239628228,118,-10,-9.2966699881286,-10.096312344070022,-10.404005501601858
1769239628232,118,-10,-9.153460007157388,-10.18528847188344,-10.26221251617544
1769239628236,118,-10,-8.951871781433352,-10.156797704599796,-10.0610809103894
1769239628240,119,-9,-8.696818657327903,-9.322600635315847,-9.80550470675372
1769239628244,119,-9,-8.46611101952246,-9.10236808368212,-9.574476568606812
1769239628248,119,-9,-8.314223899377975,-9.10139415556034,-9.423087385463834
1769239628252,119,-9,-8.201387869632578,-9.173763037118444,-9.310889602407697
1769239628256,119,-9,-8.026349672381322,-9.195377111159406,-9.135905100222722
1769239628260,120,-8,-7.722554761352172,-8.271856316356953,-8.831868314851299
1769239628264,120,-8,-7.319088918139428,-8.146839469689873,-8.4284461080609
1769239628268,120,-8,-6.918115158614338,-8.059936887800767,-8.027674680487024
1769239628272,121,-7,-6.617914646484828,-7.200239563490195,-7.727434042501216
1769239628276,121,-7,-6.441974027546947,-7.212626036919753,-7.551318598664407
1769239628280,121,-7,-6.325536526299196,-7.232447336068752,-7.434782632996647
1769239628284,121,-7,-6.174633239824024,-7.189176404660645,-7.283528387776259
1769239628288,121,-7,-5.950887232249496,-7.00879429749038,-7.058860529813963
1769239628292,122,-6,-5.699701534903573,-6.250919709257381,-6.806695940836461
1769239628296,122,-6,-5.490338501169866,-6.184816754572512,-6.597089250314811
1769239628300,122,-6,-5.333911696250187,-6.2494743749281865,-6.440959378271669
1769239628304,122,-6,-5.17249652673237,-6.175767040554659,-6.279291148707488
1769239628308,122,-6,-4.9494420947055895,-6.00730826537223,-6.054962219988306
1769239628312,123,-5,-4.677824142061296,-5.274387946922888,-5.781903000082584
1769239628316,123,-5,-4.433060167286407,-5.1462985582113525,-5.536502113701657
1769239628320,123,-5,-4.2864258005684395,-5.310948650643078,-5.3897896325805545
1769239628324,123,-5,-4.252223784641199,-5.08894396703612,-5.355072367406191
1769239628328,123,-5,-4.2892614876743895,-5.108062229093231,-5.390802899870306
1769239628332,123,-5,-4.338525866846377,-5.1805874288868115,-5.438500399252801
1769239628336,123,-5,-4.360659174064084,-5.226861069315696,-5.459281877423394
1769239628340,123,-5,-4.352024634965838,-5.2524120613122465,-5.4494116500555165
1769239628344,123,-5,-4.334590578319936,-5.11846882120738,-5.430671925813537
1769239628348,123,-5,-4.328898297719444,-5.100673504485037,-5.423792893452338
1769239628352,123,-5,-4.333504903691743,-5.181291857278049,-5.427562159246491
1769239628356,123,-5,-4.3319932425893946,-5.23206243066249,-5.425285660678587
1769239628360,123,-5,-4.320602571633677,-5.247610433037781,-5.412573833147909
1769239628364,123,-5,-4.32185786058981,-5.119646976966459,-5.411724075158939
1769239628368,123,-5,-4.359345223768309,-5.094500150998329,-5.446857971466909
1769239628372,123,-5,-4.413797384687864,-5.204680043350568,-5.499418917232288
1769239628376,123,-5,-4.412455030937624,-5.191568758022742,-5.496662532633108
1769239628380,123,-5,-4.279207379415964,-5.31254916107809,-5.3618269284449465
1769239628384,123,-5,-4.00781414571501,-5.02859075598142,-5.088385609306661
1769239628388,124,-4,-3.683859996084229,-4.2020572773000975,-4.762559776117049
1769239628392,124,-4,-3.425482082071961,-4.086892830748269,-4.503068689920116
1769239628396,124,-4,-3.2986330971660305,-4.318158810104592,-4.375217865487503
1769239628400,124,-4,-3.2871622138550527,-4.1916575488318575,-4.361580296131787
1769239628404,124,-4,-3.3310104419082225,-4.141585576482534,-4.401917343040928
1769239628408,124,-4,-3.3772852756323797,-4.103991295810054,-4.444651104445361
1769239628412,124,-4,-3.3988937898424805,-4.155159323182975,-4.464007415371625
1769239628416,124,-4,-3.3887880730862525,-4.281369415632465,-4.4528564804476245
1769239628420,124,-4,-3.356836749361889,-4.206945931424373,-4.419861545462677
1769239628424,124,-4,-3.330738964379874,-4.148250653123313,-4.391734180040228
1769239628428,124,-4,-3.3425212315524524,-4.087026463598483,-4.400541938669666
1769239628432,124,-4,-3.39822902362897,-4.158871891331236,-4.453062412026911
1769239628436,124,-4,-3.456554762971043,-4.300822125462518,-4.508556684907752
1769239628440,124,-4,-3.444006821346034,-4.167022316678392,-4.493447065641655
1769239628444,124,-4,-3.304161646527857,-4.219429882268329,-4.350853182322783
1769239628448,124,-4,-3.044309820503269,-3.9874421697470313,-4.0880076740446825
1769239628452,125,-3,-2.7378955638165507,-3.2656122114984263,-3.7789877009109207
1769239628456,125,-3,-2.4779290923183797,-3.191010467895047,-3.5173237626443754
1769239628460,125,-3,-2.3237053676029253,-3.2844353321256263,-3.3617599686010076
1769239628464,125,-3,-2.2849105910861125,-3.1103834853337964,-3.3206888678682924
1769239628468,125,-3,-2.3388141594063043,-3.090707576963968,-3.3706889655412597
1769239628472,125,-3,-2.443105577847236,-3.1575881268782844,-3.470112832474708
1769239628476,125,-3,-2.5309981720897445,-3.2938622559169928,-3.5536199806135085
1769239628480,125,-3,-2.5161967725801624,-3.193322887717109,-3.535950573037144
1769239628484,125,-3,-2.3349287398490897,-3.2013393735530684,-3.3531797096349827
1769239628488,125,-3,-2.007322616849679,-3.0049412562167905,-3.024308861792687
1769239628492,126,-2,-1.6594229446087931,-2.225904466117845,-2.6742493936884904
1769239628496,126,-2,-1.4617717893479356,-2.2292686384178975,-2.473249177520705
1769239628500,126,-2,-1.5114311963692098,-2.264929519777711,-2.5189119799043436
1769239628504,126,-2,-1.7482129215465965,-2.135014024546902,-2.751657496380777
1769239628508,125,-3,-1.985024685313447,-3.0758919607054844,-2.9844623392475627
1769239628512,125,-3,-2.042076142741637,-3.1476575715133333,-3.0375027362007128
1769239628516,126,-2,-1.87737677872106,-2.2904431645112853,-2.8694176095121504
1769239628520,126,-2,-1.6024500859797826,-2.225121810785697,-2.5925023889966834
1769239628524,126,-2,-1.3804824200926014,-2.161724983982556,-2.3694574875327143
1769239628528,126,-2,-1.30840746469941,-2.060973974734673,-2.29542546589684
1769239628532,126,-2,-1.37442578573895,-2.166114169685833,-2.35727512901524
1769239628536,126,-2,-1.4941737499994177,-2.2524762931928084,-2.4712518390591387
1769239628540,126,-2,-1.5706173469257791,-2.287510871125742,-2.5423621498240747
1769239628544,126,-2,-1.534736540256521,-2.0736857035937817,-2.503120334551102
1769239628548,126,-2,-1.3645380715309172,-2.1728921105788688,-2.3311944346174904
1769239628552,126,-2,-1.0944161228180755,-2.040089208325138,-2.0593729444466597
1769239628556,127,-1,-0.8066450724237431,-1.3765169224210525,-1.7688349968347934
1769239628560,127,-1,-0.5872777417611355,-1.1789072695459355,-1.5458276390277916
1769239628564,127,-1,-0.4629753859046919,-1.1515470394892255,-1.4176130562403393
1769239628568,127,-1,-0.3718727884589961,-1.1440887171472658,-1.3224082375337838
1769239628572,127,-1,-0.2007227342714235,-1.01037234367578,-1.146838374501873
1769239628576,128,0,0.1401447843973384,-0.4766771409086912,-0.80161499495221
1769239628580,128,0,0.6614656190979611,0.0045996869310793,-0.2767248938750599
1769239628584,129,1,1.2885994504222404,0.5888056298437874,0.3529447101616583
1769239628588,129,1,1.8918343300111564,1.1828374466614264,0.9582138284863152
1769239628592,130,2,2.3292125069148866,1.6050381835997156,1.397946850023957
1769239628596,130,2,2.4882006483816808,1.9351095848060085,1.5601678686269445
1769239628600,130,2,2.318852060934323,1.594685724655771,1.3949988008001502
1769239628604,129,1,1.8504044770086183,0.9791251067277564,0.9311867486122104
1769239628608,129,1,1.1860345301617463,0.8256384951790776,0.2711272233368538
1769239628612,128,0,0.4726691100251508,-0.0823548392550617,-0.4385831243336962
1769239628616,127,-1,-0.1539110208824261,-1.3368475846021843,-1.061818636386734
1769239628620,127,-1,-0.6256305640981195,-1.162278279838682,-1.5303303596993891
1769239628624,127,-1,-0.9560152147518703,-1.224919583293202,-1.8580109368028048
1769239628628,126,-2,-1.199141526592525,-2.016201715311573,-2.098802258538716
1769239628632,126,-2,-1.3993817535542508,-2.1866255187631145,-2.295974177015056
1769239628636,126,-2,-1.574816940621654,-2.2992612646655437,-2.4670030350257575
1769239628640,126,-2,-1.7228649954634816,-2.1342004853243015,-2.610371908110406
1769239628644,126,-2,-1.8231467477423795,-2.3060371490327185,-2.707216228438754
1769239628648,125,-3,-1.8471151915343695,-2.884532627464849,-2.7290298517923444
1769239628652,126,-2,-1.7870293929070566,-2.3610039826257987,-2.6666417567666825
1769239628656,126,-2,-1.677859168618082,-2.100984227925531,-2.553707126250925
1769239628660,126,-2,-1.5792559022514283,-2.347320146479549,-2.4499100704521304
1769239628664,126,-2,-1.5306820202504103,-2.080294715076171,-2.396278596570507
1769239628668,126,-2,-1.5252576578000243,-2.0963702468563628,-2.3881755326096563
1769239628672,126,-2,-1.5282496306433049,-2.19151230727551,-2.39177691942558
1769239628676,126,-2,-1.5229394293665577,-2.223250581223674,-2.3879903296945497
1769239628680,126,-2,-1.5369813719865344,-2.2772907707674497,-2.3994766625319497
1769239628684,126,-2,-1.609961874450659,-2.0898015316701803,-2.4623372622193163
1769239628688,126,-2,-1.718518852023835,-2.1208650584178796,-2.5558734517022392
1769239628692,126,-2,-1.743786054853537,-2.1642263581597856,-2.5703607662727745
1769239628696,126,-2,-1.5645634914328523,-2.239008393078989,-2.3940577228490074
1769239628700,126,-2,-1.2408390035374723,-2.29513162603811,-2.0877162379745955
1769239628704,126,-2,-1.0903468414804418,-2.013472962666705,-1.9572123398327657
1769239628708,126,-2,-1.4291186469308723,-2.2450833367130505,-2.300890809059183
1769239628712,126,-2,-1.9707869595575025,-2.0074158333074683,-2.82281730770002
1769239628716,128,0,-1.275007898268702,-0.4206292609792574,-2.0903661478993283
1769239628720,131,3,3.1194068331614044,2.894551906002471,2.337475319804329
1769239628724,140,12,13.50997388021974,11.82855766989338,12.740348601668304
1769239628728,156,28,30.231953790141738,27.910109567227085,29.44918737398447
1769239628732,177,49,50.45677648274348,48.8833019156781,49.64436498140539
1769239628736,198,70,68.73772768743532,69.65604059030674,67.89404429405069
1769239628740,209,81,79.33698397450698,80.84880431186487,78.4749646214136
1769239628744,207,79,78.99555368998429,78.74813403243758,78.13826666854658
1769239628748,195,67,68.38111376082931,66.97698483156485,67.55222508327797
1769239628752,178,50,51.39090868391811,49.71166302585208,50.60177302999575
1769239628756,160,32,32.9802484314286,31.92281793292661,32.22223377170884
1769239628760,145,17,17.00324946687386,16.657724303702732,16.252973404209893
1769239628764,133,5,5.209149971571224,5.010350081326646,4.443478372199863
1769239628768,126,-2,-2.456117180166201,-2.2976244660123175,-3.2467862282087125
1769239628772,121,-7,-6.901196381021901,-7.068691221040947,-7.709863479914926
1769239628776,118,-10,-9.098032338798587,-10.283164233800637,-9.908053409513377
1769239628780,117,-11,-9.819220479792538,-11.10469226807503,-10.615664076461004
1769239628784,118,-10,-9.719750236443703,-10.190289560888088,-10.498338423120586
1769239628788,119,-9,-9.377014620544546,-9.156628512153084,-10.144950764521512
1769239628792,119,-9,-9.153639448861789,-9.233121999405384,-9.92161362595784
1769239628796,118,-10,-9.082851812775722,-10.140637423490425,-9.855256636306937
1769239628800,118,-10,-8.981840516931314,-10.19429708268702,-9.754548148647205
1769239628804,119,-9,-8.708372901995924,-9.08674948590927,-9.475482407112356
1769239628808,120,-8,-8.296383914012527,-8.27667590105169,-9.057439620993376
1769239628812,120,-8,-7.865630743172769,-8.142658574355846,-8.625142141699683
1769239628816,120,-8,-7.468397104399717,-8.221452182837284,-8.2294525741623
1769239628820,120,-8,-7.0682964017086345,-8.102875045400964,-7.828830435173852
1769239628824,121,-7,-6.638784568801866,-7.144900226403152,-7.394708605528489
1769239628828,122,-6,-6.218777594669702,-6.252437702601522,-6.969237079225194
1769239628832,122,-6,-5.851110822184377,-6.164092151423361,-6.599069984170516
1769239628836,122,-6,-5.506805888761781,-6.214112384004299,-6.254816581530086
1769239628840,122,-6,-5.114503687915798,-6.080713593310911,-5.8616329491536225
1769239628844,123,-5,-4.658887448197705,-5.168755610108351,-5.402589306687422
1769239628848,124,-4,-4.209634345703517,-4.228606026480827,-4.949453686162437
1769239628852,124,-4,-3.8356231486001464,-4.19695623159234,-4.573522384197293
1769239628856,124,-4,-3.5157421825284,-4.189236659710839,-4.252973468776515
1769239628860,124,-4,-3.1617292132833588,-4.073088288210075,-3.8969850030976327
1769239628864,125,-3,-2.719235387299217,-3.212493085680462,-3.4506402037788666
1769239628868,126,-2,-2.218071726860592,-2.135626766648257,-2.945939490512454
1769239628872,126,-2,-1.722719354527185,-2.340851164443563,-2.449146789451916
1769239628876,126,-2,-1.264151004321744,-2.0057846218051005,-1.9902778768709208
1769239628880,127,-1,-0.8361473828976074,-1.270271069465,-1.5609449289998558
1769239628884,127,-1,-0.4352491321140492,-1.0291651201386296,-1.1570535142352467
1769239628888,128,0,-0.0725506709032206,-0.2800937855327206,-0.7909067416455998
1769239628892,128,0,0.2583980447879463,-0.2359899950249014,-0.4572847639263746
1769239628896,128,0,0.6071865401344207,-0.0709203116826007,-0.1066244428852385
1769239628900,129,1,1.0441870047771822,0.765661417836917,0.3321501349556446
1769239628904,129,1,1.607074972921604,0.9433302806508208,0.8971390304416369
1769239628908,130,2,2.26689601098651,1.7629339125763708,1.5591866964027656
1769239628912,131,3,2.9453047759623985,2.7041168821407955,2.239518095274781
1769239628916,131,3,3.5683201688356982,3.024464770180132,2.864113435514377
1769239628920,132,4,4.1102995417218535,3.6167371096799066,3.4078768064987193
1769239628924,132,4,4.593681524816152,4.145340872086915,3.8938415733964025
1769239628928,133,5,5.053535206631476,4.515021342217914,4.356948077869068
1769239628932,133,5,5.505325728716107,4.996484018347487,4.811694868694141
1769239628936,134,6,5.941748711917385,5.722267601838845,5.249872054928934
1769239628940,134,6,6.347965258424137,5.895774040663439,5.656908509548071
1769239628944,134,6,6.707536821997024,5.909513601786663,6.017694485437014
1769239628948,135,7,6.995911960142654,6.6913785454235,6.308597204178705
1769239628952,135,7,7.187152016825725,6.899752065656549,6.503183242329517
1769239628956,135,7,7.281360411799068,6.751486976244382,6.600382919665001
1769239628960,135,7,7.31815958735804,6.9219864740631944,6.639324441518644
1769239628964,135,7,7.344284874586544,6.840929292641719,6.667231646587253
1769239628968,135,7,7.355361773358388,6.774919542202541,6.680356561303106
1769239628972,135,7,7.269205834304195,6.840866663924988,6.5964620827100955
1769239628976,135,7,6.965015127515163,6.777572566419759,6.294238592439195
1769239628980,134,6,6.359080552422618,5.946116001148183,5.689960922608966
1769239628984,133,5,5.449637271430637,4.7471023857930925,4.782586275577588
1769239628988,132,4,4.297407815151911,3.9338526044101023,3.633357821970636
1769239628992,131,3,2.9749513535885335,2.630317592570534,2.314379593977131
1769239628996,129,1,1.537008646475548,1.048351740420213,0.8794214800821833
1769239629000,128,0,0.0253920924310619,-0.3629971797187101,-0.6302331970388342
1769239629004,126,-2,-1.514607310663738,-1.9258368750967452,-2.1689832516231102
1769239629008,125,-3,-3.02937489875685,-3.407069167543832,-3.682305913809441
1769239629012,123,-5,-4.466276037692363,-5.016946434233186,-5.11671432971984
1769239629016,122,-6,-5.781283391448049,-6.286153778183753,-6.428170203404027
1769239629020,121,-7,-6.929394181533649,-7.047440324271387,-7.572597821814205
1769239629024,120,-8,-7.848960293855532,-8.218172290586223,-8.489238292637776
1769239629028,119,-9,-8.474202886221313,-9.154662358794909,-9.112304378316354
1769239629032,119,-9,-8.784578339370624,-9.215191140273337,-9.420740097131556
1769239629036,119,-9,-8.845550551285493,-9.126117046837107,-9.479768074716317
1769239629040,119,-9,-8.789548495454207,-9.163071151112048,-9.42171391836331
1769239629044,119,-9,-8.744276841723135,-9.144496637424467,-9.37386653810434
1769239629048,119,-9,-8.76521508280521,-9.199435268685264,-9.391375329694554
1769239629052,119,-9,-8.818775360654067,-9.199000450930129,-9.441099225737815
1769239629056,119,-9,-8.820382006316978,-9.098785946893967,-9.43936810215305
1769239629060,119,-9,-8.70077431713804,-9.224265412940422,-9.31727581198892
1769239629064,119,-9,-8.459457202051613,-9.046349945408906,-9.073889396828342
1769239629068,120,-8,-8.165106685479731,-8.337826391612042,-8.777305120238626
1769239629072,120,-8,-7.8968979027387425,-8.025584143475514,-8.506321323716294
1769239629076,120,-8,-7.677064918009544,-8.282135928147447,-8.28293023773028
1769239629080,120,-8,-7.458609140789298,-8.034303433760652,-8.060397631172513
1769239629084,121,-7,-7.175481605493403,-7.229840955657114,-7.77367659445775
1769239629088,121,-7,-6.8055044936118385,-7.185132976153587,-7.401324708266469
1769239629092,121,-7,-6.39911737643788,-7.1276367351786405,-6.99317893065213
1769239629096,122,-6,-6.057503607407628,-6.219390148951941,-6.6491347156829805
1769239629100,122,-6,-5.866531569422749,-6.043975553783011,-6.454552388281164
1769239629104,122,-6,-5.824572304851175,-6.282366667905232,-6.408316284982521
1769239629108,122,-6,-5.827282047636206,-6.081459779437975,-6.406761454478332
1769239629112,122,-6,-5.738367949152785,-6.265470990087581,-6.31397283099159
1769239629116,122,-6,-5.495825538985038,-6.04789941664268,-6.068256212343304
1769239629120,123,-5,-5.162179370216604,-5.21688962204386,-5.732360059182389
1769239629124,123,-5,-4.874718979242628,-5.122368103072332,-5.443079504416286
1769239629128,123,-5,-4.741916095462745,-5.227236026307692,-5.307568405450579
1769239629132,123,-5,-4.771427559865118,-5.129228914048192,-5.332607346647382
1769239629136,123,-5,-4.872105580248266,-5.173597243437132,-5.427822973913243
1769239629140,123,-5,-4.911945115560302,-5.087114109938841,-5.462891937229763
1769239629144,123,-5,-4.794287243658187,-5.252596396665508,-5.341883438457031
1769239629148,123,-5,-4.5168831572716215,-5.095739062649246,-5.0618596988489495
1769239629152,124,-4,-4.176691607658022,-4.255203828646479,-4.718910425859756
1769239629156,124,-4,-3.905572831724646,-4.047366551490402,-4.444672985148571
1769239629160,124,-4,-3.78053319763312,-4.2031320947591535,-4.316100401812866
1769239629164,124,-4,-3.78351819439702,-4.143544028539223,-4.314860137749566
1769239629168,124,-4,-3.838533281015837,-4.2003290482788165,-4.364966542523703
1769239629172,124,-4,-3.8797416672107072,-4.161357962107485,-4.401280937816512
1769239629176,124,-4,-3.8877204020968774,-4.112070037039919,-4.405210255026153
1769239629180,124,-4,-3.877278641971124,-4.153590359737041,-4.391658882742059
1769239629184,124,-4,-3.866982022465422,-4.171291424316422,-4.378438004531921
1769239629188,124,-4,-3.863773183794782,-4.1977857436513855,-4.371622060443395
1769239629192,124,-4,-3.8674116144484487,-4.149345751693815,-4.370753502695909
1769239629196,124,-4,-3.877626980795313,-4.118725946164464,-4.376055679362636
1769239629200,124,-4,-3.892264497818419,-4.1397995658915345,-4.386019934715257
1769239629204,124,-4,-3.902862020757955,-4.180482252579868,-4.392471301369504
1769239629208,124,-4,-3.899293222599834,-4.202988306803002,-4.385169834422927
1769239629212,124,-4,-3.8822057754588735,-4.13540805948694,-4.364478936006666
1769239629216,124,-4,-3.8691354496534727,-4.124965723323953,-4.347618861349142
1769239629220,124,-4,-3.883520169583638,-4.127025149032287,-4.357744404994795
1769239629224,124,-4,-3.9312781159636,-4.184172561681344,-4.400708204714476
1769239629228,124,-4,-3.9821230553981017,-4.224759778077906,-4.446518803115858
1769239629232,124,-4,-3.9739453525069286,-4.0877800576190975,-4.433485873413966
1769239629236,124,-4,-3.847148428245348,-4.187853675535182,-4.302182467356401
1769239629240,124,-4,-3.592245217154932,-4.028712848474521,-4.043111890101107
1769239629244,125,-3,-3.2724988324722397,-3.303656440069759,-3.719632791977423
1769239629248,125,-3,-2.9944354749071613,-3.0989930111338704,-3.438205741425538
1769239629252,125,-3,-2.844993986658443,-3.215489525793596,-3.2850803740991896
1769239629256,125,-3,-2.8442051834543483,-3.0575407605415785,-3.279440961369871
1769239629260,125,-3,-2.9406643804325294,-3.1321554642731173,-3.3699737931477527
1769239629264,125,-3,-3.0391209809196327,-3.2356987797176,-3.462583823422319
1769239629268,125,-3,-3.0413972056504717,-3.124308052339144,-3.4601057801447093
1769239629272,125,-3,-2.8915912716422323,-3.2356993082408345,-3.306517401054215
1769239629276,125,-3,-2.610259550327394,-2.981956124766983,-3.021575029648899
1769239629280,126,-2,-2.2891549091169248,-2.23552851817218,-2.696584491466754
1769239629284,126,-2,-2.0369234601784534,-2.1123843730363556,-2.4401888004762737
1769239629288,126,-2,-1.9132366460694787,-2.2578377844236552,-2.3119097029637787
1769239629292,126,-2,-1.9046080100970917,-2.1047646372718356,-2.298045074220359
1769239629296,126,-2,-1.9527335700593764,-2.093515724749315,-2.340642544355916
1769239629300,126,-2,-1.9997295596608944,-2.137135791422652,-2.3826262517146373
1769239629304,126,-2,-2.0158103843989146,-2.180962169309687,-2.3945714300093086
1769239629308,126,-2,-2.0032477925077408,-2.2180593927724965,-2.3782513455526577
1769239629312,126,-2,-1.9845979993635192,-2.119906934772953,-2.3554714014266707
1769239629316,126,-2,-1.9823819435366024,-2.0897131978735497,-2.3485092611560483
1769239629320,126,-2,-2.000354969120205,-2.12467591151916,-2.361444796041655
1769239629324,126,-2,-2.0207751704443813,-2.189543629531156,-2.3769764386963494
1769239629328,126,-2,-2.0223456739709555,-2.2178016412323487,-2.374042711327092
1769239629332,126,-2,-2.0033548389758375,-2.1125957287931794,-2.3509324981339947
1769239629336,126,-2,-1.9869506810555344,-2.094783788158408,-2.3305741461321783
1769239629340,126,-2,-2.0014547577702837,-2.112677921230059,-2.3408985225842933
1769239629344,126,-2,-2.0513557173158294,-2.187046434434093,-2.386108213927685
1769239629348,126,-2,-2.1018874989539924,-2.2431953075885547,-2.431560537086657
1769239629352,126,-2,-2.090285097188856,-2.0628669520590943,-2.414899198252938
1769239629356,126,-2,-1.9616061719364797,-2.161512616608286,-2.2814725160407745
1769239629360,126,-2,-1.7105536478468433,-2.0157052586843687,-2.026123605385147
1769239629364,127,-1,-1.3980158229114892,-1.2926870459870152,-1.7099567352485012
1769239629368,127,-1,-1.1224040816835843,-1.135506444153514,-1.4313712623079875
1769239629372,127,-1,-0.9643600758384387,-1.171617655444968,-1.270194599853926
1769239629376,127,-1,-0.9471478258323804,-1.0468379786768365,-1.248473609501135
1769239629380,127,-1,-1.0334135079014874,-1.1231544920627916,-1.328612956011361
1769239629384,127,-1,-1.145221189875271,-1.182695432438535,-1.4341045651789028
1769239629388,127,-1,-1.1917525095943358,-1.2418179716171625,-1.4760873191642212
1769239629392,127,-1,-1.1064082247549027,-1.0716889235711338,-1.3884235996352088
1769239629396,127,-1,-0.8925914218348652,-1.124605655422904,-1.1728310516179412
1769239629400,127,-1,-0.647018474436448,-1.0621431958158418,-0.9239845785433723
1769239629404,128,0,-0.5136039442485809,-0.2096388662376884,-0.7856594302461413
1769239629408,128,0,-0.5715211240292635,-0.2496729271639283,-0.8385607397394884
1769239629412,127,-1,-0.7497993073904161,-1.0263636313792908,-1.012630260731957
1769239629416,127,-1,-0.8692024440285118,-1.199779469430337,-1.1280384607333331
1769239629420,127,-1,-0.7904763273143183,-0.9535454621080672,-1.0450172741641683
1769239629424,128,0,-0.5285428210206524,-0.3387644264611509,-0.7792259801638238
1769239629428,128,0,-0.2268982057520403,-0.0900852601573334,-0.4749918737136172
1769239629432,128,0,-0.0322634917314521,-0.1932005692860672,-0.2784462645889027
1769239629436,128,0,0.0066565385729429,-0.0370482518704515,-0.236779964373772
1769239629440,128,0,-0.0566045495617768,-0.1043200571238338,-0.2957365754214156
1769239629444,128,0,-0.13286131045556,-0.2117608509045312,-0.3668672828712769
1769239629448,128,0,-0.1644699854222402,-0.1648451759507204,-0.3938760562160015
1769239629452,128,0,-0.1473767161549124,-0.1494831596418929,-0.3735552938727422
1769239629456,128,0,-0.1102032128171197,-0.0529231076441353,-0.334417442433248
1769239629460,128,0,-0.0830416592276372,-0.109805604458897,-0.3056967480841956
1769239629464,128,0,-0.0839057618982963,-0.198700148565213,-0.3044335109155827
1769239629468,128,0,-0.1203863231810828,-0.1556419047037343,-0.3378546445233052
1769239629472,128,0,-0.1828071313847639,-0.1655876032371175,-0.3966981369376173
1769239629476,128,0,-0.2217960491910147,-0.0282898806394154,-0.4320892115171287
1769239629480,128,0,-0.1401256010064475,-0.1371433280126635,-0.3467232365839654
1769239629484,128,0,0.1675141374364996,-0.1812008849543045,-0.0351801718288657
1769239629488,129,1,0.7409867149541469,0.8680387643170544,0.5415185666530236
1769239629492,130,2,1.5042329045590672,1.7810803310569536,1.3059671764171807
1769239629496,130,2,2.274651570922036,2.068650430425056,2.0757273324601333
1769239629500,131,3,2.820160687118928,2.7193445947740207,2.6209486316671375
1769239629504,131,3,2.940268290157693,3.0021697428084613,2.743314936895594
1769239629508,131,3,2.557617375548708,2.6574850765665303,2.36530453011437
1769239629512,130,2,1.7841963744162117,2.0245104753780407,1.5967173507171482
1769239629516,129,1,0.8975643615302051,0.8234378307162389,0.7132002227097229
1769239629520,128,0,0.2015250790552046,-0.0578775047053611,0.018428920700412
1769239629524,128,0,-0.151949838991268,-0.1757872333633522,-0.3345965728279716
1769239629528,128,0,-0.2419176978943454,-0.2099291692049338,-0.4241896228374251
1769239629532,128,0,-0.2870588034144258,-0.027217955392696,-0.4689203412374568
1769239629536,128,0,-0.4586597893559148,-0.1832137608634434,-0.6398029917636242
1769239629540,127,-1,-0.7582754208375471,-1.0130866000353982,-0.9376603845487356
1769239629544,127,-1,-1.054432124121004,-1.260550377627797,-1.2308839796618425
1769239629548,127,-1,-1.220758195496078,-1.0930458039486863,-1.3944674474811438
1769239629552,127,-1,-1.2370607421370836,-1.1313090907801118,-1.409980069703884
1769239629556,127,-1,-1.1779273237892576,-1.0735423017779648,-1.3519617175080605
1769239629560,127,-1,-1.1309910300968131,-1.1175493298007648,-1.3057642256964916
1769239629564,127,-1,-1.1322320927607348,-1.1895648260472331,-1.3052075510141732
1769239629568,127,-1,-1.1606001234020646,-1.1289627478721789,-1.3299422048794052
1769239629572,127,-1,-1.173555592002392,-1.0990064256605216,-1.3409441873313117
1769239629576,127,-1,-1.1470426134364662,-1.0756008538307933,-1.3171076156916866
1769239629580,127,-1,-1.0986821786590106,-1.133653731597238,-1.274650901317758
1769239629584,127,-1,-1.0838728685031391,-1.1829596445171258,-1.2630397616622306
1769239629588,127,-1,-1.1547249737442296,-1.1239170489627734,-1.328686630314965
1769239629592,127,-1,-1.2916262478352405,-1.0880005980140186,-1.4528634459312606
1769239629596,127,-1,-1.3663031280091706,-1.0708720334651458,-1.5166430344751434
1769239629600,127,-1,-1.218117704396492,-1.1437707561939092,-1.37111115202655
1769239629604,127,-1,-0.846580844829714,-1.194230086642588,-1.0192697833966349
1769239629608,127,-1,-0.5565052897291529,-1.0889818844963406,-0.7552350539129274
1769239629612,127,-1,-0.7923425604821659,-1.1228998830964114,-1.0045098388748106
1769239629616,127,-1,-1.55390056290989,-0.9969942259601472,-1.7545412075837354
1769239629620,128,0,-1.7029349081641514,-0.2518022292021417,-1.872341727901224
1769239629624,130,2,1.159768844814448,1.9316636985054032,1.0218625092589817
1769239629628,137,9,9.703693780730646,8.769340915482573,9.578697946389612
1769239629632,151,23,25.014110273792287,23.08396036272321,24.877307436373492
1769239629636,172,44,45.05354585630822,43.811713238868634,44.88708656750108
1769239629640,194,66,64.777714629184,65.96820985644037,64.57645132080673
1769239629644,209,81,78.22108766537501,80.68277897503187,77.99319493316605
1769239629648,210,82,81.36407905101814,81.95645055601712,81.12931177854557
1769239629652,201,73,73.92735561168561,72.82869604466319,73.71023463226203
1769239629656,186,58,59.04579298720436,58.02983239120138,58.86240806299632
1769239629660,169,41,41.31978578057641,40.77737231327954,41.16649283417312
1769239629664,153,25,24.68818451061728,24.96634673837,24.54328597391926
1769239629668,140,12,11.307711884901522,11.750178892657106,11.146194919513428
1769239629672,130,2,1.658323729658635,2.014238756047758,1.46766773722389
1769239629676,124,-4,-4.699940261624002,-4.1491680861473235,-4.91442588113941
1769239629680,119,-9,-8.44524674133204,-9.086565341472182,-8.66724716812066
1769239629684,117,-11,-10.231749399237774,-11.090421895928976,-10.446453369898451
1769239629688,118,-10,-10.70898815481138,-10.186872118540306,-10.912486207382784
1769239629692,118,-10,-10.515004533186746,-10.057870551403711,-10.7143514235844
1769239629696,118,-10,-10.141439814840204,-10.126271185796298,-10.34625893074249
1769239629700,118,-10,-9.822981130047902,-10.106821473706024,-10.036846304865884
1769239629704,118,-10,-9.58928337627754,-10.05236716309276,-9.808680998254465
1769239629708,119,-9,-9.411457678353086,-9.182826675829284,-9.631616261580705
1769239629712,119,-9,-9.280179976800042,-9.065161117093815,-9.500338091150876
1769239629716,119,-9,-9.170768665458793,-9.164143723291238,-9.393736867533615
1769239629720,119,-9,-8.998369225199617,-9.041647280536242,-9.226454334622886
1769239629724,119,-9,-8.658139291347965,-9.12922990114173,-8.890839690702357
1769239629728,120,-8,-8.117785124068662,-8.043241804036377,-8.353380739463747
1769239629732,121,-7,-7.456734318830829,-7.216105351144289,-7.695026129378862
1769239629736,121,-7,-6.809208723068036,-7.044701710033031,-7.051917908756265
1769239629740,122,-6,-6.2748182485052,-6.142180014787983,-6.523451497905265
1769239629744,122,-6,-5.881216045614996,-6.042859539063373,-6.135098963350211
1769239629748,122,-6,-5.6101521143751025,-6.0687526103433935,-5.866967816483267
1769239629752,123,-5,-5.427425151652746,-5.215965896774058,-5.685757960038967
1769239629756,123,-5,-5.270614893659623,-5.035903138435297,-5.531554159054423
1769239629760,123,-5,-5.028364976530707,-5.187586558973231,-5.29416919368878
1769239629764,123,-5,-4.582204072289601,-4.938966835071521,-4.853763526745706
1769239629768,124,-4,-3.906545648348587,-4.188869005313753,-4.1829698830232624
1769239629772,125,-3,-3.123659203610522,-3.0528796646332315,-3.404280287129427
1769239629776,126,-2,-2.4328526945254154,-2.2439343137524697,-2.7185295022835794
1769239629780,126,-2,-1.9676865349104933,-1.9633469583028744,-2.2594072061182944
1769239629784,126,-2,-1.7172871685918287,-2.1558622492811725,-2.0141432056640465
1769239629788,126,-2,-1.5734029012189947,-1.9595785500606653,-1.8731967840880503
1769239629792,127,-1,-1.4278676605811786,-1.2634968549398595,-1.7299285881316255
1769239629796,127,-1,-1.2162191501157102,-1.0611665941975688,-1.5225653778853403
1769239629800,127,-1,-0.9021988112368406,-1.1196214748826767,-1.215268289573826
1769239629804,127,-1,-0.4719501801867043,-1.0042876931167115,-0.791942695869871
1769239629808,128,0,0.0424998847942195,-0.0917506961128922,-0.2827648769437155
1769239629812,129,1,0.5656341159877147,0.8782386954260892,0.2362123065185344
1769239629816,129,1,1.0338230179442076,0.7757632860223682,0.6998610345621259
1769239629820,129,1,1.4473680235441282,1.0771600745196015,1.1080865793273027
1769239629824,130,2,1.858872550893095,1.7737553586152148,1.514112051725912
1769239629828,130,2,2.3149941929005697,2.1663970917017292,1.9650467765409616
1769239629832,131,3,2.81419311880997,2.6103679306446455,2.4592747382488045
1769239629836,131,3,3.3136419697687796,3.0508973731807636,2.9536647502577105
1769239629840,132,4,3.7690682761831833,3.8165995768445415,3.4036502918267075
1769239629844,132,4,4.167166262520476,4.011459011544789,3.79587501466069
1769239629848,132,4,4.519490133133626,3.978703282166951,4.142178320603275
1769239629852,133,5,4.826561268586147,4.753167525348628,4.443383759771579
1769239629856,133,5,5.057217088184734,4.969418558945241,4.668420713631614
1769239629860,133,5,5.1729700664429625,4.844977896960656,4.778883950616519
1769239629864,133,5,5.174587605745613,5.038235485691344,4.775627389868462
1769239629868,133,5,5.122289534463164,4.926582386192223,4.718592629111843
1769239629872,133,5,5.1039313127151615,4.82154499560068,4.694999642951185
1769239629876,133,5,5.166974308822589,4.914860305404173,4.75191863231835
1769239629880,133,5,5.260889133697077,4.886403523095396,4.839085643020902
1769239629884,133,5,5.2391459937906415,5.023616219517914,4.8106499429330025
1769239629888,133,5,4.932480936506954,4.934538776397519,4.4979481679663
1769239629892,132,4,4.247030171150567,3.823221250720433,3.807302358529631
1769239629896,131,3,3.2150349834067953,2.912375408722633,2.7705818468667136
1769239629900,130,2,1.9621440763518927,1.900112434896556,1.5127216730763184
1769239629904,128,0,0.6201189787002273,0.0026100144099784,0.1650045904500168
1769239629908,127,-1,-0.7478289949590753,-1.0148077893756131,-1.2092829178078994
1769239629912,126,-2,-2.152810658888889,-2.2347936568939923,-2.620857934224053
1769239629916,124,-4,-3.614848152582277,-4.020936425230272,-4.089283261740525
1769239629920,123,-5,-5.086134158068817,-5.157087723128196,-5.566268286432527
1769239629924,121,-7,-6.4355544047272275,-6.945906284644299,-6.920477675956736
1769239629928,120,-8,-7.510687379320068,-8.046306273735333,-8.000029460573478
1769239629932,120,-8,-8.223159292532273,-8.203608709950156,-8.717677500846706
1769239629936,119,-9,-8.59033929218663,-9.035334182345052,-9.091396424857852
1769239629940,119,-9,-8.714224264395764,-9.152201302702904,-9.222503132022815
1769239629944,119,-9,-8.724909222544182,-8.921933312270369,-9.23981747903485
1769239629948,119,-9,-8.723291519436,-9.098572258379672,-9.243664984135748
1769239629952,119,-9,-8.746456075103762,-9.111546388987314,-9.271656761724143
1769239629956,119,-9,-8.768601005751751,-9.146893607049629,-9.298873645035968
1769239629960,119,-9,-8.734606689477719,-9.018999198789457,-9.270454982053137
1769239629964,119,-9,-8.605377939325095,-9.057988830433349,-9.146767880418626
1769239629968,119,-9,-8.385745452401796,-8.953144182768053,-8.932236434747697
1769239629972,120,-8,-8.114232082328117,-8.252554172829248,-8.665944094137611
1769239629976,120,-8,-7.824991182549514,-7.989909846171881,-8.382882800010268
1769239629980,120,-8,-7.52595875652873,-8.183585601437564,-8.090702166620463
1769239629984,120,-8,-7.222666806453523,-7.874727106870581,-7.793631165885053
1769239629988,121,-7,-6.953224338846849,-7.147364533124076,-7.529056280029069
1769239629992,121,-7,-6.773891708188933,-7.038202842203049,-7.353862163250655
1769239629996,121,-7,-6.696976592197423,-7.199148654662168,-7.281419299173033
1769239630000,121,-7,-6.653341610360746,-6.96663165971649,-7.243037659420248
1769239630004,121,-7,-6.534514214565315,-7.090134427792181,-7.130024123938231
1769239630008,121,-7,-6.285215148336178,-6.938248895598058,-6.886716228949347
1769239630012,122,-6,-5.960600510215386,-6.2157398415449245,-6.567988050066523
1769239630016,122,-6,-5.689876956967474,-6.033149628681991,-6.302762170305937
1769239630020,122,-6,-5.572496306496461,-6.095392117551961,-6.190232665848219
1769239630024,122,-6,-5.593904066919019,-6.0017685720737095,-6.215967182251467
1769239630028,122,-6,-5.63050635668565,-5.9881629175812785,-6.256907037286924
1769239630032,122,-6,-5.541833486846053,-6.192918495884734,-6.1729793617338435
1769239630036,122,-6,-5.280405241597507,-5.998481419317037,-5.916685166162934
1769239630040,123,-5,-4.930469474462898,-5.157696445907199,-5.572175123090835
1769239630044,123,-5,-4.639463496136724,-4.913085743604865,-5.286782487647411
1769239630048,123,-5,-4.501854350673238,-5.097588164154673,-5.154513465599217
1769239630052,123,-5,-4.499852996112196,-5.062650387934874,-5.157005643319659
1769239630056,123,-5,-4.544372623912423,-5.116078760370729,-5.205315625002378
1769239630060,123,-5,-4.562075863853446,-5.044350829098495,-5.2270260947653755
1769239630064,123,-5,-4.545397311857728,-5.00050970802035,-5.215212326905617
1769239630068,123,-5,-4.533816296993973,-5.038845739146275,-5.2089346149591895
1769239630072,123,-5,-4.5576077904637735,-5.074944138318644,-5.237548081413356
1769239630076,123,-5,-4.595839224328081,-5.131570824381794,-5.27981477385767
1769239630080,123,-5,-4.580352380747543,-4.986855826362476,-5.268094228704474
1769239630084,123,-5,-4.4436330869215785,-5.083393672591574,-5.1354383448229495
1769239630088,123,-5,-4.177355883802689,-4.93108416147618,-4.873611288839244
1769239630092,124,-4,-3.853330765362194,-4.1849876672677455,-4.554263448499685
1769239630096,124,-4,-3.5817968721269726,-4.005923420655622,-4.287440151345249
1769239630100,124,-4,-3.437915120930742,-4.104595246703927,-4.147969544487179
1769239630104,124,-4,-3.419003486762925,-3.969338198436972,-4.132867888428931
1769239630108,124,-4,-3.463068457426187,-4.033980271429969,-4.180288369874896
1769239630112,124,-4,-3.502612464534049,-4.089026995216228,-4.223245976058963
1769239630116,124,-4,-3.506805881702066,-4.06542947188958,-4.231219855127286
1769239630120,124,-4,-3.4863252518846823,-4.059213843040811,-4.214736073293867
1769239630124,124,-4,-3.4674943097273476,-3.99226445657362,-4.199836948539342
1769239630128,124,-4,-3.462431250440025,-4.024972995969396,-4.198594108968942
1769239630132,124,-4,-3.4608425216505525,-4.083033244345344,-4.200845501327038
1769239630136,124,-4,-3.4481201614520476,-4.057051617209703,-4.191983335934377
1769239630140,124,-4,-3.428904940664598,-4.060469016151782,-4.176408746867605
1769239630144,124,-4,-3.42825719881071,-3.990164625779534,-4.178962149875181
1769239630148,124,-4,-3.463175834212476,-4.017001244384374,-4.216768043568205
1769239630152,124,-4,-3.5087185325815735,-4.100348443831342,-4.265287569445183
1769239630156,124,-4,-3.496028870128065,-4.000884869850442,-4.255863422159003
1769239630160,124,-4,-3.357220011089612,-4.134565758329755,-4.120358743667091
1769239630164,124,-4,-3.086626490307582,-3.891325576145784,-3.85288276968064
1769239630168,125,-3,-2.760948616270956,-3.1258473137506377,-3.530426723304215
1769239630172,125,-3,-2.4913753933844327,-2.9801911044484672,-3.264520859858834
1769239630176,125,-3,-2.348511138773382,-3.099473399753775,-3.1253582163600253
1769239630180,125,-3,-2.327858495520745,-3.041729397689316,-3.1075927629731037
1769239630184,125,-3,-2.375152897454391,-2.9755514084538266,-3.1568372561680973
1769239630188,125,-3,-2.4311874428142373,-3.0405915183325054,-3.2147629581683344
1769239630192,125,-3,-2.454620837308312,-3.062292982386125,-3.2408386721242186
1769239630196,125,-3,-2.421723173619709,-2.973191684694372,-3.211148175012224
1769239630200,125,-3,-2.323842183980616,-3.2061451229896143,-3.1162923145596313
1769239630204,125,-3,-2.168992931859011,-2.76138332885833,-2.9640459512960926
1769239630208,126,-2,-1.9780105130958852,-2.3027505828029877,-2.7756257949538514
1769239630212,125,-3,-1.7753049551026328,-2.741817801904605,-2.5756082953514836
1769239630216,126,-2,-1.586125937013629,-2.3066805921749545,-2.388923444568201
1769239630220,126,-2,-1.4383536018859795,-1.857476859281615,-2.2432920556944747
1769239630224,126,-2,-1.3537625536332976,-2.107725017760787,-2.160786139564231
1769239630228,126,-2,-1.3315586212171104,-1.9754936578870337,-2.140882115702258
1769239630232,126,-2,-1.3456018159831236,-2.0081162280376086,-2.157331958456774
1769239630236,126,-2,-1.3627971052216536,-2.088349961465909,-2.176767379051612
1769239630240,126,-2,-1.3653804765057842,-2.002850645016823,-2.181310296963724
1769239630244,126,-2,-1.3569179142259458,-2.02904727211975,-2.174655969660684
1769239630248,126,-2,-1.3495345680456592,-1.9949782618614331,-2.169187977038797
1769239630252,126,-2,-1.3474649846344935,-2.0078383274954215,-2.1693326733231864
1769239630256,126,-2,-1.3437383490116606,-2.058289722770265,-2.1680591278375143
1769239630260,126,-2,-1.332109930130196,-2.034730258659492,-2.1587645404193876
1769239630264,126,-2,-1.3195760384755806,-1.9997635162926035,-2.1480005141381437
1769239630268,126,-2,-1.3229110453280444,-2.0117791300017056,-2.1524281049419187
1769239630272,126,-2,-1.3487081719580205,-1.984114123136752,-2.179150759461273
1769239630276,126,-2,-1.3758099502351402,-2.0541197193607825,-2.20786223681387
1769239630280,126,-2,-1.3626876370676817,-2.061177502817598,-2.1973538947157847
1769239630284,126,-2,-1.2831527468951185,-1.936782778785641,-2.1206224983416204
1769239630288,126,-2,-1.1628960236799126,-2.11544888129498,-2.0021189865522144
1769239630292,126,-2,-1.0733475531301,-1.809129155696876,-1.913158889450385
1769239630296,127,-1,-1.0680023612467022,-1.2718646821226005,-1.908519584918099
1769239630300,126,-2,-1.1137427630132897,-1.7889737431207262,-1.9560110616000197
1769239630304,126,-2,-1.1012833554735506,-2.251833896340902,-1.9456207368251797
1769239630308,126,-2,-0.94558650525342,-1.7694353804864895,-1.7911712318133786
1769239630312,127,-1,-0.67587622470625,-1.145004335801572,-1.5221725440738525
1769239630316,127,-1,-0.4148289439730264,-0.9368603863143756,-1.2625671056739014
1769239630320,127,-1,-0.2694646808684073,-1.070096609569141,-1.1197386735826462
1769239630324,127,-1,-0.2465735357281635,-1.044260595881524,-1.09942254797346
1769239630328,127,-1,-0.2632259474553666,-0.9002203670007733,-1.1174372430793995
1769239630332,127,-1,-0.221015606485629,-1.0783614694140025,-1.075148270090676
1769239630336,127,-1,-0.0653167857821404,-0.9102386878367876,-0.9189207237704188
1769239630340,128,0,0.2155652948925674,-0.1357497814165805,-0.6384584400666083
1769239630344,128,0,0.6262005744860566,0.0441760253235165,-0.2296973685840949
1769239630348,128,0,1.1706206533612096,-2.7402319845215573e-05,0.3122471187739974
1769239630352,129,1,1.8070421786016968,1.0271706681349784,0.9466962971752996
1769239630356,130,2,2.407713994865247,2.024616625450313,1.5460823535078925
1769239630360,130,2,2.7907532949736176,1.921592751370491,1.92807986562626
1769239630364,130,2,2.8139705420469183,1.9959190795668005,1.950271497149997
1769239630368,130,2,2.4571758497974736,2.044353042833121,1.5925466105792578
1769239630372,129,1,1.8314463637886471,0.9686600131935852,0.966119191671547
1769239630376,128,0,1.1102588327760388,0.1454719349996764,0.2445403146103608
1769239630380,128,0,0.4342102361079445,-0.2276054303492261,-0.4318360016251824
1769239630384,127,-1,-0.1381817532928695,-0.81265058556006,-1.0050870750781962
1769239630388,127,-1,-0.6051881807113155,-1.1852848235515934,-1.4737572145506856
1769239630392,126,-2,-0.966831049764612,-1.767294915442038,-1.837256300809087
1769239630396,126,-2,-1.2046358818878822,-2.107604804956784,-2.0761953124001287
1769239630400,126,-2,-1.3081403255210675,-1.9668408263762855,-2.1800181001949546
1769239630404,126,-2,-1.3051244916859774,-2.05183811287853,-2.1773933021685177
1769239630408,126,-2,-1.256355651043639,-1.986102880161596,-2.1299085826859416
1769239630412,126,-2,-1.2200581363418948,-1.904956879369371,-2.0955185288227303
1769239630416,126,-2,-1.2202776527325738,-2.006236452466432,-2.097023086643266
1769239630420,126,-2,-1.2439365890652516,-2.0072031954066443,-2.1203277005407553
1769239630424,126,-2,-1.2627865059422216,-2.0480031268931507,-2.137716619290112
1769239630428,126,-2,-1.2578730771735973,-1.9718475279953256,-2.1324620835152657
1769239630432,126,-2,-1.2297034935748152,-1.90807018593537,-2.1072678213780387
1769239630436,126,-2,-1.195911678242607,-1.9942952143203505,-2.079309322275748
1769239630440,126,-2,-1.1850145657050497,-1.9943772949368177,-2.072981820519408
1769239630444,126,-2,-1.222974136271595,-2.069037239229437,-2.1090726912506983
1769239630448,126,-2,-1.3041306608372825,-1.9592454956867535,-2.1808536473555264
1769239630452,126,-2,-1.3643711558480534,-1.8801891824192132,-2.2305505522697593
1769239630456,126,-2,-1.3086615887814808,-2.0473866007288457,-2.1738871349769573
1769239630460,126,-2,-1.1227750457306072,-1.872834221374566,-2.0029135803588964
1769239630464,126,-2,-0.9915277136937856,-2.252232216284598,-1.8963822095808276
1769239630468,125,-3,-1.2317488380425432,-2.7261440041299054,-2.1543954750515537
1769239630472,126,-2,-1.8893617715963311,-2.136176540751282,-2.8076695034628303
1769239630476,126,-2,-2.14207260333351,-1.7509891310661687,-3.0332340710055865
1769239630480,128,0,-0.0278383786374765,-0.1534328627378429,-0.885003176252878
1769239630484,134,6,6.930125111234769,6.011114016157383,6.092280579892593
1769239630488,146,18,20.185030821130432,18.06309818684888,19.339757540504248
1769239630492,164,36,38.56537411564688,36.04082167326676,37.690371871292655
1769239630496,185,57,57.88228391480459,57.20351684465078,56.97134669707861
1769239630500,202,74,72.42331855605198,73.79414480486011,71.48738160210591
1769239630504,206,78,77.66861660583598,78.13399463346198,76.72871720939045
1769239630508,200,72,72.5304311662421,71.72363649529768,71.60774520845388
1769239630512,186,58,59.64114380294666,58.47099793563861,58.74798860836399
1769239630516,169,41,43.59203770689234,40.673642057359515,42.726572869478986
1769239630520,154,26,28.44634144966503,26.519820774861888,27.59293814379039
1769239630524,146,18,16.19690512275255,17.427169086135077,15.333431057637377
1769239630528,135,7,6.90222433500528,7.457057648511851,6.012880030775586
1769239630532,127,-1,-0.1269725609496745,-1.2525867426600126,-1.0409040728263057
1769239630536,121,-7,-5.316018623061481,-6.676349490420427,-6.2376199248786905
1769239630540,118,-10,-8.670124321671,-10.02656978573509,-9.580899215116933
1769239630544,117,-11,-10.212947780291648,-11.091552514843322,-11.106995229279391
1769239630548,117,-11,-10.35130407247414,-10.873683602207985,-11.237265811097195
1769239630552,118,-10,-9.797007385937397,-10.082282876397464,-10.687977979716209
1769239630556,118,-10,-9.194735806403946,-9.727900077568938,-10.09660452526761
1769239630560,118,-10,-8.837729670272237,-10.101262874826617,-9.74581508773198
1769239630564,118,-10,-8.684526056988675,-9.881535800445397,-9.589921470684155
1769239630568,119,-9,-8.573015377030679,-9.130496615137009,-9.471549833473722
1769239630572,119,-9,-8.39537454480746,-8.788846329930012,-9.290499362823418
1769239630576,119,-9,-8.127821237593265,-9.048814755606642,-9.025605998079037
1769239630580,119,-9,-7.786194428274353,-8.776015555992977,-8.688832297234406
1769239630584,120,-8,-7.398305448446146,-8.16356729397097,-8.303025496425011
1769239630588,120,-8,-6.994885041132972,-7.848626011891366,-7.898193899907543
1769239630592,121,-7,-6.586588689998587,-7.043999283795745,-7.4881237389344575
1769239630596,121,-7,-6.145586642384955,-6.8253691118996365,-7.047507262992444
1769239630600,121,-7,-5.637860446194638,-6.980106025144323,-6.541577595846812
1769239630604,122,-6,-5.0898559316815595,-5.9461493023035406,-5.994594756384874
1769239630608,123,-5,-4.602128995325332,-5.033441996917661,-5.506519354572004
1769239630612,123,-5,-4.26478047682965,-4.864606167606945,-5.168589730967403
1769239630616,123,-5,-4.053639050285579,-4.997698493853928,-4.957479032160206
1769239630620,123,-5,-3.8267875279143153,-4.822475805711228,-4.730926358780822
1769239630624,124,-4,-3.4366592084310423,-4.078595256499534,-4.340727452358296
1769239630628,124,-4,-2.8523139085031346,-3.8686736305969367,-3.7559548610307383
1769239630632,125,-3,-2.180459175003993,-3.0348681568305564,-3.0840047967888164
1769239630636,126,-2,-1.5707575793733923,-1.802553007062504,-2.4751444935949496
1769239630640,126,-2,-1.0950725864187127,-2.0543216292170268,-2.000797145184414
1769239630644,126,-2,-0.7117319643787683,-1.8127207406393595,-1.6179017661012705
1769239630648,127,-1,-0.3373074487201837,-1.1067726684190768,-1.2422715797825767
1769239630652,127,-1,0.0637913161319363,-0.8140328365750483,-0.8393344673902385
1769239630656,128,0,0.4677789918204285,0.0274402449022221,-0.4345772996922949
1769239630660,128,0,0.8505733586240405,0.0574252333262736,-0.0524243208134601
1769239630664,128,0,1.2306248846768582,0.1409371717342811,0.3268377657716763
1769239630668,129,1,1.644454638885423,0.9173090101431134,0.7407799108633619
1769239630672,129,1,2.094608179329188,1.205232040559713,1.191517260949865
1769239630676,130,2,2.5373985834267403,1.9866656741362896,1.6344610861912643
1769239630680,130,2,2.92116699767388,2.1271581846001784,2.01819713989865
1769239630684,130,2,3.23045006065339,2.0518366631401137,2.3283333349685655
1769239630688,131,3,3.499746945616237,3.0512207978250743,2.599483734905796
1769239630692,131,3,3.7967412305063624,3.0609613361849273,2.8980224914754524
1769239630696,131,3,4.184620136928598,3.1502505869006625,3.286001906538212
1769239630700,132,4,4.672855722753038,3.9658280074414,3.773324041759893
1769239630704,132,4,5.187232655582431,4.2209791769289025,4.28722785994929
1769239630708,133,5,5.600040088447324,4.89208958096589,4.700922443013991
1769239630712,133,5,5.818550350244869,5.249207620156245,4.921299777007792
1769239630716,133,5,5.8659897072994465,4.948871940877904,4.970542649629291
1769239630720,133,5,5.876542778179896,5.179943062014701,4.982298756186728
1769239630724,133,5,5.991503172141185,5.023153748284013,5.098203502896494
1769239630728,133,5,6.235762039870622,5.0716988441708954,5.343573797446604
1769239630732,134,6,6.4838607368109304,6.144383073046105,5.592707386806034
1769239630736,134,6,6.549009632838976,6.001196344247904,5.658419728577231
1769239630740,133,5,6.310272350215377,5.177977164875655,5.420142248095847
1769239630744,133,5,5.76112860017273,4.999641691239654,4.8721055491048855
1769239630748,132,4,4.955087174801432,4.110222783735445,4.067859924831267
1769239630752,131,3,3.926790922111846,3.137756161396091,3.041440882887339
1769239630756,130,2,2.669655767225049,2.004038942314712,1.7859978277133888
1769239630760,128,0,1.179519698743912,0.1994210910140137,0.297623605340825
1769239630764,127,-1,-0.4850212607880237,-1.043300143990855,-1.365024891037328
1769239630768,125,-3,-2.184994832482972,-2.815630080625454,-3.0632570802829733
1769239630772,123,-5,-3.7546338855987,-4.9324077082711995,-4.63132659426575
1769239630776,122,-6,-5.09511908168871,-5.901323160776366,-5.970105311019769
1769239630780,121,-7,-6.227824677854798,-6.881691968157476,-7.100957405963911
1769239630784,120,-8,-7.249203916339004,-7.989528509960323,-8.120693962573915
1769239630788,119,-9,-8.222483420781597,-8.813682624137217,-9.092505292259766
1769239630792,118,-10,-9.10766246900829,-9.962930017290178,-9.975636928506344
1769239630796,117,-11,-9.793690017433132,-10.823342671176349,-10.65847532145952
1769239630800,117,-11,-10.194516791274609,-10.972016320648368,-11.055681592685946
1769239630804,117,-11,-10.3136255845614,-10.902600022860645,-11.17223521758645
1769239630808,117,-11,-10.227537961420945,-10.853903926343763,-11.085052353510353
1769239630812,117,-11,-10.027003706468646,-10.949897236406931,-10.883393391619636
1769239630816,117,-11,-9.77902181337077,-10.774730766076884,-10.632665200187017
1769239630820,118,-10,-9.5214329010332,-10.077584394664292,-10.371094549281802
1769239630824,118,-10,-9.26477829770388,-9.74097369781607,-10.110957410639292
1769239630828,118,-10,-8.999328523761275,-10.03281859266988,-9.84322075427962
1769239630832,118,-10,-8.722453471098902,-9.734929927567745,-9.564295810615276
1769239630836,119,-9,-8.464974649994929,-8.980662334620842,-9.304051102031597
1769239630840,119,-9,-8.27273752690342,-8.897156577176595,-9.108426674349442
1769239630844,119,-9,-8.151651498574925,-8.872434964836811,-8.983710318143508
1769239630848,119,-9,-8.041382670864715,-8.921639361034018,-8.869613421482175
1769239630852,119,-9,-7.855019754215728,-8.798826937987593,-8.679494707027867
1769239630856,120,-8,-7.546791018327704,-7.936748305228797,-8.368221882169863
1769239630860,120,-8,-7.147279681205307,-7.920091835585985,-7.966339713678557
1769239630864,120,-8,-6.746449680624366,-7.84914407586563,-7.56272784850036
1769239630868,121,-7,-6.440439342568681,-6.913451431928358,-7.252770414763408
1769239630872,121,-7,-6.267312528874449,-6.811502692239219,-7.075120540221583
1769239630876,121,-7,-6.172309784137941,-6.908167551848232,-6.9759110312977475
1769239630880,121,-7,-6.045439145259814,-6.949783332962337,-6.845059507377937
1769239630884,121,-7,-5.816122819774802,-6.803569796292676,-6.6114925781184315
1769239630888,122,-6,-5.5182280574655636,-5.94633605093164,-6.309392694961725
1769239630892,122,-6,-5.257556933169578,-5.754591856826782,-6.045276652228133
1769239630896,122,-6,-5.117302825050199,-5.971552999785571,-5.902053305449771
1769239630900,122,-6,-5.098823053449978,-5.8693724222554176,-5.879805676263258
1769239630904,122,-6,-5.143248922176474,-5.888053667613054,-5.918966949059656
1769239630908,122,-6,-5.190703126908161,-5.844661426982441,-5.960440313340096
1769239630912,122,-6,-5.2139972081648605,-5.824872868882078,-5.978408947273196
1769239630916,122,-6,-5.212378514576343,-5.910245668400738,-5.972686162406753
1769239630920,122,-6,-5.193789665844227,-5.908220087112551,-5.950640542854594
1769239630924,122,-6,-5.169786903125104,-5.864121129079477,-5.9228539219568495
1769239630928,122,-6,-5.15868183251473,-5.8368746867914,-5.907056199826935
1769239630932,122,-6,-5.179554855470091,-5.822756712357578,-5.922376016609253
1769239630936,122,-6,-5.232924338047377,-5.891218817122249,-5.969846478516202
1769239630940,122,-6,-5.283755531196109,-5.940446338566075,-6.015076349132972
1769239630944,122,-6,-5.268304215932233,-5.81101561080483,-5.994615308554181
1769239630948,122,-6,-5.131671749723094,-5.8918590090170415,-5.853230127473592
1769239630952,122,-6,-4.874537616668055,-5.72639296069338,-5.591046997901344
1769239630956,123,-5,-4.567626027733246,-4.993467412055753,-5.278726122000528
1769239630960,123,-5,-4.311479686332318,-4.824362203802286,-5.017224405548152
1769239630964,123,-5,-4.171472136637434,-4.931614606158638,-4.872108769809846
1769239630968,123,-5,-4.145315119763638,-4.753468926405929,-4.840762552677258
1769239630972,123,-5,-4.185514974466032,-4.83896452252475,-4.875268868104152
1769239630976,123,-5,-4.244665693114136,-4.889725399442882,-4.928162157797658
1769239630980,123,-5,-4.297883384807152,-4.890302260094014,-4.974922850510387
1769239630984,123,-5,-4.328464207828372,-4.903321203406966,-4.999360368672551
1769239630988,123,-5,-4.303110891803001,-4.718832812527275,-4.9683477302654415
1769239630992,123,-5,-4.176072236803655,-4.898190256713962,-4.835718328712748
1769239630996,123,-5,-3.930925074303546,-4.787709287251274,-4.584608827329993
1769239631000,124,-4,-3.618658915709839,-4.006966764664618,-4.266296987668175
1769239631004,124,-4,-3.3418286491545444,-3.7731279804524336,-3.983971013531512
1769239631008,124,-4,-3.1895270807711564,-3.8308660321968193,-3.826479984241341
1769239631012,124,-4,-3.182035933769203,-3.774612201656176,-3.8128622546597186
1769239631016,124,-4,-3.268906793551314,-3.89718140908872,-3.8919709358318983
1769239631020,124,-4,-3.36676611792127,-3.9047116582974457,-3.981540911524648
1769239631024,124,-4,-3.39827675339639,-3.85211502097633,-4.006236966812175
1769239631028,124,-4,-3.3181156069691373,-3.74542094521852,-3.921312361546911
1769239631032,124,-4,-3.1355533633723756,-3.829777073569813,-3.7343010097980023
1769239631036,124,-4,-2.925812971058107,-3.8450702441280167,-3.5183711523070915
1769239631040,125,-3,-2.7946843167566233,-2.954954025473537,-3.3794049552441754
1769239631044,125,-3,-2.7928159777103185,-2.780955933197991,-3.3698094699714254
1769239631048,124,-4,-2.8560372009263904,-3.812018671775178,-3.426273733483381
1769239631052,124,-4,-2.8541760659366058,-3.7304930671100376,-3.417922849639394
1769239631056,125,-3,-2.714441278235748,-2.954608354370296,-3.2714552430574466
1769239631060,125,-3,-2.490783389715441,-2.8430714526845415,-3.0412760499762497
1769239631064,125,-3,-2.311196710381513,-2.8567102457321476,-2.855577491871478
1769239631068,125,-3,-2.265514499945413,-2.7391357177386726,-2.8035250815372024
1769239631072,125,-3,-2.337377163824511,-2.7676594690368352,-2.868256197378437
1769239631076,125,-3,-2.42372316122786,-2.948116183521269,-2.9470592984974946
1769239631080,125,-3,-2.414338799986938,-2.8229647305682324,-2.930214757588199
1769239631084,125,-3,-2.271482911537547,-2.8575961142752178,-2.780005992153792
1769239631088,125,-3,-2.0520810059029944,-2.727307615087402,-2.5534761622988427
1769239631092,126,-2,-1.8526849252770543,-1.744972239528216,-2.347747166770953
1769239631096,126,-2,-1.7246713886969092,-2.008716441423123,-2.214157059749025
1769239631100,125,-3,-1.645232002191832,-2.7233819760992697,-2.1285411805661885
1769239631104,126,-2,-1.5713448642167145,-1.959574879664113,-2.0467210596477696
1769239631108,126,-2,-1.5015665754108087,-1.594462429777315,-1.968060314520295
1769239631112,126,-2,-1.4650110181383602,-1.8649201883639557,-1.923602313481117
1769239631116,126,-2,-1.4605012313935992,-1.8964985832008645,-1.912915892981204
1769239631120,126,-2,-1.4331897031857874,-1.8141427056759896,-1.880056902288468
1769239631124,126,-2,-1.3206058994939034,-1.876556913385492,-1.7610707979022455
1769239631128,126,-2,-1.111175520759612,-1.633479119908038,-1.5440502707400068
1769239631132,127,-1,-0.8442195040317895,-0.8251856132812492,-1.269145125350119
1769239631136,127,-1,-0.5496512031334229,-0.9233780933873648,-0.9670573570216264
1769239631140,127,-1,-0.1975062776196066,-0.7899346542214232,-0.6077737904948154
1769239631144,128,0,0.2801284292700394,0.1162111888008079,-0.1229418692581136
1769239631148,128,0,0.909309775178912,0.3848528985890067,0.513544805157703
1769239631152,129,1,1.6098793736950432,1.1896013366954348,1.2211037928500923
1769239631156,130,2,2.2064993113676974,2.0527554512697037,1.8240099105294028
1769239631160,130,2,2.512121607566418,2.25083136078736,2.135403161991531
1769239631164,130,2,2.423283465630645,2.069316385192982,2.052638475200241
1769239631168,129,1,1.96200001071332,1.460721885935362,1.598532239987254
1769239631172,129,1,1.249449598822749,1.125305522335117,0.8943145902712661
1769239631176,128,0,0.4466654505196263,0.123806014707624,0.1002933449650003
1769239631180,127,-1,-0.2980084288860023,-0.8035948169179598,-0.6361956435235057
1769239631184,127,-1,-0.8795421762484679,-0.8833198640268922,-1.210909627984437
1769239631188,126,-2,-1.2505618500761888,-1.5421361265645834,-1.5765007811143668
1769239631192,126,-2,-1.4310033636078752,-1.882163931504596,-1.7519099001642595
1769239631196,126,-2,-1.5102653514011646,-1.834759581808263,-1.8252647350752629
1769239631200,126,-2,-1.6173178777177566,-1.8555740283534932,-1.9252069087260617
1769239631204,126,-2,-1.8477485156567848,-1.8271041788303737,-2.1480926064782833
1769239631208,125,-3,-2.189979171092249,-2.54976741106856,-2.483126975575243
1769239631212,125,-3,-2.518621173234795,-2.9100556496718935,-2.8048360475380303
1769239631216,125,-3,-2.6741704335866796,-2.7368699066801887,-2.953002620142939
1769239631220,125,-3,-2.5725511670702472,-3.009608788085016,-2.843235276599758
1769239631224,125,-3,-2.262138485423087,-2.6129919016136016,-2.5249732342243885
1769239631228,126,-2,-1.8876337673903043,-1.7604644511158882,-2.145085588171278
1769239631232,126,-2,-1.5942559411247943,-1.694275216977588,-1.8497833642002357
1769239631236,126,-2,-1.453919953427745,-1.918860135370376,-1.7083663356444516
1769239631240,126,-2,-1.463611079856907,-1.8669746171892871,-1.7124357411461455
1769239631244,126,-2,-1.5803557560627568,-1.7025596929158855,-1.815497018353089
1769239631248,126,-2,-1.7278847916651836,-1.6803506886126711,-1.94419322368569
1769239631252,126,-2,-1.7852798424274248,-1.733414446156413,-1.9868578546434936
1769239631256,126,-2,-1.640395399575537,-1.878650778891819,-1.8409099080347529
1769239631260,126,-2,-1.3302379461322729,-1.9204196049955804,-1.5447042799586317
1769239631264,126,-2,-1.125738014448893,-1.6147177464723943,-1.3580510014285665
1769239631268,126,-2,-1.3365531492689124,-1.771428052913127,-1.5726810361771508
