timestamp_ms,ecg_u8_raw,ecg_counts_raw_int,ecg_counts_filt_monitor,ecg_counts_filt_diagnostic,ecg_counts_filt_st
1769145327604,126,-2,-1.6171680598900104,-0.9675705626751896,-0.98092987308992
1769145327608,126,-2,-1.6606024532996788,-1.0571227169649289,-1.0299074172842744
1769145327612,126,-2,-1.7233716898560745,-1.1048830190328989,-1.0971080405526437
1769145327616,126,-2,-1.726909751567448,-1.0105209849351693,-1.1030388524576296
1769145327620,126,-2,-1.5854138751481623,-1.117257458417148,-0.9622187812069218
1769145327624,126,-2,-1.279512271261536,-0.8256293044760756,-0.6579546178711626
1769145327628,127,-1,-0.9061093820260602,-0.2278379468519069,-0.2913073482381436
1769145327632,127,-1,-0.6550271069622938,0.0807553903135773,-0.0538929150754292
1769145327636,127,-1,-0.7084002809247284,-0.2030187444143334,-0.1234185227804063
1769145327640,126,-2,-1.0972152489729243,-0.9666287726350012,-0.5216252057721051
1769145327644,126,-2,-1.5534591913185902,-0.9104736540380152,-0.9739769228085412
1769145327648,127,-1,-1.4190339775306342,-0.2181610785117884,-0.825578658633976
1769145327652,128,0,0.2537439532788426,1.1708094755130758,0.8594560209571339
1769145327656,132,4,4.269615511183638,4.606275001490049,4.874388745326235
1769145327660,137,9,10.602568367479329,10.312313491202154,11.190603961000583
1769145327664,145,17,17.87880538922491,17.740533776844092,18.44153364133354
1769145327668,151,23,23.575850266589946,24.192588971571137,24.115622923221924
1769145327672,154,26,25.101963327600515,26.72214521248019,25.62910660235224
1769145327676,150,22,21.226649457039656,23.027832434917755,21.754313651252
1769145327680,140,12,12.912385962713918,12.865579788022004,13.45199889959638
1769145327684,129,1,2.9141081021205606,2.1322495834870354,3.4706287828731908
1769145327688,122,-6,-5.614701299859815,-5.127401238147323,-5.04683730776875
1769145327692,117,-11,-10.586222991616102,-9.947831114169206,-10.021680357736871
1769145327696,116,-12,-11.6574633661185,-11.22400998518874,-11.111400798208898
1769145327700,118,-10,-9.916851405714445,-8.907018315814156,-9.395361370094012
1769145327704,121,-7,-6.9954826657654285,-6.127181669514919,-6.492808211382272
1769145327708,123,-5,-4.226877698249499,-3.89859650599368,-3.730510272580673
1769145327712,125,-3,-2.2688575488562246,-2.1481080485599344,-1.7677483058265313
1769145327716,126,-2,-1.2023020758588063,-1.0430365997089943,-0.6928697050578176
1769145327720,127,-1,-0.8295170066513442,-0.0622544277771086,-0.3163219757731672
1769145327724,127,-1,-0.8951882894873364,-0.0430348585632511,-0.3862635233228495
1769145327728,126,-2,-1.1614862596457742,-0.9452099770171414,-0.662064191765587
1769145327732,126,-2,-1.4289998160635862,-1.1169888361698332,-0.9387958659368908
1769145327736,126,-2,-1.5740057241338006,-1.0254218631360623,-1.0896464014803455
1769145327740,126,-2,-1.5779052562608429,-1.1177239096387104,-1.0969761018763342
1769145327744,126,-2,-1.5056736297451734,-0.9879205765939044,-1.0281869443984673
1769145327748,126,-2,-1.443908584658454,-1.013887775034956,-0.9708074964728224
1769145327752,126,-2,-1.44411229338977,-1.0406976413861675,-0.975497675214506
1769145327756,126,-2,-1.5001160057206928,-1.0684092991593803,-1.0352187656380982
1769145327760,126,-2,-1.5573911178999131,-1.1196401697183422,-1.0957527950933368
1769145327764,126,-2,-1.5414529824522056,-0.9655412815333309,-1.0835201097568683
1769145327768,126,-2,-1.3976695066036329,-1.0786573537349975,-0.944154006338754
1769145327772,126,-2,-1.1299781676268963,-0.9294742326243732,-0.6810960630460547
1769145327776,127,-1,-0.8105746554824231,-0.1904888459664986,-0.3661927255034691
1769145327780,127,-1,-0.5412238051187124,0.0040417471255664,-0.1013622843843096
1769145327784,127,-1,-0.3906432771744558,-0.110664315189487,0.0446431551647137
1769145327788,127,-1,-0.3606310099918552,0.0533590351061861,0.0704725008912678
1769145327792,127,-1,-0.4040184939398459,-0.0321108337826765,0.0236784192085173
1769145327796,127,-1,-0.4662407958664937,-0.1074884192762803,-0.0414882266981744
1769145327800,127,-1,-0.5094786760424885,-0.0462857676648513,-0.0880975578478759
1769145327804,127,-1,-0.5085075722568174,-0.1179360865423355,-0.0915542172246441
1769145327808,127,-1,-0.4409110142755306,0.085949754483193,-0.0290217859114851
1769145327812,127,-1,-0.2967354973190882,-0.0658156372767098,0.1106496517525492
1769145327816,127,-1,-0.1002158017660624,-0.0767173388454562,0.3037857591080847
1769145327820,128,0,0.0932988709875424,0.949467655556596,0.4941539864337977
1769145327824,128,0,0.2385629974906308,0.8262014126232322,0.6354121060880028
1769145327828,127,-1,0.3357625663278834,0.1780120093872141,0.7280354895640551
1769145327832,128,0,0.4140754419411804,0.8207291747673422,0.8023355898155803
1769145327836,128,0,0.4873689601334942,1.056343138214459,0.8724117737992932
1769145327840,128,0,0.5427929232284527,0.8125217850316631,0.9245297649006068
1769145327844,128,0,0.5729890519017953,0.9391369284845016,0.9506798312722624
1769145327848,128,0,0.605982535431507,1.0817395725930787,0.979301503600304
1769145327852,128,0,0.6955623024905121,0.8922777582112221,1.0650816962999727
1769145327856,128,0,0.8833920470666614,1.0181539025495776,1.249902364017212
1769145327860,129,1,1.174026312590492,1.8299490081455485,1.5374926641606843
1769145327864,129,1,1.5458121359716086,1.9169597718614635,1.90534890301214
1769145327868,129,1,1.9753250123740809,2.1064168685437616,2.330349747745647
1769145327872,130,2,2.4399059551548063,2.8506447935625863,2.7909619797180256
1769145327876,130,2,2.9006989621460715,3.0898685400884673,3.2488034685088207
1769145327880,131,3,3.3001496920310003,3.722828120474323,3.6454853679564874
1769145327884,131,3,3.587454610556169,4.05399256769428,3.929078012026043
1769145327888,131,3,3.7444452700884057,3.924453194519567,4.081427230142372
1769145327892,131,3,3.780612077861169,4.065745689847935,4.113250064172403
1769145327896,131,3,3.7064687674930146,3.855510587197616,4.036062476990761
1769145327900,131,3,3.526098125981315,3.959698379327587,3.853537894183701
1769145327904,131,3,3.2645726249355587,3.82811990036584,3.589487097124251
1769145327908,130,2,2.9903185158639007,3.1108697217486307,3.311724430633067
1769145327912,130,2,2.7841178622218425,2.9269296255925914,3.1014986616491145
1769145327916,130,2,2.6692833208714566,2.9342328937434643,2.98270907616757
1769145327920,130,2,2.575342882299733,2.9493306540324316,2.884909527247443
1769145327924,130,2,2.38188478459385,2.7626072189226476,2.6876252181870655
1769145327928,129,1,2.008670239111402,2.2475247182550233,2.310985115253891
1769145327932,129,1,1.4758149144902246,1.7128051734479524,1.7754833642275267
1769145327936,128,0,0.8899083051379926,1.2005481239416658,1.187449654636073
1769145327940,128,0,0.3723282805606058,0.6551507578803069,0.6675120590578982
1769145327944,127,-1,-0.0181672481614814,0.0517349526176473,0.2738286416190177
1769145327948,127,-1,-0.3172876064180956,0.0009570558796765,-0.0294271831804833
1769145327952,127,-1,-0.6212028295388885,-0.125842227789334,-0.3379849135177417
1769145327956,126,-2,-1.014803207415648,-0.8618878234982079,-0.7357634138606761
1769145327960,126,-2,-1.518151741072475,-1.3951228669138596,-1.241940919078556
1769145327964,125,-3,-2.082188733337286,-1.7937749485060612,-1.80765239609172
1769145327968,125,-3,-2.618703764722347,-2.243931256349681,-2.3459552832241792
1769145327972,124,-4,-3.038077814637504,-2.8279952261920034,-2.7682473722980863
1769145327976,124,-4,-3.2851381182835486,-3.1815857562445413,-3.019125834715772
1769145327980,124,-4,-3.3649132924983363,-3.089164998622068,-3.1026771585316713
1769145327984,124,-4,-3.3391251531777044,-3.0635626747694245,-3.080119732920025
1769145327988,124,-4,-3.287376335133906,-3.0307674790282433,-3.031312482777222
1769145327992,124,-4,-3.2601276536768937,-2.987533977275143,-3.0071324172477985
1769145327996,124,-4,-3.2615053932501388,-3.0773698891495616,-3.011693971415843
1769145328000,124,-4,-3.2716460485281846,-3.15543684306558,-3.0247736859564447
1769145328004,124,-4,-3.279859128984703,-3.0331811946075797,-3.035512883586605
1769145328008,124,-4,-3.2918559659386397,-3.029894849634839,-3.0499208194839147
1769145328012,124,-4,-3.3062921834468924,-3.030021735499406,-3.0670559951295977
1769145328016,124,-4,-3.294056216056156,-2.9865346181574135,-3.0578331613533263
1769145328020,124,-4,-3.2130388566391357,-3.3139855770657447,-2.979922096520193
1769145328024,124,-4,-3.0483267614097103,-2.81206088808126,-2.818414252119101
1769145328028,125,-3,-2.8340213744578437,-2.3084544462552077,-2.607498335856514
1769145328032,124,-4,-2.6320897892345276,-2.7132902650387907,-2.4087425472376287
1769145328036,125,-3,-2.488204305968227,-2.3212741877676053,-2.2672217467392946
1769145328040,125,-3,-2.3986378944219187,-1.9960506615508988,-2.179397599505134
1769145328044,125,-3,-2.308023017835567,-2.1064334733480212,-2.090884965757925
1769145328048,125,-3,-2.1450462256320293,-2.057291817660334,-1.9310093054724864
1769145328052,125,-3,-1.8819639617073949,-1.9059040944221808,-1.6716863300342275
1769145328056,126,-2,-1.5714477766444626,-1.1996246078117367,-1.3647455740119776
1769145328060,126,-2,-1.3182507267581505,-1.0530814984972077,-1.1142784288974596
1769145328064,126,-2,-1.2011216546337464,-1.1253074277142132,-0.9989748264543628
1769145328068,126,-2,-1.2103723378992668,-0.968820660018177,-1.00991672183912
1769145328072,126,-2,-1.253599839464989,-1.061726684801814,-1.0557918836077715
1769145328076,126,-2,-1.227668552185148,-0.9941782007016228,-1.0335918515020637
1769145328080,126,-2,-1.1056578719683796,-1.3014515633761454,-0.9151523747716346
1769145328084,126,-2,-0.9662772498179324,-0.8605411399988736,-0.7780636021967748
1769145328088,127,-1,-0.9243066388346696,-0.2250297541298938,-0.7375912330656229
1769145328092,126,-2,-1.011163775197498,-0.8463037911986389,-0.8265137184130276
1769145328096,126,-2,-1.1262702606121318,-1.149223853075357,-0.944708059049376
1769145328100,126,-2,-1.1256537362534915,-1.242211737559578,-0.9474934548990754
1769145328104,126,-2,-0.9675194224348306,-0.8246449162503209,-0.7923594923839286
1769145328108,127,-1,-0.764638612151859,-0.3564230944555884,-0.5919650146256967
1769145328112,126,-2,-0.6864486420013253,-0.6194431806356917,-0.5159223067072118
1769145328116,127,-1,-0.80318845184517,-0.4570414990423306,-0.6347408310171252
1769145328120,126,-2,-1.0162092069380435,-0.8999657496539306,-0.8501633270592175
1769145328124,126,-2,-1.1383227380327685,-1.1996666363246211,-0.9751380139043616
1769145328128,126,-2,-1.0572886853686985,-0.9739783506551384,-0.8969804538155031
1769145328132,126,-2,-0.8394210344665205,-0.9717498840237032,-0.6815593474815107
1769145328136,127,-1,-0.672898587191305,-0.1472479524067322,-0.51738440791974
1769145328140,127,-1,-0.6920336095217916,-0.1750296367240253,-0.5393866218956378
1769145328144,126,-2,-0.846321835469793,-0.9897175926391844,-0.6967423751349924
1769145328148,126,-2,-0.9474127653737536,-1.1310004526170918,-0.8000205001458687
1769145328152,126,-2,-0.8507229154538796,-0.8551626259180636,-0.7044778997758216
1769145328156,127,-1,-0.5898141137304475,-0.2253529589982862,-0.445107032217573
1769145328160,127,-1,-0.3365168017765522,-0.1368696782113851,-0.19517241651825
1769145328164,127,-1,-0.2406472775219506,-0.0030807940326648,-0.1040301297556167
1769145328168,127,-1,-0.3105100465571091,-0.1583576167884157,-0.1778099439990699
1769145328172,126,-2,-0.4332346879682006,-0.795641693091476,-0.3019810325084309
1769145328176,127,-1,-0.4877458099751107,-0.3174537238881088,-0.3562709853375652
1769145328180,127,-1,-0.4270269522154231,-0.0200500679808812,-0.296274119118076
1769145328184,127,-1,-0.2680950902946489,-0.137468577582715,-0.1406200367888403
1769145328188,127,-1,-0.0404161045529823,-0.0301166958346988,0.0823071999608686
1769145328192,127,-1,0.231556015489689,0.090027391420755,0.3503891544604256
1769145328196,128,0,0.5091480232110348,0.7529096429682685,0.6259650425881296
1769145328200,128,0,0.7352887804291846,0.9620070290895556,0.851042459453158
1769145328204,128,0,0.8657321298832906,0.8259882563703994,0.9799537201016604
1769145328208,128,0,0.9010336907130838,1.0458627795610396,1.0126337427410257
1769145328212,128,0,0.882519333886624,0.976011642588679,0.9907370915864556
1769145328216,128,0,0.8559411145517756,0.8671949829478879,0.9608746653442992
1769145328220,128,0,0.8373972251668874,0.8650651774640948,0.939935198696246
1769145328224,128,0,0.814402036013182,0.8995257116193427,0.9154523076086614
1769145328228,128,0,0.7845007382035167,0.9920183174944456,0.8840817640794412
1769145328232,128,0,0.7924322556710806,1.0015830592217134,0.8896802630555825
1769145328236,128,0,0.9143718002796252,0.8393318057782493,1.0085339483711526
1769145328240,128,0,1.1855547300386124,0.9099138128676504,1.2766639329775062
1769145328244,129,1,1.5390800989846214,1.8207112262297236,1.627493062051928
1769145328248,129,1,1.8303002831523647,2.121413203254784,1.9160384252011975
1769145328252,129,1,1.937341234960213,1.7933912048611296,2.0203346018084227
1769145328256,129,1,1.8466646949721124,2.1143994973837987,1.9273820540340811
1769145328260,129,1,1.647845225981018,1.567085176179161,1.7271161488549989
1769145328264,128,0,1.4500193363460874,1.2001931434283342,1.528025446863739
1769145328268,129,1,1.2979544270827423,1.7408071410507588,1.37364521891754
1769145328272,128,0,1.1524928436972623,1.1355644705792656,1.2244206832340896
1769145328276,128,0,0.9346998303116943,0.8255103269474307,1.0025370450873965
1769145328280,128,0,0.5877888438058978,0.7759530689907771,0.6527124333142293
1769145328284,127,-1,0.1186301628762247,0.0677553151637949,0.1820852150668621
1769145328288,127,-1,-0.3952119607507058,-0.2094624523919215,-0.3328516689677603
1769145328292,126,-2,-0.8369126730773904,-0.8371264121819464,-0.776361898966641
1769145328296,126,-2,-1.1111680737492695,-1.2797226363845868,-1.053283564654698
1769145328300,126,-2,-1.19918398386647,-1.068901107993474,-1.1443285664434382
1769145328304,126,-2,-1.1647564743497794,-1.1200647518538076,-1.1129213415571462
1769145328308,126,-2,-1.103562439527234,-1.0202736596466344,-1.0546628462192646
1769145328312,126,-2,-1.0777922977681385,-1.0034686130418229,-1.031646368878667
1769145328316,126,-2,-1.0895902625479603,-1.1677528052296338,-1.045794895307823
1769145328320,126,-2,-1.107166342357901,-1.139347251169852,-1.06529008494734
1769145328324,126,-2,-1.1088059767408522,-1.0949495707718506,-1.0688266471524528
1769145328328,126,-2,-1.1005002816072165,-1.0133175224667004,-1.0629225175198689
1769145328332,126,-2,-1.0980332691194952,-1.0263913085135157,-1.0633732060489716
1769145328336,126,-2,-1.103010354171324,-1.1526104809696809,-1.0711734497751595
1769145328340,126,-2,-1.1025278202554527,-1.1599713421798907,-1.0729361777045905
1769145328344,126,-2,-1.0888280122427938,-1.0828586875077029,-1.0613126126524537
1769145328348,126,-2,-1.0716902617128876,-1.018090134090063,-1.047050389176361
1769145328352,126,-2,-1.0688644253199846,-1.0243665711622418,-1.0481334981901524
1769145328356,126,-2,-1.0873408597993532,-1.1619555177229683,-1.070286224768509
1769145328360,126,-2,-1.114952096031517,-1.167930100255108,-1.0994880024966822
1769145328364,126,-2,-1.1262095574009003,-1.0680253579010686,-1.1097607428151823
1769145328368,126,-2,-1.0967203930603753,-1.0428709873227082,-1.0787335605609434
1769145328372,126,-2,-1.0266752895950229,-0.9857163654401928,-1.0102764536584328
1769145328376,126,-2,-0.9699832939376072,-1.2159039738815915,-0.9610893889976532
1769145328380,126,-2,-1.0369750876498518,-1.1360861675840934,-1.0405015583156758
1769145328384,126,-2,-1.3217356141172374,-1.0787387290371002,-1.3366139406143025
1769145328388,125,-3,-1.7460082093985654,-2.066462125582219,-1.763106313471066
1769145328392,125,-3,-1.8954318541328783,-1.9181016570779403,-1.9022314516209953
1769145328396,127,-1,-0.9907599331892194,-0.3307976395288863,-0.9810470050858052
1769145328400,129,1,1.8613149145956231,1.9946704271862343,1.881014586169604
1769145328404,134,6,7.106422208316683,6.78606416099413,7.120468785563346
1769145328408,140,12,14.097587411579116,13.076838940274396,14.09199515811902
1769145328412,147,19,20.857557502200308,19.952646905592815,20.82822899467176
1769145328416,153,25,24.679736925410555,25.74892469523245,24.632805586110372
1769145328420,152,24,23.456414677757103,24.937036313838732,23.40401203130441
1769145328424,144,16,16.95371076017401,16.75191363171634,16.90960003680653
1769145328428,133,5,7.12130239416651,6.158864854845584,7.095751559442999
1769145328432,124,-4,-2.829573017653765,-3.208459204838375,-2.8360734024535397
1769145328436,117,-11,-9.9749179757117,-10.01937427487972,-9.97381621791137
1769145328440,114,-14,-12.902345246094931,-13.261338880313396,-12.910650989355345
1769145328444,115,-13,-12.005146245156682,-12.020607784826131,-12.03484628874612
1769145328448,119,-9,-8.873479468273556,-8.064386143322011,-8.925215819678057
1769145328452,122,-6,-5.291940559244537,-5.06177803792114,-5.356247629859885
1769145328456,124,-4,-2.46177321318292,-3.161607696938928,-2.5253781359421437
1769145328460,126,-2,-0.7856062218789053,-1.1326896676921026,-0.8390410123760987
1769145328464,127,-1,-0.1102313344690659,-0.1341236063355717,-0.1529433936432921
1769145328468,127,-1,-0.0806690418266735,0.0294920861948907,-0.1201868508468496
1769145328472,127,-1,-0.359505175768038,-0.1764153747611574,-0.4049554495809542
1769145328476,126,-2,-0.699470098189579,-1.0508393707530514,-0.7548061133309467
1769145328480,126,-2,-0.9594501259980808,-1.2371904693331512,-1.0220769949979809
1769145328484,126,-2,-1.09991528232633,-1.0056808323876536,-1.1649121265451094
1769145328488,126,-2,-1.1397025641301313,-1.1269906585717957,-1.2045751632473578
1769145328492,126,-2,-1.090529003823495,-1.0226120172647473,-1.1560813659847802
1769145328496,126,-2,-0.9327654834041909,-1.2232408864878814,-1.0007305815612446
1769145328500,126,-2,-0.6594336375423753,-1.0634697090847407,-0.7305558313263361
1769145328504,127,-1,-0.3300447048044236,-0.1574651406486177,-0.4043191623197052
1769145328508,127,-1,-0.0580931268055432,-0.0011724417180357,-0.1355344736525616
1769145328512,127,-1,0.0656776590686432,-0.1500596369855023,-0.0146950093326261
1769145328516,127,-1,0.0397265726677671,-0.114859255154136,-0.0426585574214077
1769145328520,127,-1,-0.0479770565323478,-0.1752466077705169,-0.1314315930569904
1769145328524,127,-1,-0.0751688905278699,-0.0296892226185033,-0.1597338728899326
1769145328528,127,-1,0.045914206195113,-0.1404221595008187,-0.0407497915834569
1769145328532,127,-1,0.3199847830361479,-0.0182157368813379,0.2301438121854235
1769145328536,128,0,0.6641893218072603,0.738155173962867,0.5705745396884864
1769145328540,128,0,0.9558231164070398,0.9676757194392502,0.8584807660674748
1769145328544,128,0,1.1045275109894086,0.8423547380733163,1.0043106784042544
1769145328548,128,0,1.0988137922479324,0.9689623094032463,0.9971620280245854
1769145328552,128,0,1.0022056866875135,0.8792037801594976,0.9001090421693073
1769145328556,128,0,0.9158159226355193,0.7904865453517446,0.8128262182448716
1769145328560,128,0,0.9331512071081876,0.9624477589284433,0.8277313688639423
1769145328564,128,0,1.0982347953974394,0.8124154392997829,0.9892199420322836
1769145328568,128,0,1.3787709131709631,1.0306409472302351,1.2662588322388373
1769145328572,129,1,1.6798264426967484,1.7800352078968222,1.5646171928414332
1769145328576,129,1,1.9075473458664507,1.8769193268189055,1.790230815743615
1769145328580,129,1,2.04077114419864,1.8901403749665264,1.9217002259151963
1769145328584,129,1,2.145407027157533,1.8751852926447232,2.0250241496135164
1769145328588,129,1,2.3175020091820677,1.976143566726748,2.1959561280231865
1769145328592,130,2,2.6101761808507784,2.804252945597228,2.486770593752458
1769145328596,130,2,3.00310631836858,2.8532179494473997,2.876814216908716
1769145328600,130,2,3.4205282913787727,2.911112061160313,3.291095323770776
1769145328604,131,3,3.771603500026321,3.864596363114654,3.639653527295322
1769145328608,131,3,3.99393831214732,3.975363178848696,3.8600920587593897
1769145328612,131,3,4.082802145105484,3.778541392192196,3.9472376953858848
1769145328616,131,3,4.084213227624675,3.887620152509821,3.9470059713207544
1769145328620,131,3,4.055338397044099,3.8600952419240704,3.916646979566614
1769145328624,131,3,4.029569784943952,3.934747198105292,3.8893509470315153
1769145328628,131,3,4.0151046792985206,3.894154812394651,3.8729776213045306
1769145328632,131,3,4.014905867318907,3.834096678504883,3.870485790298852
1769145328636,131,3,4.036128365761035,3.8435844683499463,3.889422104071621
1769145328640,131,3,4.077126565838023,3.876891234682147,3.928531043577929
1769145328644,131,3,4.110275336164779,3.9537413775583024,3.960165515282238
1769145328648,131,3,4.086008251711098,3.837657257377197,3.93428754128216
1769145328652,131,3,3.962957431752129,3.9020827050429543,3.8091188956122153
1769145328656,131,3,3.740071448137485,3.740743827598498,3.5839770323485545
1769145328660,130,2,3.4578288578136025,3.002435509661775,3.30035027209989
1769145328664,130,2,3.1652896763631886,2.808588386959692,3.007556767060823
1769145328668,130,2,2.89046668141376,3.0030021643753315,2.732250936268411
1769145328672,130,2,2.6437570629703413,2.691005550814528,2.483330683537725
1769145328676,129,1,2.4306309723999484,1.9788656656162136,2.2667735936673075
1769145328680,129,1,2.2374101621880085,1.7296817088436576,2.070987221374043
1769145328684,129,1,2.0122379416946297,2.106952121286599,1.845199710170479
1769145328688,129,1,1.6934284972582383,1.685446682600133,1.5266830376103984
1769145328692,128,0,1.2739802114042695,0.9928708223467912,1.1067916420171264
1769145328696,128,0,0.8244552680606565,0.694734170423641,0.6555663957497933
1769145328700,127,-1,0.4320289677235926,-0.0359431990659752,0.260799057656792
1769145328704,127,-1,0.110468527100936,-0.0770837121303977,-0.0629137684886755
1769145328708,127,-1,-0.2254495149704363,-0.1833314202823197,-0.4002864556864016
1769145328712,126,-2,-0.6883572313839375,-1.0982198766033728,-0.8638581272487607
1769145328716,126,-2,-1.309087843871577,-1.2679296893122198,-1.484845282740065
1769145328720,125,-3,-1.9861414316154509,-2.040811598151434,-2.162371962084351
1769145328724,124,-4,-2.545607732717892,-3.120686622325363,-2.7227998121456483
1769145328728,124,-4,-2.872122940791753,-3.0957924777369312,-3.050541697621
1769145328732,124,-4,-3.001477904536825,-3.224205232875445,-3.181205768383379
1769145328736,124,-4,-3.0875272369730173,-3.1316713138786336,-3.268726762663621
1769145328740,124,-4,-3.2685897889415134,-3.185265749218182,-3.4512452831516383
1769145328744,123,-5,-3.555399500308066,-3.997630171977818,-3.738836299040929
1769145328748,123,-5,-3.839512150739051,-4.204969266370917,-4.02272923597552
1769145328752,123,-5,-4.001775981166784,-4.139136381904658,-4.184543715732786
1769145328756,123,-5,-4.012983040904169,-4.210268147635844,-4.196275934917143
1769145328760,123,-5,-3.9447686607840264,-4.113779986076036,-4.129769447079817
1769145328764,123,-5,-3.899623673697576,-4.07382872829142,-4.086442261948772
1769145328768,123,-5,-3.9278557574317494,-4.137806510985697,-4.115465107478001
1769145328772,123,-5,-3.992467751669316,-4.218709053387805,-4.179763297758611
1769145328776,123,-5,-3.999939012873069,-4.130840605839772,-4.186579600902858
1769145328780,123,-5,-3.8718065680238465,-4.201162936930313,-4.058120892696994
1769145328784,123,-5,-3.606527098909455,-3.9839658993813183,-3.793087850555259
1769145328788,124,-4,-3.285162278450611,-3.241567941769557,-3.4726369324706208
1769145328792,124,-4,-3.015987007132589,-3.121453968780304,-3.204905591855127
1769145328796,124,-4,-2.8665096164094894,-3.234030047957862,-3.056681783818674
1769145328800,124,-4,-2.838977476108377,-3.1026498305638492,-3.0293100144216343
1769145328804,124,-4,-2.893847872430667,-3.089681117732635,-3.0831441974403924
1769145328808,124,-4,-2.979633181251532,-3.144629680730623,-3.1676137800656887
1769145328812,124,-4,-3.0406992718764507,-3.2237118210900495,-3.2280849162261074
1769145328816,124,-4,-3.017613018245487,-3.134345578011033,-3.2052296745385993
1769145328820,124,-4,-2.8670616240229956,-3.2093571444707765,-3.055070431549488
1769145328824,124,-4,-2.5969427832836476,-2.9903444689921637,-2.7851017767811412
1769145328828,125,-3,-2.2789463782585044,-2.250168555798688,-2.467381606601981
1769145328832,125,-3,-2.013495891356258,-2.1269753882589018,-2.202608941726819
1769145328836,125,-3,-1.8716678248253833,-2.2292088541986232,-2.061078870926123
1769145328840,125,-3,-1.8618442590180635,-2.1278612322518144,-2.050039777155517
1769145328844,125,-3,-1.9365888056831355,-2.082170806852386,-2.1222794516790247
1769145328848,125,-3,-2.0188691820138134,-2.16058428208479,-2.202619034902498
1769145328852,125,-3,-2.0323620359305976,-2.23083644385629,-2.216328586265205
1769145328856,125,-3,-1.9394993037053516,-2.104901159340578,-2.125260419878769
1769145328860,125,-3,-1.7775286535628974,-2.290088604013985,-1.96437011009506
1769145328864,125,-3,-1.6522060680444637,-1.9046061809428352,-1.8378913706431816
1769145328868,126,-2,-1.6612148012416257,-1.363173481251707,-1.8443212369284363
1769145328872,125,-3,-1.7938603679032534,-2.0258222383066418,-1.974901120769935
1769145328876,125,-3,-1.9110176259184453,-2.298282503134884,-2.0913156351285016
1769145328880,125,-3,-1.8535057389814236,-2.1429174703497846,-2.0336108674798163
1769145328884,125,-3,-1.593157015714146,-2.016203917135878,-1.7727108969652907
1769145328888,126,-2,-1.2796108545408933,-1.3145113389759762,-1.4583689415535812
1769145328892,126,-2,-1.127221197597099,-0.9995794015760008,-1.305546627336089
1769145328896,126,-2,-1.2414172246602766,-1.4001466360595192,-1.4194978617943868
1769145328900,125,-3,-1.543205628041461,-2.001878541228894,-1.7201848088272564
1769145328904,125,-3,-1.851727687155623,-2.2155179218058665,-2.0262294432407386
1769145328908,125,-3,-2.0327395909985437,-2.1012049321923105,-2.2043375318885565
1769145328912,125,-3,-2.0751520617621826,-2.191675602243429,-2.2449446704776492
1769145328916,125,-3,-2.049501019314129,-2.232485266866999,-2.219120934638553
1769145328920,125,-3,-2.014950086694138,-2.1602267351472815,-2.185141502123495
1769145328924,125,-3,-1.967289016453806,-2.1073078648004264,-2.13727711073052
1769145328928,125,-3,-1.8624666882874965,-2.1993976422825616,-2.0304511734825104
1769145328932,125,-3,-1.675838501649637,-2.076903058874734,-1.840391574812404
1769145328936,126,-2,-1.4283426891103004,-1.3649174128370614,-1.5897736883868727
1769145328940,126,-2,-1.154491308544377,-1.0190640282997192,-1.3146423122103528
1769145328944,126,-2,-0.8624380180040632,-1.3010236935541872,-1.022727882921746
1769145328948,126,-2,-0.5484572230154665,-0.9917614937708747,-0.7083547363232496
1769145328952,127,-1,-0.2501795012954775,-0.2749806269983664,-0.4079922148039726
1769145328956,127,-1,-0.0595978138164026,-0.1888947865511466,-0.2144916680870452
1769145328960,127,-1,-0.0615626770450516,-0.1650413889213613,-0.2142882372799162
1769145328964,127,-1,-0.2585901610763048,-0.2393099064583561,-0.410221615046872
1769145328968,126,-2,-0.565796416017861,-0.9945319660392116,-0.7162211725063934
1769145328972,126,-2,-0.8837507256554868,-1.335003745558511,-1.0318383019754618
1769145328976,126,-2,-1.1706165899592809,-1.061250504064482,-1.3157801264923312
1769145328980,126,-2,-1.4395699640859716,-1.3532159754934967,-1.582513260216433
1769145328984,125,-3,-1.699427192149451,-2.041371568287138,-1.84105978305294
1769145328988,125,-3,-1.9190747794850136,-2.211525565930736,-2.0592857023466022
1769145328992,125,-3,-2.0532836216460932,-2.130099190506608,-2.191286958132716
1769145328996,125,-3,-2.0891603588803243,-2.2335267659123437,-2.224635769518225
1769145329000,125,-3,-2.0601594936760095,-2.2247717214214613,-2.193492603083696
1769145329004,125,-3,-2.0206331554645462,-2.1493128526011605,-2.15217269848037
1769145329008,125,-3,-2.009258702649696,-2.1550878167014096,-2.138765766880543
1769145329012,125,-3,-2.029218257379706,-2.158215588253626,-2.1561243340176963
1769145329016,125,-3,-2.0553975364935164,-2.2205573775728737,-2.179443854561093
1769145329020,125,-3,-2.0605464575708847,-2.2346812442614152,-2.182109657201092
1769145329024,125,-3,-2.040398801346204,-2.159816586694332,-2.1602000287158236
1769145329028,125,-3,-2.018790943293804,-2.160450104580784,-2.1372097845854197
1769145329032,125,-3,-2.028248359088035,-2.1540131807500713,-2.144827197348064
1769145329036,125,-3,-2.078826410458336,-2.213643268566997,-2.19248686194121
1769145329040,125,-3,-2.1367379548417595,-2.2640511895233826,-2.246613781157631
1769145329044,125,-3,-2.131614141133685,-2.1275160039549985,-2.2377752698514923
1769145329048,125,-3,-1.997504687326172,-2.2316747603513605,-2.101005838593699
1769145329052,125,-3,-1.7272527075680255,-2.0595287825080897,-1.8296158960598796
1769145329056,126,-2,-1.396890931338451,-1.321376207324254,-1.4992401887054487
1769145329060,126,-2,-1.128667905767921,-1.1523521318531758,-1.2305472201971326
1769145329064,126,-2,-1.0125071564093715,-1.262250090928255,-1.111174592189608
1769145329068,126,-2,-1.0450394366570634,-1.115723496715203,-1.1367862787569822
1769145329072,126,-2,-1.131377910665894,-1.1691144585373925,-1.214901175472967
1769145329076,126,-2,-1.1512983602261508,-1.2257399980518604,-1.2303250011920974
1769145329080,126,-2,-1.0554128652252566,-1.2253186320984837,-1.1373207532151788
1769145329084,126,-2,-0.9287632048959163,-1.236691390167711,-1.019103378118862
1769145329088,126,-2,-0.9448292721370632,-1.1272998934913163,-1.041679545141912
1769145329092,126,-2,-1.1742461675666678,-1.18860013926996,-1.2675309496291285
1769145329096,126,-2,-1.3304863233359692,-1.1806341853084172,-1.4081414197376068
1769145329100,127,-1,-0.6636905261188464,-0.2920249920820654,-0.7207104131956632
1769145329104,129,1,1.777736871223543,1.8320540566639316,1.7347081882689963
1769145329108,133,5,6.502439484191028,5.772814396405871,6.459080892466373
1769145329112,139,11,12.880989665745314,11.938957010701229,12.824480651241888
1769145329116,146,18,18.958463642051967,18.672523550834764,18.884573867887468
1769145329120,150,22,22.141356985496692,22.87626313963229,22.05556929826779
1769145329124,149,21,20.52186170462708,21.597158822952775,20.436166512735465
1769145329128,141,13,14.031674548985604,13.989656382915662,13.959660345437248
1769145329132,131,3,4.622500622387195,3.6653072983298545,4.5733899115840355
1769145329136,122,-6,-4.6762197193429085,-5.0320441909500015,-4.703010054010828
1769145329140,116,-12,-11.205825980941968,-11.384938799698997,-11.221348801599763
1769145329144,113,-15,-13.755434484825578,-14.1209465636479,-13.774988213694758
1769145329148,115,-13,-12.749530537674929,-12.25755386105697,-12.783633365249496
1769145329152,118,-10,-9.63878613291989,-9.145353941036824,-9.687808541515706
1769145329156,121,-7,-6.011566299785763,-6.226334483393095,-6.066843572415349
1769145329160,124,-4,-2.964280432467196,-3.204595116903173,-3.01402481342898
1769145329164,126,-2,-0.9503817507817462,-1.3255439614270823,-0.9865933680694696
1769145329168,127,-1,0.0393336244040942,-0.037804056675832,0.0169337389418219
1769145329172,128,0,0.244318040930105,0.5731404406808246,0.2296276345472884
1769145329176,127,-1,-0.0031567469231483,0.0872672210693518,-0.0172330975177343
1769145329180,127,-1,-0.3580159889278619,-0.5553118789169362,-0.3745542198924768
1769145329184,126,-2,-0.5595239092581633,-0.939337238942673,-0.5769747009485311
1769145329188,127,-1,-0.522279005979688,-0.4548433531269434,-0.5378717831615841
1769145329192,127,-1,-0.3365988055736547,-0.0214302036319873,-0.3494050368794769
1769145329196,127,-1,-0.1630597735558534,-0.3026482430182262,-0.1736550199653718
1769145329200,127,-1,-0.1080644010442454,-0.2163096451340926,-0.1164311644499206
1769145329204,127,-1,-0.1699543671057523,-0.2124167701808933,-0.1749988209027284
1769145329208,127,-1,-0.2644158425281164,-0.2905331159038604,-0.2654546951313185
1769145329212,127,-1,-0.2840298489969897,-0.0977338633808123,-0.2817557455885537
1769145329216,127,-1,-0.1568188806904888,-0.318349831349153,-0.152422990664365
1769145329220,127,-1,0.1125436265396582,-0.1341119545832068,0.1185874649287872
1769145329224,128,0,0.4402041491447795,0.6556792908022279,0.4480302657439202
1769145329228,128,0,0.7125269278739006,0.8403155440942213,0.7220838796447705
1769145329232,128,0,0.8564747658513854,0.7655344468741403,0.8675611253106986
1769145329236,128,0,0.8726495574968934,0.8008275695200242,0.8856381762989587
1769145329240,128,0,0.8107438740840315,0.7550900466043456,0.8266595399793054
1769145329244,128,0,0.7269298326599175,0.7447164101607395,0.746530839886692
1769145329248,128,0,0.6690432203040768,0.7470879309531026,0.6919811629404632
1769145329252,128,0,0.686977667011263,0.8494866929318446,0.7120547221025086
1769145329256,128,0,0.8281033212145411,0.7106067527911242,0.8543136905120152
1769145329260,128,0,1.0992744300304975,0.8413718742173966,1.1264029723787294
1769145329264,129,1,1.4326736060944107,1.6427814367437934,1.4609914707862308
1769145329268,129,1,1.7077336434990948,1.845156613869411,1.7376465490238426
1769145329272,129,1,1.8272087645271025,1.7369094610208071,1.8593981139578597
1769145329276,129,1,1.7868025997812491,1.8261126900920923,1.822102587651184
1769145329280,129,1,1.6830753975549444,1.7043771493881184,1.7216439781876471
1769145329284,129,1,1.6551584406496218,1.7739126450052258,1.696012235284447
1769145329288,129,1,1.7965750951489432,1.7080062371023277,1.838394846584796
1769145329292,129,1,2.0903428448245363,1.8662817303201809,2.132639362100851
1769145329296,130,2,2.4167455038377574,2.6946412157463695,2.4599973970921263
1769145329300,130,2,2.641313998101013,2.824231911153544,2.686226516181629
1769145329304,130,2,2.720630274747736,2.632853431314099,2.7676343771088296
1769145329308,130,2,2.7350961838582992,2.8563883272516892,2.7844158736039906
1769145329312,130,2,2.8170273634654825,2.6928192227788306,2.868746242898502
1769145329316,130,2,3.036980380497364,2.8730126833292515,3.0907562552553975
1769145329320,131,3,3.3476606348588147,3.6386010385375007,3.402522875704269
1769145329324,131,3,3.628979518792861,3.798252240481438,3.683879824336014
1769145329328,131,3,3.7845908234839674,3.700936938090177,3.8394608221994457
1769145329332,131,3,3.8022779309841424,3.813635066504371,3.858344648871991
1769145329336,131,3,3.7402935547333502,3.766672384388398,3.799030169467428
1769145329340,131,3,3.673188795848435,3.711244803246627,3.7349126068113807
1769145329344,131,3,3.648884107691265,3.7461322523753977,3.712433637019007
1769145329348,131,3,3.676642562396152,3.7248205698843537,3.7403964318766914
1769145329352,131,3,3.7335617099937184,3.7897440867992382,3.796815099075737
1769145329356,131,3,3.774119545280828,3.7809120637110247,3.8375716061403784
1769145329360,131,3,3.7436164247726977,3.6721125939516144,3.808515227629332
1769145329364,131,3,3.6041782874419073,3.8084319235772783,3.671014315326422
1769145329368,131,3,3.364185975444688,3.61989872943505,3.432401604182521
1769145329372,130,2,3.0793292465427773,2.9173347398783096,3.1482391695699112
1769145329376,130,2,2.809966418138236,2.612929777513318,2.8794472825914816
1769145329380,130,2,2.5714610477041946,2.847806236508667,2.6415752281877616
1769145329384,130,2,2.3303062721593957,2.6259640851649975,2.4008941719105565
1769145329388,129,1,2.0462162588698174,1.788777222190421,2.117265216289978
1769145329392,129,1,1.7108549755657516,1.7545195915884608,1.782742724206648
1769145329396,129,1,1.350320812481951,1.7347810601133369,1.42324532814808
1769145329400,128,0,1.0003847768266318,0.7415097643712675,1.073865013698062
1769145329404,128,0,0.6776352576421489,0.7051794864150511,0.7509147550922026
1769145329408,128,0,0.3660300650739105,0.7360506908720849,0.4389235659349511
1769145329412,127,-1,0.0307243461576067,-0.2401208043663433,0.103923947605207
1769145329416,127,-1,-0.3467479745411652,-0.2560974919117489,-0.272363425723326
1769145329420,127,-1,-0.7365137596776223,-0.3012602605186913,-0.6608972615668285
1769145329424,126,-2,-1.062293393213834,-1.2381766648720067,-0.9863291220991744
1769145329428,126,-2,-1.2518188803268664,-1.3356200914193566,-1.176393896389927
1769145329432,126,-2,-1.3056446317773414,-1.1670332552784837,-1.230940021888743
1769145329436,126,-2,-1.3183432940408706,-1.369099774088882,-1.2440685465176926
1769145329440,126,-2,-1.4163895256442924,-1.1689694575758869,-1.3422992544098826
1769145329444,126,-2,-1.657624873126609,-1.39413924984682,-1.5835037363182636
1769145329448,125,-3,-1.9824498264502957,-2.17632998921796,-1.9078268583865183
1769145329452,125,-3,-2.262873688247242,-2.339821047001598,-2.187338181939553
1769145329456,125,-3,-2.403244815437623,-2.228898187549053,-2.327260127683453
1769145329460,125,-3,-2.403095470334687,-2.2908485701434698,-2.328025665908327
1769145329464,125,-3,-2.339730158524155,-2.2919442904910645,-2.2665957717251013
1769145329468,125,-3,-2.301935254147198,-2.265384561785634,-2.2302984938256145
1769145329472,125,-3,-2.3297005402861517,-2.287558016976107,-2.2581247111274534
1769145329476,125,-3,-2.391124534691442,-2.2940920690821596,-2.3186559454289797
1769145329480,125,-3,-2.4024284166029757,-2.225983891979061,-2.329329287808857
1769145329484,125,-3,-2.2831180929722477,-2.3630765742120996,-2.210260408615335
1769145329488,125,-3,-2.0185484270195277,-2.1853068945287593,-1.9466404011582936
1769145329492,126,-2,-1.683178192031796,-1.4062636820269927,-1.6127504914335438
1769145329496,126,-2,-1.3974166796961645,-1.1795617589177745,-1.3289110330257046
1769145329500,126,-2,-1.2500616900310622,-1.350426347847875,-1.183315996104699
1769145329504,126,-2,-1.250796049909502,-1.2394459145824683,-1.1847178671466296
1769145329508,126,-2,-1.339959120469773,-1.303852349903177,-1.2733239336100808
1769145329512,126,-2,-1.4275063086302808,-1.3419994126531478,-1.3601368507739096
1769145329516,126,-2,-1.427683658697092,-1.2122345618515653,-1.360543007927802
1769145329520,126,-2,-1.287002038253498,-1.369210810314496,-1.2212033848426116
1769145329524,126,-2,-1.0114505606973707,-1.170004165934194,-0.9475954226112264
1769145329528,127,-1,-0.6753937835783643,-0.424891097466463,-0.6138201686029241
1769145329532,127,-1,-0.3894510786856173,-0.2182778231189687,-0.3303297613343219
1769145329536,127,-1,-0.2409501619699732,-0.3575257739505393,-0.1836139805464034
1769145329540,127,-1,-0.2493538176640129,-0.2338119373726018,-0.1921020543936622
1769145329544,127,-1,-0.3595496112979627,-0.2848844150855214,-0.3010219199799653
1769145329548,127,-1,-0.4640013312648799,-0.3605095316483977,-0.4048540409443566
1769145329552,127,-1,-0.4454136732336127,-0.2519837740483999,-0.388050900900058
1769145329556,127,-1,-0.2410645643664282,-0.3876236782146866,-0.1873656857017868
1769145329560,127,-1,0.0956488912079132,-0.1550184963172213,0.1460512965698879
1769145329564,128,0,0.3982653651996266,0.5865225712335044,0.4471809208409436
1769145329568,128,0,0.4910656672507559,0.7992053402907163,0.5396355762731327
1769145329572,128,0,0.3297271278994185,0.5244687308458985,0.3776861970114757
1769145329576,127,-1,0.0481249519635673,-0.1218717662751357,0.094874022024743
1769145329580,127,-1,-0.1480310710811802,-0.5006355926428613,-0.1025668851808599
1769145329584,127,-1,-0.1473176432774904,0.0156878818546361,-0.1031744317920714
1769145329588,128,0,-0.0036553664420007,0.2677719271319818,0.0386197997017249
1769145329592,127,-1,0.1409519799152315,0.1438279941050361,0.1808488678824957
1769145329596,128,0,0.1917767582614243,0.1566139626438834,0.2295121013788331
1769145329600,127,-1,0.17065013437029,0.2668680589397538,0.2068165216848024
1769145329604,128,0,0.174807518502616,0.2147089494744939,0.2096507969450574
1769145329608,127,-1,0.2746089091599203,0.0452703996671055,0.3080288201739793
1769145329612,128,0,0.4402822554308324,0.4298462048110864,0.4721554927112764
1769145329616,128,0,0.563693403426616,0.740745323185136,0.5937551292344605
1769145329620,128,0,0.560784151744173,0.8138974172088418,0.5885761162775996
1769145329624,128,0,0.4578878654405748,0.4983963608122657,0.4833825441282826
1769145329628,127,-1,0.37101517120011,-0.0883441158752064,0.3949924209077401
1769145329632,128,0,0.3963502091244876,0.4182381861164758,0.4194827474201109
1769145329636,128,0,0.5257189745948472,0.8430672208852984,0.5474317353347352
1769145329640,128,0,0.6672722406678083,0.6350995586458261,0.6862241171186206
1769145329644,128,0,0.7347871736143976,0.7023283653785917,0.7505258960890105
1769145329648,128,0,0.7126235516780097,0.6948249759565703,0.726153005589548
1769145329652,128,0,0.6521649064573293,0.6026812780475348,0.6647162761767116
1769145329656,128,0,0.6248321904862404,0.6680956277491311,0.6365615873509339
1769145329660,128,0,0.6744345709920508,0.7908231958705313,0.6845878298941754
1769145329664,128,0,0.7920706310069752,0.5423275070812619,0.7999660305264615
1769145329668,128,0,0.921848029658534,0.8522311195388175,0.9271739312028248
1769145329672,129,1,0.9971031971332528,1.4166740095777366,0.9996203369520712
1769145329676,128,0,0.9835237362167254,0.8497626400377134,0.983354685048768
1769145329680,128,0,0.8891451154535153,0.605619527200911,0.8873056854988413
1769145329684,128,0,0.7351500119899612,0.7078667018692083,0.7327884091752119
1769145329688,128,0,0.532595808597697,0.6919823459313243,0.5293954078369033
1769145329692,128,0,0.2960531026875145,0.5390078961695302,0.2902385732359288
1769145329696,127,-1,0.0603959764495385,-0.2498262353327799,0.0508410192915199
1769145329700,127,-1,-0.1422513506433405,-0.3401376821627935,-0.1545549550259017
1769145329704,127,-1,-0.3198719626565038,-0.3137897935325755,-0.3330872588025187
1769145329708,127,-1,-0.5088438865117428,-0.3499950326515101,-0.522590924501054
1769145329712,127,-1,-0.7134445102766761,-0.3701081564959753,-0.7290306177851984
1769145329716,126,-2,-0.8763801598452907,-1.4069919921230345,-0.8948956193296571
1769145329720,126,-2,-0.9326773552464364,-1.1444737852744378,-0.9537757404434272
1769145329724,127,-1,-0.8907458487919785,-0.5660124109325845,-0.9135295769221016
1769145329728,126,-2,-0.8423169874833336,-1.071602819108689,-0.8666550660674492
1769145329732,127,-1,-0.8845172729414377,-0.6841046311183678,-0.911000651820435
1769145329736,126,-2,-1.0340622305382696,-1.0652962562694466,-1.0630334022501282
1769145329740,126,-2,-1.2145927455650092,-1.5548825654417042,-1.2456481670634232
1769145329744,126,-2,-1.3204987140419997,-1.1182730070836844,-1.3528909763140406
1769145329748,126,-2,-1.293315116912349,-1.5673137888700115,-1.32664880044099
1769145329752,126,-2,-1.1470092484253351,-1.1676917015544743,-1.1815582132046387
1769145329756,127,-1,-0.934008138169606,-0.5829793992048111,-0.9704468666410484
1769145329760,126,-2,-0.6989047467851452,-1.0905566174374997,-0.7377560722721769
1769145329764,127,-1,-0.4699275800030539,-0.5581757642287489,-0.511327298110931
1769145329768,127,-1,-0.2870880202751681,-0.1719841879504956,-0.3310421451946852
1769145329772,127,-1,-0.218808492165723,-0.5368872865057377,-0.2653499394560461
1769145329776,127,-1,-0.3302864589991476,-0.2407929540367204,-0.3790389987081268
1769145329780,127,-1,-0.6214088855335186,-0.4333613723590412,-0.6709660563632389
1769145329784,126,-2,-0.9930248450999356,-1.263938863087586,-1.0412059686533912
1769145329788,126,-2,-1.2874247705491575,-1.4345021208273272,-1.3331010764174722
1769145329792,126,-2,-1.3871713796970986,-1.31895980669024,-1.4325824230154167
1769145329796,126,-2,-1.3020751653972509,-1.4170582930391735,-1.352889806868213
1769145329800,126,-2,-1.17603835502238,-1.3242572761336775,-1.2376375588229924
1769145329804,126,-2,-1.187844256672687,-1.33604738635751,-1.2600672765997107
1769145329808,126,-2,-1.3687065620397083,-1.4417424605625873,-1.4437060746012214
1769145329812,126,-2,-1.4162941198614918,-1.2356848788040156,-1.4824803115014156
1769145329816,127,-1,-0.6434201706056238,-0.5890458021657969,-0.6937117681507423
1769145329820,129,1,1.800235873802808,1.9125673476957123,1.7619929196753152
1769145329824,134,6,6.416934974645846,6.35262239788582,6.37730660143555
1769145329828,139,11,12.770923080327677,11.900794162671502,12.71572591933273
1769145329832,146,18,19.22883223822135,18.417445073198103,19.15224610435176
1769145329836,151,23,23.399482673281376,23.72287640179163,23.30648699343671
1769145329840,152,24,23.240464816522703,24.611163851272316,23.142883012466516
1769145329844,146,18,18.236779513732884,18.559583136278736,18.14764794150924
1769145329848,136,8,9.840689543045318,8.713940283987782,9.76906367858764
1769145329852,128,0,0.8067701474846332,0.5437707698993088,0.7530776238569117
1769145329856,121,-7,-6.165655931236769,-6.34711923602422,-6.210877531432121
1769145329860,117,-11,-9.630456358964008,-10.318360278366493,-9.68150290645666
1769145329864,118,-10,-9.77918410012172,-9.465589277368716,-9.84666401156112
1769145329868,120,-8,-7.938052216969091,-7.293322831202474,-8.023239306738095
1769145329872,122,-6,-5.6325026309796575,-5.490687462147218,-5.727694877170199
1769145329876,123,-5,-3.8458091970049657,-4.319718867945561,-3.939459709523902
1769145329880,124,-4,-2.8362484575746167,-3.3849888307847245,-2.919785263125306
1769145329884,125,-3,-2.416462154509054,-2.378774358859414,-2.488945300617905
1769145329888,125,-3,-2.3269709075360496,-2.411511213128754,-2.3945186291261553
1769145329892,125,-3,-2.4210231214236946,-2.387812457018491,-2.4915819949148403
1769145329896,125,-3,-2.639815391795751,-2.4239454579473967,-2.717493123384338
1769145329900,124,-4,-2.9253577435508418,-3.30235603765056,-3.008479805287726
1769145329904,124,-4,-3.1949158845491437,-3.45670756349541,-3.2786425391516514
1769145329908,124,-4,-3.3781828226259885,-3.3438315975508557,-3.4589482804919203
1769145329912,124,-4,-3.445606557778655,-3.4880333726414507,-3.5234800494870413
1769145329916,124,-4,-3.3936963542469525,-3.307815569137656,-3.471054095101718
1769145329920,124,-4,-3.223816544930004,-3.451603451845337,-3.302413805407641
1769145329924,124,-4,-2.9535301389374498,-3.3011794457806216,-3.0332451486605816
1769145329928,125,-3,-2.6411619361518146,-2.5190469956735426,-2.7211200305475596
1769145329932,125,-3,-2.376629379641716,-2.333290785044193,-2.456510859095862
1769145329936,125,-3,-2.234039472992951,-2.4567301982021794,-2.3138464203403077
1769145329940,125,-3,-2.229230728556033,-2.3321677516690937,-2.30844874425547
1769145329944,125,-3,-2.314667748656551,-2.40828353836243,-2.3924639056143016
1769145329948,125,-3,-2.403771057606855,-2.46335088680845,-2.479957085689601
1769145329952,125,-3,-2.4053676308397467,-2.3547696470749635,-2.4806229658077195
1769145329956,125,-3,-2.262328051283246,-2.4895610650369973,-2.337375776411387
1769145329960,125,-3,-1.985827659958864,-2.2634188180162806,-2.0607986792537423
1769145329964,126,-2,-1.6586576002261744,-1.5280614173487754,-1.7333697513157351
1769145329968,126,-2,-1.3906116091855454,-1.3374116968753378,-1.4649408814353182
1769145329972,126,-2,-1.2539172788420516,-1.4956112248381686,-1.327538127988542
1769145329976,126,-2,-1.2499204418215553,-1.3686912252229777,-1.3221090134728448
1769145329980,126,-2,-1.3238441653602049,-1.371741379132379,-1.3940443264755156
1769145329984,126,-2,-1.399763190768205,-1.4726525276867308,-1.4681681759604366
1769145329988,126,-2,-1.4077838599797616,-1.3610353115796718,-1.4749453975626126
1769145329992,126,-2,-1.3017050614986407,-1.518760800137669,-1.3676933904904809
1769145329996,126,-2,-1.071334928132705,-1.3279082817776482,-1.135739068920996
1769145330000,127,-1,-0.7413317108790893,-0.4380677243297535,-0.8040385009696378
1769145330004,127,-1,-0.3547634542317433,-0.4230247839541359,-0.4161898555129496
1769145330008,127,-1,0.0393601796036493,-0.4098589611976149,-0.0210944044441928
1769145330012,128,0,0.3836985060377682,0.5031397731214362,0.3244441329411397
1769145330016,128,0,0.6164830102570245,0.6583337476958394,0.5589680485200224
1769145330020,128,0,0.7004020134410832,0.5358266097955982,0.6452184897920294
1769145330024,128,0,0.6566994794447806,0.6238007605814119,0.604357337061169
1769145330028,128,0,0.5697691116532744,0.4949890252801989,0.5203760878695939
1769145330032,128,0,0.5513202179960471,0.6179021384193,0.5044221780390062
1769145330036,128,0,0.6806567709058933,0.5132558553148612,0.6356712153031203
1769145330040,128,0,0.9541194182971048,0.6776656849428124,0.9108328990499968
1769145330044,129,1,1.281915639387614,1.474043293427587,1.2404216443424412
1769145330048,129,1,1.5450710433448844,1.620353618858282,1.5055607389501824
1769145330052,129,1,1.6726086838070358,1.4933981363596949,1.6355336793194424
1769145330056,129,1,1.676333457350115,1.6135115893656222,1.642461148075362
1769145330060,129,1,1.6223855153229676,1.5743985425018685,1.5922502406965855
1769145330064,129,1,1.5758471228910589,1.551583333814226,1.549197855179262
1769145330068,129,1,1.5648706572453246,1.5504104993535393,1.5409245044799995
1769145330072,129,1,1.5798758886300928,1.5346696350112503,1.558141560441263
1769145330076,129,1,1.594934711049846,1.5774353019778833,1.5756859149632014
1769145330080,129,1,1.5916369334950136,1.5799466529882598,1.575599120047073
1769145330084,129,1,1.571771840850694,1.543912340626714,1.5594432766604651
1769145330088,129,1,1.5538057091772095,1.5416151452680706,1.5451208573659998
1769145330092,129,1,1.556597119971887,1.5389742213038786,1.5512271482194
1769145330096,129,1,1.580746727723824,1.5532102907561116,1.5786704080782112
1769145330100,129,1,1.6004114450731737,1.5978994651081515,1.602060129514897
1769145330104,129,1,1.573643245726114,1.502455187792215,1.5793603098725366
1769145330108,129,1,1.466451456219005,1.5852487225835967,1.475953702119453
1769145330112,129,1,1.2699224846471786,1.4720205713487176,1.2826523737452216
1769145330116,128,0,0.9894651496147686,0.6212306163094998,1.0054646610328746
1769145330120,128,0,0.6163014872332917,0.4940949239935395,0.636273556546641
1769145330124,128,0,0.1236883847835738,0.6183263721017844,0.1481326981224576
1769145330128,127,-1,-0.4925406306040512,-0.5664515901380585,-0.4637264361279332
1769145330132,126,-2,-1.1714508083399444,-1.3606059514165258,-1.1384237132913066
1769145330136,126,-2,-1.797187925956214,-1.575685053564952,-1.759738382992636
1769145330140,125,-3,-2.2592084550205787,-2.327255020920449,-2.217032474278695
1769145330144,125,-3,-2.511205887611773,-2.5605810749656235,-2.4642805110827797
1769145330148,125,-3,-2.5858770791356727,-2.406739583946497,-2.5344922181251195
1769145330152,125,-3,-2.5621421926721624,-2.510892095392028,-2.506696172894898
1769145330156,125,-3,-2.515183724028579,-2.4653929280620117,-2.455893126490705
1769145330160,125,-3,-2.486767195640483,-2.4329470853404023,-2.423407384123112
1769145330164,125,-3,-2.4889649196249146,-2.4944892140875843,-2.420834775332846
1769145330168,125,-3,-2.5219538615059287,-2.4531424541587374,-2.448208291886551
1769145330172,125,-3,-2.5784293053689753,-2.4881537165212517,-2.498661427247582
1769145330176,125,-3,-2.6298567676237496,-2.503244902994741,-2.544446130056047
1769145330180,125,-3,-2.619254721748457,-2.4038386402502767,-2.529000957981874
1769145330184,125,-3,-2.4881258460261564,-2.5567368580464747,-2.3934443757643695
1769145330188,125,-3,-2.2290280217169687,-2.3715877754181633,-2.129670074550886
1769145330192,126,-2,-1.9134393562370928,-1.599061603782764,-1.8090302167915044
1769145330196,126,-2,-1.6544275000244542,-1.3937843622969277,-1.5448705520022104
1769145330200,126,-2,-1.5291049247503774,-1.539126217930412,-1.4142158027695952
1769145330204,126,-2,-1.5309830394075636,-1.43891646072293,-1.4101701923522971
1769145330208,126,-2,-1.5901760580383946,-1.48645939697685,-1.4629806879689264
1769145330212,126,-2,-1.6336212873925833,-1.5137176109347907,-1.5004225135939735
1769145330216,126,-2,-1.6326485531464403,-1.463813664746114,-1.4943869228972748
1769145330220,126,-2,-1.6096731262703223,-1.5133206614303758,-1.4667719582849297
1769145330224,126,-2,-1.6089159440566392,-1.459732230604723,-1.4607104032179477
1769145330228,126,-2,-1.653218390132808,-1.4836854104907202,-1.498623741951809
1769145330232,126,-2,-1.713659058746378,-1.5331896087057102,-1.5522885514153166
1769145330236,126,-2,-1.715813028821171,-1.4359160028355424,-1.548196963905015
1769145330240,126,-2,-1.5888073826963751,-1.5857110594644948,-1.4155464262276345
1769145330244,126,-2,-1.3276777532917403,-1.3754896750252292,-1.1487641418840266
1769145330248,127,-1,-1.0133931454661511,-0.5987641696135038,-0.8285239256300171
1769145330252,127,-1,-0.76137730057916,-0.4144757337172265,-0.5705154808487379
1769145330256,127,-1,-0.6393521530336947,-0.5680382441259153,-0.4426142172110351
1769145330260,127,-1,-0.6302942483465436,-0.4805763512387269,-0.4275351924593774
1769145330264,127,-1,-0.6685882669756021,-0.4857605042812302,-0.4594336199194072
1769145330268,127,-1,-0.7041466625067073,-0.5181515353658556,-0.4883161160161837
1769145330272,127,-1,-0.7320148244422559,-0.477795405002546,-0.5094470394951768
1769145330276,127,-1,-0.76836639894702,-0.5299144515736518,-0.5392013299958845
1769145330280,127,-1,-0.8047438506536084,-0.5337520527130645,-0.5693247126366947
1769145330284,127,-1,-0.7898278099091322,-0.4466722542990464,-0.5484790194637187
1769145330288,127,-1,-0.6634974885202489,-0.5855710975557424,-0.4160728158855092
1769145330292,127,-1,-0.4173704795218768,-0.3900684056219595,-0.163247884833343
1769145330296,128,0,-0.1205541595280932,0.3507845241882211,0.140644302346596
1769145330300,128,0,0.1249655160579318,0.5810147499795497,0.3928714769611935
1769145330304,128,0,0.260343957173854,0.4150874522291289,0.5343811318263286
1769145330308,128,0,0.2996554594342258,0.5271307698830734,0.5798928893817388
1769145330312,128,0,0.2863149153790909,0.5190170514274797,0.5733935201377491
1769145330316,128,0,0.2300648192567768,0.3884887428900864,0.5242690958796818
1769145330320,128,0,0.0955428860543841,0.5792857196843018,0.3963146548342057
1769145330324,128,0,-0.1474617786939751,0.3499346245443392,0.1592473661731567
1769145330328,127,-1,-0.4695338297798835,-0.3857103436542479,-0.1564688080495154
1769145330332,127,-1,-0.7804443485272365,-0.5948088624253095,-0.4597692085072615
1769145330336,127,-1,-0.9768445509815784,-0.5125675752471591,-0.648012149222883
1769145330340,127,-1,-0.9915543590182664,-0.5108646576309039,-0.6555335957182997
1769145330344,127,-1,-0.817949213437278,-0.6081201464307329,-0.4761326428933746
1769145330348,127,-1,-0.5147265140230904,-0.400792485078435,-0.1674625999887415
1769145330352,128,0,-0.1892610573760222,0.3650696890116415,0.164176712485252
1769145330356,128,0,0.0503879253104145,0.552718056379667,0.4108467063575195
1769145330360,128,0,0.1535351091006893,0.3820586067849473,0.5214569542780478
1769145330364,128,0,0.1473410126615443,0.502239846287724,0.5227914866658053
1769145330368,128,0,0.1017707853807685,0.4659531421400026,0.4844234381290937
1769145330372,128,0,0.0728505955964905,0.4749849337467312,0.4620597844213858
1769145330376,128,0,0.0701917361101432,0.4588047590144093,0.4655050248497335
1769145330380,128,0,0.0664225093112641,0.4315899648341258,0.4680547337640903
1769145330384,128,0,0.0352714985501209,0.4762761563402837,0.4438376988555232
1769145330388,128,0,-0.0103722636085398,0.4332068540037777,0.405428067339931
1769145330392,128,0,-0.0110404330976763,0.5283849488976092,0.4118002511200852
1769145330396,128,0,0.1014105715857001,0.3717924257389173,0.5311069591416391
1769145330400,128,0,0.3435901178608869,0.5240227961144732,0.7801719063413066
1769145330404,129,1,0.6528344060875311,1.360376534696765,1.0960611882349338
1769145330408,129,1,0.9252349023778548,1.5347490179015535,1.3744801210775357
1769145330412,129,1,1.0846836092412155,1.40952686772991,1.539803539121866
1769145330416,129,1,1.1149389828499312,1.4890773266029225,1.5768233161215812
1769145330420,129,1,1.0358632537783747,1.377677681720637,1.5054174250107015
1769145330424,129,1,0.8696154065714727,1.507173392341536,1.3463839041956591
1769145330428,129,1,0.6362830702673734,1.3574381462789278,1.1189136469582737
1769145330432,128,0,0.3627495286957501,0.5925883720136567,0.850951858243073
1769145330436,128,0,0.0744475052301071,0.2794255485269989,0.5695799862243189
1769145330440,128,0,-0.216725595414689,0.5792736364025521,0.2864323913915552
1769145330444,128,0,-0.498656068429022,0.2906663296283041,0.0116150964935876
1769145330448,127,-1,-0.7396228393827944,-0.4487596867649299,-0.2241625356078094
1769145330452,127,-1,-0.9113086977207768,-0.5837960985375751,-0.3912669657114666
1769145330456,127,-1,-1.0408315239473769,-0.6027203981341439,-0.5149853810393628
1769145330460,127,-1,-1.2138796173827706,-0.5115964911253243,-0.6808283838639226
1769145330464,127,-1,-1.4946986439559702,-0.6683045772182672,-0.954279891112314
1769145330468,126,-2,-1.8366700394020572,-1.4687444816537132,-1.2896301025365795
1769145330472,126,-2,-2.0878072145654865,-1.597443377923461,-1.53469266307458
1769145330476,126,-2,-2.1035167951154343,-1.603827382002076,-1.544322270612881
1769145330480,126,-2,-1.8677943450486565,-1.5233574519476751,-1.3025242677727844
1769145330484,127,-1,-1.512052657820663,-0.6692849029461024,-0.9412006761308164
1769145330488,127,-1,-1.2157947453952498,-0.458895266685112,-0.6399558549236798
1769145330492,127,-1,-1.080419226913648,-0.6472821512764599,-0.4994347564446133
1769145330496,127,-1,-1.0839319460958428,-0.5599766369177956,-0.4967735202099353
1769145330500,127,-1,-1.138686213982314,-0.6021988808096029,-0.5444975527360416
1769145330504,127,-1,-1.1801923982195923,-0.5859877355103353,-0.5793923461120384
1769145330508,127,-1,-1.2042346814020464,-0.5414533386538614,-0.5983832786518618
1769145330512,127,-1,-1.2340543956329428,-0.5894331179061808,-0.6244452617263473
1769145330516,127,-1,-1.2647281479663273,-0.6371052269705593,-0.6508269924700822
1769145330520,127,-1,-1.245101959525793,-0.5518374983193433,-0.6242366105846215
1769145330524,127,-1,-1.118745562618748,-0.6357825882236874,-0.4880258159121757
1769145330528,127,-1,-0.8889102134154833,-0.497624303595674,-0.2487831017437276
1769145330532,128,0,-0.6460941192198841,0.3606423874219049,-0.0023270506526693
1769145330536,128,0,-0.5299785258034087,0.3668830093579239,0.1096029741071365
1769145330540,127,-1,-0.6526686197329686,-0.5451987325901425,-0.0197356220039832
1769145330544,127,-1,-1.009103295449406,-0.6977792148566553,-0.3753492953049379
1769145330548,127,-1,-1.3588082664734036,-0.3744161784979007,-0.710946243684246
1769145330552,128,0,-1.10695648155315,0.1394423569892147,-0.4360568828859218
1769145330556,129,1,0.6449249861833513,1.6684791853007566,1.3360510728751542
1769145330560,133,5,4.683017381312006,5.04050950670533,5.381386368635864
1769145330564,138,10,10.974613535255097,10.794802575530136,11.665674859792064
1769145330568,146,18,18.14151490121064,18.069815286832014,18.817589378738187
1769145330572,152,24,23.68381728421993,24.710978612621233,24.34695696224546
1769145330576,155,27,25.08543605585833,27.08118087081397,25.74508945473541
1769145330580,150,22,21.21913990623972,22.53315092921608,21.88795502563405
1769145330584,141,13,13.10343728136101,13.333384838366875,13.792593361693468
1769145330588,131,3,3.44698082674045,3.404970993594258,4.160908381936078
1769145330592,123,-5,-4.727173644296972,-4.504089411549796,-3.994419734033096
1769145330596,119,-9,-9.475019860345242,-8.774062114085622,-8.737708687671324
1769145330600,118,-10,-10.5390941718325,-9.49012351820893,-9.81173149310942
1769145330604,120,-8,-8.996306190149197,-7.737391193836546,-8.28485272592576
1769145330608,122,-6,-6.385351646134856,-5.51677893629394,-5.684240044804179
1769145330612,124,-4,-3.934876252596132,-3.6412790092864977,-3.231791318057867
1769145330616,126,-2,-2.250356216117291,-1.6504021897289036,-1.5348027875844914
1769145330620,127,-1,-1.4146848020481413,-0.5912688348063188,-0.6839024154605894
1769145330624,127,-1,-1.2395906331079796,-0.695771121432368,-0.4982658445248612
1769145330628,127,-1,-1.4544039181313024,-0.5513173794861091,-0.7098495881562732
1769145330632,127,-1,-1.787547334183713,-0.6591823022070771,-1.0446094248835864
1769145330636,126,-2,-2.0099244698829546,-1.617947855914875,-1.2688514129143105
1769145330640,126,-2,-1.9967718094487288,-1.6154416710497916,-1.2548589392258738
1769145330644,127,-1,-1.7760255978918995,-0.701002789696797,-1.0310929296963551
1769145330648,127,-1,-1.4946327722818098,-0.5602144024768618,-0.7467959596109108
1769145330652,127,-1,-1.308316019615117,-0.6882184425626846,-0.5586071873920776
1769145330656,127,-1,-1.2830205263984171,-0.5807759594405839,-0.5313337808006956
1769145330660,127,-1,-1.375654883252019,-0.6599779073962165,-0.6208841033852726
1769145330664,127,-1,-1.4801693881382525,-0.6845116557294657,-0.7219563860687849
1769145330668,127,-1,-1.489308414566664,-0.5810447210843087,-0.7287315510113375
1769145330672,127,-1,-1.3447454802448937,-0.7168422286236855,-0.5831393563694898
1769145330676,127,-1,-1.0664844277940868,-0.5200220821013403,-0.3042227388161548
1769145330680,128,0,-0.744951024041957,0.2411554557884356,0.0182869889071961
1769145330684,128,0,-0.4876635214532197,0.4216207786329587,0.276643166257242
1769145330688,128,0,-0.3539772611529879,0.2703763920821926,0.4111751627043348
1769145330692,128,0,-0.3321648677043202,0.4167843773156787,0.4339144654943244
1769145330696,128,0,-0.37205752833148,0.3472824636559126,0.3955070176850839
1769145330700,128,0,-0.4306741579274749,0.344102959541215,0.3387973770647314
1769145330704,128,0,-0.4849426488743823,0.3443939540738327,0.2860219659813957
1769145330708,128,0,-0.5109323297788253,0.2725832228462108,0.2603101650240089
1769145330712,128,0,-0.4679779109958003,0.4474787558543952,0.302486825008379
1769145330716,128,0,-0.3195990621518012,0.2624162711606975,0.4502430073858393
1769145330720,128,0,-0.0764056994271006,0.4515582236147093,0.6939805565374135
1769145330724,129,1,0.1931431215737004,1.216593396368632,0.9647170883930872
1769145330728,129,1,0.4144873064952345,1.3624119742530787,1.1863609863755422
1769145330732,129,1,0.5754431405670707,1.3673035851934745,1.3462156772697065
1769145330736,129,1,0.7314457469971692,1.2957851575737018,1.5009889304536028
1769145330740,129,1,0.9357351085938456,1.442336292025192,1.7052436423916637
1769145330744,130,2,1.1762542483466305,2.1853215693841843,1.946421971469752
1769145330748,130,2,1.395369369986345,2.3909696656576016,2.1652468838419767
1769145330752,130,2,1.56471504072028,2.3201276509192645,2.332858566355971
1769145330756,130,2,1.7196819799159333,2.316398586697949,2.485910220943886
1769145330760,130,2,1.9142372497663929,2.4338951069412613,2.679489959461706
1769145330764,131,3,2.159062734785475,3.138818852050032,2.923726689716865
1769145330768,131,3,2.4192925609765483,3.472377248283759,3.1826021732641268
1769145330772,131,3,2.664610331903073,3.1797526989617135,3.425914672011864
1769145330776,131,3,2.904938113495825,3.4724966915638324,3.664679823554265
1769145330780,132,4,3.1785365506335106,4.246858268367401,3.9374290325840544
1769145330784,132,4,3.5161754195355286,4.2966565483916535,4.27395075382787
1769145330788,132,4,3.9104128174321886,4.344919586551358,4.665864616431279
1769145330792,133,5,4.301417074292157,5.237854470934808,5.053429679990196
1769145330796,133,5,4.589931447729103,5.4616097117259015,5.338328434042274
1769145330800,133,5,4.681286843009403,5.166172203258677,5.426918188897686
1769145330804,133,5,4.540445612399465,5.428864147640311,5.284450048351102
1769145330808,133,5,4.224625396166511,5.1543543430451635,4.967415617192833
1769145330812,132,4,3.8671540996256097,4.435930137035497,4.608075007628477
1769145330816,132,4,3.609975727006974,4.253517466618852,4.347857978192647
1769145330820,132,4,3.521061022198195,4.321192473787189,4.255015010933135
1769145330824,132,4,3.5557246853639666,4.313025097269229,4.285585428336637
1769145330828,132,4,3.592824707212541,4.20655617378217,4.319018340448729
1769145330832,132,4,3.519449039006596,4.417731975973702,4.242398441284621
1769145330836,132,4,3.3011109641910026,4.217960161716558,4.020792080863362
1769145330840,131,3,2.984381682130299,3.343141449905136,3.7004593440838702
1769145330844,131,3,2.63366936770187,3.293904512263104,3.3458161018492025
1769145330848,131,3,2.2652030364819726,3.182621021477336,2.973204485681476
1769145330852,130,2,1.8434513118790097,2.4788598952675,2.547296527054937
1769145330856,130,2,1.3387819701511292,2.0804896296096365,2.038713172881809
1769145330860,129,1,0.7848174452991965,1.5195349501940072,1.4809935478392606
1769145330864,129,1,0.2779122943301035,1.038627824466878,0.969990707637374
1769145330868,128,0,-0.0880230031773903,0.4891309122362554,0.5992446036614418
1769145330872,128,0,-0.3029105814602688,0.1139386719360037,0.3789431111982638
1769145330876,128,0,-0.465415429320706,0.4596558575717087,0.210754134482132
1769145330880,128,0,-0.7160538935604046,0.106440874851427,-0.0454705395890225
1769145330884,127,-1,-1.1259935126231435,-0.5746221186687079,-0.460419157416613
1769145330888,127,-1,-1.6363674088664184,-0.8804475343782887,-0.9749358753904778
1769145330892,126,-2,-2.099349927878679,-1.568502024458081,-1.441700309464084
1769145330896,126,-2,-2.3835247709743523,-1.8353373259211951,-1.730535204952931
1769145330900,126,-2,-2.458935785830621,-1.6550408907561758,-1.8124000590135607
1769145330904,126,-2,-2.4039002372832488,-1.7870302932783142,-1.7651209520406212
1769145330908,126,-2,-2.3401228887044483,-1.7213219853525816,-1.7086992257317464
1769145330912,126,-2,-2.347746779052631,-1.6932489752284854,-1.7219104619640877
1769145330916,126,-2,-2.4132239629466117,-1.7905282744787328,-1.791499001887363
1769145330920,126,-2,-2.43887041045914,-1.6592727380166234,-1.821351495214678
1769145330924,126,-2,-2.313315557977436,-1.8456000937769883,-1.7014167835738754
1769145330928,126,-2,-2.0056687121854564,-1.6379111965312032,-1.4010029997400282
1769145330932,127,-1,-1.6160175089740558,-0.8048488946676673,-1.019626911140768
1769145330936,127,-1,-1.3314856678719074,-0.7064663226700192,-0.7435901626717161
1769145330940,127,-1,-1.308948394363859,-0.7392914188703852,-0.7287771170594017
1769145330944,127,-1,-1.5697384714455795,-0.8124905415905974,-0.9956287623399118
1769145330948,126,-2,-1.982639841331644,-1.6456237796695237,-1.4129645808500269
1769145330952,126,-2,-2.34047861571986,-1.86045093884576,-1.775115279831396
1769145330956,126,-2,-2.4713696251303157,-1.615612190940225,-1.9122985817876337
1769145330960,126,-2,-2.318854334904792,-1.8939874464269029,-1.7688564957396802
1769145330964,126,-2,-1.960914497103088,-1.628244193924442,-1.4213727239277754
1769145330968,127,-1,-1.5667135527861216,-0.8666142614129253,-1.0366465026906582
1769145330972,127,-1,-1.3047740646824184,-0.6622481387801714,-0.7818513912094532
1769145330976,127,-1,-1.243722177622314,-0.8061000702951607,-0.7261648379534007
1769145330980,127,-1,-1.3092127551461317,-0.7641966245770798,-0.797107912468181
1769145330984,127,-1,-1.3355029338390152,-0.7128501889575793,-0.8305964583588505
1769145330988,127,-1,-1.1865989131370005,-0.864604753358274,-0.6906900767074997
1769145330992,127,-1,-0.8672143187281556,-0.6108802185432678,-0.3807210539921172
1769145330996,128,0,-0.5353617447339012,0.0640170798367461,-0.0575935492067363
1769145331000,128,0,-0.3897548086534363,0.4022516151080912,0.0797513636706966
1769145331004,128,0,-0.5138392885451696,0.0707049956512646,-0.0527892838117549
1769145331008,127,-1,-0.8135363981850979,-0.6496930911968646,-0.3609755797249407
1769145331012,127,-1,-1.105597362974713,-0.8484790356878922,-0.6609137991710091
1769145331016,127,-1,-1.2668624269266262,-0.725460598968714,-0.8294980739227532
1769145331020,127,-1,-1.30265592903522,-0.7962507550395034,-0.8729822861315705
1769145331024,127,-1,-1.2875683489082792,-0.7634915803145588,-0.8668293777983254
1769145331028,127,-1,-1.2601295634051504,-0.8075556325409126,-0.8495442025930582
1769145331032,127,-1,-1.1843987311525717,-0.7473984006958622,-0.7841535388434959
1769145331036,127,-1,-1.0126231994204962,-0.815096080007919,-0.6215731644259344
1769145331040,127,-1,-0.7763874126196494,-0.7430781584764493,-0.3930883668815539
1769145331044,128,0,-0.5975868070097492,0.2024169400034682,-0.2219745526579392
1769145331048,128,0,-0.5907806785269655,0.1907935309739583,-0.2244583166455864
1769145331052,127,-1,-0.7548407090874596,-0.763998898190776,-0.3992954031679371
1769145331056,127,-1,-0.9747276837701846,-0.8244610648515441,-0.6296657984553387
1769145331060,127,-1,-1.1307463184432691,-0.7430968334167427,-0.7946127320404539
1769145331064,127,-1,-1.1928713876637909,-0.8095635123901368,-0.8646403826174337
1769145331068,127,-1,-1.2068298862488898,-0.7892340088926839,-0.8869293902519461
1769145331072,127,-1,-1.205129723354247,-0.8336315937826069,-0.8949245687472556
1769145331076,127,-1,-1.1497644652600858,-0.7537889732868731,-0.8504014058288111
1769145331080,127,-1,-0.97206091363235,-0.8606291196682729,-0.6835865446610062
1769145331084,127,-1,-0.6719001066622108,-0.6648761741503707,-0.3933745173827538
1769145331088,128,0,-0.3687327674012778,0.03007771293705,-0.0993668183857594
1769145331092,128,0,-0.2328219248261854,0.349167619620072,0.0271120229450971
1769145331096,128,0,-0.3474621853057299,0.0157291058107058,-0.0977611647471853
1769145331100,127,-1,-0.6360553262457425,-0.63867963749623,-0.3966947503876343
1769145331104,127,-1,-0.9281418539466924,-0.892973031716908,-0.6984552769757844
1769145331108,127,-1,-1.0959409845984622,-0.7683093451300661,-0.8756594724053447
1769145331112,127,-1,-1.1295202371720716,-0.8347702970568723,-0.9193828718400424
1769145331116,127,-1,-1.0956005028647813,-0.8681548693760464,-0.8964362642864088
1769145331120,127,-1,-1.0415929750932835,-0.7217228418115552,-0.8531484295030025
1769145331124,127,-1,-0.9425048329821092,-0.874796997611482,-0.763694812581187
1769145331128,127,-1,-0.7307211385565526,-0.7559088699604068,-0.5611121328799377
1769145331132,128,0,-0.3711200741009186,0.1068030951727415,-0.2117330104947197
1769145331136,128,0,0.0835276003676016,0.1921486467028096,0.231266995239824
1769145331140,128,0,0.4964372038167294,0.184264506750193,0.6322569364709487
1769145331144,129,1,0.7137381319230292,1.2152009187071382,0.838599694321567
1769145331148,129,1,0.6638666817592687,1.1331108679204938,0.7788923007199094
1769145331152,128,0,0.4192620565857071,0.1992412989121002,0.5251226369312121
1769145331156,128,0,0.1550107170950218,0.0950615010118989,0.2518207313448667
1769145331160,128,0,0.0247510143928283,0.2354784017209599,0.111742893939321
1769145331164,128,0,0.0551552663762931,0.1836757360534239,0.1307341339614677
1769145331168,128,0,0.1380220952262431,0.1187252381008629,0.2008955910998603
1769145331172,128,0,0.1113789859913031,0.2436348359661535,0.1617453101335551
1769145331176,128,0,-0.1346337115200583,-0.0208023997986072,-0.0952348980061522
1769145331180,127,-1,-0.5905313696732639,-0.6281884190612675,-0.5605127107730945
1769145331184,127,-1,-1.1328780510617389,-1.0067529551730598,-1.1117119367947237
1769145331188,126,-2,-1.5959321306937082,-1.6675447037754527,-1.5842550368162442
1769145331192,126,-2,-1.86477666505347,-1.9987656162516807,-1.863793306067174
1769145331196,126,-2,-1.9307218465212137,-1.7993075946339476,-1.9415690427809928
1769145331200,126,-2,-1.875519317858,-1.8561627822160551,-1.8987740701712357
1769145331204,126,-2,-1.803676603383182,-1.8250273698319437,-1.8389628461271947
1769145331208,126,-2,-1.7777228608354334,-1.8128662546245469,-1.8237450188094404
1769145331212,126,-2,-1.79787267684762,-1.920435013374605,-1.8532321694003804
1769145331216,126,-2,-1.8249798976920968,-1.8548292020334296,-1.8893529385536576
1769145331220,126,-2,-1.818579131557862,-1.855780513343214,-1.8931582545589365
1769145331224,126,-2,-1.766727523137024,-1.8223071800226656,-1.853272721099267
1769145331228,126,-2,-1.7004457715553196,-1.8189310286229736,-1.7996682406032434
1769145331232,126,-2,-1.6885867640604526,-1.951805819362688,-1.799471696675789
1769145331236,126,-2,-1.804432209269752,-1.8171149499134065,-1.9252637569389708
1769145331240,126,-2,-2.069891964188905,-1.9497555493252676,-2.1999423389704784
1769145331244,125,-3,-2.4161587689999307,-2.706747261090712,-2.556385200339192
1769145331248,125,-3,-2.7053933642928647,-2.9729507538650712,-2.8575528370991936
1769145331252,125,-3,-2.810093092970908,-2.791210393800499,-2.974922015187876
1769145331256,125,-3,-2.691412081485021,-3.017009905630484,-2.867260740078486
1769145331260,125,-3,-2.4146263986256153,-2.760744441787213,-2.598218664932624
1769145331264,126,-2,-2.0900629403301605,-1.9025717191384328,-2.279634504048709
1769145331268,126,-2,-1.7929940538687226,-1.800041042717362,-1.9911811070787295
1769145331272,126,-2,-1.5456126666300594,-1.9703169675019987,-1.7587278013412002
1769145331276,126,-2,-1.3853371129830063,-1.874875273568536,-1.6187925004029835
1769145331280,126,-2,-1.4210472633498143,-1.9153622535439736,-1.6743257827072426
1769145331284,126,-2,-1.7328867799765986,-1.7670219840465835,-1.998112857284494
1769145331288,126,-2,-2.1083998724866486,-1.9253078537327415,-2.374274161321102
1769145331292,126,-2,-1.83426429258517,-1.8907719922594444,-2.09354075543122
1769145331296,128,0,0.1536164729119216,0.0600517753278566,-0.1019032870021059
1769145331300,132,4,4.659406381200002,4.079897665343539,4.395217316009194
1769145331304,138,10,11.4389290602912,10.297640009612335,11.151520748265296
1769145331308,146,18,18.80120099788322,17.949434982983767,18.48275475355276
1769145331312,152,24,24.06923741500095,24.28159249821434,23.72260672039847
1769145331316,154,26,24.835898844966568,25.77393517348039,24.47242686340112
1769145331320,148,20,20.311224952730345,20.37578716708755,19.94533576493145
1769145331324,139,11,11.860861785549291,10.906893754795275,11.503750682413312
1769145331328,129,1,2.3397820555577917,1.3716928431576711,1.993627565090772
1769145331332,122,-6,-5.34095160845423,-6.155745859332638,-5.685108660379186
1769145331336,118,-10,-9.500151181280645,-9.763500462209455,-9.857762141085916
1769145331340,118,-10,-10.126779984109902,-10.054419593053854,-10.510341313869604
1769145331344,119,-9,-8.415327370859991,-8.716486037370487,-8.827111317871564
1769145331348,122,-6,-5.873206394682385,-5.996279840893922,-6.305491504553194
1769145331352,124,-4,-3.5922339456504364,-3.865707652499122,-4.033586637784818
1769145331356,125,-3,-2.012112466070328,-3.0419130377661263,-2.4541383245835835
1769145331360,126,-2,-1.113231964616066,-1.8143325966915147,-1.5540155336556971
1769145331364,127,-1,-0.7276566687230706,-0.949912914168272,-1.1714367677919348
1769145331368,127,-1,-0.6975727369034148,-0.8191790188743502,-1.151382966366952
1769145331372,127,-1,-0.8580374565479223,-1.0203162155458851,-1.3268699154633183
1769145331376,126,-2,-1.0097563558845373,-1.9431544201475417,-1.4934819857355413
1769145331380,126,-2,-0.9949671045282508,-1.8852342820375751,-1.489699873435051
1769145331384,127,-1,-0.802733761771017,-0.9266225648691212,-1.3051358248090383
1769145331388,127,-1,-0.5633333376147507,-0.8410808232270506,-1.0732291770417877
1769145331392,127,-1,-0.4188323178015175,-1.0194253364347092,-0.9379485518559578
1769145331396,127,-1,-0.397240435981088,-0.9629652664934176,-0.9265699290881946
1769145331400,127,-1,-0.402695466425447,-0.8805683898864518,-0.9416096000233748
1769145331404,127,-1,-0.3117138513896757,-0.9662427866139452,-0.8589603885458794
1769145331408,127,-1,-0.0792897187179848,-0.7923250324392128,-0.634285731462282
1769145331412,128,0,0.2323659825093522,-0.0986945846539903,-0.3310166740434483
1769145331416,128,0,0.5146762481244491,0.1161297397426407,-0.058459491491123
1769145331420,128,0,0.6966966424733758,0.0064940119679158,0.1129677327381694
1769145331424,128,0,0.7727553959206526,0.1221293996612133,0.179075216657232
1769145331428,128,0,0.7625733269477943,0.1188212050826297,0.1606628137143658
1769145331432,128,0,0.6676095754682589,-0.0426884624085006,0.0587297919920868
1769145331436,128,0,0.4841205723096072,0.0730045966253908,-0.1320503567483382
1769145331440,128,0,0.2565453151576168,0.0027629193548763,-0.3681717020160583
1769145331444,127,-1,0.0927826452226321,-0.8796366757336099,-0.5409416123104687
1769145331448,127,-1,0.0971668190178358,-0.90573872930571,-0.5447666915750826
1769145331452,128,0,0.2796237685894313,-0.0247446786534906,-0.3699723090970248
1769145331456,128,0,0.540414194386799,0.0455520373103517,-0.117693918804687
1769145331460,128,0,0.7471629162155057,0.0046331036067578,0.079444719348374
1769145331464,128,0,0.8236102717693483,0.1085777783839151,0.1468220118014631
1769145331468,128,0,0.7780701254935334,0.0590806743209214,0.094317895606255
1769145331472,128,0,0.6770621791674212,0.0242461953700494,-0.0120532802160977
1769145331476,128,0,0.6075373564496951,-0.0377446594591294,-0.0874819406096572
1769145331480,128,0,0.6465623447035573,0.0976109544212837,-0.0564197653063618
1769145331484,128,0,0.8293509511234913,-0.0260080761527523,0.1169575316546435
1769145331488,128,0,1.119556306798987,0.1742293218903353,0.3981928910217749
1769145331492,129,1,1.4166074460961706,0.9038965285746974,0.6878349044349341
1769145331496,129,1,1.6228701299051391,1.0539575747588956,0.8878205126786805
1769145331500,129,1,1.7286521650969322,1.0270859919921067,0.9875309582673966
1769145331504,129,1,1.8327840555835009,0.9722725742325256,1.0854406631594051
1769145331508,129,1,2.066735555954926,1.1974377844845268,1.3130533412384509
1769145331512,130,2,2.4839110195848377,1.816379923675284,1.7235769935675158
1769145331516,130,2,3.0095462783581675,2.1890378363110403,2.2418902976371338
1769145331520,131,3,3.489911060978439,2.8396356107833927,2.7143451623763264
1769145331524,131,3,3.79535813546092,3.1613632645406935,3.0121086740300167
1769145331528,131,3,3.8950783369054287,2.958613525135679,3.105455019275035
1769145331532,131,3,3.854944880145103,3.0379758755608237,3.0606269747441632
1769145331536,131,3,3.777214001795047,2.9864411805528563,2.978910908173904
1769145331540,131,3,3.739099982370923,2.9952148782522885,2.935806267802248
1769145331544,131,3,3.767108815290801,3.03291624026003,2.956890833956927
1769145331548,131,3,3.840609038227818,2.995658296137302,3.0223956381759223
1769145331552,131,3,3.903583433460688,3.0435659942280835,3.0782512596290315
1769145331556,131,3,3.8835336897346817,2.924921563019985,3.0530944987640396
1769145331560,131,3,3.7300843702370505,3.0876412319438904,2.895775686575208
1769145331564,131,3,3.4610865168925176,2.891731613170389,2.6224981869937967
1769145331568,130,2,3.1685041557806977,2.109866808728942,2.324616780237154
1769145331572,130,2,2.9540061815039147,1.924440063672253,2.1045602996278534
1769145331576,130,2,2.839623833972972,2.00960368721456,1.985043734775327
1769145331580,130,2,2.7420283763895776,2.04231454174881,1.8824275367523255
1769145331584,130,2,2.5409741966586488,1.8550173015668197,1.6759834474969026
1769145331588,129,1,2.174943864386896,1.1898221351112586,1.3045723082577956
1769145331592,129,1,1.6755285154693922,0.733067639135543,0.8006369392657555
1769145331596,128,0,1.123370721633993,0.2858793865545689,0.2449958618807425
1769145331600,128,0,0.5820821931938378,-0.3271168837740899,-0.2995195937178755
1769145331604,127,-1,0.0693485857966732,-0.7203989171420915,-0.8161463156729356
1769145331608,127,-1,-0.4253565499764544,-1.308076907917903,-1.3156405638516098
1769145331612,126,-2,-0.9086416794819387,-1.7880300428479214,-1.8040228163112584
1769145331616,126,-2,-1.3706755899216128,-2.171184177674093,-2.270545361529358
1769145331620,125,-3,-1.7980382051554042,-2.9373065995941885,-2.701302930076633
1769145331624,125,-3,-2.1883268471180326,-3.045414988449991,-3.094332465984394
1769145331628,125,-3,-2.5425137326205873,-3.1008680457734443,-3.451530831804235
1769145331632,124,-4,-2.8442504299912312,-3.9359911726137633,-3.756895978291362
1769145331636,124,-4,-3.0597124893023393,-4.10692564251454,-3.97608538396343
1769145331640,124,-4,-3.1667354684843083,-3.946246320627239,-4.086406490207509
1769145331644,124,-4,-3.1807393151840517,-4.101699618866389,-4.103362552512622
1769145331648,124,-4,-3.148016497919248,-4.041380246440586,-4.073558283534534
1769145331652,124,-4,-3.1154763683322484,-4.03005306253833,-4.043945474360658
1769145331656,124,-4,-3.1058455254197654,-4.032713086374676,-4.037131271437931
1769145331660,124,-4,-3.114655421899965,-4.008312113058732,-4.048631335239632
1769145331664,124,-4,-3.1252330893341473,-4.082715260335286,-4.06178060203565
1769145331668,124,-4,-3.127276396358092,-4.063241900808828,-4.066132343949002
1769145331672,124,-4,-3.124478755250456,-4.046792062659171,-4.065221716646433
1769145331676,124,-4,-3.1260795203776,-4.022937405894587,-4.068440886439288
1769145331680,124,-4,-3.1321171896154505,-4.022755896133118,-4.076325370801091
1769145331684,124,-4,-3.1300839915813063,-4.093710746600945,-4.076777381839852
1769145331688,124,-4,-3.110425480047999,-4.070953137435063,-4.060047566925905
1769145331692,124,-4,-3.086226592028074,-4.06605283265287,-4.0383814637883315
1769145331696,124,-4,-3.091192698916873,-4.020085513082836,-4.044638205938088
1769145331700,124,-4,-3.146201691262795,-4.019893798099758,-4.099699026942693
1769145331704,124,-4,-3.21854551245443,-4.133834261017295,-4.171919264099558
1769145331708,124,-4,-3.2183574403750685,-4.036258926203882,-4.172688956077685
1769145331712,124,-4,-3.056638753046132,-4.143299355150528,-4.013256490869379
1769145331716,124,-4,-2.73284946803014,-3.943489023870891,-3.69210212505063
1769145331720,125,-3,-2.373433403639851,-3.1051116653839212,-3.3344892517763625
1769145331724,125,-3,-2.164619479608563,-3.0680624060345165,-3.126332574070785
1769145331728,125,-3,-2.2143799263371005,-3.125495893092448,-3.17614221260559
1769145331732,125,-3,-2.4568390876185675,-3.083003768695062,-3.4185538249095484
1769145331736,124,-4,-2.6917168898130917,-4.018949441533493,-3.6532434672272744
1769145331740,124,-4,-2.736641569971167,-4.040424492621116,-3.697818345353142
1769145331744,125,-3,-2.5625162778101966,-3.1353064705952396,-3.523862132581747
1769145331748,125,-3,-2.2946757413361913,-3.093036856243027,-3.257379130019701
1769145331752,125,-3,-2.093331139035106,-3.1272392411487724,-3.0579517973271035
1769145331756,125,-3,-2.034074123069802,-2.998776788782848,-2.999569434072126
1769145331760,125,-3,-2.0825778673221818,-3.079240674678402,-3.047101252469232
1769145331764,125,-3,-2.1538657799339957,-3.104579036083369,-3.116435363993183
1769145331768,125,-3,-2.185678170054942,-3.1453791595466822,-3.1468683842745144
1769145331772,125,-3,-2.1708519016333545,-3.096822814123059,-3.1320305639621555
1769145331776,125,-3,-2.1409700997547247,-3.0389246080389194,-3.1030363816258513
1769145331780,125,-3,-2.1288151609672163,-3.069881094481319,-3.0914930967567527
1769145331784,125,-3,-2.1430764293115607,-3.1128789433613933,-3.105163831093388
1769145331788,125,-3,-2.1691207919186426,-3.1689783790518393,-3.1294497806092467
1769145331792,125,-3,-2.1850512455484754,-3.0863078855477233,-3.1434256738754613
1769145331796,125,-3,-2.175888706438429,-3.0659584164430074,-3.1331466542264317
1769145331800,125,-3,-2.1419869563943985,-3.0714835651250403,-3.0990300288941532
1769145331804,125,-3,-2.1073304811904583,-3.102177320936392,-3.06411818949569
1769145331808,125,-3,-2.122387060676122,-3.2306840809351076,-3.0781078526562173
1769145331812,125,-3,-2.2435244831454364,-3.012029394793965,-3.1977164486523293
1769145331816,125,-3,-2.489088630945704,-3.186344660636738,-3.4420953026656287
1769145331820,124,-4,-2.8097744777533675,-3.9506860956969567,-3.761838136818409
1769145331824,124,-4,-3.1102173423262984,-4.237269641722813,-4.060651404835469
1769145331828,124,-4,-3.303553857410568,-4.137508749095447,-4.251381718151788
1769145331832,124,-4,-3.3429283189018935,-4.085136954194995,-4.288091297505549
1769145331836,124,-4,-3.210807805959705,-4.179788331900269,-4.154217775057331
1769145331840,124,-4,-2.9044316538374764,-3.9098790794013554,-3.846914952049567
1769145331844,125,-3,-2.451084889507559,-3.3595535403880197,-3.3926616940116245
1769145331848,125,-3,-1.9331871198974917,-2.9852992622489234,-2.873358165001343
1769145331852,126,-2,-1.477567099213721,-2.294058958010415,-2.415920394223749
1769145331856,126,-2,-1.197096120837857,-1.9616292468154184,-2.13339669581194
1769145331860,126,-2,-1.1252032158904623,-2.149534989836365,-2.059068294756815
1769145331864,126,-2,-1.1968301955277356,-2.15188853008367,-2.12775196817583
1769145331868,126,-2,-1.2898965954187371,-2.197713305475195,-2.217768506770584
1769145331872,126,-2,-1.2938529879999214,-2.1215242409586175,-2.219191241493486
1769145331876,126,-2,-1.1615001546613994,-2.1207800507676353,-2.084931937401675
1769145331880,126,-2,-0.9196835526812716,-2.01683822947719,-1.8414450886151377
1769145331884,127,-1,-0.6363514564040067,-1.3095691786959276,-1.556364810282014
1769145331888,127,-1,-0.3656364464807686,-1.0493216326828458,-1.2835759426371405
1769145331892,127,-1,-0.1151201344062859,-1.3117653242507812,-1.0301703373453028
1769145331896,127,-1,0.136223492012991,-0.9158228809207704,-0.7749950074204668
1769145331900,128,0,0.3955059865957047,-0.2512748016855142,-0.5119387704031608
1769145331904,128,0,0.6373015217270923,-0.1068658586296339,-0.267685266761469
1769145331908,128,0,0.8149358768829047,-0.2376526488543484,-0.0887597149626524
1769145331912,128,0,0.8727326798484081,-0.1997906345806122,-0.029392271539366
1769145331916,128,0,0.7552515608929247,0.0329153884532046,-0.1440808746112065
1769145331920,128,0,0.4354868998827284,-0.2982959384196284,-0.4602568227521
1769145331924,127,-1,-0.0459321363536378,-1.002603337364278,-0.9381023344371258
1769145331928,127,-1,-0.5754808427323034,-1.4252095224358772,-1.464262117288847
1769145331932,126,-2,-1.0177556481803722,-1.9889871022177077,-1.903128553193648
1769145331936,126,-2,-1.2871196431901186,-2.213203734976696,-2.1692443055581365
1769145331940,126,-2,-1.3829319508713651,-2.064626514113086,-2.2624689485987046
1769145331944,126,-2,-1.3679096799301649,-2.2334944502615137,-2.2455295182113333
1769145331948,126,-2,-1.3187157947179948,-2.251930714654397,-2.194276984452111
1769145331952,126,-2,-1.2888311716449086,-2.138995091828991,-2.161318828807464
1769145331956,126,-2,-1.296792279673921,-2.1296337248035244,-2.1651896388251775
1769145331960,126,-2,-1.33041550067386,-2.1166602589702723,-2.1945376119644813
1769145331964,126,-2,-1.3602637175102448,-2.2293697411398425,-2.220765123292495
1769145331968,126,-2,-1.3616515853307924,-2.2603325798335216,-2.219440019777245
1769145331972,126,-2,-1.3358714371395384,-2.1586690523830736,-2.191550393906484
1769145331976,126,-2,-1.312725244556192,-2.128887623226441,-2.166272140559334
1769145331980,126,-2,-1.327286175351139,-2.1254750894873227,-2.1779336493111687
1769145331984,126,-2,-1.3861784491270956,-2.234097306833863,-2.2327084365744385
1769145331988,126,-2,-1.4491541309881424,-2.290038840132709,-2.2907477719472173
1769145331992,126,-2,-1.4426788312686951,-2.1328381116140154,-2.27978631531459
1769145331996,126,-2,-1.303634899387649,-2.1961556473653596,-2.1379899326184244
1769145332000,126,-2,-1.030446000570462,-2.0410791771323367,-1.863974214825332
1769145332004,127,-1,-0.7032814854267342,-1.3577569822856606,-1.536481672515656
1769145332008,127,-1,-0.4458124097087332,-1.1723127123804544,-1.2766383286672862
1769145332012,127,-1,-0.3453252662681078,-1.282639958277746,-1.1698564307767696
1769145332016,127,-1,-0.3881415350473522,-1.0685879040589232,-1.203618450545825
1769145332020,127,-1,-0.4632668871417904,-1.1601496622473402,-1.2716102056210752
1769145332024,127,-1,-0.4447069252711089,-1.2944280821167486,-1.2527765553085537
1769145332028,127,-1,-0.3056135948535859,-1.1992503528126626,-1.1205100341681409
1769145332032,127,-1,-0.1646973515321256,-1.3430830002897538,-0.9872934555617046
1769145332036,127,-1,-0.164644878585174,-0.963008306921166,-0.9870960567212032
1769145332040,128,0,-0.1935643779240883,-0.3274996829016834,-1.003651422713825
1769145332044,128,0,0.347867042083458,-0.1112794996483383,-0.4416524713879333
1769145332048,130,2,2.434250333590275,1.586647518893268,1.6630797602928475
1769145332052,134,6,6.833298905641105,5.843765442834678,6.068148420941973
1769145332056,140,12,13.319920187001491,11.857552499902232,12.545499878938932
1769145332060,147,19,20.256549251933553,18.823595161389843,19.463735644237712
1769145332064,153,25,25.019488328644623,24.751720788044818,24.21032606561384
1769145332068,154,26,25.22794352006398,25.663261853454777,24.414204560650212
1769145332072,148,20,20.101635592551496,19.718602302082136,19.298936792165936
1769145332076,138,10,11.050859404749175,9.939558611603436,10.271269512816357
1769145332080,128,0,1.0557968002025864,-0.2896051799298302,0.3015789556145074
1769145332084,120,-8,-6.792740399345599,-8.101215774524416,-7.530957578162131
1769145332088,117,-11,-10.68608239558343,-11.47012026991286,-11.424552231448136
1769145332092,117,-11,-10.647323556476527,-11.129261163492764,-11.400031649957072
1769145332096,120,-8,-8.079334934512222,-8.237359157248884,-8.850193218893887
1769145332100,123,-5,-4.77037772294093,-5.156516304751287,-5.551662454275747
1769145332104,125,-3,-2.0282417661709404,-3.2555545925230005,-2.806087139818839
1769145332108,127,-1,-0.3554377745777601,-1.3614702190861938,-1.1187990590664174
1769145332112,128,0,0.3722075246752858,-0.2268915007843609,-0.3748280957600459
1769145332116,128,0,0.5354547180414009,-0.1979697672763063,-0.2020286273135456
1769145332120,128,0,0.4853046950969813,-0.1814289890042433,-0.2516497600844584
1769145332124,128,0,0.4265445678126231,-0.2722771814081367,-0.3147583891123567
1769145332128,128,0,0.4235135048305951,-0.3459921080393925,-0.3211725448788969
1769145332132,128,0,0.456428247445271,-0.2536357958523778,-0.2877183057156283
1769145332136,128,0,0.4827709449942472,-0.1998977248454558,-0.2578192636931623
1769145332140,128,0,0.480214141603878,-0.1888483163577289,-0.2563422693043327
1769145332144,128,0,0.4581607678840691,-0.293944582903909,-0.2754437473631403
1769145332148,128,0,0.4396593841604987,-0.3379788294003247,-0.2919320749329918
1769145332152,128,0,0.4356413826277718,-0.2726787683148224,-0.2941343741606154
1769145332156,128,0,0.4382451465129933,-0.2066177982844316,-0.2897481898731617
1769145332160,128,0,0.4371643743525095,-0.1931803899538776,-0.2894446995392982
1769145332164,128,0,0.4351315456115339,-0.3163082940980415,-0.2905435350716908
1769145332168,128,0,0.4405895778830623,-0.3321158689305437,-0.2840136615332421
1769145332172,128,0,0.4474692245816988,-0.2874730614358283,-0.2753520829354546
1769145332176,128,0,0.4337319076824613,-0.2234757222811883,-0.2868185139453635
1769145332180,128,0,0.3905190267803815,-0.1761087872972003,-0.328134363859684
1769145332184,128,0,0.3519700477506995,-0.3708440136684204,-0.3656529321464433
1769145332188,128,0,0.3832322908841987,-0.2874571654361185,-0.3336913260825127
1769145332192,128,0,0.5241241173037847,-0.3420292635573513,-0.1915742938967339
1769145332196,128,0,0.7416752703080337,-0.210499361151333,0.0275536003912744
1769145332200,129,1,0.9494223206726324,0.8327573831550147,0.2360914359546256
1769145332204,129,1,1.0817731061930276,0.5594413836597012,0.368197950059374
1769145332208,128,0,1.1427965417185342,-0.2023533972467497,0.429394604635794
1769145332212,129,1,1.1804746469834926,0.5320880734326341,0.4687957043786918
1769145332216,129,1,1.2350557138295624,0.8973190706061159,0.5255804011852977
1769145332220,129,1,1.3288497560038195,0.7264772070420346,0.6202414692425553
1769145332224,129,1,1.483855859641562,0.6275794584428365,0.7747536487053921
1769145332228,129,1,1.7143672215425347,0.7438666807213496,1.0048604676485189
1769145332232,130,2,2.000801351539737,1.5145608830801418,1.291660325027754
1769145332236,130,2,2.293738339146984,1.9422690057657972,1.5851863282855865
1769145332240,130,2,2.5504206046393185,1.6384257540997529,1.8422958376293497
1769145332244,130,2,2.756836241621244,1.719430540399852,2.049068238867155
1769145332248,131,3,2.9176228854982265,2.630071247529384,2.2098073644521397
1769145332252,131,3,3.0410246730598365,2.571704161746191,2.332321961582728
1769145332256,130,2,3.1333112775951655,1.9183992168604176,2.4235634738640837
1769145332260,131,3,3.1943342910355463,2.600908748280387,2.48465882375841
1769145332264,131,3,3.222875933960777,2.798757957353248,2.514389120501161
1769145332268,131,3,3.242415324547215,2.4627497867332298,2.534701481759353
1769145332272,131,3,3.3157899642161413,2.7713410485485253,2.60718443326894
1769145332276,131,3,3.5057970316812885,2.662609486770981,2.7950720314890387
1769145332280,131,3,3.799953140058341,2.8702295402326117,3.0873617155506325
1769145332284,132,4,4.079440713034646,3.5107320810153806,3.366064834290493
1769145332288,132,4,4.188174379557302,3.711516746941141,3.474595809559953
1769145332292,132,4,4.057368650216634,3.521662231981076,3.3432924806153235
1769145332296,131,3,3.769519513533219,2.874617196176188,3.054492192857194
1769145332300,131,3,3.4930317498955477,2.6575247108042133,2.7770085662673787
1769145332304,131,3,3.343807914751005,2.702308075067858,2.626863392224276
1769145332308,131,3,3.299987470895102,2.4969710978791815,2.5817625387162124
1769145332312,131,3,3.241522890862301,2.72703888648193,2.5212622717845155
1769145332316,131,3,3.068752370289392,2.6444366595528503,2.3460423657189935
1769145332320,130,2,2.785949524209612,1.8736604945465671,2.0613390695345384
1769145332324,130,2,2.477856117888553,1.4658996295655842,1.7523386603365918
1769145332328,130,2,2.2169587128930703,1.703817255643615,1.4906496655605128
1769145332332,130,2,1.999959401258896,1.5258901794306128,1.271765203384543
1769145332336,129,1,1.762829430477883,0.7994116528159652,1.0317482920030228
1769145332340,129,1,1.4409022848576956,0.7499711276655887,0.7071360455547211
1769145332344,129,1,1.0189846790043642,0.5022014777177435,0.2833316462789211
1769145332348,128,0,0.5440611676372282,-0.2874672730567568,-0.1933373309143619
1769145332352,128,0,0.0965011459797315,-0.5634814082950327,-0.6432577661055406
1769145332356,127,-1,-0.2650745738750086,-1.056626117520535,-1.0076219773932216
1769145332360,127,-1,-0.5450715506481378,-1.4704068767028806,-1.2901751010299352
1769145332364,127,-1,-0.7973563318014929,-1.2580372805194049,-1.5447030015056813
1769145332368,127,-1,-1.0627078709207545,-1.5736742040968497,-1.8125148151654744
1769145332372,126,-2,-1.3197569750759317,-2.284706843775475,-2.072530388971699
1769145332376,126,-2,-1.5067326255424738,-2.3364264512514477,-2.262727678493705
1769145332380,126,-2,-1.5955402263304896,-2.2343606323854512,-2.3547509944627483
1769145332384,126,-2,-1.6390034922684125,-2.493079849970785,-2.4014734849588444
1769145332388,126,-2,-1.7382450585728506,-2.377693379976208,-2.504091492439976
1769145332392,126,-2,-1.9572403098564384,-2.472919218091998,-2.726374397327905
1769145332396,125,-3,-2.2625197732952502,-3.184277891797473,-3.0345345005271196
1769145332400,125,-3,-2.543631578331,-3.391604280666776,-3.318215452837244
1769145332404,125,-3,-2.6969017601551344,-3.37667156713061,-3.4744594221310545
1769145332408,125,-3,-2.700712038460106,-3.4926932373100428,-3.4823486306192035
1769145332412,125,-3,-2.624284880148006,-3.3805061896949864,-3.410930904916867
1769145332416,125,-3,-2.570080197171912,-3.27938473667737,-3.361648504466181
1769145332420,125,-3,-2.5959204887528156,-3.3351212888958393,-3.391388087282978
1769145332424,125,-3,-2.6710769865474417,-3.450306989365501,-3.469338309736522
1769145332428,125,-3,-2.696124205508456,-3.437017892391251,-3.496811003507751
1769145332432,125,-3,-2.5744915272080724,-3.4495040983181213,-3.378266004100996
1769145332436,125,-3,-2.286986200127428,-3.211027807675908,-3.0953002110549734
1769145332440,126,-2,-1.9160635647027584,-2.4500607458858528,-2.7303823920204344
1769145332444,126,-2,-1.6042769893735582,-2.3311244086270264,-2.42494964887027
1769145332448,126,-2,-1.4801710529225531,-2.60451481457151,-2.305955107330101
1769145332452,126,-2,-1.5967860715892324,-2.263887780843852,-2.4259263932855366
1769145332456,126,-2,-1.9052882937204736,-2.4345079608117284,-2.7371729643102216
1769145332460,125,-3,-2.273327424397885,-3.2463236201070256,-3.1088169785888855
1769145332464,125,-3,-2.552236474506871,-3.541727911480039,-3.392582375505158
1769145332468,125,-3,-2.6629349131591655,-3.4399074246412993,-3.5088770697500316
1769145332472,125,-3,-2.6361690112159453,-3.3988037235193707,-3.4879182203410046
1769145332476,125,-3,-2.571325826497317,-3.356018442878615,-3.428762739013054
1769145332480,125,-3,-2.5508804797244236,-3.3107141067981187,-3.4135663404546532
1769145332484,125,-3,-2.5832099094223255,-3.5243369221106766,-3.4505663389863637
1769145332488,125,-3,-2.6128638299470763,-3.481642472173994,-3.4846443256571287
1769145332492,125,-3,-2.577854477056424,-3.3308916025222475,-3.454408734761682
1769145332496,125,-3,-2.46262882567782,-3.504630157501819,-3.3446337034244484
1769145332500,125,-3,-2.3074290347229742,-3.088667171318898,-3.1954204686811547
1769145332504,126,-2,-2.1711815601771227,-2.876510801484515,-3.0652809727965606
1769145332508,125,-3,-2.081450197102772,-3.0519650629214383,-2.9812969731908283
1769145332512,126,-2,-2.0158333683987983,-2.849267884408702,-2.9207767932883475
1769145332516,125,-3,-1.9297087778591375,-2.952041140351036,-2.8394127096012296
1769145332520,126,-2,-1.8006637110386066,-2.6748312835075265,-2.7157100163301084
1769145332524,126,-2,-1.6482487282870182,-2.335952589011226,-2.569863008165451
1769145332528,126,-2,-1.5186007945424076,-2.558489662808642,-2.447448358797246
1769145332532,126,-2,-1.4550572238263708,-2.4309563636435554,-2.3904199434852895
1769145332536,126,-2,-1.4739985768286754,-2.2966919986659713,-2.414477949733912
1769145332540,126,-2,-1.5493704771172632,-2.439917179917973,-2.494443389570034
1769145332544,126,-2,-1.611993418308821,-2.5192052479526925,-2.56263459676896
1769145332548,126,-2,-1.5782898020057323,-2.4450338783936214,-2.535926402177469
1769145332552,126,-2,-1.4052000595298104,-2.5262921509601,-2.3702082379779075
1769145332556,126,-2,-1.1311579228662954,-2.2319541147467734,-2.1026794699885754
1769145332560,127,-1,-0.8543888921604201,-1.514427398065428,-1.8316262434688
1769145332564,127,-1,-0.6510197967889093,-1.478869113147983,-1.634248585393452
1769145332568,127,-1,-0.5066696881775203,-1.4877726945605785,-1.4966579815169905
1769145332572,127,-1,-0.3375198750865021,-1.5139632439518154,-1.3343404447975251
1769145332576,127,-1,-0.0865682639515184,-1.25550495380161,-1.0895779180204972
1769145332580,128,0,0.2047508495889648,-0.5027852612913499,-0.8041959299654708
1769145332584,128,0,0.4249962959113996,-0.5286812439562159,-0.5905996988731121
1769145332588,128,0,0.4882438034018578,-0.4198639729551292,-0.534906552130403
1769145332592,128,0,0.3971657883044852,-0.642425599294159,-0.6335930641299939
1769145332596,127,-1,0.2186254637964441,-1.1089284086768103,-0.8189385144032214
1769145332600,128,0,0.0111592521942736,-0.7047668446107634,-1.0324327813961158
1769145332604,127,-1,-0.2173085278404418,-1.309316926111855,-1.266858921448744
1769145332608,127,-1,-0.4878136858196829,-1.6710415268258376,-1.5439481471092722
1769145332612,127,-1,-0.7978609634743288,-1.408897587332525,-1.8614580550133517
1769145332616,126,-2,-1.0964195618759212,-2.3444432732504534,-2.167963885930303
1769145332620,126,-2,-1.3161402519865153,-2.5448147065860978,-2.3952339705658936
1769145332624,126,-2,-1.4339919244141126,-2.3916193015484466,-2.519701918010754
1769145332628,126,-2,-1.4941924839880756,-2.7116628653463057,-2.5861366995414614
1769145332632,126,-2,-1.5605433131373938,-2.275414407017715,-2.659418101794328
1769145332636,126,-2,-1.645231528288945,-2.591785303735326,-2.751929137996364
1769145332640,125,-3,-1.6951821263026612,-3.265537311515648,-2.809594100441836
1769145332644,126,-2,-1.654519562252208,-2.7025998813817447,-2.775756875271709
1769145332648,126,-2,-1.532058391120295,-2.4249255992102623,-2.659827010615523
1769145332652,126,-2,-1.3987993774987395,-2.547993359688934,-2.5339463879164312
1769145332656,126,-2,-1.3244458464796094,-2.3755631566739277,-2.4679222414209803
1769145332660,126,-2,-1.3237334763232926,-2.4678165120298914,-2.4753694700302766
1769145332664,126,-2,-1.3590641990233614,-2.5626954759319043,-2.517610458956453
1769145332668,126,-2,-1.3835135480052745,-2.53192890034036,-2.5478794887143708
1769145332672,126,-2,-1.3775257472447795,-2.495599322340724,-2.5480358944268806
1769145332676,126,-2,-1.351359928943049,-2.4101094795490585,-2.529833196259382
1769145332680,126,-2,-1.3244993343500888,-2.484282988525661,-2.512842093719958
1769145332684,126,-2,-1.3108061053300202,-2.553969944899247,-2.5091032460154596
1769145332688,126,-2,-1.3189029976354782,-2.554349531647934,-2.5247031863184857
1769145332692,126,-2,-1.3504535967812004,-2.4932947065409103,-2.560243964947858
1769145332696,126,-2,-1.38480593322189,-2.417735445370842,-2.5969194405464116
1769145332700,126,-2,-1.3732570212004496,-2.5118563386524455,-2.5900618125067787
1769145332704,126,-2,-1.2782306307800493,-2.5433640566478033,-2.505599288457214
1769145332708,126,-2,-1.1444134746205,-2.5712368724874324,-2.3881638016264257
1769145332712,126,-2,-1.1172078541542605,-2.511332357071894,-2.3784104243397737
1769145332716,126,-2,-1.3192487479660562,-2.3787975847320277,-2.591675984978022
1769145332720,126,-2,-1.6067961280097685,-2.623318260635865,-2.8792648028825862
1769145332724,126,-2,-1.385994491122223,-2.3980580305415433,-2.649449191440403
1769145332728,128,0,0.2738929424318739,-0.7846462179295146,-0.9810789884834168
1769145332732,131,3,4.135208936107153,2.738661917141961,2.8770919563532296
1769145332736,137,9,10.091839361762029,8.333669207998643,8.814775402524674
1769145332740,143,15,16.73112294321766,14.66048005246995,15.425477690483312
1769145332744,149,21,21.614386418262395,20.306195312872106,20.28225131464298
1769145332748,151,23,22.3494688756164,22.443408695514897,21.002366761085348
1769145332752,146,18,17.926503886643196,17.531999996235974,16.578928938642377
1769145332756,136,8,9.442287033193413,7.4211145968979055,8.105244668410002
1769145332760,126,-2,-0.3448875409728567,-2.3737344061166654,-1.668953360435805
1769145332764,119,-9,-8.379970512343782,-9.746795375706242,-9.698950099540022
1769145332768,114,-14,-12.723839484631908,-14.408299408338268,-14.051845440458566
1769145332772,114,-14,-13.194387694375742,-14.621054539746142,-14.543567668218987
1769145332776,117,-11,-11.004486584479777,-11.426914343759478,-12.37873619100869
1769145332780,120,-8,-7.803851602481437,-8.560877512007352,-9.198007718628892
1769145332784,122,-6,-4.816496533084336,-6.6517437150650665,-6.219979118896719
1769145332788,124,-4,-2.550348324811592,-4.462348247497012,-3.9529976895323697
1769145332792,126,-2,-1.0374505354014203,-2.6314647188092053,-2.4352262277327292
1769145332796,127,-1,-0.1921536540269778,-1.3759070419794404,-1.589247382163801
1769145332800,128,0,0.0534402117603682,-0.6818605756113625,-1.3516196301668493
1769145332804,127,-1,-0.1733857580677912,-1.5452380465148854,-1.5924252144096462
1769145332808,126,-2,-0.6276382161182912,-2.5836615709701474,-2.0598883396892735
1769145332812,126,-2,-1.039208744976217,-2.522204474100775,-2.4794868568916675
1769145332816,126,-2,-1.2599847544143394,-2.4768361016986775,-2.7044226196167025
1769145332820,126,-2,-1.303500848471039,-2.6209308773998146,-2.7525794478505614
1769145332824,126,-2,-1.2526943627863667,-2.6153328973702363,-2.7094575577828968
1769145332828,126,-2,-1.1510302774812142,-2.5437694902158556,-2.617478348365773
1769145332832,126,-2,-0.9832444086286238,-2.5758757611270537,-2.458661023948451
1769145332836,126,-2,-0.7386596363689684,-2.41896703132908,-2.2208441208949727
1769145332840,127,-1,-0.4652288257042397,-1.7233167237930542,-1.952878049881234
1769145332844,127,-1,-0.2448821581158617,-1.5058027294157652,-1.7386943926257654
1769145332848,127,-1,-0.1173063425753085,-1.701534222235394,-1.6189202258790445
1769145332852,127,-1,-0.0408106853872571,-1.4164990137744022,-1.5509153517103655
1769145332856,127,-1,0.0627973020975751,-1.5864749808591123,-1.4548675786947265
1769145332860,127,-1,0.2272855175632837,-1.606277259217154,-1.2965826368995086
1769145332864,128,0,0.4137779961948505,-0.5883679421914085,-1.116090820074558
1769145332868,128,0,0.563135488936334,-0.7017705549512689,-0.9736944256927796
1769145332872,127,-1,0.6620940358627669,-1.3656180175175407,-0.8824495990724143
1769145332876,128,0,0.7455604262827058,-0.7086047067540611,-0.8065661845194199
1769145332880,128,0,0.8429548717905208,-0.4682101586342503,-0.7163812603321961
1769145332884,128,0,0.9387582537983344,-0.7669539095115425,-0.627602166188415
1769145332888,128,0,0.9870081661534232,-0.5290294171579285,-0.5859897229461573
1769145332892,128,0,0.9608792992989134,-0.5373432931506964,-0.6181290556365684
1769145332896,128,0,0.8953164312840647,-0.5984494132761391,-0.689558065511535
1769145332900,128,0,0.8849283552810374,-0.5404084387011993,-0.7064695421703608
1769145332904,128,0,1.0232693192028817,-0.7800675042993781,-0.5754224979866747
1769145332908,128,0,1.319921473921511,-0.4626181302685643,-0.2862296314676792
1769145332912,129,1,1.671412256911753,0.335094640109191,0.0581444340581198
1769145332916,129,1,1.9292290768764893,0.5301516381159781,0.3093053379228963
1769145332920,129,1,2.015099550944816,0.3157285934788738,0.3890331739623807
1769145332924,129,1,1.9814311510852196,0.315546084642929,0.3496842474988306
1769145332928,129,1,1.965721959350689,0.4694076409138741,0.3283268434243594
1769145332932,129,1,2.0819490716239475,0.3396153586994457,0.4384171866549744
1769145332936,129,1,2.337588135163847,0.5559055357940359,0.6873136486910443
1769145332940,130,2,2.639237260796499,1.2416173929348122,0.981886878645583
1769145332944,130,2,2.8799899815816494,1.3811209891984324,1.2157178994819644
1769145332948,130,2,3.032448524267185,1.3933927386142058,1.362087298770685
1769145332952,130,2,3.1634311484671205,1.3782576655504384,1.4882031996135074
1769145332956,130,2,3.3608109620093485,1.5279094760201015,1.6811868819848614
1769145332960,131,3,3.6468451165557023,2.223178114852473,1.9616419689600435
1769145332964,131,3,3.9541334636662295,2.4091174234620816,2.26141051101566
1769145332968,131,3,4.1689857710424825,2.334183354289159,2.468173836605102
1769145332972,131,3,4.19575922547647,2.4232071817764127,2.4884810219358684
1769145332976,131,3,4.00773507887196,2.469828818900565,2.2962224183311526
1769145332980,131,3,3.672013216816526,2.2399138393029574,1.9570750088586797
1769145332984,130,2,3.3289603665770326,1.4168337927620531,1.6096886259608536
1769145332988,130,2,3.1148140650135736,1.265520751191239,1.3897341308990792
1769145332992,130,2,3.0683702412911513,1.5244455804737544,1.3364897146826045
1769145332996,130,2,3.097879905462895,1.297772472918692,1.3590853776061431
1769145333000,130,2,3.04317253823689,1.440921609728292,1.298213904199608
1769145333004,130,2,2.788717554613331,1.1734828741942172,1.038787709406142
1769145333008,129,1,2.343960921494996,0.5040173930592422,0.5899510167813649
1769145333012,129,1,1.834144452989672,0.2574778144264823,0.0761739982176981
1769145333016,128,0,1.4093805260100138,-0.4492677219304246,-0.3529771478911456
1769145333020,128,0,1.1378998130190037,-0.8360397876046884,-0.6293538129649758
1769145333024,128,0,0.9634193046750856,-0.5354735460457677,-0.8092274015209733
1769145333028,128,0,0.7585360160465717,-0.8368294032228658,-1.019991347596107
1769145333032,127,-1,0.4247721006741363,-1.3901228277493622,-1.3596880182848965
1769145333036,127,-1,-0.0482875493834353,-1.8539990736850844,-1.8378681496465377
1769145333040,126,-2,-0.6036522306169378,-2.424999160397687,-2.397059258173858
1769145333044,126,-2,-1.176010030344404,-2.969930042580432,-2.972505688964657
1769145333048,125,-3,-1.7237728872779805,-3.413892505760948,-3.523806135617259
1769145333052,125,-3,-2.215295441184907,-3.822673729881371,-4.01999555419696
1769145333056,124,-4,-2.606811782660473,-4.466353197591406,-4.416813332279421
1769145333060,124,-4,-2.85347791960818,-4.7935142913604025,-4.668335889312348
1769145333064,124,-4,-2.9466798804034893,-4.660931979857863,-4.765491101078083
1769145333068,124,-4,-2.932234095159191,-4.678893404883336,-4.754645919334183
1769145333072,124,-4,-2.8836038216884843,-4.637189823634012,-4.7100168860312825
1769145333076,124,-4,-2.8546519568959536,-4.612242859019701,-4.685522139562645
1769145333080,124,-4,-2.8557339128489985,-4.724049291014255,-4.6908901812950345
1769145333084,124,-4,-2.868483581656694,-4.69944413920083,-4.707193856994039
1769145333088,124,-4,-2.8760557421181256,-4.681580265354976,-4.717695974171311
1769145333092,124,-4,-2.8770331386606767,-4.637708867703111,-4.7216447578724265
1769145333096,124,-4,-2.875940912221464,-4.631599129214866,-4.724142547454068
1769145333100,124,-4,-2.8705243270521508,-4.733650729369115,-4.722898105709244
1769145333104,124,-4,-2.8555465776422784,-4.695213682310079,-4.712089783156915
1769145333108,124,-4,-2.8378674173494702,-4.700655927126888,-4.697976749220681
1769145333112,124,-4,-2.839219900986131,-4.6429989668757905,-4.702165438990823
1769145333116,124,-4,-2.8742792523057767,-4.625471332246864,-4.739728827005956
1769145333120,124,-4,-2.9212028680059867,-4.787837407145072,-4.789344497108766
1769145333124,124,-4,-2.917648558621995,-4.630461067085218,-4.788816374726012
1769145333128,124,-4,-2.7973038901574427,-4.790430621821031,-4.671537675844142
1769145333132,124,-4,-2.5421632584027467,-4.5788721816084745,-4.41925339609196
1769145333136,125,-3,-2.202789307652022,-3.671329300089809,-4.082689305349734
1769145333140,125,-3,-1.864176650402184,-3.818586907528366,-3.7470827872347434
1769145333144,125,-3,-1.5879156280815043,-3.5473971789749443,-3.473841593830035
1769145333148,126,-2,-1.382142512273718,-2.9539977241744326,-3.2706081598659074
1769145333152,125,-3,-1.2186302520791663,-3.378279788110406,-3.108924893372809
1769145333156,126,-2,-1.072258863115476,-2.9323307975846733,-2.964069273109383
1769145333160,126,-2,-0.9440229771194156,-2.543845266878879,-2.837798282518335
1769145333164,126,-2,-0.8518009309010444,-2.8526264149230514,-2.7483600652974634
1769145333168,126,-2,-0.8075915736807535,-2.6651973686234847,-2.7072747129264436
1769145333172,126,-2,-0.8071497404965003,-2.661838047685075,-2.709387454606685
1769145333176,126,-2,-0.8349589586698568,-2.714188352867221,-2.738635431311236
1769145333180,126,-2,-0.8708996497235892,-2.715255084223839,-2.77512793335451
1769145333184,126,-2,-0.8922819587711517,-2.7621532705112273,-2.7970616425092634
1769145333188,126,-2,-0.8780007483559024,-2.705993310338539,-2.7843328837939465
1769145333192,126,-2,-0.8229059898402522,-2.694225409415516,-2.7320983575268714
1769145333196,126,-2,-0.7584193514765474,-2.6600800702880347,-2.6709340024874235
1769145333200,126,-2,-0.7580375820764591,-2.811372384458384,-2.6729287068193828
1769145333204,126,-2,-0.90261752533883,-2.6671516923873844,-2.818222602839896
1769145333208,126,-2,-1.2103298200798458,-2.8138348754968545,-3.125529877549146
1769145333212,125,-3,-1.585138246804708,-3.6207241550022418,-3.4999594046424467
1769145333216,125,-3,-1.8473270008081233,-3.728785628645781,-3.762598675370105
1769145333220,125,-3,-1.8465077154778715,-3.786560503130562,-3.7632281143923456
1769145333224,125,-3,-1.5748951274919447,-3.677564557565523,-3.493807484215741
1769145333228,126,-2,-1.1837133725822326,-2.833773164161488,-3.1050311344166777
1769145333232,126,-2,-0.8804502163268881,-2.604518657544826,-2.803583015103297
1769145333236,126,-2,-0.7842954004929404,-2.7748566617342605,-2.707877346864548
1769145333240,126,-2,-0.8508527889825529,-2.761542552070127,-2.773486914745127
1769145333244,126,-2,-0.9170910278408702,-2.711233445406064,-2.8383658316189395
1769145333248,126,-2,-0.8255512199375374,-2.822491340149174,-2.7462755286709006
1769145333252,126,-2,-0.5381176937709171,-2.611132413850356,-2.45959328535811
1769145333256,127,-1,-0.1637665834283801,-1.8032494163547723,-2.086949493315301
1769145333260,127,-1,0.1149016568712937,-1.7404011689881744,-1.810185626010648
1769145333264,127,-1,0.1588142599066981,-1.7602145008406005,-1.7674864647292514
1769145333268,127,-1,-0.054017218392058,-1.7765088119447596,-1.9801116737262463
1769145333272,126,-2,-0.4421639739629617,-2.680354400928055,-2.3666434812984356
1769145333276,126,-2,-0.8892271994401171,-2.7520136483038375,-2.811763790574469
1769145333280,126,-2,-1.3007015928970476,-2.803076302549627,-3.2223567613467465
1769145333284,125,-3,-1.6188833447310182,-3.72107279636442,-3.5410418078981536
1769145333288,125,-3,-1.8180898654011797,-3.8145738212078593,-3.741140496423837
1769145333292,125,-3,-1.9047842191527504,-3.665173758488262,-3.828061119331348
1769145333296,125,-3,-1.914707337701628,-3.7921456627774175,-3.837430807828082
1769145333300,125,-3,-1.8942262040774445,-3.768718467466445,-3.8160664429714446
1769145333304,125,-3,-1.876937626469923,-3.777591706334285,-3.797824679022753
1769145333308,125,-3,-1.8739357845839013,-3.765327508542091,-3.79380827841466
1769145333312,125,-3,-1.8800841743590524,-3.734532415991038,-3.798949542034912
1769145333316,125,-3,-1.886370077908978,-3.7469245883533246,-3.8043849456910346
1769145333320,125,-3,-1.889644796878715,-3.820062147087836,-3.8069882779307544
1769145333324,125,-3,-1.895053540738579,-3.752153712387661,-3.8117547711797584
1769145333328,125,-3,-1.908721729970094,-3.780062892168292,-3.824593473328572
1769145333332,125,-3,-1.9244336799465869,-3.7772277021573983,-3.8390238949458464
1769145333336,125,-3,-1.9169743264396029,-3.670104766387544,-3.829585731158468
1769145333340,125,-3,-1.85329404746966,-3.9761769589835256,-3.7634423650975775
1769145333344,125,-3,-1.7152778155757848,-3.541188206411664,-3.623510503561086
1769145333348,126,-2,-1.5145225388521084,-3.0623700660604967,-3.4225061679027537
1769145333352,125,-3,-1.2901353551164267,-3.4708771007758026,-3.199212440685343
1769145333356,126,-2,-1.09640327512377,-3.0182534781930803,-3.005736570158963
1769145333360,126,-2,-0.9819715094585962,-2.639884421617122,-2.888341895072637
1769145333364,126,-2,-0.9580511493240204,-2.8807077345871233,-2.8579968162141274
1769145333368,126,-2,-0.9764367036235676,-2.757364395515334,-2.8694298078261076
1769145333372,126,-2,-0.9548168785582992,-2.758067758080877,-2.8450438849462696
1769145333376,126,-2,-0.8544745763273524,-2.7964220479587754,-2.749002303369052
1769145333380,126,-2,-0.7514133943347164,-2.8269075383602913,-2.654863470581006
1769145333384,126,-2,-0.8045482024939808,-2.7579907021256576,-2.7139805421575063
1769145333388,126,-2,-1.0683129199062489,-2.8372614588837997,-2.973269956085203
1769145333392,126,-2,-1.2318668299310311,-2.752457001311809,-3.1209828939519744
1769145333396,127,-1,-0.5138114449173052,-1.7613297887853088,-2.383424839892493
1769145333400,129,1,2.0521748300651756,0.0598942047816599,0.1945213919910435
1769145333404,133,5,6.94128097536767,4.411539499665387,5.081490386483806
1769145333408,140,12,13.44850237937478,10.93693091407078,11.57483682654762
1769145333412,146,18,19.56540598385159,17.495940996187862,17.6749718111686
1769145333416,151,23,22.742567161303224,21.95430195890085,20.842013348504807
1769145333420,149,21,21.22142233635052,20.29591168812745,19.32318738086509
1769145333424,142,14,15.09886767574348,13.16497272340336,13.21558784800616
1769145333428,133,5,6.376988679599019,4.094140429845154,4.515733427295312
1769145333432,124,-4,-2.0605218589879213,-4.605247612738408,-3.902151303337165
1769145333436,119,-9,-7.867130113182213,-9.993726360540371,-9.700228825432388
1769145333440,117,-11,-10.167343709888591,-11.658578447109294,-12.00560298235459
1769145333444,118,-10,-9.556162963389598,-10.92051501489679,-11.40797051201021
1769145333448,120,-8,-7.377606453762612,-8.846151173723065,-9.241637253918
1769145333452,122,-6,-4.886948199254924,-6.6775985769178705,-6.753937959700531
1769145333456,124,-4,-2.803419448667713,-5.01442285806665,-4.662449567406226
1769145333460,125,-3,-1.348057209529658,-3.550519706664838,-3.1930829947784343
1769145333464,127,-1,-0.5049557106019691,-2.13042839991808,-2.33756217319508
1769145333468,127,-1,-0.1998062180058383,-1.5826464133859663,-2.0266585220156834
1769145333472,127,-1,-0.3102104233980648,-2.025079636313232,-2.1374002154358807
1769145333476,126,-2,-0.6349411617726561,-2.6627816971521128,-2.463928747875005
1769145333480,126,-2,-0.948034981554866,-2.890650520351282,-2.7762074520564703
1769145333484,126,-2,-1.1122058642706925,-2.8308558543372433,-2.9364300443288993
1769145333488,126,-2,-1.1351840083293074,-2.847993591931777,-2.9543550700578516
1769145333492,126,-2,-1.1119896069880897,-2.83950955350151,-2.926786993576604
1769145333496,126,-2,-1.1104523195684324,-2.8200432577280203,-2.921758406635865
1769145333500,126,-2,-1.103408769288177,-2.7757482416650836,-2.9113637852068224
1769145333504,126,-2,-1.0024909020114925,-2.932225600203977,-2.8066995530824452
1769145333508,126,-2,-0.7573863894836501,-2.771925950641183,-2.557710285756253
1769145333512,127,-1,-0.4250933053022269,-1.940218753303876,-2.2220984398606913
1769145333516,127,-1,-0.1408909376139428,-1.728809811950632,-1.9352244633407687
1769145333520,127,-1,-0.0170270161839389,-1.8847413908786437,-1.8082695134206324
1769145333524,127,-1,-0.0597864637457694,-1.820160707677585,-1.8464281478074005
1769145333528,127,-1,-0.1673851577640915,-1.9166049811827368,-1.9483612953892244
1769145333532,127,-1,-0.1984918438365248,-1.813917535377506,-1.974449081623352
1769145333536,127,-1,-0.0612896971028143,-1.8662393768097925,-1.833927772630003
1769145333540,127,-1,0.2274787149806257,-1.7551924114428816,-1.5428665432760176
1769145333544,128,0,0.5515271071930062,-0.9556588154657616,-1.216099921673786
1769145333548,128,0,0.7770631130377403,-0.8005307027821035,-0.9866245791209686
1769145333552,128,0,0.8551243304928321,-0.9661461526015436,-0.903599909558092
1769145333556,128,0,0.8608446436887354,-0.7098824341156654,-0.8925518722063276
1769145333560,128,0,0.9310918595069052,-0.9346610280325084,-0.8172697024811366
1769145333564,128,0,1.1492946059847673,-0.780166325035049,-0.5948489194794195
1769145333568,129,1,1.4741821551693763,0.0161108595156995,-0.2667831636816968
1769145333572,129,1,1.7714907639801891,0.1738562942626916,0.0331504505066159
1769145333576,129,1,1.917586709977711,0.1633302766431102,0.1825077312468975
1769145333580,129,1,1.8880262186199936,0.1625382584078207,0.1577184496769071
1769145333584,129,1,1.770723186563628,0.1118484251196714,0.0462224167996049
1769145333588,129,1,1.7085903761282284,0.1232979088525635,-0.0104105581893582
1769145333592,129,1,1.81506642530476,0.0113715766056474,0.1005402084707549
1769145333596,129,1,2.110525358230476,0.3711423209164526,0.3998534254790216
1769145333600,130,2,2.5169969149255564,0.8806832554847102,0.8101226754143949
1769145333604,130,2,2.9170439188583632,1.4434928561851836,1.2139083518232732
1769145333608,131,3,3.231774805375361,1.7210829656417836,1.532289170661821
1769145333612,130,2,3.4515810662219986,1.427628427921173,1.7561719413968366
1769145333616,131,3,3.601623622665286,1.9299555634209409,1.911191484372424
1769145333620,131,3,3.694816826759452,2.3010912835150483,2.0099229712960067
1769145333624,131,3,3.7287015891661697,2.0394671559446564,2.049100723996859
1769145333628,131,3,3.717810380514744,2.0740366408376074,2.0428133424538037
1769145333632,131,3,3.709634530957289,2.0945282273655046,2.038643830418798
1769145333636,131,3,3.7568842235337025,2.2085861769456554,2.0896577533627028
1769145333640,131,3,3.8688186615384086,2.0436484699826325,2.205528821749625
1769145333644,131,3,3.98956882006811,2.2693241184117707,2.3306152057401297
1769145333648,132,4,4.034640082198284,2.8396472732312064,2.380362928848387
1769145333652,131,3,3.963478633939571,2.3046615514351982,2.314193983375351
1769145333656,131,3,3.820946783803718,1.9831879095181857,2.177068783653311
1769145333660,131,3,3.702939143359619,2.249373522539176,2.064574610694554
1769145333664,131,3,3.674223597039699,2.076906594615469,2.0406445525155528
1769145333668,131,3,3.707235808374771,1.9799076737817776,2.0772117993667343
1769145333672,131,3,3.686971168826858,2.2069859038600637,2.0598409513510725
1769145333676,131,3,3.478183046696988,1.9914876816945788,1.854544269908141
1769145333680,130,2,3.01283533647897,1.2974233802039998,1.3941750385214289
1769145333684,130,2,2.3421845652366304,0.9580826362712498,0.7298273581657975
1769145333688,129,1,1.6164550533201874,0.1312959325959736,0.010678928909006
1769145333692,128,0,0.9995517677870752,-0.9873248453423948,-0.600661725343862
1769145333696,128,0,0.5730886696841815,-0.8217215243039595,-1.023409129091012
1769145333700,128,0,0.2958006470962238,-0.8917299647627218,-1.2983702732673017
1769145333704,127,-1,0.0409635063233295,-1.88250615036559,-1.5504065305760544
1769145333708,127,-1,-0.3207578802106237,-2.0113937233288732,-1.9072330675468665
1769145333712,127,-1,-0.8390708076646025,-1.894744868029346,-2.419064775885827
