timestamp_ms,ecg_u8_raw,ecg_counts_raw_int,ecg_counts_filt_monitor,ecg_counts_filt_diagnostic,ecg_counts_filt_st
1769250975768,122,-6,-5.765111668797285,-4.910119585716249,-4.976855746069365
1769250975772,122,-6,-5.5357181599349135,-4.7872053110570825,-4.740484188533205
1769250975776,122,-6,-5.134040592123783,-4.691346234950851,-4.3306565244256685
1769250975780,123,-5,-4.64866877804712,-3.722841545790037,-3.835872075647357
1769250975784,124,-4,-4.164481571239562,-2.880656672088272,-3.342415131829631
1769250975788,124,-4,-3.693185585876968,-2.919181198378684,-2.862733903770017
1769250975792,124,-4,-3.168859389826011,-2.7389969637991527,-2.330001578647983
1769250975796,125,-3,-2.5278650349232556,-1.777317223324582,-1.6798186026171864
1769250975800,126,-2,-1.7864400110815335,-0.5840389818823251,-0.9293057654398402
1769250975804,127,-1,-1.0330426568636002,-0.0746447249134716,-0.1680580202951769
1769250975808,127,-1,-0.359068240697265,0.3251958107177537,0.5131129376536919
1769250975812,128,0,0.1912715354865867,0.9898872058522192,1.0715855105360632
1769250975816,128,0,0.6226823876329921,1.5044581210692949,1.5124345537966546
1769250975820,129,1,0.972371678966692,2.1478116821472923,1.8717437213378672
1769250975824,129,1,1.2940006251875442,2.1641915229005444,2.2023801688458513
1769250975828,129,1,1.6295383705444446,2.1412885411649163,2.5467066244358336
1769250975832,130,2,1.9738494837717016,3.1131670219366887,2.8999857872603196
1769250975836,130,2,2.265953715823907,3.451618301336899,3.200753929384181
1769250975840,130,2,2.4173970835227037,3.135560859587605,3.3600251752262498
1769250975844,130,2,2.345438439050127,3.241294970919165,3.295409596396306
1769250975848,130,2,1.9875639566177363,3.023350663212306,2.9452701176653666
1769250975852,129,1,1.312943946572617,2.2448740108713223,2.27936009122754
1769250975856,128,0,0.3487339750245773,1.333868228620393,1.3248234241485013
1769250975860,127,-1,-0.7938871808864295,0.2331453393230009,0.1923604469974142
1769250975864,126,-2,-1.9291123669878247,-0.822306214220955,-0.9328505200970628
1769250975868,125,-3,-2.8613728024460263,-1.9333557356425644,-1.8557289919908049
1769250975872,124,-4,-3.4827328774503914,-2.7898620918823513,-2.468739730359534
1769250975876,124,-4,-3.83823088469928,-2.616338926738959,-2.8172388158463364
1769250975880,124,-4,-4.1027038864733445,-2.8290517300818996,-3.0756001452946817
1769250975884,123,-5,-4.479790065257218,-3.730924902256083,-3.4457225658587314
1769250975888,123,-5,-5.091672015657175,-4.052739183795211,-4.048031935991414
1769250975892,122,-6,-5.919244019859479,-4.651221965263602,-4.863763488515605
1769250975896,121,-7,-6.811138857352437,-5.773540453382024,-5.744277673151784
1769250975900,120,-8,-7.555022145273807,-6.640280874580427,-6.480116043086236
1769250975904,120,-8,-7.98251257208377,-6.929263658242671,-6.903060653438278
1769250975908,120,-8,-8.051682044598223,-6.841260009321459,-6.967477634772959
1769250975912,120,-8,-7.855815991146796,-6.875591126562536,-6.76131147318742
1769250975916,120,-8,-7.555059599673808,-6.531926260324902,-6.443095104556837
1769250975920,121,-7,-7.280382026560781,-5.884196941013223,-6.150071588013269
1769250975924,121,-7,-7.085265793387252,-5.674553799692046,-5.9468585872758535
1769250975928,121,-7,-6.996254447913129,-6.099771761227467,-5.865754744837385
1769250975932,120,-8,-7.110345870208737,-6.630677475403417,-5.995585826513806
1769250975936,120,-8,-7.557748547986276,-6.747241649623464,-6.447600089583863
1769250975940,120,-8,-8.172049919717512,-6.699310727127781,-7.040466808608214
1769250975944,121,-7,-8.004499813820853,-5.798954840592085,-6.829019638420442
1769250975948,124,-4,-5.194699032154352,-3.0193455278254753,-3.974981280630562
1769250975952,130,2,2.269645805306162,3.3283375069690875,3.509654789076943
1769250975956,141,13,14.97147497275953,14.290255103477284,16.199899065085603
1769250975960,156,28,30.63954155938601,29.27809390427725,31.836705858711507
1769250975964,173,45,44.242271521883325,46.269131784517,45.409221951511945
1769250975968,182,54,50.14658269256033,54.86344110044568,51.301299387471374
1769250975972,174,46,45.24513980576722,47.4405361839158,46.41453839379643
1769250975976,158,30,30.916693606130107,31.046462599634676,32.126736484563175
1769250975980,139,11,12.374039244145688,12.5364499729543,13.63670486485028
1769250975984,123,-5,-4.143633426873723,-4.015051375816855,-2.8397688119675646
1769250975988,113,-15,-14.425041639743949,-13.663769573759405,-13.110113556009727
1769250975992,111,-17,-17.7562524854899,-15.969234670884063,-16.461024649312222
1769250975996,113,-15,-16.262022362712205,-13.543318137841114,-14.999515751628689
1769250976000,116,-12,-12.981030816571566,-10.921617204543072,-11.740303193139248
1769250976004,117,-11,-10.118783312615598,-9.654503169020863,-8.87359335848146
1769250976008,119,-9,-8.4310651347655,-7.926960701254463,-7.157147524818296
1769250976012,120,-8,-7.6678628623464125,-6.737790973802001,-6.357778810159565
1769250976016,121,-7,-7.329564571979058,-5.720146089465833,-5.995197623771467
1769250976020,122,-6,-7.093075834925615,-4.840124896719213,-5.754224419574403
1769250976024,121,-7,-6.825564701382774,-5.697346569362899,-5.494180767517554
1769250976028,121,-7,-6.4757904717726795,-5.898900349004811,-5.149189321915393
1769250976032,122,-6,-6.04956972347206,-4.6666832549653545,-4.717139114983905
1769250976036,123,-5,-5.619458824224467,-3.859597360523127,-4.274141627282918
1769250976040,123,-5,-5.266045508186053,-3.671676738054496,-3.908759756093601
1769250976044,123,-5,-4.993636284689984,-3.922754931253596,-3.62866972570376
1769250976048,123,-5,-4.729351052644853,-3.618343808041684,-3.3585513912773672
1769250976052,124,-4,-4.404803201721656,-2.928511331208334,-3.0270618006908725
1769250976056,124,-4,-4.014272462190054,-2.6003028344801953,-2.6287693955060467
1769250976060,125,-3,-3.588536529963118,-1.938581947698985,-2.1963967651824055
1769250976064,125,-3,-3.1393067978096525,-1.686323862555839,-1.741813839690841
1769250976068,125,-3,-2.656446660987303,-1.8050020822388184,-1.2529322926198354
1769250976072,126,-2,-2.152665299623973,-0.7561469327551646,-0.7413086017243318
1769250976076,127,-1,-1.6754803098980728,0.2829759989619269,-0.2558502607201132
1769250976080,127,-1,-1.253847181080311,0.0988563715748913,0.1724781845785432
1769250976084,127,-1,-0.8499633678298367,0.3326271570048911,0.5815324017657842
1769250976088,128,0,-0.390640730412033,1.135983984339524,1.046360969228597
1769250976092,128,0,0.1517096909106867,1.364816739450549,1.5956820398940827
1769250976096,129,1,0.726369429978396,2.145854863512768,2.1777351464488337
1769250976100,130,2,1.2633774882047963,3.2353472058328405,2.720750293491559
1769250976104,130,2,1.758460112349907,3.187405259409571,3.220450522515934
1769250976108,130,2,2.2811449000634005,3.2843782670414323,3.748449235955405
1769250976112,131,3,2.8922967505417505,4.249593605504399,4.366909068525753
1769250976116,132,4,3.5717538886292095,5.253033470954513,5.053981414000537
1769250976120,133,5,4.242588750977459,6.132810896680826,5.730111515442074
1769250976124,133,5,4.847213161982224,6.286841282649286,6.337890779658966
1769250976128,133,5,5.367135255791981,6.181156197568927,6.861783275743606
1769250976132,134,6,5.77365064542004,7.377333847871235,7.274867385437127
1769250976136,135,7,6.003851313719851,8.125557289635914,7.512594353722704
1769250976140,134,6,6.012027394906447,7.25891442960682,7.526521390658107
1769250976144,134,6,5.825602636657236,7.174443608567038,7.343508975053981
1769250976148,134,6,5.5233550573842365,7.271753753908847,7.044162664203824
1769250976152,133,5,5.1585798240655905,6.318471239522756,6.683787534562078
1769250976156,133,5,4.720435703819158,6.171538159052227,6.2517855200979255
1769250976160,133,5,4.184259136567831,6.250913284544071,5.721930840540232
1769250976164,132,4,3.5987200599176212,5.150101487312343,5.141306186792162
1769250976168,131,3,3.1006155942335916,4.316950457270973,4.646711363336863
1769250976172,131,3,2.812863025600203,4.270990370539833,4.362212068671216
1769250976176,131,3,2.7151361246222883,4.220071791949685,4.268141716001362
1769250976180,131,3,2.624518019148195,4.243264345889825,4.181206527326175
1769250976184,131,3,2.321189832471255,4.122512573029241,3.881150990567836
1769250976188,130,2,1.7116089873232303,3.3774461861262153,3.2748730339306764
1769250976192,129,1,0.8857599895950528,2.1755242572368267,2.4532080888934233
1769250976196,128,0,0.0270909957307243,1.346792754202959,1.5994958273697208
1769250976200,128,0,-0.7318002297916684,1.122102783460567,0.8449448705963651
1769250976204,127,-1,-1.382230957434463,0.248211187214342,0.1970449097607207
1769250976208,126,-2,-2.001643137901645,-0.7287360250253574,-0.4212429799350203
1769250976212,126,-2,-2.660681760284995,-0.755820696821651,-1.0790067507652883
1769250976216,125,-3,-3.353335916355488,-1.6681356122276676,-1.7689955438250893
1769250976220,124,-4,-3.993886955920392,-2.912605971222772,-2.4055028037251276
1769250976224,124,-4,-4.472064699549414,-2.6387644383365827,-2.8794741381618825
1769250976228,124,-4,-4.718439261034059,-2.9013167229353285,-3.122913253243307
1769250976232,123,-5,-4.737859728150746,-3.5437324983064604,-3.141070738781812
1769250976236,124,-4,-4.60432573594183,-2.891123681141876,-3.0071359923265204
1769250976240,124,-4,-4.428243611555975,-2.678138603338879,-2.830442092998737
1769250976244,124,-4,-4.308531458733208,-2.8584135281545633,-2.7093532015832253
1769250976248,124,-4,-4.290316237775272,-2.6875113457135993,-2.689100010035269
1769250976252,124,-4,-4.348764770177423,-2.755839889477082,-2.74543698318959
1769250976256,124,-4,-4.403055491022444,-2.67982995194615,-2.798107472306323
1769250976260,124,-4,-4.352561655454865,-2.8654540478295214,-2.746462406456613
1769250976264,124,-4,-4.121627852752255,-2.677971337625666,-2.5144230540160204
1769250976268,125,-3,-3.690340815139838,-1.843796740653383,-2.0820766211349273
1769250976272,125,-3,-3.092459247414542,-1.6242084400984511,-1.4838675349340142
1769250976276,126,-2,-2.3882576748723627,-0.7856143940800822,-0.7805847133712378
1769250976280,127,-1,-1.6413151917721949,0.2367051229970058,-0.0351301500384737
1769250976284,127,-1,-0.91626036174765,0.2444679651706782,0.6894357524674388
1769250976288,128,0,-0.2800735232797972,1.2075136034465577,1.3268307422605186
1769250976292,129,1,0.2243048598105735,2.3647339542414088,1.8328190547567025
1769250976296,129,1,0.6228394882716342,2.175206056693768,2.2314208608208457
1769250976300,129,1,1.011279911228134,2.355147032084954,2.6180433051039333
1769250976304,130,2,1.475302062012617,3.068377013445124,3.079837106039032
1769250976308,130,2,1.9914802602484332,3.438789667725273,3.594787187206789
1769250976312,131,3,2.4151555029970675,4.085976924308163,4.0180651596756105
1769250976316,131,3,2.5828744490677886,4.51077267596,4.184883977263938
1769250976320,131,3,2.43838558985814,3.99166451372379,4.0381329121469465
1769250976324,130,2,2.0612045534746377,3.461860841627069,3.657940189455536
1769250976328,130,2,1.5721687689476858,3.0276131191601943,3.1665200370778597
1769250976332,129,1,1.0164567820910992,2.4920565899566016,2.609621474165275
1769250976336,129,1,0.3473229116218106,2.1527119848031457,1.9395877912884472
1769250976340,128,0,-0.4747613576900387,1.3197133713534548,1.115464513201227
1769250976344,127,-1,-1.3800496333576473,0.18918806018833,0.2066367928828421
1769250976348,126,-2,-2.2070970568135087,-0.7674921416849361,-0.6243612298406573
1769250976352,125,-3,-2.8376896114218577,-1.6556696081236602,-1.258197458448031
1769250976356,125,-3,-3.312752386471147,-1.7284305625271403,-1.7361973844589258
1769250976360,125,-3,-3.7983353939856057,-1.73995044640783,-2.2257151421178687
1769250976364,124,-4,-4.424732882421504,-2.7684735060186965,-2.8569513348893043
1769250976368,123,-5,-5.160365793894702,-3.826597495321135,-3.596300117474427
1769250976372,122,-6,-5.843262099804987,-4.5740032982236505,-4.280694035717068
1769250976376,122,-6,-6.321332522464515,-4.844473406984878,-4.760552888574849
1769250976380,122,-6,-6.553436598585417,-4.533366952913771,-4.9987522226456695
1769250976384,122,-6,-6.5990225338304365,-5.021446664060686,-5.054838291430796
1769250976388,121,-7,-6.551190928199608,-5.54644777972249,-5.016173122065956
1769250976392,122,-6,-6.48541269631642,-4.881662735639599,-4.951759345018974
1769250976396,122,-6,-6.430285168158574,-4.538422590614364,-4.890325831783106
1769250976400,122,-6,-6.354883607991951,-4.771130593172795,-4.809699286963733
1769250976404,122,-6,-6.212269786345377,-4.821070684169148,-4.674532866254313
1769250976408,122,-6,-6.052119801928003,-4.700647421854581,-4.538970396664799
1769250976412,122,-6,-6.094011800968681,-4.8114108365244785,-4.61294224014587
1769250976416,121,-7,-6.581536198321396,-5.530635204430615,-5.119855453412483
1769250976420,121,-7,-7.351536052687137,-5.799151914860548,-5.881139051486608
1769250976424,122,-6,-7.341662052475311,-4.7352895265907815,-5.83942699371663
1769250976428,125,-3,-4.543753164378198,-1.8282260529027103,-3.0114732448285872
1769250976432,131,3,3.127820983427698,4.3269771799237935,4.662726483304926
1769250976436,142,14,16.18288397818431,15.349193131238586,17.686928549336116
1769250976440,158,30,32.147329909794536,31.375554880710386,33.602450430789574
1769250976444,175,47,45.78342919000553,48.09885439125549,47.19363947541938
1769250976448,183,55,51.420149604835395,56.32290211965275,52.8049116715016
1769250976452,176,48,46.15706922468912,49.10539088526993,47.54242440736125
1769250976456,158,30,31.70675943391524,31.498965908902452,33.11692710102834
1769250976460,140,12,13.488432276799257,13.227726945519084,14.934196309839017
1769250976464,125,-3,-2.3647866917371783,-1.7517936880640246,-0.8958967029099436
1769250976468,116,-12,-11.998631772232798,-10.646293729422734,-10.538148352826456
1769250976472,114,-14,-15.042613988934033,-12.899342421121409,-13.621567939189134
1769250976476,115,-13,-13.720529745591785,-11.43220227997207,-12.34957278827982
1769250976480,118,-10,-10.910070806734376,-8.96073567365246,-9.575007255770696
1769250976484,119,-9,-8.554255449285163,-7.572728115707443,-7.228362092157723
1769250976488,120,-8,-7.213357340591893,-6.801984663866748,-5.875462076592539
1769250976492,121,-7,-6.586092031974461,-5.726223623345568,-5.23220813672867
1769250976496,122,-6,-6.252717327025031,-4.5515085902910615,-4.895377970420309
1769250976500,123,-5,-6.028342602623685,-3.9565170492676303,-4.685622022185798
1769250976504,122,-6,-5.875825601490974,-4.503133981457031,-4.558255025418607
1769250976508,122,-6,-5.724148916140504,-4.907048017142435,-4.429112821494115
1769250976512,122,-6,-5.461928462629456,-4.532161807075459,-4.179128595280195
1769250976516,123,-5,-5.05278271766928,-3.756266386907367,-3.774772923537175
1769250976520,124,-4,-4.57070695166879,-2.8137762277278724,-3.298417426033298
1769250976524,124,-4,-4.101235245982384,-2.575070605445728,-2.840371909862662
1769250976528,124,-4,-3.6473851016282937,-2.9066865400066737,-2.4013524159406137
1769250976532,124,-4,-3.1598243302872926,-2.3884264329880063,-1.92746777812326
1769250976536,126,-2,-2.6328095594990386,-1.010790708270418,-1.4120670668044193
1769250976540,126,-2,-2.130666407624477,-0.5002127570637107,-0.9218662933144468
1769250976544,126,-2,-1.7233643612501546,-0.925186646667697,-0.5280064316083857
1769250976548,126,-2,-1.425207656061132,-0.5302441007988514,-0.2432872093061018
1769250976552,127,-1,-1.1936455101568484,0.2999475033422214,-0.0238374230014597
1769250976556,127,-1,-0.955202562481418,0.2171874601734202,0.2029061064875736
1769250976560,127,-1,-0.6244902680831879,0.3570959657080701,0.5206192093473194
1769250976564,128,0,-0.1298940854001326,1.125921504082608,1.000660476935744
1769250976568,128,0,0.5439646544000816,1.5295662006894355,1.6597533103686066
1769250976572,129,1,1.329127417215838,2.1950336217575637,2.431067308831975
1769250976576,130,2,2.104372560609896,3.3596199489839877,3.192829782817501
1769250976580,131,3,2.7760983466209317,4.187105930945226,3.850071155927419
1769250976584,131,3,3.3395147453622673,4.296515215585832,4.398002757130992
1769250976588,131,3,3.852260220826296,4.39852093874514,4.895844380906041
1769250976592,132,4,4.348333267969689,5.322267052429648,5.378328304222195
1769250976596,133,5,4.798753945530301,6.243554384961331,5.814983458826251
1769250976600,133,5,5.166584684671864,6.302476258302931,6.167226295532792
1769250976604,133,5,5.475712550591309,6.16443578077099,6.459621517861566
1769250976608,133,5,5.7949089455583636,6.591475040841606,6.763016537370603
1769250976612,134,6,6.155281081471364,7.084282681746129,7.109006227607397
1769250976616,134,6,6.5050736901971185,7.541513806850817,7.444011969283603
1769250976620,135,7,6.751399111333909,7.959375902141152,7.673534455462157
1769250976624,134,6,6.8299284454224365,7.544633462243939,7.734073572639485
1769250976628,134,6,6.724844212242729,7.213244306121849,7.611946006561857
1769250976632,134,6,6.443366740199018,7.457441060578124,7.3149803885764495
1769250976636,134,6,6.006891705802692,7.204730192019184,6.863173301144527
1769250976640,133,5,5.473715544885346,6.256930823583241,6.31366322733392
1769250976644,132,4,4.940528674893634,5.31275110930327,5.763498374363203
1769250976648,132,4,4.494544234671742,5.391525711483856,5.300484569887909
1769250976652,132,4,4.161129212810376,5.341192900613967,4.949725326539927
1769250976656,131,3,3.895747459510754,4.289880286356743,4.666364933563068
1769250976660,131,3,3.614406099821456,4.203736980957693,4.366796518402048
1769250976664,131,3,3.2347382581725226,4.372186345359637,3.969203588339156
1769250976668,130,2,2.7121220688840824,3.309890180271795,3.429114215695704
1769250976672,129,1,2.0556718599384967,2.4690300059507564,2.7554385380179456
1769250976676,129,1,1.314015096178763,2.135523379836751,1.9963299525506528
1769250976680,128,0,0.5451488365229571,1.3926456621801613,1.2093575746803538
1769250976684,127,-1,-0.2086026024832659,0.1808477302453661,0.4370135060726745
1769250976688,126,-2,-0.9329856463348296,-0.5053364888180794,-0.3059338376318639
1769250976692,126,-2,-1.635479260514105,-0.67550013188061,-1.0269500346262546
1769250976696,125,-3,-2.318566997616582,-1.757125776818591,-1.7289381433270157
1769250976700,124,-4,-2.9562705907465228,-2.6498462641233913,-2.3858999560390286
1769250976704,124,-4,-3.5015750688053444,-2.824191979011994,-2.9502346554560797
1769250976708,123,-5,-3.915160757221062,-3.453653459181105,-3.382252361616034
1769250976712,123,-5,-4.180763542416882,-3.748015338370795,-3.6660458269825695
1769250976716,123,-5,-4.294116930554482,-3.657607334737849,-3.798091900082728
1769250976720,123,-5,-4.247986170399689,-3.734557665881932,-3.77151271902545
1769250976724,123,-5,-4.04241868588405,-3.759853884575153,-3.5859895211402826
1769250976728,123,-5,-3.717466498046432,-3.4755136847517942,-3.281040414287786
1769250976732,124,-4,-3.3674500690656775,-2.7664697450538536,-2.9509260426897423
1769250976736,124,-4,-3.10371948386494,-2.5782082921803235,-2.707135293935329
1769250976740,124,-4,-2.9881712483927565,-2.8360186712232855,-2.611333652233114
1769250976744,124,-4,-2.9937278450015716,-2.649244903028942,-2.6361579937881623
1769250976748,124,-4,-3.020107641360594,-2.5627991122015743,-2.6816271736333412
1769250976752,124,-4,-2.947903682929565,-2.725869965123795,-2.628940805381748
1769250976756,124,-4,-2.697934129375408,-2.5171083310710474,-2.399073396290502
1769250976760,125,-3,-2.2662411481400913,-1.981570177762166,-1.9877737877162516
1769250976764,125,-3,-1.7151150678689928,-1.4056187989719091,-1.4571746002822843
1769250976768,126,-2,-1.1270698836838866,-0.8895005792563626,-0.8898974070825856
1769250976772,126,-2,-0.5589508795309892,-0.3313818833245985,-0.3427219323686428
1769250976776,127,-1,-0.0313935085866957,0.0768984867168569,0.1641512735528576
1769250976780,127,-1,0.4493925448478016,0.4300559108938178,0.6248702944612751
1769250976784,128,0,0.8736198435480582,1.216766045249185,1.0294344294230102
1769250976788,128,0,1.2385687673453691,1.43732354786304,1.3745006404567834
1769250976792,128,0,1.5703990002087969,1.4168721923397392,1.6858110941946387
1769250976796,129,1,1.9193296494362515,2.274460552895781,2.013767826112472
1769250976800,129,1,2.3164151453196102,2.3139469731467504,2.3900287559070303
1769250976804,129,1,2.723071363158827,2.2637571481311003,2.7762851097708428
1769250976808,130,2,3.023758911678108,3.459172002823544,3.0563704127524813
1769250976812,130,2,3.0825212230022982,3.35483436175838,3.093538919721998
1769250976816,129,1,2.819827991030734,2.381936598970981,2.8086820050065255
1769250976820,129,1,2.2422559420158072,2.201874565205315,2.2098037704113196
1769250976824,128,0,1.4157183334778796,1.3781418671020584,1.3634898118413032
1769250976828,127,-1,0.4336558509281605,0.3386564460659713,0.3623097934146142
1769250976832,126,-2,-0.5888786434634343,-0.4822791458099922,-0.679945297424478
1769250976836,125,-3,-1.5223691897592475,-1.8025101557177416,-1.6341339067275236
1769250976840,124,-4,-2.263886668732098,-2.5619211306835377,-2.396982779182774
1769250976844,124,-4,-2.793649493645755,-2.901822048885073,-2.9485288017131936
1769250976848,123,-5,-3.193374378184268,-3.3456301312229124,-3.370506069643441
1769250976852,123,-5,-3.5994880845143653,-3.79256151107348,-3.7988234319261034
1769250976856,122,-6,-4.119440041499913,-4.4786823459176714,-4.33981144250358
1769250976860,122,-6,-4.7645794598421745,-4.8686272059453835,-5.004109485790682
1769250976864,121,-7,-5.438985464655475,-5.626626523391657,-5.696446919116732
1769250976868,120,-8,-5.9930586994435675,-6.578255125061528,-6.269212026894757
1769250976872,120,-8,-6.313338124000134,-6.580989253166623,-6.61118387992225
1769250976876,120,-8,-6.390918083467162,-6.62387258190529,-6.713966059047156
1769250976880,120,-8,-6.321812944439993,-6.773078353240053,-6.670647671551075
1769250976884,120,-8,-6.240935134776912,-6.669962358660354,-6.610796045498936
1769250976888,120,-8,-6.232888159046661,-6.582894725885979,-6.615775970747648
1769250976892,120,-8,-6.276310713729834,-6.513835935522733,-6.667792293378891
1769250976896,120,-8,-6.271982252155537,-6.70894650512705,-6.677678686641002
1769250976900,120,-8,-6.165378815838031,-6.659836221060252,-6.600231114198395
1769250976904,120,-8,-6.08619181647337,-6.797520213317363,-6.564148332940569
1769250976908,119,-9,-6.338220820077665,-7.45045860045898,-6.8588207872014735
1769250976912,119,-9,-7.09343985872051,-7.617449975903576,-7.637227166389554
1769250976916,119,-9,-7.856787070681179,-7.609940714852567,-8.396362552873322
1769250976920,120,-8,-7.097935859268388,-6.717554606680906,-7.61806830546707
1769250976924,124,-4,-2.6021608093962794,-2.7870747312215194,-3.112914029005399
1769250976928,132,4,7.242782629129563,5.623527833377258,6.7113100614961905
1769250976932,146,18,21.79139366109071,19.253320671700234,21.208642868811157
1769250976936,162,34,37.34281921024094,35.65369069223059,36.696074832969906
1769250976940,176,48,48.2238342677889,48.919409853428135,47.52326105260117
1769250976944,178,50,49.55036064209199,51.63203470934711,48.82167500312819
1769250976948,167,39,40.04683222884983,40.08122644549966,39.31926875450669
1769250976952,147,19,22.96745181855973,20.760594142936316,22.261423282547018
1769250976956,129,1,4.399927626058319,2.183720790382849,3.716537353894498
1769250976960,115,-13,-9.91005362274281,-11.61357401038502,-10.591749186209585
1769250976964,109,-19,-17.141283584890232,-17.609809232280966,-17.853671397779458
1769250976968,109,-19,-17.96069054072077,-17.72631786515801,-18.72821657929112
1769250976972,111,-17,-15.162630896362469,-15.334421653705984,-15.987357269081258
1769250976976,115,-13,-11.638335050769022,-11.879659027659727,-12.500689887312417
1769250976980,116,-12,-9.022055045322226,-10.496261282008186,-9.89489833055466
1769250976984,117,-11,-7.561479523549446,-9.755223735992802,-8.427024147699267
1769250976988,119,-9,-6.808528031473792,-7.515380751352284,-7.667517834260717
1769250976992,120,-8,-6.329424188659825,-6.546868517484348,-7.1975276723919315
1769250976996,120,-8,-5.952893802538575,-6.7284960120063,-6.847639438431089
1769250977000,120,-8,-5.650082390272433,-6.579280577469125,-6.578564017793758
1769250977004,120,-8,-5.391542257631934,-6.7150567560224825,-6.348040127989352
1769250977008,120,-8,-5.14888969789592,-6.454448860131594,-6.122468050213908
1769250977012,121,-7,-4.945583604112725,-5.654006532964042,-5.929575021968484
1769250977016,121,-7,-4.821059494221804,-5.610289294087988,-5.816496796762857
1769250977020,121,-7,-4.729169503353491,-5.7085604769864995,-5.741010350629757
1769250977024,121,-7,-4.510043238626707,-5.551538549475934,-5.541357768216901
1769250977028,121,-7,-4.005446965969949,-5.599812012505334,-5.055377592685575
1769250977032,122,-6,-3.216613297636058,-4.494794655703647,-4.28313431147623
1769250977036,124,-4,-2.335433950920337,-2.7908279676868077,-3.4186004751233585
1769250977040,124,-4,-1.60620369418543,-2.5070593668245476,-2.707490539364196
1769250977044,124,-4,-1.15519680284029,-2.746632244343843,-2.274208065332002
1769250977048,124,-4,-0.9416546786898856,-2.367582395903242,-2.0754337139182257
1769250977052,125,-3,-0.8301305807055581,-1.7511151537617191,-1.976448278424784
1769250977056,125,-3,-0.6768320427041217,-1.527148777341786,-1.836781758980996
1769250977060,125,-3,-0.3772353829414759,-1.7474947982089757,-1.5535358500184062
1769250977064,125,-3,0.0970833536832631,-1.5072950144695143,-1.0966308296097864
1769250977068,126,-2,0.6715193827150066,-0.5460612133303042,-0.538577886041613
1769250977072,127,-1,1.2043372955165652,0.3517897080727725,-0.0210229868601292
1769250977076,127,-1,1.5898199804176452,0.4567203896792633,0.349592044412647
1769250977080,127,-1,1.8390723771734991,0.1950278703604098,0.5847319509513005
1769250977084,127,-1,2.0601746586125316,0.654201407071817,0.7931018947933222
1769250977088,128,0,2.3706479338697415,1.229472991640584,1.0913039076772773
1769250977092,128,0,2.8328669226660974,1.6217541107987934,1.5399398487799367
1769250977096,129,1,3.444797431257003,2.180435174425032,2.136771826779138
1769250977100,129,1,4.15037121701513,2.478601826369828,2.827490939134183
1769250977104,130,2,4.848276199038873,3.4103712623271427,3.5121474481316204
1769250977108,131,3,5.421943262938623,4.444575352673368,4.073508227138566
1769250977112,131,3,5.7951965624130795,4.441907919282185,4.434115460478665
1769250977116,131,3,5.9637055120043145,4.344930119181219,4.589783881360696
1769250977120,131,3,5.963895327056989,4.343095029355949,4.57800713462505
1769250977124,131,3,5.819096538156793,4.547694440096736,4.422106970502975
1769250977128,131,3,5.532002042838277,4.318419661342572,4.123523198526768
1769250977132,130,2,5.1249922599060715,3.579335132443206,3.704052898842481
1769250977136,130,2,4.663372562362374,3.21289476953861,3.230113811209921
1769250977140,129,1,4.223670712134331,2.4889512920444217,2.77962943689481
1769250977144,129,1,3.845550083567931,2.404825962500161,2.3920837928663676
1769250977148,129,1,3.524218285112072,2.4819696320219196,2.0611704906530237
1769250977152,128,0,3.240404925166376,1.4239551725654676,1.766658157656975
1769250977156,128,0,2.975857609777426,1.3715378165104668,1.4908293859638304
1769250977160,128,0,2.692438364205201,1.349848336550454,1.1966636375780262
1769250977164,127,-1,2.3131008377179754,0.5292435390043562,0.8076342193637296
1769250977168,127,-1,1.747571646367304,0.3943462359889258,0.2332361123317725
1769250977172,126,-2,0.9541195180853712,-0.480836127116615,-0.5687101174626594
1769250977176,125,-3,-0.0148859078349921,-1.7368089276938434,-1.5460622942222018
1769250977180,124,-4,-1.0287206625751293,-2.499277670252737,-2.56808302138342
1769250977184,123,-5,-1.9497383791884944,-3.663529424783541,-3.4971113481381906
1769250977188,122,-6,-2.706464456121411,-4.344424066139243,-4.261813766608894
1769250977192,122,-6,-3.3127152839585197,-4.762602193370523,-4.87618279065263
1769250977196,121,-7,-3.823591001196398,-5.428591361477844,-5.395216254226775
1769250977200,121,-7,-4.272158460191889,-5.809961100276328,-5.851457261694575
1769250977204,120,-8,-4.642292701576291,-6.353868872435615,-6.228214246176018
1769250977208,120,-8,-4.89379308414371,-6.620401536139671,-6.485330694769531
1769250977212,120,-8,-5.007046285569897,-6.496490130214617,-6.6039846372882325
1769250977216,120,-8,-5.005142609748422,-6.650387700437439,-6.608106427915275
1769250977220,120,-8,-4.942422707483578,-6.630443580082137,-6.552121938293854
1769250977224,120,-8,-4.877926823163877,-6.476109959933289,-6.494338578428773
1769250977228,120,-8,-4.853270446180108,-6.532979542035604,-6.475424889763732
1769250977232,120,-8,-4.880828726552325,-6.530386378681027,-6.507276076292239
1769250977236,120,-8,-4.94034827400454,-6.626171210449437,-6.570019665837326
1769250977240,120,-8,-4.982948657686562,-6.6542980800170195,-6.615848451541247
1769250977244,120,-8,-4.946419517729497,-6.425727126573697,-6.583436819382225
1769250977248,120,-8,-4.787026119775486,-6.5941798946163335,-6.42885129997847
1769250977252,120,-8,-4.517752315433085,-6.431380359300058,-6.164045575313929
1769250977256,121,-7,-4.217974932397267,-5.722943575703949,-5.86775706953231
1769250977260,121,-7,-3.985635481779419,-5.5654103410143465,-5.638225896642576
1769250977264,121,-7,-3.857480792306685,-5.481642486562467,-5.5126447609937905
1769250977268,121,-7,-3.768233438842864,-5.556282850483098,-5.425543878166638
1769250977272,121,-7,-3.5906792348554024,-5.4245588165623015,-5.249250810728457
1769250977276,122,-6,-3.222293218419739,-4.747041437205556,-4.881396127569667
1769250977280,122,-6,-2.645588597538451,-4.51441441737124,-4.305434217550493
1769250977284,123,-5,-1.9226007097494568,-3.5354969667702063,-3.5843109273179534
1769250977288,124,-4,-1.1457239735262303,-2.476873692337707,-2.81018283771646
1769250977292,124,-4,-0.3979756897620421,-2.501962823215945,-2.0645269869440774
1769250977296,125,-3,0.2519377972614245,-1.6603173829090403,-1.4146998287860288
1769250977300,126,-2,0.7491246979669781,-0.5930941061172299,-0.9160013796721724
1769250977304,126,-2,1.080513353711335,-0.4510934740083261,-0.5830488310785997
1769250977308,126,-2,1.3039511649615991,-0.5406654068700367,-0.3586985841416863
1769250977312,126,-2,1.5207449644316051,-0.4217868688847788,-0.1410749337121992
1769250977316,127,-1,1.7955467364541682,0.2432566610768201,0.1349838712671756
1769250977320,127,-1,2.095205811108543,0.5399420841472407,0.4360904478416145
1769250977324,127,-1,2.2989561449500844,0.4025296702862819,0.6411436738061882
1769250977328,127,-1,2.264448586589233,0.6472178297907195,0.6078641141933443
1769250977332,127,-1,1.9001285000586037,0.3875720186589086,0.2450330881781319
1769250977336,126,-2,1.2035574860951344,-0.5807009340252898,-0.4492757970676568
1769250977340,125,-3,0.2515534114563951,-1.592626096548241,-1.397721839494697
1769250977344,124,-4,-0.8381010652056311,-2.4971324028132145,-2.4825735338821966
1769250977348,123,-5,-1.9368678603794536,-3.376636869186199,-3.576141707061965
1769250977352,122,-6,-2.9180009442529196,-4.636300229575912,-4.552632016356595
1769250977356,121,-7,-3.67818799504025,-5.504616332445544,-5.309057622800999
1769250977360,121,-7,-4.183183053443608,-5.700912891141647,-5.810915838854025
1769250977364,120,-8,-4.505397001148151,-6.340947872558726,-6.1301417262450535
1769250977368,120,-8,-4.80444725331583,-6.536281930904935,-6.425696042434954
1769250977372,120,-8,-5.2407264437887715,-6.45167374130432,-6.857004414867834
1769250977376,119,-9,-5.872371581987459,-7.696902210144746,-7.481356719107472
1769250977380,118,-10,-6.609748183277008,-8.51141519364307,-8.209645278172509
1769250977384,118,-10,-7.260351326674758,-8.49378454620677,-8.851923098649706
1769250977388,117,-11,-7.632240552092167,-9.39232413415604,-9.219008930482545
1769250977392,117,-11,-7.635720893246973,-9.552228126180117,-9.220787385770674
1769250977396,118,-10,-7.331673455013372,-8.61262927346408,-8.913321735330848
1769250977400,118,-10,-6.898895641157698,-8.583283541930022,-8.469680690825063
1769250977404,118,-10,-6.534774358758561,-8.410834804526374,-8.087065176645895
1769250977408,119,-9,-6.351862517261091,-7.453366235092821,-7.886685065199359
1769250977412,119,-9,-6.353812314235108,-7.486599977983614,-7.884059526702293
1769250977416,118,-10,-6.532010252175478,-8.67019801024334,-8.073804516160996
1769250977420,117,-11,-6.990033853042811,-9.529343977336246,-8.547606334981866
1769250977424,117,-11,-7.860570350217493,-9.44604207483341,-9.418278411968458
1769250977428,117,-11,-8.867365081882811,-9.403792607496577,-10.397573894455528
1769250977432,117,-11,-8.794120671452442,-9.504156794212989,-10.27648148512488
1769250977436,120,-8,-5.5007842252407855,-6.656303714757815,-6.938573762125259
1769250977440,128,0,3.040065440933631,1.4685382146217023,1.6200422274903397
1769250977444,140,12,17.004174248263556,13.580694561391368,15.569165835182776
1769250977448,156,28,33.449127149896675,29.59695213551925,31.98136856763292
1769250977452,173,45,46.814615643463775,46.54987098842891,45.31963748967023
1769250977456,180,52,51.44936927646292,53.23995273948184,49.94986233243349
1769250977460,171,43,44.79698738906632,44.52398325126825,43.321600913538134
1769250977464,153,25,29.04872631716624,26.46161883957575,27.62122746684234
1769250977468,133,5,10.01146858238965,6.679908097034969,8.639906895373176
1769250977472,118,-10,-6.031994248030209,-8.4327008727136,-7.361887377400201
1769250977476,110,-18,-15.330613656007367,-16.687294745523047,-16.64955880429149
1769250977480,108,-20,-17.756289223082952,-18.41880544058295,-19.09345315278374
1769250977484,111,-17,-15.744268953270671,-15.640983073200465,-17.109407652193816
1769250977488,113,-15,-12.252758757365552,-13.233555613843563,-13.631402112727924
1769250977492,115,-13,-9.223609953512623,-11.600692670984852,-10.587962653771337
1769250977496,117,-11,-7.262465324848441,-9.437857544457293,-8.589907722970192
1769250977500,119,-9,-6.204478948661243,-7.666512829129259,-7.490927692830772
1769250977504,120,-8,-5.754415617227392,-6.370820959099053,-7.013569398962889
1769250977508,120,-8,-5.708931417081282,-6.525321683173782,-6.959078645488364
1769250977512,119,-9,-5.865705448792097,-7.354377574084483,-7.115557900963886
1769250977516,119,-9,-5.970004521908888,-7.58263385064521,-7.21489363081315
1769250977520,119,-9,-5.833616290297786,-7.559061202525048,-7.0632369575367955
1769250977524,120,-8,-5.464482202904346,-6.374068265732772,-6.673109326923417
1769250977528,121,-7,-5.025065139983742,-5.629791472165848,-6.214560394059256
1769250977532,120,-8,-4.6572693770189595,-6.1704246775420435,-5.832004865705419
1769250977536,121,-7,-4.364196925905463,-5.823789798067102,-5.5252639606010545
1769250977540,121,-7,-4.050325004459636,-5.2053088688508495,-5.195266031694529
1769250977544,122,-6,-3.638672828536129,-4.791459467330068,-4.765327333638242
1769250977548,122,-6,-3.13326065216617,-4.152471670794798,-4.242225822801371
1769250977552,123,-5,-2.5921657164242555,-3.7009235599404686,-3.685463874250616
1769250977556,123,-5,-2.0702299374977784,-3.2409930055507634,-3.1485164980890983
1769250977560,124,-4,-1.5902480376889807,-2.768820546796549,-2.6518666676510154
1769250977564,124,-4,-1.1463614397307178,-2.2255708528585645,-2.189002493627005
1769250977568,125,-3,-0.7116604238195566,-1.6990782780416755,-1.7346215354680097
1769250977572,125,-3,-0.2406868989469275,-1.1921512471352091,-1.2452970927256084
1769250977576,126,-2,0.3120613580208971,-0.6780047603865171,-0.6757870468589353
1769250977580,126,-2,0.946694369851373,-0.3668781039107562,-0.0244111396170103
1769250977584,127,-1,1.5837091387558964,0.4598558411451374,0.6306291762204181
1769250977588,128,0,2.0989509478153456,1.5233034058918151,1.164772311182875
1769250977592,128,0,2.42265919095587,1.6824969692239558,1.5073045358163004
1769250977596,128,0,2.6103572366713794,1.3709496820309326,1.7140213763969867
1769250977600,128,0,2.8042436314112296,1.6994699054087692,1.928047944454222
1769250977604,129,1,3.1193014859959516,2.3251750523020434,2.2639431765900246
1769250977608,129,1,3.565989118308736,2.7129174558399014,2.730355796428177
1769250977612,130,2,4.066866685677732,3.470380446566404,3.2490578553636023
1769250977616,130,2,4.520017096334529,3.61642743811027,3.719817193028847
1769250977620,130,2,4.839700927906111,3.4763798408019593,4.0591472193986515
1769250977624,131,3,4.969693287207919,4.532356264106705,4.210755191150218
1769250977628,131,3,4.904167223581495,4.541885395199172,4.16669496834704
1769250977632,130,2,4.705895923460158,3.6030452444474834,3.9886272486938648
1769250977636,130,2,4.473387682781539,3.5678068846914663,3.7761832145840137
1769250977640,130,2,4.26634205078771,3.4768798926252975,3.5901884014472225
1769250977644,130,2,4.07086902941748,3.5854436293729175,3.4159858313327467
1769250977648,130,2,3.8467492263641008,3.469146004683183,3.212089815023373
1769250977652,129,1,3.59365599848032,2.6957811737638053,2.978724223873507
1769250977656,129,1,3.3522979190520026,2.5059738438907884,2.758460426932007
1769250977660,129,1,3.1485813152900364,2.519950524688851,2.5776541890200217
1769250977664,129,1,2.9629589521874906,2.5830443190298498,2.4148758920865774
1769250977668,129,1,2.762445216409275,2.4499596678471645,2.2353445583230185
1769250977672,128,0,2.539289917877047,1.7630595218868852,2.0320491951216777
1769250977676,128,0,2.2950911221461077,1.426596697676899,1.8088530993410532
1769250977680,128,0,1.9982873611776848,1.6130692294151812,1.5349448166741564
1769250977684,128,0,1.5909053591866762,1.509621275246947,1.150817182895812
1769250977688,127,-1,1.0501535407968725,0.5125776414653647,0.6322028689902254
1769250977692,126,-2,0.42442523852543,-0.2404359159700533,0.0279155266732176
1769250977696,126,-2,-0.209324451744,-0.6119248173612235,-0.5838131529876904
1769250977700,125,-3,-0.8181504799258161,-1.304495833277377,-1.1698228024079067
1769250977704,125,-3,-1.43136394837768,-1.5829110318880923,-1.7603263611642266
1769250977708,124,-4,-2.088336999812848,-2.365627776362025,-2.3952523070071545
1769250977712,123,-5,-2.7766216452148393,-3.3341720076146517,-3.0615987872602783
1769250977716,123,-5,-3.4212148067478054,-3.552142920968958,-3.6834527952570175
1769250977720,122,-6,-3.9265840019551623,-4.307603831040696,-4.165100585488731
1769250977724,122,-6,-4.227582024313176,-4.6294035452524005,-4.44213411065953
1769250977728,122,-6,-4.310472881995512,-4.2232596275765,-4.5017661362773485
1769250977732,122,-6,-4.201410877552321,-4.519200973883967,-4.370458482485233
1769250977736,122,-6,-3.9470634558043054,-4.33864125664272,-4.094317635971212
1769250977740,123,-5,-3.605859733219619,-3.5116984178699946,-3.7308328596558584
1769250977744,123,-5,-3.2440066170849624,-3.451695067688833,-3.3455719348571407
1769250977748,123,-5,-2.9220377047487647,-3.3088303402797608,-2.9992647781881208
1769250977752,124,-4,-2.669684835540559,-2.49634622476435,-2.7227069443130834
1769250977756,124,-4,-2.4657328167834898,-2.2869711450597245,-2.495590800541893
1769250977760,124,-4,-2.252697172132569,-2.6282314144588943,-2.259977466318837
1769250977764,124,-4,-1.9936556513792212,-2.2671481520089265,-1.977682714661671
1769250977768,125,-3,-1.7214030507286595,-1.4974032742779158,-1.6812932528279123
1769250977772,125,-3,-1.517727518370672,-1.288947477944227,-1.453824323513745
1769250977776,125,-3,-1.4357398443546747,-1.4695269000855022,-1.3493166202581228
1769250977780,125,-3,-1.4481959624070455,-1.4873689796661516,-1.3397876728100926
1769250977784,125,-3,-1.4730503816910965,-1.3425640690861762,-1.3414778887996186
1769250977788,125,-3,-1.4389670901518816,-1.453440558950439,-1.2822027404779155
1769250977792,125,-3,-1.3168452034216311,-1.2652156571972588,-1.1340275752121003
1769250977796,126,-2,-1.0907511939974857,-0.5188881504211045,-0.8833853997496626
1769250977800,126,-2,-0.718385380527871,-0.4241877464204941,-0.4891086545452499
1769250977804,126,-2,-0.1538183963214988,-0.3912791116114549,0.0963130859475678
1769250977808,127,-1,0.5700166995121032,0.5981472563233284,0.8425866505853616
1769250977812,128,0,1.3015019263462129,1.73208014681519,1.5987947324512173
1769250977816,129,1,1.858786541793343,2.456254087911846,2.1813398648048263
1769250977820,129,1,2.1858182336004823,2.6409652688264336,2.532423014392271
1769250977824,129,1,2.412512725372088,2.5185834574586057,2.7821833702268703
1769250977828,129,1,2.7381981822814967,2.721467239130562,3.1312746012242205
1769250977832,130,2,3.2422691098667515,3.624992098710424,3.6594937584468687
1769250977836,131,3,3.802884031145096,4.568110012116758,4.244145725066381
1769250977840,131,3,4.191065102901042,4.56570853124745,4.655458365559925
1769250977844,131,3,4.238749899741142,4.563355171495724,4.725443679395591
1769250977848,131,3,3.930418234131617,4.717930378188684,4.439250266599528
1769250977852,130,2,3.3581564470412286,3.614529612581854,3.88985951997353
1769250977856,129,1,2.603892300041299,2.608782683509707,3.159815570864295
1769250977860,129,1,1.6729716742884873,2.5517435111246676,2.2539588151735703
1769250977864,128,0,0.5503913639053599,1.551060314444186,1.1558469467991626
1769250977868,126,-2,-0.6866466273227676,-0.2132281502214552,-0.0580857976839195
1769250977872,125,-3,-1.845751455935656,-1.4951069826650358,-1.194749230009419
1769250977876,124,-4,-2.740367257320847,-2.2118626941127544,-2.066622746253719
1769250977880,124,-4,-3.343816802302703,-2.6649349395537616,-2.6470944970999204
1769250977884,123,-5,-3.8204570420313937,-3.1734836112753033,-3.1012892148748534
1769250977888,123,-5,-4.394884622132586,-3.5084564995530148,-3.654020908859216
1769250977892,122,-6,-5.1686695018147555,-4.1747120253449275,-4.405812263651761
1769250977896,121,-7,-6.039782356950596,-5.522731660144512,-5.25299488901209
1769250977900,120,-8,-6.788559980156322,-6.366873620416509,-5.975684522463963
1769250977904,120,-8,-7.244698387000795,-6.412439225961306,-6.406247195984124
1769250977908,120,-8,-7.385195594301273,-6.310326623236986,-6.525466978987152
1769250977912,120,-8,-7.3010846279009405,-6.288291537480745,-6.424793273542273
1769250977916,120,-8,-7.105288676737253,-6.471848760598573,-6.211967164367058
1769250977920,120,-8,-6.878097483709397,-6.345533295904641,-5.960398567170304
1769250977924,121,-7,-6.661187623547662,-5.487833518668681,-5.710389624552872
1769250977928,121,-7,-6.460422901140677,-5.157901408125359,-5.475256735311568
1769250977932,121,-7,-6.2649943652215,-5.4683495421404675,-5.255927737402788
1769250977936,121,-7,-6.121559969561471,-5.251579291803516,-5.105517367708658
1769250977940,121,-7,-6.21309792844275,-5.575687711813634,-5.2006613224588
1769250977944,120,-8,-6.773968018832128,-6.2716933233780345,-5.757891545272023
1769250977948,120,-8,-7.718127140251189,-6.2973748718528295,-6.6737187272597165
1769250977952,120,-8,-8.130059581068723,-6.381390356515329,-7.030745644174141
1769250977956,122,-6,-6.088746742549941,-4.240348142192839,-4.9268589954130455
1769250977960,129,1,0.671148613580125,2.3321880341979644,1.8758283262357305
1769250977964,139,11,13.2388811521379,12.922075793637784,14.4515966498339
1769250977968,155,27,29.948625357419797,28.483785693646684,31.142821714593634
1769250977972,173,45,46.0582757026606,46.91616972506292,47.23017909135689
1769250977976,186,58,55.501152184056814,59.434801963992754,56.6678937670573
1769250977980,184,56,54.03320546730155,57.60923702151376,55.22223056621922
1769250977984,169,41,41.76121793254926,42.610461592965976,42.99927491028052
1769250977988,149,21,23.21458269834136,22.71023091462606,24.51676967081039
1769250977992,131,3,4.863806506134443,4.7618636154736125,6.224260340045978
1769250977996,119,-9,-8.190786751071776,-7.345401006892452,-6.798423176766743
1769250978000,114,-14,-14.247033213558336,-12.456862115664562,-12.85513577539497
1769250978004,114,-14,-14.793457937728292,-12.293348270736386,-13.42076543894874
1769250978008,116,-12,-12.7109628640048,-10.425957314598907,-11.352222119343226
1769250978012,117,-11,-10.367585858050315,-9.15983577528216,-8.999070666035387
1769250978016,118,-10,-8.760957730665977,-8.414195251664516,-7.356786527961619
1769250978020,119,-9,-7.834212326563635,-7.3475824322003955,-6.382475651478964
1769250978024,121,-7,-7.24921144101955,-5.35170417656525,-5.757788723952625
1769250978028,122,-6,-6.8480517468438125,-4.416160156124222,-5.336365148227992
1769250978032,121,-7,-6.615788911003016,-5.161812028721456,-5.098882474383024
1769250978036,121,-7,-6.483451909192659,-5.425885765134452,-4.961588888364922
1769250978040,121,-7,-6.303429522649847,-5.256231428350547,-4.76561458456281
1769250978044,122,-6,-5.976989943047081,-4.442953729842883,-4.413465380907105
1769250978048,123,-5,-5.518080753601605,-3.303103063292017,-3.928792014033372
1769250978052,123,-5,-4.978466317876227,-3.308194375660125,-3.370258382418047
1769250978056,123,-5,-4.367845720547308,-3.258856607885453,-2.7456547438303582
1769250978060,124,-4,-3.6868590446548386,-2.385333407925996,-2.0493192333543435
1769250978064,125,-3,-3.00602077645306,-1.2992023758704372,-1.3490509059646445
1769250978068,126,-2,-2.448248107391372,-0.4312808795099738,-0.7707085759393253
1769250978072,126,-2,-2.06986539377104,-0.1987256674718367,-0.3743271636477483
1769250978076,126,-2,-1.788277502466895,-0.3491700220323412,-0.0770185470472393
1769250978080,126,-2,-1.4613878082142624,-0.2796538021391839,0.2665467445715463
1769250978084,127,-1,-1.0354574364310607,0.6319217079697756,0.7115329838822999
1769250978088,128,0,-0.5866568072643767,1.6299804380879452,1.1794870478614463
1769250978092,128,0,-0.2095878078719715,1.7646926944135752,1.5730705382873518
1769250978096,128,0,0.1051231751311584,1.668560215498068,1.9021909365536316
1769250978100,128,0,0.4539995318380448,1.750159493496745,2.2663270508054483
1769250978104,129,1,0.8954678901096493,2.586811653010987,2.7253418986128377
1769250978108,130,2,1.3801099583862997,3.720458301355547,3.228228812987461
1769250978112,130,2,1.819784414756665,3.6623860302720415,3.6847656221288223
1769250978116,130,2,2.202863800818766,3.793396206227795,4.083300562166253
1769250978120,131,3,2.6162909946545345,4.628429251539442,4.512139152379669
1769250978124,131,3,3.152939591203648,4.72493820475151,5.064701568561978
1769250978128,132,4,3.805376527162945,5.588229157897673,5.732749321356984
1769250978132,133,5,4.449354280312017,6.840660420507578,6.391372682619725
1769250978136,133,5,4.925880269231298,6.585861130409854,6.882282421336275
1769250978140,133,5,5.145494318154946,6.877546290559524,7.117223626305726
1769250978144,134,6,5.136230117650806,7.462849767914153,7.124181936993256
1769250978148,133,5,5.012314425303009,6.862449568130365,7.01604493531473
1769250978152,133,5,4.888902219682466,6.619235888935532,6.906997818601687
1769250978156,133,5,4.797145075498863,6.767045301487751,6.828531140125651
1769250978160,133,5,4.664869841529546,6.7691113489193055,6.709472711678728
1769250978164,133,5,4.387967084948478,6.503532964113664,6.446421600203831
1769250978168,132,4,3.937327793399129,5.920562568505806,6.010306125212045
1769250978172,132,4,3.407361954364714,5.505042275791731,5.495015854868694
1769250978176,131,3,2.959836027386031,4.946812829187984,5.061689972662789
1769250978180,131,3,2.704936287052194,4.56722936145151,4.82023657025178
1769250978184,131,3,2.615089680015737,4.709113403069228,4.743151863087286
1769250978188,131,3,2.5441338969608807,4.787423341398588,4.684430805472859
1769250978192,131,3,2.3377002399052333,4.568265324346771,4.4899867293465165
1769250978196,130,2,1.9409242299859697,4.003260482989649,4.105509410615542
1769250978200,130,2,1.414729966007645,3.391256571685332,3.59241443939412
1769250978204,129,1,0.8595647903621766,3.002063769192814,3.0509519530843883
1769250978208,129,1,0.326424583948171,2.444739935605115,2.5311272480162135
1769250978212,128,0,-0.2069415988204126,1.9607429372573648,2.00963559193087
1769250978216,128,0,-0.7881277790950483,1.643980814128735,1.4388064641360092
1769250978220,127,-1,-1.4301469073701805,0.6804529416345757,0.8068879383465071
1769250978224,126,-2,-2.099079069880509,-0.176968259899195,0.1493528493644826
1769250978228,126,-2,-2.747326591617924,-0.4718474440372069,-0.4860574737683112
1769250978232,125,-3,-3.340296714879904,-0.9825694441134264,-1.0663199967679602
1769250978236,125,-3,-3.847779699099111,-1.5019658639441675,-1.5627403627917058
1769250978240,124,-4,-4.231152090629392,-2.096563526670118,-1.9364512221126389
1769250978244,124,-4,-4.4635590983369715,-2.436387583795802,-2.1591290893506647
1769250978248,124,-4,-4.563829902381287,-2.1882220246413193,-2.2488261700886154
1769250978252,124,-4,-4.592417527468326,-2.2093372329670204,-2.2666263503920496
1769250978256,124,-4,-4.600456733067585,-2.3203130131492564,-2.2645173883011824
1769250978260,124,-4,-4.58407627701652,-2.2029264406953195,-2.238465403808952
1769250978264,124,-4,-4.494171467994784,-2.4016054593004013,-2.1385697476220313
1769250978268,124,-4,-4.289554590049306,-2.1485080039909676,-1.9235443153223957
1769250978272,125,-3,-3.975955745163285,-1.252483842748933,-1.5999723881125645
1769250978276,125,-3,-3.598836366114699,-1.2530468146333522,-1.2138649696560715
1769250978280,125,-3,-3.215518418806913,-1.2561841133284457,-0.8220298660715302
1769250978284,126,-2,-2.881254023198521,-0.3731782218826325,-0.4790984783318563
1769250978288,126,-2,-2.6445628868896427,-0.134215860136154,-0.2337901281364871
1769250978292,126,-2,-2.533817370180473,-0.265879542623368,-0.1148011741663164
1769250978296,126,-2,-2.5432274710662086,-0.1942777429353683,-0.1158790895401957
1769250978300,126,-2,-2.6331991521870477,-0.3316093305281811,-0.1968045340067115
1769250978304,126,-2,-2.7374867462762085,-0.299634605576349,-0.2917096330060258
1769250978308,126,-2,-2.767215112158705,-0.1743633518591993,-0.3128162364801221
1769250978312,126,-2,-2.6277271285411214,-0.2229795918867816,-0.165845263496692
1769250978316,126,-2,-2.2661573732671236,-0.1791870935763861,0.2028057659196278
1769250978320,127,-1,-1.722264504654531,0.614744660228806,0.7539762396345009
1769250978324,128,0,-1.1228294654163924,1.777046595200232,1.360522345153524
1769250978328,128,0,-0.6055767425614691,1.7606740452226812,1.884297202509014
1769250978332,128,0,-0.235634444438529,1.8602831712905488,2.2606209133724073
1769250978336,129,1,0.0179095869188218,2.7844512116729705,2.5211591113276413
1769250978340,129,1,0.2449829052899892,2.6050067821939917,2.7559700597210575
1769250978344,129,1,0.5417358533378007,2.8196212495487485,3.0607153156368128
1769250978348,130,2,0.974607941213713,3.732141178308069,3.5011824191435483
1769250978352,130,2,1.564877511699064,3.906008712036664,4.098101484180857
1769250978356,131,3,2.280683996623603,4.7892461617986495,4.819371114490015
1769250978360,132,4,3.026307589084826,5.548205106508131,5.5695307924058834
1769250978364,132,4,3.639192188263582,5.923924173229672,6.186727738518192
1769250978368,133,5,3.920756381467156,6.605197825595024,6.473127234243867
1769250978372,132,4,3.711997597712553,6.105150368244204,6.270038371052209
1769250978376,132,4,2.984213937589121,5.566610625413811,5.548594243717678
1769250978380,131,3,1.8821886227135392,4.789847082366476,4.45338808949507
1769250978384,129,1,0.6698853471558278,2.6751946220606087,3.2482171126484527
1769250978388,128,0,-0.4022132954477436,1.8580286466873217,2.1826644222181772
1769250978392,128,0,-1.2169180496220728,1.9370794003113232,1.3723536668301448
1769250978396,127,-1,-1.8177514616022123,0.6843380407689383,0.7734671920012759
1769250978400,126,-2,-2.3522324816952795,-0.2591006883144997,0.2406309766228971
1769250978404,126,-2,-2.986834582879923,-0.3372193877073082,-0.3901732187791644
1769250978408,125,-3,-3.8201534043264065,-1.079842613403561,-1.2175852400039058
1769250978412,124,-4,-4.810900212034193,-2.1038488164247946,-2.2023005409812173
1769250978416,123,-5,-5.7746446879362745,-3.253945437642659,-3.1609351411582107
1769250978420,122,-6,-6.487837614504644,-4.317391560508603,-3.8691978493262527
1769250978424,122,-6,-6.8375137295918345,-4.298061863268754,-4.213753845776912
1769250978428,122,-6,-6.889171163813311,-4.078587045158815,-4.261738147501262
1769250978432,122,-6,-6.814483473632595,-4.091382751678217,-4.186754278683147
1769250978436,122,-6,-6.756066464970167,-4.209341415428435,-4.13036494963564
1769250978440,122,-6,-6.753326186996165,-4.4142484494697385,-4.127233245645276
1769250978444,122,-6,-6.768466304029879,-4.175637969572654,-4.1346846215042
1769250978448,122,-6,-6.748960737696182,-4.211381402199155,-4.1004877605183365
1769250978452,122,-6,-6.659067981688996,-3.892650177839738,-3.996628243077078
1769250978456,123,-5,-6.492011646701631,-3.3887077166450412,-3.8272503075852313
1769250978460,122,-6,-6.316421358293264,-4.252978749835325,-3.6659820041941753
1769250978464,122,-6,-6.330113039484468,-4.342431386642315,-3.7027574660193623
1769250978468,122,-6,-6.7652246604663775,-4.040202614903452,-4.151396145555559
1769250978472,121,-7,-7.514989377478091,-4.996460499739368,-4.889010199241092
1769250978476,122,-6,-7.631905857572149,-4.288169038902735,-4.968710327455163
1769250978480,125,-3,-5.181444867453239,-1.3111402897958846,-2.4766295758311188
1769250978484,131,3,2.04577991329944,4.640601796420173,4.769979031675004
1769250978488,142,14,14.978710734361153,16.070914900997,17.688223147218757
1769250978492,158,30,31.72812804483575,31.92094307129251,34.39987308549042
1769250978496,176,48,47.40456159859244,49.82091091284656,50.03810315308544
1769250978500,188,60,56.025192848728224,61.61772467762652,58.638084139856005
1769250978504,185,57,53.684139139495755,58.544349578677355,56.3012720167205
1769250978508,169,41,40.89734127255586,43.23851293274672,43.54263648894248
1769250978512,149,21,22.387359598819252,22.619356143878548,25.0754058244499
1769250978516,131,3,4.442353688814146,5.248098205992571,7.1685675764493775
1769250978520,122,-6,-8.258367470593585,-4.761938110505239,-5.519845227087963
1769250978524,115,-13,-14.32554960059617,-10.964460506382654,-11.60779264827479
1769250978528,114,-14,-15.207582644728609,-12.1806477713643,-12.52881750131158
1769250978532,116,-12,-13.479143339422963,-10.04143493797471,-10.831563582800502
1769250978536,117,-11,-11.245583503521184,-9.077998721450005,-8.603802533323755
1769250978540,119,-9,-9.497772076855457,-7.520000181489867,-6.837822846260111
1769250978544,120,-8,-8.369740139431418,-6.045824850142818,-5.6834332949511355
1769250978548,121,-7,-7.703806789184231,-5.182226790064187,-5.000346560767362
1769250978552,122,-6,-7.379240136104273,-3.958460063811148,-4.675747058443575
1769250978556,122,-6,-7.30058463252225,-4.2598359327657835,-4.609092802137349
1769250978560,121,-7,-7.3017491798531715,-5.295132592031523,-4.621723384209128
1769250978564,121,-7,-7.192980740602969,-5.195431888139037,-4.51464802583183
1769250978568,122,-6,-6.893616054658571,-4.044410855002408,-4.208545924670146
1769250978572,123,-5,-6.452619126450949,-3.04835195621541,-3.761055303148072
1769250978576,123,-5,-5.927433163353038,-3.243773007039447,-3.2356806041689383
1769250978580,123,-5,-5.300138999619572,-3.2546129581093144,-2.612601405655565
1769250978584,124,-4,-4.551176658650367,-2.2222250885644494,-1.8666408193727433
1769250978588,125,-3,-3.777920381531629,-0.9728288947952222,-1.092851892614556
1769250978592,126,-2,-3.173265089461018,-0.1289848099091961,-0.4863483335035923
1769250978596,126,-2,-2.86019128891952,-0.1688991832988318,-0.172681870913367
1769250978600,126,-2,-2.7632459553651576,-0.3241676898140189,-0.0762271808015073
1769250978604,126,-2,-2.6605013566528877,-0.1245431435903334,0.0265638879618856
1769250978608,126,-2,-2.3649370273948582,-0.0284461120326593,0.3229037842564934
1769250978612,127,-1,-1.8596786461787989,0.904772625822578,0.828017199114057
1769250978616,128,0,-1.2742727366845124,1.8444826981428668,1.4113062485692924
1769250978620,128,0,-0.7515728671208253,1.6082218185537187,1.9313794363052064
1769250978624,128,0,-0.3408769045392532,2.0317614456534456,2.341396296399985
1769250978628,129,1,0.0101255131397361,2.7854311997835675,2.6939155459959627
1769250978632,129,1,0.3994638026257731,3.1260804145167196,3.0845788326357853
1769250978636,130,2,0.909466067912847,3.6245126153446745,3.593748172938492
1769250978640,130,2,1.5592384362369636,3.822008291356239,4.241279519203297
1769250978644,131,3,2.282877263485071,4.869453934416473,4.963336999108519
1769250978648,132,4,2.9620797045135094,5.935240695654265,5.642255546647555
1769250978652,132,4,3.509447477092298,6.0172315425674086,6.189440321199219
1769250978656,133,5,3.9329709463626257,6.706396183192614,6.611813430904721
1769250978660,133,5,4.310458005511934,6.782127098251928,6.987689819486602
1769250978664,133,5,4.691185790415528,6.8887628140585395,7.367621568707725
1769250978668,134,6,5.026260925269612,7.978558456473361,7.702929226392767
1769250978672,134,6,5.2069438400018875,7.954821142764289,7.883592063638019
1769250978676,134,6,5.174501907689396,7.79457184755659,7.84962937153168
1769250978680,134,6,4.982047716724302,7.69574277272465,7.654524997900793
1769250978684,133,5,4.7375543134808416,6.9802955027689135,7.407941803408248
1769250978688,133,5,4.488893864230478,6.918534529999359,7.158838877353304
1769250978692,133,5,4.181584118385315,7.030361089236594,6.851929181356721
1769250978696,133,5,3.74409887629458,6.72408460662716,6.414049301714199
1769250978700,132,4,3.2077425742121477,5.784672030476463,5.876141396642835
1769250978704,131,3,2.7178323106571893,4.887680516559996,5.384667761973453
1769250978708,131,3,2.4104721318689943,5.03210964601632,5.07647410433807
1769250978712,131,3,2.2803385760562476,4.947205651221607,4.945432106733852
1769250978716,131,3,2.1734079643682014,4.797588135700638,4.8364546603976475
1769250978720,131,3,1.9071186828826592,4.7667424380613586,4.567446357035136
1769250978724,130,2,1.4039285352202997,3.8487746552969906,4.062597536517143
1769250978728,129,1,0.7310636791106057,3.146862781600867,3.39004452748028
1769250978732,129,1,0.03550399078819,2.7837403014237547,2.695544606474444
1769250978736,128,0,-0.5579360427299809,2.047120596281891,2.101762931384933
1769250978740,128,0,-1.0155937120472007,1.4736901538340916,1.6416227399824808
1769250978744,127,-1,-1.4030038774528015,1.1950473799480643,1.250936743739881
1769250978748,127,-1,-1.8363385271344357,0.7770279747745021,0.8153587317743931
1769250978752,126,-2,-2.4012764575100745,0.1789589477955053,0.2496876764273055
1769250978756,126,-2,-3.084748338227727,-0.308657027012853,-0.433933977352805
1769250978760,125,-3,-3.7706577289293417,-1.2004062357491034,-1.1203526168831162
1769250978764,124,-4,-4.313173265572862,-2.067093155158221,-1.6638030301105804
1769250978768,124,-4,-4.634522758526555,-2.0189044155719595,-1.9862261629818097
1769250978772,124,-4,-4.763637123115294,-1.9417820828484635,-2.116638176812238
1769250978776,124,-4,-4.7854359765248855,-2.2137682508406074,-2.140161501189627
1769250978780,124,-4,-4.758318177278012,-2.249537729983664,-2.114949786167883
1769250978784,124,-4,-4.680334369056376,-2.030622335938932,-2.0384908629370404
1769250978788,124,-4,-4.524503790523133,-2.056151056046585,-1.8834926725754328
1769250978792,124,-4,-4.295041331024093,-1.8695799850406944,-1.65443931200286
1769250978796,125,-3,-4.043131661442066,-1.271348136249398,-1.4032068621018734
1769250978800,125,-3,-3.8262095217500938,-1.173126486063044,-1.1877051090943955
1769250978804,125,-3,-3.655010016364604,-1.1018404958151606,-1.0183110087215792
1769250978808,125,-3,-3.487328282779567,-0.9986212008353066,-0.8519021415322747
1769250978812,125,-3,-3.276438022850648,-0.8834617112321754,-0.6413578979494972
1769250978816,126,-2,-3.0223146134574517,-0.2588179806168673,-0.3873437278121461
1769250978820,126,-2,-2.7753211918362366,-0.1357082577802497,-0.1412541561858313
1769250978824,126,-2,-2.5973456502253858,-0.1714330365093377,0.0347422877209395
1769250978828,126,-2,-2.5232519410965413,0.1003977551737391,0.1064355590125281
1769250978832,126,-2,-2.5494711042758045,0.014160834628631,0.0783849538588929
1769250978836,126,-2,-2.641920934969374,-0.1223057517349812,-0.0146051891700724
1769250978840,126,-2,-2.7437520915489957,-0.2432628939185237,-0.1156783544862998
1769250978844,126,-2,-2.775904823537035,-0.0868853666778664,-0.1466990994168631
1769250978848,126,-2,-2.643682690027474,0.0528472071967427,-0.0143637851810609
1769250978852,126,-2,-2.27086391168303,0.0371528926393147,0.356732292937048
1769250978856,127,-1,-1.6590166766461794,0.9260458561133746,0.9655039353802692
1769250978860,128,0,-0.9270561459866612,1.6886846183294786,1.6945386727696043
1769250978864,128,0,-0.2758369583377156,2.014608225020175,2.344333946929616
1769250978868,129,1,0.1288348522772073,2.9253152345379876,2.7491884629745913
1769250978872,129,1,0.2855539654864607,3.2037377757316357,2.906804674920604
1769250978876,129,1,0.3889598462774046,2.760894326101688,3.0112385492627904
1769250978880,129,1,0.7059995791224902,2.8937581973619477,3.3294036749327427
1769250978884,130,2,1.373536412502554,3.7974509503268856,3.997393029111213
1769250978888,131,3,2.283068102748435,5.150331100006068,4.90507178200444
1769250978892,132,4,3.144090874491918,6.013081656531108,5.761790046381398
1769250978896,132,4,3.65217632641975,5.952354805097388,6.265937549606701
1769250978900,132,4,3.623098043980177,5.747030509335681,6.236469497908198
1769250978904,132,4,3.040067091734728,5.891998254303407,5.656331751150036
1769250978908,131,3,2.045962200915178,5.108303719845576,4.665090292959578
1769250978912,129,1,0.8914498300197808,3.0405321861778045,3.5111373002810993
1769250978916,128,0,-0.1787010076812061,1.9883595411075747,2.4399517595679328
1769250978920,128,0,-1.0541191673428567,1.7047635946751214,1.5634138006693146
1769250978924,127,-1,-1.7951286490349672,0.9157098124698868,0.8213607524935411
1769250978928,126,-2,-2.541520417634098,0.1390177191165826,0.0735705619254387
1769250978932,125,-3,-3.3848739700960553,-1.020673902090187,-0.7711081564370601
1769250978936,124,-4,-4.314194606086402,-1.8593196261536589,-1.700707847329543
1769250978940,124,-4,-5.25090200005716,-2.5208895405482608,-2.6363167065030293
1769250978944,122,-6,-6.110118856567204,-3.790900044217429,-3.4937034664517856
1769250978948,122,-6,-6.830215182917433,-4.197723880248523,-4.212381195164298
1769250978952,121,-7,-7.364109292456646,-4.602269368145595,-4.746253391617955
1769250978956,121,-7,-7.666393723305252,-5.2916591553917955,-5.050019567770987
1769250978960,121,-7,-7.710669645292677,-5.0810314370635155,-5.096155597364038
1769250978964,121,-7,-7.529951127316528,-5.206193603960394,-4.916084764253712
1769250978968,121,-7,-7.228954307634816,-4.826336949371426,-4.6139064945510615
1769250978972,122,-6,-6.93063364416123,-3.8561078935146744,-4.313315406435115
1769250978976,122,-6,-6.696315216973206,-4.109053312656234,-4.076510497256738
1769250978980,122,-6,-6.513380312581012,-4.19528326470448,-3.891108306385209
1769250978984,122,-6,-6.384395627703888,-4.127614520506915,-3.760579231195939
1769250978988,122,-6,-6.419591591650576,-3.906580650312653,-3.7978255320520375
1769250978992,122,-6,-6.792175789972356,-3.689804610260625,-4.178126991531111
1769250978996,121,-7,-7.531847148838634,-5.30489602360319,-4.928500457900643
1769250979000,120,-8,-8.278273136239203,-5.98573410713286,-5.680721482233731
1769250979004,121,-7,-8.152658847016605,-5.289564232135216,-5.547970316896574
1769250979008,123,-5,-5.859575222491774,-2.887750952517865,-3.233280706430625
1769250979012,128,0,-0.082510406281659,2.6101669829472276,2.571203203522241
1769250979016,138,10,9.85929500977691,11.090639275746032,12.529355396480204
1769250979020,152,24,23.311708162889875,26.994569507245163,25.972087090809342
1769250979024,169,41,37.90670677272837,41.37702905678166,40.53275456688637
1769250979028,173,45,49.83828311457292,48.71940007688072,52.42642426570013
1769250979032,185,57,54.970542940660664,57.842060199864335,57.54146605788746
1769250979036,182,54,50.61465025998905,56.91754351082443,53.19672710269877
1769250979040,167,39,37.187053000371705,40.14535095315283,39.79866347522049
1769250979044,146,18,18.54193216621097,20.10195446602262,21.186893622224183
1769250979048,127,-1,0.3740019784288151,1.2281632752613614,3.044769477988157
1769250979052,115,-13,-12.48215669803334,-10.929626734670888,-9.80202086872821
1769250979056,111,-17,-18.121263920597496,-14.81661929360927,-15.45303412609432
1769250979060,112,-16,-17.786606386623713,-14.436638061907669,-15.146570976351825
1769250979064,115,-13,-14.42098479468976,-10.971168372687355,-11.809926226425858
1769250979068,118,-10,-10.77509097811054,-8.014377482550172,-8.176710015925
1769250979072,119,-9,-8.280832997129501,-6.582169077414442,-5.672012124772941
1769250979076,121,-7,-7.067938850725074,-5.202792645326555,-4.433744401018172
1769250979080,122,-6,-6.648585053489755,-3.978723884078619,-3.9910284942949703
1769250979084,123,-5,-6.542894077480795,-3.3897805586836585,-3.877204809185786
1769250979088,122,-6,-6.485542109405971,-3.65513908449574,-3.8274200954628217
1769250979092,122,-6,-6.3467314298984565,-3.925287483471834,-3.701174695936406
1769250979096,122,-6,-6.055034420695867,-3.8703968021642208,-3.4153879347963247
1769250979100,123,-5,-5.618108428506902,-3.1984934888974337,-2.9744955931983443
1769250979104,124,-4,-5.13422665853313,-2.198927297695861,-2.48250622327393
1769250979108,124,-4,-4.710208394149263,-1.8119148490453376,-2.0534755148839263
1769250979112,124,-4,-4.359574158952773,-1.8484689513627008,-1.7025213631172145
1769250979116,124,-4,-4.006400635725931,-1.8782018322005247,-1.34981500847819
1769250979120,125,-3,-3.591592110554243,-1.1690081794228877,-0.9327716671279124
1769250979124,126,-2,-3.1456508473362765,-0.1791815691240272,-0.4828923875967827
1769250979128,126,-2,-2.7382207769506417,0.148396854316994,-0.0730603130235487
1769250979132,126,-2,-2.3793432962146994,0.1631992316418977,0.2860027171744432
1769250979136,126,-2,-2.008098764257726,0.1398594228875151,0.6578876022779494
1769250979140,127,-1,-1.5808881693983898,0.8453782545607356,1.088318190338391
1769250979144,128,0,-1.134948082009736,1.851035735737367,1.5386767756623154
1769250979148,128,0,-0.7387277256632944,2.1078543174947084,1.9375933134602523
1769250979152,128,0,-0.3968227074008547,2.175236178162641,2.279973374138067
1769250979156,128,0,-0.0384615356595439,2.1628058289400776,2.6390251267153593
1769250979160,129,1,0.3954333320996568,2.825452098897689,3.075839284784498
1769250979164,130,2,0.8821019557376446,3.949848611378195,3.566751748634342
1769250979168,130,2,1.3528546912520014,3.970499174835968,4.0406922292490055
1769250979172,130,2,1.7853131751503022,4.320310533552949,4.474490341149258
1769250979176,131,3,2.2352039080279833,5.020531438999621,4.925504042862505
1769250979180,131,3,2.7685398153659464,4.98322167055165,5.461712627544939
1769250979184,132,4,3.3725795764444753,5.861271426684224,6.070150058062906
1769250979188,133,5,3.9490943472267928,7.030610475346258,6.650193820666302
1769250979192,133,5,4.399372362193125,7.273794448434657,7.10155071524764
1769250979196,133,5,4.700184013097716,7.051584199374126,7.402598360379382
1769250979200,133,5,4.883647852619416,6.993445413433964,7.588460769666067
1769250979204,134,6,4.964688653554877,7.874865328399704,7.674575602492328
1769250979208,134,6,4.927023375468524,8.03576302537575,7.642074549162965
1769250979212,133,5,4.782152390152081,7.248993607602246,7.500148126279792
1769250979216,133,5,4.60038512136718,7.097989235037507,7.319564998867048
1769250979220,133,5,4.450374949102146,6.947749866074318,7.170920209425112
1769250979224,133,5,4.315036881485972,6.973871499133963,7.038060200549675
1769250979228,133,5,4.092777628205201,6.929009773152387,6.818901861499001
1769250979232,132,4,3.697874500488468,6.37884404938885,6.427198046670462
1769250979236,132,4,3.1643492436505927,5.940770380004982,5.897265454804678
1769250979240,131,3,2.65063350846448,5.148713017345809,5.38793260409159
1769250979244,131,3,2.3349009708064212,4.779850680891524,5.076716751309917
1769250979248,131,3,2.287915044106973,5.152636731043926,5.032867344418397
1769250979252,131,3,2.421899432924475,5.1683556521904315,5.167983483552316
1769250979256,131,3,2.541137910899824,5.1172510463834975,5.287802921810298
1769250979260,131,3,2.446687537548131,5.0478259763676165,5.195651834836897
1769250979264,131,3,2.033793787628297,4.822515532084543,4.78742184594913
1769250979268,130,2,1.340357428158573,4.215563930104511,4.099443687111755
1769250979272,129,1,0.5205786454182719,3.0251501927528626,3.283980275539868
1769250979276,128,0,-0.2525852714036105,2.3300867593450727,2.513553156278764
1769250979280,128,0,-0.8973329954556459,1.8091094332386872,1.8709459793075247
1769250979284,127,-1,-1.458622197696117,1.1006950743258008,1.3122002744052028
1769250979288,127,-1,-2.0343898897713175,0.9688015772042832,0.7395429518956007
1769250979292,126,-2,-2.655626024761414,0.2496689573340447,0.1217622089296979
1769250979296,125,-3,-3.233434510233969,-0.8615896114483435,-0.4521837691674908
1769250979300,125,-3,-3.626786990035711,-1.0250459691754297,-0.8412449128814976
1769250979304,125,-3,-3.765860119412902,-1.001480569052465,-0.976276365714758
1769250979308,125,-3,-3.71294416463997,-0.9439295223132338,-0.920477453582186
1769250979312,125,-3,-3.6112531967796446,-0.7888914284383111,-0.8169554255955593
1769250979316,125,-3,-3.5783282111472503,-0.8622645222849958,-0.7819023338601121
1769250979320,125,-3,-3.635442807240015,-0.9881432568737604,-0.8353247759282443
1769250979324,125,-3,-3.714553903589089,-1.0410334320083878,-0.9093506861149248
1769250979328,125,-3,-3.718195083086571,-0.8605076008980719,-0.907919137175607
1769250979332,125,-3,-3.5837924756528245,-0.8741396883338961,-0.7696506767939999
1769250979336,125,-3,-3.3195948688739056,-0.7654995420458848,-0.5028240880763861
1769250979340,126,-2,-3.0004051582951767,-0.089968786032641,-0.1814623418348095
1769250979344,126,-2,-2.727412948178397,0.091572111298142,0.0940520918085838
1769250979348,126,-2,-2.5756689449575565,0.0242947284474515,0.2491215991494262
1769250979352,126,-2,-2.5610331780710145,0.2534987716710448,0.2678436598838059
1769250979356,126,-2,-2.640312504450489,0.1150650615063249,0.1928828790765275
1769250979360,126,-2,-2.7343667629819937,0.004983075167114,0.1028035072309951
1769250979364,126,-2,-2.758757689970796,0.0707808938661456,0.0819873019930685
1769250979368,126,-2,-2.6519093910303804,0.0032849302164317,0.1924138678055911
1769250979372,126,-2,-2.3915272652235275,0.3653839590539784,0.4565542770745172
1769250979376,127,-1,-1.9920173599428532,0.9201162038871108,0.8595951251531233
1769250979380,127,-1,-1.48880675219304,1.2801208368883037,1.3656839026038936
1769250979384,128,0,-0.9273164484318192,1.756134667786884,1.9296889712307512
1769250979388,128,0,-0.363240674696953,2.389158324473238,2.496739520713166
1769250979392,129,1,0.1433327643600009,2.9609527982915997,3.007182471530339
1769250979396,129,1,0.5573069770162118,3.330865727311977,3.4254980368875447
1769250979400,130,2,0.9051385322971016,3.887173330933975,3.777481849293267
1769250979404,130,2,1.2740143637482009,4.141144975549313,4.150289830788147
1769250979408,130,2,1.7502391674375342,4.077422864403638,4.6305713588995605
1769250979412,131,3,2.3369665234255184,5.214294430959226,5.221109925909284
1769250979416,132,4,2.926471487735566,6.164103501785474,5.813206035210474
1769250979420,132,4,3.3525239876626713,5.963275713671319,6.24072521330169
1769250979424,132,4,3.469893190410753,6.189238410894925,6.360170185694905
1769250979428,132,4,3.2031908113814325,5.958069863979524,6.097542652434938
1769250979432,131,3,2.564502210069937,5.401594534580991,5.464141667552338
1769250979436,131,3,1.6576223755100916,4.9487986278656,4.561915556754741
1769250979440,129,1,0.6508600766322726,3.1929013253059173,3.558647653583677
1769250979444,128,0,-0.2996606121468999,2.0054827480087143,2.6113172259764843
1769250979448,128,0,-1.1291265897502576,2.116550527430166,1.7850757835174915
1769250979452,127,-1,-1.8705471937990903,1.3096494518362836,1.0464233748673362
1769250979456,126,-2,-2.5901021299796856,-0.0214885056304061,0.3293907987597197
1769250979460,125,-3,-3.329161644569286,-0.747270147325565,-0.4064678777449515
1769250979464,125,-3,-4.095500942524975,-1.112001849147383,-1.1690722133910811
1769250979468,124,-4,-4.87252923344664,-1.7015003270711415,-1.94303446226474
1769250979472,123,-5,-5.6213775109470765,-2.8767976323462965,-2.6894498539628113
1769250979476,122,-6,-6.293438837840897,-3.841301267787471,-3.357909566419977
1769250979480,122,-6,-6.853729885541411,-3.872406380692844,-3.912611127469771
1769250979484,122,-6,-7.279353585458763,-4.040915569954408,-4.332804144380071
1769250979488,121,-7,-7.532515040962092,-4.680525446787756,-4.583767180256038
1769250979492,121,-7,-7.565421007502044,-4.94859576250012,-4.618040816331293
1769250979496,121,-7,-7.381790285750739,-4.7081566140491145,-4.43585278431987
1769250979500,122,-6,-7.086430040426452,-4.044847950096678,-4.137075135101181
1769250979504,122,-6,-6.842000385130913,-3.817595025600736,-3.8820230691966024
1769250979508,122,-6,-6.754828501375318,-3.911736536078826,-3.7806827775997993
1769250979512,122,-6,-6.806154790237655,-3.674549391647882,-3.823697507964535
1769250979516,122,-6,-6.918472980503483,-4.0158588505606145,-3.942334071744268
1769250979520,121,-7,-7.11088191316522,-4.696748326787039,-4.154460130453669
1769250979524,121,-7,-7.554266707461789,-5.184436583977725,-4.616454052937704
1769250979528,120,-8,-8.323997682695069,-5.484158979410531,-5.384945105799958
1769250979532,121,-7,-8.872793091372,-5.11666282134382,-5.905494675703293
1769250979536,122,-6,-7.632385969635435,-3.555219182586349,-4.622770032843507
1769250979540,127,-1,-2.3538547148001143,0.8624510328996249,0.6869763095084434
1769250979544,136,8,8.55990112871979,10.24231904539139,11.601762997764752
1769250979548,151,23,24.335641167843004,25.20085126503133,27.34849782426318
1769250979552,169,41,41.0347920882392,43.123646848758064,44.00602617700411
1769250979556,183,55,52.73535820689392,57.3300019587062,55.67469976052536
1769250979560,186,58,54.41567222269873,59.82169931924798,57.34883435868854
1769250979564,174,46,44.817146950423435,48.33940705298746,47.77410866687289
1769250979568,155,27,27.30925734697735,28.964320327418683,30.310866739678584
1769250979572,135,7,8.104492886744595,9.417708877794988,11.151108398215086
1769250979576,121,-7,-6.968892863888902,-4.901884738873222,-3.899519879560259
1769250979580,114,-14,-15.047061623316296,-11.83358504141879,-11.987974990508157
1769250979584,113,-15,-16.758936648466083,-12.891708896171044,-13.734279704356217
1769250979588,115,-13,-14.82941043024747,-10.878530562366793,-11.84055908358928
1769250979592,117,-11,-12.044323805919303,-8.733845300863686,-9.071207886959847
1769250979596,118,-10,-9.937077334336836,-7.832727037725155,-6.952608759962724
1769250979600,119,-9,-8.716949084552137,-6.813160929240913,-5.704247711860745
1769250979604,121,-7,-7.9858014423270545,-4.911886312384384,-4.947136522074933
1769250979608,122,-6,-7.4217255718251085,-3.83285531381653,-4.373834628793221
1769250979612,122,-6,-6.971834417953723,-3.825949743190939,-3.9318648617284433
1769250979616,122,-6,-6.681048607737235,-3.717652373075531,-3.654482669325167
1769250979620,122,-6,-6.5210714306824205,-3.9057765341247297,-3.5007387021146306
1769250979624,122,-6,-6.396037242694946,-3.771491486677794,-3.371157737861504
1769250979628,123,-5,-6.232015091769039,-2.9712268198260223,-3.197876784310971
1769250979632,123,-5,-6.004933688013925,-2.708496715517905,-2.9648186995886223
1769250979636,123,-5,-5.699728348056296,-2.822781384219269,-2.659268200342147
1769250979640,123,-5,-5.293515659349086,-2.7729368313970526,-2.2548197830120777
1769250979644,124,-4,-4.794598319531576,-1.8763341051484763,-1.7559532213367568
1769250979648,125,-3,-4.2664759347224965,-0.8483042565794179,-1.22592223232555
1769250979652,125,-3,-3.7839319178679247,-0.8666757297474228,-0.741339332556453
1769250979656,125,-3,-3.369266263666701,-0.6229501095401178,-0.3252610394943254
1769250979660,126,-2,-2.9832099999326003,0.0121691435308082,0.062245637047269
1769250979664,126,-2,-2.570445280309063,0.4053408526706277,0.4768397952772574
1769250979668,127,-1,-2.1016556789400855,0.8443731858343075,0.9471482467354272
1769250979672,127,-1,-1.577093070662572,1.4562949927491555,1.4722432684402622
1769250979676,128,0,-1.007674586770909,2.0605190713440837,2.0416367437876484
1769250979680,128,0,-0.404732556867032,2.3265972557348724,2.645180544071095
1769250979684,129,1,0.215638886317973,3.16557464872648,3.2672562593429646
1769250979688,130,2,0.8334911564047025,4.024906570694586,3.886931823475537
1769250979692,130,2,1.4402684954615634,4.3497398605867605,4.494329721915633
1769250979696,131,3,2.0456245574231113,5.093337126660089,5.099132502067
1769250979700,131,3,2.654999097963776,5.392789600015199,5.7081649251223645
1769250979704,132,4,3.2417066114566726,6.052079590196839,6.295748052497004
1769250979708,133,5,3.759769552492794,7.207911837276098,6.81539049563257
1769250979712,133,5,4.196904897898827,7.120946160694769,7.253654421308535
1769250979716,133,5,4.604041815360801,7.35551527896724,7.661110049165425
1769250979720,134,6,5.050826195911113,8.137657181515983,8.107888935897275
1769250979724,134,6,5.540565343901054,8.333210548052008,8.597638123699095
1769250979728,135,7,5.970331716224923,8.930138165230563,9.027158699572071
1769250979732,135,7,6.182736258804625,9.423146996408452,9.238739801902312
1769250979736,135,7,6.070632054286422,9.023931543776175,9.125639015017365
1769250979740,134,6,5.6487664989118205,8.521838116220927,8.703614970666806
1769250979744,134,6,5.0402683111318325,7.937209732362726,8.096258642102718
1769250979748,133,5,4.40375101906305,7.351757906086682,7.461262462581629
1769250979752,133,5,3.866119456938259,7.0143243927073,6.923997296522332
1769250979756,132,4,3.4954042512095995,6.421201240855311,6.551995499294745
1769250979760,132,4,3.3002492134306567,6.170349555584245,6.354967901888646
1769250979764,132,4,3.235797397211019,6.273138542388789,6.289424864579515
1769250979768,132,4,3.2191289346433134,6.05856143786899,6.272581577044609
1769250979772,132,4,3.1629518224993305,6.280151650663566,6.216101759460361
1769250979776,132,4,3.0115588441750005,6.202948885400909,6.063600552610435
1769250979780,131,3,2.746709603105227,5.356603528939099,5.797466683692017
1769250979784,131,3,2.3597918663456796,5.153276938690956,5.409955552688493
1769250979788,131,3,1.83301674282323,5.130776166136618,4.8829201126274295
1769250979792,130,2,1.1639868113060774,4.278476516878795,4.21290061596599
1769250979796,129,1,0.4021853739116892,3.1514511708387545,3.4492998054598583
1769250979800,128,0,-0.3603881535103705,2.4885198319509345,2.6851299001829707
1769250979804,128,0,-1.0427932141420753,1.9662896780217989,2.0018854415800837
1769250979808,127,-1,-1.612920848310314,1.3857660663412252,1.4310192683408542
1769250979812,127,-1,-2.0737347781855666,0.9981189264392464,0.9687033250729749
1769250979816,126,-2,-2.426810321530731,0.4635377970002481,0.6134207153486968
1769250979820,126,-2,-2.660297232872213,0.1875918754146144,0.3778124368761557
1769250979824,126,-2,-2.769304241726177,0.2538609734027646,0.2672933635246473
1769250979828,126,-2,-2.7779022421294957,0.1471733678384206,0.2575413647054194
1769250979832,126,-2,-2.7354674185944092,0.2059550330036832,0.2984975771380718
1769250979836,126,-2,-2.6909357738791067,0.3191884645312792,0.3407603731372393
1769250979840,126,-2,-2.6696307727407067,0.2884764213253019,0.3592008767915273
1769250979844,126,-2,-2.672292828506266,0.2049657760253511,0.3538645282502739
1769250979848,126,-2,-2.6921326567276185,0.1708683653563798,0.3321985457209311
1769250979852,126,-2,-2.7250081225187377,0.2289823787491904,0.298061140425363
1769250979856,126,-2,-2.7556589971940184,0.2837293249333856,0.265665149800252
1769250979860,126,-2,-2.7385942814830755,0.3545520304929037,0.2799719902429993
1769250979864,126,-2,-2.613039633406691,0.1264636170529214,0.4025211460703355
1769250979868,126,-2,-2.3574454416824024,0.276148285165243,0.6558488000043092
1769250979872,127,-1,-2.0302157920858144,1.1288937353373638,0.9811429213455344
1769250979876,127,-1,-1.7419019201059676,1.4033993083441811,1.2664001511401308
1769250979880,127,-1,-1.578833705887166,1.2459529043940765,1.4249010896535883
1769250979884,127,-1,-1.55471386624401,1.233648514416513,1.4445137618496715
1769250979888,127,-1,-1.6262898482339785,1.1854224452097462,1.3703355689345431
1769250979892,127,-1,-1.729863832011322,1.2185606195592498,1.266061969009581
1769250979896,127,-1,-1.786665969305219,1.3522410825717224,1.2086087908496637
1769250979900,127,-1,-1.6913998663091685,1.2922323326416814,1.3014166265812483
1769250979904,127,-1,-1.3402043212430486,1.209359517995498,1.6479563281868734
1769250979908,128,0,-0.7079045221980005,2.19547521034336,2.274434248181354
1769250979912,129,1,0.0925996864946372,3.2418705099357297,3.069580188849286
1769250979916,129,1,0.8435222698541429,3.3321172962774948,3.816834010430174
1769250979920,130,2,1.349721398901896,4.3439460663160006,4.320884452236124
1769250979924,131,3,1.5784581247142269,5.144209664132213,4.547587277226684
1769250979928,130,2,1.6951450095170593,4.265047141155177,4.661364629958291
1769250979932,130,2,1.9369390795465224,4.185459088378836,4.899627515934698
1769250979936,131,3,2.410001366844751,5.414432000626249,5.3688166417585705
1769250979940,132,4,2.99078057855651,6.273283903983268,5.944907726093694
1769250979944,132,4,3.420172294510274,6.229714965191846,6.368721184689671
1769250979948,132,4,3.4927318304454182,6.174244313158328,6.435860532716831
1769250979952,132,4,3.175608940443013,6.282844067086748,6.114492335003758
1769250979956,131,3,2.5849896155124825,5.332851370050307,5.520709574936771
1769250979960,130,2,1.8700447073109845,4.370467254761878,4.802851489398509
1769250979964,130,2,1.1088884942380155,4.151270759604138,4.038213411383616
1769250979968,129,1,0.294865924141116,3.254104230227808,3.219645620643938
1769250979972,128,0,-0.5936728761871786,2.2026487912398127,2.3255477005360383
1769250979976,127,-1,-1.5239003265283797,1.44565308868972,1.3894843640676655
1769250979980,126,-2,-2.4150857548937332,0.2487818367312479,0.4931928215693588
1769250979984,125,-3,-3.2111569713212744,-0.6864225258324037,-0.3069326285037173
1769250979988,125,-3,-3.935692451471916,-0.9336245500458228,-1.0353663071927062
1769250979992,124,-4,-4.663071899454345,-1.5725204696084196,-1.7677584169926717
1769250979996,123,-5,-5.432317434176324,-2.7882285882056146,-2.543243008857962
1769250980000,122,-6,-6.194062010701483,-3.483045265921598,-3.311073638112993
1769250980004,122,-6,-6.842094381977107,-3.95778442096746,-3.963541402487996
1769250980008,121,-7,-7.29192348253078,-4.664525043219462,-4.416201767272772
1769250980012,121,-7,-7.530600880767056,-4.803418223645441,-4.658181634773543
1769250980016,121,-7,-7.599959652678232,-4.58035515118353,-4.734021698509579
1769250980020,121,-7,-7.543018144714355,-4.6214553894801425,-4.687199878588612
1769250980024,121,-7,-7.378018759274222,-4.879184924111312,-4.532315696473281
1769250980028,121,-7,-7.125539624866364,-4.67620861101847,-4.284344551035214
1769250980032,122,-6,-6.839350009308827,-3.8395123359620382,-3.994882087409364
1769250980036,122,-6,-6.585875823863757,-3.4784590546803136,-3.735420850540768
1769250980040,122,-6,-6.40347732495419,-3.732360428023787,-3.5546949908212793
1769250980044,122,-6,-6.324537005994408,-3.76052188882005,-3.493197432876613
1769250980048,122,-6,-6.455704239123211,-3.785549586428224,-3.654731258001106
1769250980052,121,-7,-6.968060569778006,-4.746719755932905,-4.194355590756188
1769250980056,120,-8,-7.83274094641724,-5.516642343498705,-5.063847109038765
1769250980060,121,-7,-8.341752008756211,-4.701223521802397,-5.549418780039845
1769250980064,123,-5,-6.7920155412537335,-2.7646796883372957,-3.964208605818523
1769250980068,128,0,-0.896538673643664,2.207216608591799,1.951197357400196
1769250980072,138,10,10.838777105990234,12.2975561978992,13.673346442677854
1769250980076,153,25,27.38860009842793,27.46171123643308,30.181523239272646
1769250980080,172,44,44.48769381921743,46.35928807428285,47.230677277635486
1769250980084,187,59,55.99504763990809,61.17029994008568,58.7005855680024
1769250980088,188,60,56.9655219982601,62.24146168404859,59.65876521789978
1769250980092,175,47,46.515910140052746,49.1989585415732,49.224945146709885
1769250980096,155,27,28.444898956296925,29.499689099311347,31.189411905806583
1769250980100,136,8,9.142070699143565,10.336665517745264,11.921774617830316
1769250980104,122,-6,-5.738389809818418,-3.741262094368164,-2.9465563738625207
1769250980108,115,-13,-13.677415189462574,-10.661824856655857,-10.906855684585576
1769250980112,114,-14,-15.536924284605456,-11.905993098697548,-12.810884492901511
1769250980116,115,-13,-14.014866437427314,-10.35372027574169,-11.333082452912556
1769250980120,117,-11,-11.688296908351273,-8.954042755717445,-9.029620250530495
1769250980124,117,-11,-9.90536709464276,-8.392953120190416,-7.242905908004432
1769250980128,119,-9,-8.860254205817307,-6.996347353480159,-6.178277884172425
1769250980132,120,-8,-8.282487372059386,-5.527197789788764,-5.5845147482385755
1769250980136,121,-7,-7.964857406803538,-4.738718524015669,-5.2682225223642325
1769250980140,121,-7,-7.826640387737581,-4.645871445588933,-5.148034047057904
1769250980144,120,-8,-7.759624999400748,-5.623621704331862,-5.103120163475701
1769250980148,120,-8,-7.600881576895468,-5.794328356171228,-4.957940720457068
1769250980152,121,-7,-7.2661601163854,-4.607819258311638,-4.626177818743061
1769250980156,122,-6,-6.826359531706282,-3.750931143101068,-4.18655842955909
1769250980160,122,-6,-6.4064292721231,-3.5915775908222876,-3.771903833827148
1769250980164,122,-6,-6.038668928534934,-3.709650244568376,-3.414772276653418
1769250980168,122,-6,-5.653373473645273,-3.6503175075652727,-3.040125209191017
1769250980172,123,-5,-5.196116714004051,-2.732540996186716,-2.5899620178775704
1769250980176,124,-4,-4.703455378588857,-1.633767753758983,-2.102370264912344
1769250980180,124,-4,-4.245188815462877,-1.7141567769366346,-1.6504958148779505
1769250980184,124,-4,-3.82323842327192,-1.5840801099551651,-1.2371183145888498
1769250980188,125,-3,-3.361642181504168,-0.7399642645624183,-0.7844801145817608
1769250980192,125,-3,-2.7972740781003935,-0.6249275229756122,-0.2278614016540063
1769250980196,126,-2,-2.16182094735017,0.2465401411549841,0.400637999265816
1769250980200,127,-1,-1.5625316017984925,1.4297665789986689,0.992339843427516
1769250980204,127,-1,-1.0837805358227737,1.2390499804327495,1.4625132354113075
1769250980208,127,-1,-0.7132357200339472,1.5081055011340725,1.824620917477512
1769250980212,128,0,-0.3601643764110679,2.107182984429223,2.170334935397023
1769250980216,128,0,0.0683470186916495,2.5244780170213357,2.5920702941450893
1769250980220,129,1,0.6107135218300965,3.1670364283521284,3.1271486075704824
1769250980224,129,1,1.2465822798822228,3.4767885916121983,3.754873310203219
1769250980228,130,2,1.9252956858050907,4.352883661882709,4.42495512170253
1769250980232,131,3,2.5978931537524588,5.203042540093779,5.0887831844612865
1769250980236,131,3,3.233508227821056,5.502774696777486,5.715793190982186
1769250980240,132,4,3.8118097912062376,6.1134952285862205,6.286132839583413
1769250980244,132,4,4.304792479251719,6.612658307887573,6.771955504778462
1769250980248,133,5,4.677781578743856,7.1826517986279,7.137883509687714
1769250980252,133,5,4.916891340785063,7.42578040308819,7.369051816836654
1769250980256,133,5,5.047696208662535,7.25891088233112,7.490929153422679
1769250980260,133,5,5.110279090349855,7.359795522245194,7.544498500057995
1769250980264,133,5,5.109803776227875,7.384225360838275,7.535758353081358
1769250980268,133,5,5.000746307055501,7.428825238923519,7.419095949926222
1769250980272,133,5,4.73111393544113,7.191027088790971,7.141785403301803
1769250980276,132,4,4.30552348283216,6.515535706886935,6.707886205459679
1769250980280,132,4,3.802771638094455,6.057383955675318,6.196291051507277
1769250980284,131,3,3.3279275037118987,5.750070960232831,5.7127973785932475
1769250980288,131,3,2.939794143696601,5.035252284549849,5.316992711046053
1769250980292,130,2,2.6174466248876023,4.640670848974114,4.987706588687917
1769250980296,131,3,2.2994934600200874,5.057373983176579,4.662007116712465
1769250980300,130,2,1.9600793227818327,4.4866485540541685,4.312986558683456
1769250980304,129,1,1.6338797897586494,3.3841654733492215,3.976603157848644
1769250980308,129,1,1.3500161137905091,3.345609228726554,3.684334089843396
1769250980312,129,1,1.0550716330557977,3.4375508838209603,3.3830045872876773
1769250980316,129,1,0.6380417224786001,3.167353763621838,2.9592017954923593
1769250980320,128,0,0.0456509294777314,2.4678961368946095,2.35772321302304
1769250980324,127,-1,-0.6489154530397627,1.3370169549048154,1.652838597835803
1769250980328,126,-2,-1.3134137903665235,0.4557254574595371,0.9793742550341316
1769250980332,126,-2,-1.883096936922368,0.3170499644684068,0.4027598489133845
1769250980336,126,-2,-2.396595018520259,0.2998420019858372,-0.1174853393206856
1769250980340,125,-3,-2.906259389508577,-0.6427264934463865,-0.6353784309936925
1769250980344,124,-4,-3.3818887681044503,-1.566599909388045,-1.1202423972043598
1769250980348,124,-4,-3.7243694100377662,-1.6130211139896016,-1.4716312190544087
1769250980352,124,-4,-3.8658661100670657,-1.6244607997315414,-1.6214900204218914
1769250980356,124,-4,-3.8419332654784504,-1.7288328805536235,-1.6059867523403
1769250980360,124,-4,-3.7672666048901258,-1.6102662438768045,-1.5398526559627197
1769250980364,124,-4,-3.7445693081295137,-1.5825199209105705,-1.525204985695511
1769250980368,124,-4,-3.784192468074377,-1.6153034573469212,-1.572281408400917
1769250980372,124,-4,-3.797173889283672,-1.5897599128550897,-1.592787541725242
1769250980376,124,-4,-3.671939753272031,-1.77763010082136,-1.475804202532911
1769250980380,124,-4,-3.3796470540825156,-1.5156579113498294,-1.1925394052728606
1769250980384,125,-3,-3.0177914056772193,-0.6945630494723014,-0.8400518308158444
1769250980388,125,-3,-2.7441203704990995,-0.4895721335711354,-0.5753544947608722
1769250980392,125,-3,-2.6521229106182163,-0.7056774821618079,-0.4911683043093213
1769250980396,125,-3,-2.6959745070938577,-0.6658236170929834,-0.5416344757206231
1769250980400,125,-3,-2.7263375190800456,-0.5856809665132139,-0.5785810775626308
1769250980404,125,-3,-2.604576952284342,-0.6617651522534769,-0.4648376071804447
1769250980408,125,-3,-2.308378489907505,-0.4643756557702221,-0.1783870385062944
1769250980412,126,-2,-1.95135242473125,0.2284582002480486,0.1683799406670028
1769250980416,126,-2,-1.6974483552182835,0.4574451646843731,0.4132207889423074
1769250980420,126,-2,-1.6285030432018963,0.2692307506280476,0.475119918584304
1769250980424,126,-2,-1.6654150574603035,0.4970320144844833,0.4324548491514064
1769250980428,126,-2,-1.6090445590186004,0.3947594163556807,0.4826590501972827
1769250980432,126,-2,-1.278978061806832,0.3410413257767737,0.8047884418855804
1769250980436,127,-1,-0.6513120022673361,1.4192780283907322,1.4227140807908252
1769250980440,128,0,0.1112350350143036,2.255091466681088,2.1749747412139713
1769250980444,128,0,0.7665845951151253,2.576414496425467,2.821092049104442
1769250980448,129,1,1.1620341960824998,3.2696681643066383,3.209080969225478
1769250980452,129,1,1.3409029842470015,3.501574984674056,3.3817134749800415
1769250980456,129,1,1.5058137310824071,3.255679075944644,3.5406100432975096
1769250980460,129,1,1.8593334302359468,3.433851877127763,3.887603722212323
1769250980464,130,2,2.44139760470893,4.416487657210613,4.462033362269491
1769250980468,131,3,3.0925762623954935,5.4154793973639315,5.1041105068618435
1769250980472,131,3,3.5624201471829595,5.391442993535403,5.5639959659840095
1769250980476,131,3,3.6580769210291058,5.346736299948545,5.6502886348289625
1769250980480,131,3,3.3207048281655105,5.374983198425349,5.305102736490081
1769250980484,130,2,2.60845844654754,4.457107511547423,4.5863445992364
1769250980488,129,1,1.636770999579383,3.392846538881076,3.6086736529356713
1769250980492,128,0,0.5301262227093464,2.4312581866444973,2.495922152476859
1769250980496,127,-1,-0.5920598648467623,1.3060290209320038,1.3668981284511128
1769250980500,126,-2,-1.6107713696277794,0.4363057690532712,0.3402307513455764
1769250980504,125,-3,-2.4235881793578,-0.6055508763809336,-0.4812021343678494
1769250980508,124,-4,-2.9990528325339834,-1.5423145699400878,-1.0649095508485278
1769250980512,124,-4,-3.4232558729625873,-1.6001588617176117,-1.4967122046346182
1769250980516,124,-4,-3.866610114929722,-1.6849928726671617,-1.9478613768759752
1769250980520,123,-5,-4.46909842793514,-2.524524107543079,-2.5586666622054475
1769250980524,122,-6,-5.23906355489474,-3.68510626881942,-3.3361257869617784
1769250980528,121,-7,-6.055638805725972,-4.416473177867572,-4.157920490765942
1769250980532,121,-7,-6.758512819354611,-4.759680622235874,-4.864659877992963
1769250980536,120,-8,-7.235568870348348,-5.47160001107776,-5.34744434460685
1769250980540,120,-8,-7.452283668111247,-5.7544564730164085,-5.574232306923808
1769250980544,120,-8,-7.43681384263644,-5.4286521056062265,-5.5717672577219695
1769250980548,120,-8,-7.257183099357079,-5.681054181329955,-5.402626403362255
1769250980552,120,-8,-7.001529675092945,-5.5014378628380785,-5.149561594938393
1769250980556,121,-7,-6.748051854241985,-4.680845410583889,-4.8913457980686355
1769250980560,121,-7,-6.529497859994668,-4.582362765737434,-4.669379427351814
1769250980564,121,-7,-6.342641520800423,-4.536246379789489,-4.491658916940173
1769250980568,121,-7,-6.2400258075635335,-4.635951490635383,-4.41440394162346
1769250980572,120,-8,-6.418858283538092,-5.488194126119476,-4.62490520317458
1769250980576,120,-8,-7.101655833937779,-5.729630270030567,-5.327041547505976
1769250980580,120,-8,-8.092835408250382,-5.4738755414119105,-6.311585974177973
1769250980584,120,-8,-8.249222964221964,-5.668967038544183,-6.438876655776731
1769250980588,122,-6,-5.442154012522521,-3.476881435085133,-3.601045715725353
1769250980592,130,2,2.5187802422541603,4.347306792313553,4.367978372739822
1769250980596,142,14,16.211328620844277,16.468907346526056,18.03570260619651
1769250980600,158,30,33.212388305598665,32.35835871281827,34.9894379460867
1769250980604,176,48,48.27184008713748,50.52449322314384,50.00091149101437
1769250980608,186,58,55.501711554271246,60.303700830911616,57.20161505817366
1769250980612,180,52,51.5116567216356,54.50643784371614,53.21127825082901
1769250980616,164,36,37.43430318774371,38.25476176392079,39.16111475970581
1769250980620,144,16,18.38843307123595,18.540048026648705,20.155283927112905
1769250980624,127,-1,0.7463558948639477,1.371029743372564,2.5421324866463477
1769250980628,116,-12,-10.953476715226383,-9.411627229078997,-9.15938884446226
1769250980632,112,-16,-15.610996451965764,-13.700504346897338,-13.850145992707784
1769250980636,113,-15,-15.07880978160666,-12.503658324080934,-13.364505972793207
1769250980640,116,-12,-12.34575369830528,-9.748989064924617,-10.66724040320943
1769250980644,117,-11,-9.751886505007768,-8.41530177968678,-8.083800556061004
1769250980648,118,-10,-8.223303268881578,-7.558325978334906,-6.542080417286073
1769250980652,119,-9,-7.59683513646637,-6.592090085023427,-5.8938850945247365
1769250980656,120,-8,-7.377595711596348,-5.517386365495078,-5.662220200409769
1769250980660,121,-7,-7.234283846860203,-4.859553242641526,-5.524898324121555
1769250980664,120,-8,-7.044203610303405,-5.213285136678762,-5.354069330263172
1769250980668,120,-8,-6.757501087588525,-5.821646207640123,-5.086151860514498
1769250980672,120,-8,-6.354832882661054,-5.229701024907079,-4.691974807285806
1769250980676,122,-6,-5.889045745351303,-3.900354277444349,-4.225922664890479
1769250980680,122,-6,-5.460482023026285,-3.5126271450331363,-3.796799570431424
1769250980684,122,-6,-5.112395137544005,-3.499802151483982,-3.453087148380624
1769250980688,122,-6,-4.783960201315081,-3.6106879159888328,-3.131837076862507
1769250980692,122,-6,-4.389530820648908,-3.3078150011725462,-2.743005170147794
1769250980696,124,-4,-3.9182018978096447,-1.9284595055186504,-2.2752038770032375
1769250980700,124,-4,-3.426657818469239,-1.3952219675806004,-1.787992098104166
1769250980704,124,-4,-2.9542568863897323,-1.681011421516339,-1.3219189683295491
1769250980708,124,-4,-2.489929766870742,-1.3812811929397086,-0.8637644813313168
1769250980712,125,-3,-2.026121715982102,-0.5234994234483152,-0.4040148064014972
1769250980716,126,-2,-1.5999773551609833,0.2588708828782682,0.0191425082545353
1769250980720,126,-2,-1.248521468535241,0.4709427369971788,0.3665314727367681
1769250980724,126,-2,-0.9401942973950566,0.4084273539200049,0.6696325018784508
1769250980728,126,-2,-0.583419586002623,0.5754500926562582,1.0217136349929596
1769250980732,127,-1,-0.1070123721212971,1.5081527122539258,1.4945966783927491
1769250980736,128,0,0.4837811654523276,2.2315727573870667,2.081734557201088
1769250980740,128,0,1.1299984803752667,2.5299727916919137,2.723052768295411
1769250980744,129,1,1.7760521055528176,3.3250633247590207,3.363788732704535
1769250980748,129,1,2.394828598181985,3.6960272363346744,3.978472124390737
1769250980752,130,2,2.9748779838130868,4.354368406616388,4.555852737189467
1769250980756,131,3,3.5078611946438443,5.425260731261793,5.086089546535746
1769250980760,131,3,3.990672133536674,5.331691681786718,5.564821248230216
1769250980764,131,3,4.41965391574859,5.533529438844846,5.988787940272291
1769250980768,132,4,4.7698258927609976,6.495300909080925,6.33434552962378
1769250980772,132,4,4.9901770729345,6.54179696541267,6.551341214482615
1769250980776,132,4,5.035784180302691,6.261430747621546,6.59463869921677
1769250980780,132,4,4.911325632660156,6.509708821715191,6.467840781180158
1769250980784,132,4,4.682536654645935,6.351678371500046,6.235616645848761
1769250980788,131,3,4.434955351721971,5.682233980981518,5.983587783863341
1769250980792,131,3,4.20264025549411,5.358084804601479,5.74699696124266
1769250980796,131,3,3.932076308276909,5.447583686418902,5.47312680419778
1769250980800,131,3,3.5359245753012245,5.361738453220374,5.074264982701457
1769250980804,130,2,3.0020016055663827,4.4745902690736985,4.537693509364226
1769250980808,129,1,2.4461797865953043,3.5874922989655005,3.9794579396419625
1769250980812,129,1,2.043824278845329,3.4242856383251157,3.5750720988352542
1769250980816,129,1,1.899119684404006,3.4107132311418367,3.4280593091895226
1769250980820,129,1,1.9677664229602756,3.4144728849228954,3.493376833107228
1769250980824,129,1,2.0872793983080906,3.427943329631129,3.6088092737318314
1769250980828,129,1,2.0777803076359715,3.638903405538059,3.595559312641446
1769250980832,129,1,1.83712227194149,3.352006304933477,3.3522789126509904
1769250980836,128,0,1.3730004635247517,2.503167914524872,2.886549006591117
1769250980840,128,0,0.7646113216813091,2.33374494926447,2.276809366755181
1769250980844,127,-1,0.0947349526846921,1.52814002301546,1.6051583158951823
1769250980848,126,-2,-0.5943602866387407,0.524759233791614,0.9137199739121272
1769250980852,126,-2,-1.2959680063126569,0.4718128014787077,0.2094660380503592
1769250980856,125,-3,-2.001277618670675,-0.612798545529905,-0.4984705193216237
1769250980860,124,-4,-2.670008691157461,-1.53332283596525,-1.1696036169098836
1769250980864,124,-4,-3.2383798109411,-1.5829527367457774,-1.740065072454398
1769250980868,123,-5,-3.654797875283191,-2.381814479891561,-2.15818738611177
1769250980872,123,-5,-3.9087663599303593,-2.6226088580811044,-2.4134200877685075
1769250980876,123,-5,-4.027709294510334,-2.493692864583635,-2.5334743253854946
1769250980880,123,-5,-4.044885492935142,-2.6612615399272435,-2.55229232672005
1769250980884,123,-5,-3.9697233649825825,-2.4136371694305603,-2.4796263716701343
1769250980888,123,-5,-3.795621956429351,-2.579834034001142,-2.308172387909723
1769250980892,123,-5,-3.5412186639160352,-2.4276486145962326,-2.0555036872472376
1769250980896,124,-4,-3.2723773628223785,-1.6574443999426025,-1.7873819802164537
1769250980900,124,-4,-3.0621698664311743,-1.5175288307913215,-1.577791619485089
1769250980904,124,-4,-2.921456426853582,-1.4952069795763254,-1.4381847349043797
1769250980908,124,-4,-2.7821255678614873,-1.5578020460552633,-1.300061521362001
1769250980912,124,-4,-2.56411106716856,-1.414164779427213,-1.0829605761254708
1769250980916,125,-3,-2.261843519734369,-0.6940767326478503,-0.7817881322452798
1769250980920,125,-3,-1.963786768165685,-0.4377386906472242,-0.4855956568426287
1769250980924,125,-3,-1.7910186793202456,-0.5597626858266005,-0.3150253787788415
1769250980928,125,-3,-1.8125673921834704,-0.5267226213023659,-0.3380610337763605
1769250980932,125,-3,-1.9961111874182536,-0.4132594945038885,-0.5219772907568938
1769250980936,125,-3,-2.2157505790829477,-0.7557078241068726,-0.7412382111508062
1769250980940,124,-4,-2.3118949307306704,-1.2604133887301483,-0.8366794444583552
1769250980944,125,-3,-2.1731171578738024,-0.8170347412621393,-0.6973992153653308
1769250980948,125,-3,-1.7866394925584086,-0.1849014953691203,-0.3115799504284164
1769250980952,126,-2,-1.225275476723752,0.1500505134939582,0.2473980120276797
1769250980956,126,-2,-0.597720970074494,0.7518164870308195,0.8718943672729869
1769250980960,127,-1,-0.0108088834580946,1.228259854998872,1.4572383860353808
1769250980964,127,-1,0.4496157822048219,1.698233856227282,1.918632841240979
1769250980968,128,0,0.7484619486314195,2.327100714842782,2.2196398279180114
1769250980972,128,0,0.940833795006925,2.56481144080351,2.4131016212713576
1769250980976,128,0,1.165951508176014,2.424279127646293,2.637598710659751
1769250980980,128,0,1.5564832120532723,2.503884496416454,3.0271241309085517
1769250980984,129,1,2.1203223794684005,3.497757309293586,3.5907398894730953
1769250980988,130,2,2.709935853849563,4.470862175931423,4.180490328945459
1769250980992,130,2,3.119080355134152,4.444642265865249,4.58918162736597
1769250980996,130,2,3.216393411090817,4.544019713802275,4.685569007956438
1769250981000,130,2,2.9966778163610694,4.3978403390129515,4.465495374602603
1769250981004,129,1,2.5271446351567333,3.617294850156623,3.9967855661364062
1769250981008,129,1,1.8668948091159503,3.329356986898974,3.338037598302804
1769250981012,128,0,1.0433285546635949,2.6074562313864353,2.5156536250694277
1769250981016,127,-1,0.09242777814212,1.372358709576855,1.5651790830234198
1769250981020,126,-2,-0.9013523844849584,0.6015355333334989,0.5714864294266477
1769250981024,125,-3,-1.824626297408637,-0.5875490160128445,-0.3514792609288819
1769250981028,124,-4,-2.603790366741781,-1.4880718466871126,-1.1301845453175612
1769250981032,124,-4,-3.2561736248118014,-1.539873292007884,-1.7824558554432115
1769250981036,123,-5,-3.871670175728005,-2.50558425009311,-2.39818231656617
1769250981040,122,-6,-4.538181950258529,-3.467962676596098,-3.064492062927039
1769250981044,122,-6,-5.268768627392868,-3.5476901194505395,-3.793743203460214
1769250981048,121,-7,-5.980984187960183,-4.519366991155311,-4.5035703354350085
1769250981052,120,-8,-6.544832054894727,-5.52086360188772,-5.064782169941717
1769250981056,120,-8,-6.871557770336065,-5.4917626934915615,-5.3899943151196075
1769250981060,120,-8,-6.975924679370545,-5.481831671925922,-5.495401236246645
1769250981064,120,-8,-6.957481754284705,-5.522213522037594,-5.480368243005118
1769250981068,120,-8,-6.918484678562887,-5.556555427659429,-5.44385182062033
1769250981072,120,-8,-6.891419615052532,-5.488535796522774,-5.413430845927601
1769250981076,120,-8,-6.83101176618498,-5.501738638191695,-5.342192931597391
1769250981080,120,-8,-6.667707235964913,-5.467687059090306,-5.166411916458411
1769250981084,121,-7,-6.385181667831986,-4.53078628619289,-4.880890440696022
1769250981088,121,-7,-6.088478330023115,-4.543808122824453,-4.597655778939544
1769250981092,120,-8,-6.023366130605301,-5.524229925214628,-4.556271341169784
1769250981096,120,-8,-6.455735382938846,-5.428052654668304,-5.004713158813023
1769250981100,120,-8,-7.318251514923296,-5.555881001099141,-5.859106553949294
1769250981104,120,-8,-7.735481842880323,-5.432824582050016,-6.243072266762155
1769250981108,122,-6,-5.866118159349497,-3.614808974207384,-4.333086079470801
1769250981112,127,-1,0.4394742678691425,1.5030860507735506,1.9953005843160423
1769250981116,138,10,12.16555592432412,12.63122766332895,13.71147609862507
1769250981120,153,25,27.649286358178617,27.33348390728152,29.158380202691685
1769250981124,168,40,42.32713631179822,42.770969359293,43.79383193470648
1769250981128,180,52,50.41679761842946,54.101143283700985,51.85776564168449
1769250981132,177,49,47.89059998790948,51.80311021307897,49.33445995427506
1769250981136,162,34,34.902092333396666,36.20448455490102,36.37649088291666
1769250981140,141,13,15.93109287018964,15.76885292811437,17.45102620158983
1769250981144,123,-5,-2.5478876987271626,-2.682530865778503,-0.9884025369668344
1769250981148,111,-17,-15.320233572549904,-14.351381915156487,-13.747195704213471
1769250981152,107,-21,-20.55094715686083,-18.605666833898688,-18.996481051038565
1769250981156,108,-20,-19.728644196397653,-17.39648748235249,-18.211665859427576
1769250981160,112,-16,-15.945216354658095,-13.59955944037132,-14.46073277390014
1769250981164,115,-13,-11.921963231023586,-10.458569489435783,-10.44643093051397
1769250981168,117,-11,-8.975589920607156,-8.51826477386609,-7.483338784628171
1769250981172,119,-9,-7.179014783236151,-6.471362127734378,-5.657929839894611
1769250981176,121,-7,-6.120547127895102,-4.446066216316139,-4.57712999576084
1769250981180,122,-6,-5.490563094755137,-3.6251106418727943,-3.942187342289456
1769250981184,122,-6,-5.178251260301921,-3.4161606684542223,-3.639245844192015
1769250981188,122,-6,-5.09233078251118,-3.5968878363229932,-3.5646630185833934
1769250981192,121,-7,-5.0570519151868,-4.321274328924696,-3.5321381794524345
1769250981196,122,-6,-4.89318087389713,-3.602889301736119,-3.3617238193448835
1769250981200,123,-5,-4.536687096406052,-2.4470855546970354,-2.996745218962142
1769250981204,123,-5,-4.046168928696127,-2.652893048612871,-2.5024739109831375
1769250981208,123,-5,-3.521260890943806,-2.3240716215549155,-1.9784024977160968
1769250981212,124,-4,-3.0398532162730767,-1.5883271174312137,-1.497640137659296
1769250981216,124,-4,-2.647533890502545,-1.3136376930491176,-1.1026962836279242
1769250981220,125,-3,-2.3530444064439715,-0.7394578228176978,-0.8037368102259781
1769250981224,125,-3,-2.1098466232613644,-0.3968046061558778,-0.5572726257678928
1769250981228,125,-3,-1.8264726575327448,-0.5500425618151663,-0.2724729304639033
1769250981232,125,-3,-1.4343445035175555,-0.3732833829543063,0.1212015361665033
1769250981236,126,-2,-0.9572085264799964,0.5290293533856576,0.6012803509410443
1769250981240,127,-1,-0.4929078024116818,1.3620426046122227,1.0686544086691234
1769250981244,127,-1,-0.1099494477183756,1.5363876060378758,1.45317263906999
1769250981248,127,-1,0.2248394446998534,1.4780325892640185,1.7887868157903082
1769250981252,127,-1,0.5974083071897709,1.6439520330015245,2.1637385022396716
1769250981256,128,0,1.0363970047659226,2.508595689591985,2.6070395346371797
1769250981260,129,1,1.4813512512655644,3.379195923870872,3.055809216396519
1769250981264,129,1,1.866686037157074,3.524295357632422,3.4424573522966457
1769250981268,129,1,2.208153618181408,3.4765306345645817,3.7840510110350074
1769250981272,129,1,2.579719265248653,3.6683601271719266,4.157580999640082
1769250981276,130,2,3.0169000820892835,4.48375858357009,4.599258513186326
1769250981280,131,3,3.4754243816977937,5.397968424035459,5.0622425454390765
1769250981284,131,3,3.890240434249675,5.5324048446702845,5.479073997934952
1769250981288,131,3,4.242544761661803,5.4284138831062405,5.831721557031918
1769250981292,131,3,4.542276241683888,5.771060082819378,6.132708317732778
1769250981296,132,4,4.761982216181921,6.3250620470068775,6.355497318031829
1769250981300,132,4,4.828540369064817,6.611841230523254,6.4254889572345855
1769250981304,132,4,4.697409531757797,6.293737121575279,6.296800186573034
1769250981308,131,3,4.420685635023638,5.679140250947649,6.022118721602302
1769250981312,131,3,4.126900315755991,5.5237325348202635,5.731236081748948
1769250981316,131,3,3.935142507391325,5.546670722097534,5.543106072316782
1769250981320,131,3,3.8882936795632688,5.434934878816636,5.499205934123912
1769250981324,131,3,3.950600783264775,5.450092337268768,5.562978530791503
1769250981328,131,3,4.046686192925856,5.551526416747603,5.6598646782416235
1769250981332,131,3,4.100689227991049,5.619641800005738,5.715536924698817
1769250981336,131,3,4.059543231358141,5.461391826137374,5.677574785969456
1769250981340,131,3,3.905988158743808,5.522097391600356,5.5279119841073285
1769250981344,131,3,3.662479486494547,5.385511888223814,5.287691813522665
1769250981348,130,2,3.374212170005351,4.602350481324948,5.001592784173964
1769250981352,130,2,3.069484971286952,4.57698703987184,4.698445987786373
1769250981356,130,2,2.726074450398162,4.475543773890203,4.356846714535147
1769250981360,129,1,2.2794989126423695,3.5544619098769603,3.91266058625296
1769250981364,129,1,1.6742892097008637,3.322232192026423,3.3101188543042497
1769250981368,128,0,0.9188546985620089,2.7233992979798813,2.557143450172288
1769250981372,127,-1,0.0961930493732909,1.3716921723593412,1.7367466527755795
1769250981376,126,-2,-0.6844002236238094,0.7498600700069296,0.958721730570081
1769250981380,126,-2,-1.354398753261334,0.2339479230619741,0.2917155960539039
1769250981384,125,-3,-1.9088475312340636,-0.3062486337511352,-0.2599643588447251
1769250981388,125,-3,-2.3685104235238765,-0.6516561911957433,-0.71768062638467
1769250981392,124,-4,-2.7319706062218856,-1.2884383267676034,-1.079681257180627
1769250981396,124,-4,-2.9736668810918467,-1.5563008438216897,-1.319474886590195
1769250981400,124,-4,-3.083848877123846,-1.4983833499377308,-1.4269084447649236
1769250981404,124,-4,-3.097224043285567,-1.5091915615404208,-1.437275934554736
1769250981408,124,-4,-3.074137236113222,-1.483601083498817,-1.411803234694525
1769250981412,124,-4,-3.053914613730355,-1.4468242531813518,-1.389997481875742
1769250981416,124,-4,-3.029262292358581,-1.4109877484986244,-1.363801094161304
1769250981420,124,-4,-2.9662211434987427,-1.6526840083972436,-1.2983422157201825
1769250981424,124,-4,-2.8450978287497612,-1.3012247479135146,-1.1739430763284302
1769250981428,125,-3,-2.677404879945127,-0.7375974392732703,-1.003149179659327
1769250981432,124,-4,-2.4869279965408104,-1.14378822727872,-0.810686126607095
1769250981436,125,-3,-2.2878047668067163,-0.787476072834139,-0.6105493968000975
1769250981440,125,-3,-2.0896328468124743,-0.2113380524440695,-0.4113061650092007
1769250981444,125,-3,-1.9175819774943423,-0.7680629172209015,-0.2372584967393152
1769250981448,125,-3,-1.810587797227675,-0.2567993842939398,-0.1275082559182232
1769250981452,126,-2,-1.7816308932809746,0.4019245567493015,-0.0959044858136559
1769250981456,125,-3,-1.7749343152840409,-0.4256803676051968,-0.086946042737952
1769250981460,125,-3,-1.6788918308481628,-0.4507249637123065,0.0115733934078452
1769250981464,126,-2,-1.4005728747880817,0.3525901978682242,0.2926704230631709
1769250981468,126,-2,-0.9323807049854969,0.760070745007102,0.7628527949338664
1769250981472,127,-1,-0.3499701522028747,1.260443434041464,1.345742022992218
1769250981476,127,-1,0.2416301194424372,1.8079360031436,1.9374090210265449
1769250981480,128,0,0.7598068032935141,2.241709386504524,2.457124652507351
1769250981484,128,0,1.172949828674866,2.713635603706948,2.873661050976951
1769250981488,129,1,1.5146686880392997,3.3918735545548,3.2190672197870227
1769250981492,129,1,1.8758701163701224,3.6088732762256326,3.5827305015568065
1769250981496,129,1,2.3502619411693084,3.49411358251776,4.0585217185592875
1769250981500,130,2,2.9487848191131785,4.495705270622381,4.658427583316028
1769250981504,131,3,3.55552670008818,5.537397625590092,5.266815533832704
1769250981508,131,3,3.9774990570981648,5.506886276082266,5.69012956123075
1769250981512,131,3,4.050134606075696,5.555663535920875,5.763451495541533
1769250981516,131,3,3.712297951421403,5.484822702306637,5.426052052736889
1769250981520,130,2,3.0074465437898237,4.532130211614977,4.722353940082659
1769250981524,129,1,2.035692436952582,3.488742274837127,3.7533763641738265
1769250981528,128,0,0.9106376615956358,2.5828593469026693,2.632544735913918
1769250981532,127,-1,-0.2458024202172331,1.4721363263859628,1.4800221746942637
1769250981536,126,-2,-1.291364643409973,0.558557490186808,0.4360594399514332
1769250981540,125,-3,-2.092811464937171,-0.5346059640076262,-0.3661961696986915
1769250981544,124,-4,-2.616379216754765,-1.4629745041285376,-0.8908769511117773
1769250981548,124,-4,-3.0016867846062607,-1.4122372686248412,-1.275665043579732
1769250981552,124,-4,-3.505498174874853,-1.5823059949104,-1.7775755490128482
1769250981556,123,-5,-4.3111700916107445,-2.3453795715942283,-2.5813405887347667
1769250981560,122,-6,-5.359623631725218,-3.6812712025647585,-3.627912532971176
1769250981564,120,-8,-6.372709547608287,-5.284243302182614,-4.637862660528454
1769250981568,120,-8,-7.061619116356981,-5.60199951780784,-5.322579302073929
1769250981572,120,-8,-7.329732860767529,-5.38229064998478,-5.5884185514678695
1769250981576,120,-8,-7.296940262950372,-5.5332158079223515,-5.558051210561362
1769250981580,120,-8,-7.160076690103885,-5.516591179940311,-5.426633470082952
1769250981584,120,-8,-7.043697467227787,-5.422405195639289,-5.312375160022187
1769250981588,120,-8,-6.958423975732385,-5.508776553055148,-5.220241119440731
1769250981592,120,-8,-6.854652227726361,-5.427650805615715,-5.102327065963617
1769250981596,121,-7,-6.6923392304492335,-4.527243093889588,-4.9288739268426625
1769250981600,121,-7,-6.490865159944007,-4.474946747625325,-4.730788579675422
1769250981604,120,-8,-6.376962819168025,-5.512036309802799,-4.63669745122831
1769250981608,120,-8,-6.592805973855683,-5.391696500149156,-4.8764806705122625
1769250981612,120,-8,-7.321044819599721,-5.568138042225128,-5.613415359050143
1769250981616,119,-9,-8.255018582681556,-6.376919430730817,-6.528948424569866
1769250981620,120,-8,-8.159941619645135,-5.595803383042654,-6.39509378088122
1769250981624,123,-5,-4.953486206382287,-2.428756962611229,-3.152736110428407
1769250981628,130,2,3.3062030278879053,4.569471616970507,5.116562558526322
1769250981632,142,14,16.797406393859482,16.433854683005883,18.584723342842913
1769250981636,158,30,32.73118762770354,32.691861061316644,34.47674034133603
1769250981640,174,46,45.78458473824686,48.31114866276184,47.49221955160761
1769250981644,180,52,50.46023978633813,54.65694542292236,52.151489031433485
1769250981648,173,45,44.13562725037377,47.41800396917765,45.83904927416312
1769250981652,155,27,28.747743450102178,29.48873779816048,30.487575099592934
1769250981656,135,7,9.857401594527698,9.64159450969174,11.642264388953771
1769250981660,120,-8,-6.298387322552603,-5.632020968951872,-4.4824093865415335
1769250981664,111,-17,-15.793971461153502,-14.247565215232305,-13.977995772040757
1769250981668,110,-18,-18.267968987675555,-15.6268810360864,-16.482241485841552
1769250981672,112,-16,-16.068698988900394,-13.453567380639084,-14.323821683457538
1769250981676,115,-13,-12.293359829207857,-10.488986215425554,-10.575182182763928
1769250981680,118,-10,-9.1277030548744,-7.56534905769712,-7.408908396777403
1769250981684,119,-9,-7.301101737600741,-6.267736280618949,-5.559521923570675
1769250981688,120,-8,-6.536085489569281,-5.6193845640328615,-4.76689714468589
1769250981692,121,-7,-6.299697392369293,-4.422022861383253,-4.515200456093323
1769250981696,122,-6,-6.2441535636222785,-3.603307549518725,-4.462992466966654
1769250981700,121,-7,-6.2209178624556385,-4.440702240922029,-4.454461238765349
1769250981704,120,-8,-6.147491594604578,-5.371026611861814,-4.3933024244342445
1769250981708,121,-7,-5.973547923898892,-4.4849500402060585,-4.220771518392107
1769250981712,122,-6,-5.7158198789049415,-3.559017394198042,-3.956401741595538
1769250981716,122,-6,-5.4244139978261625,-3.5094121005066214,-3.658834700505011
1769250981720,122,-6,-5.093023809802945,-3.5358696952392243,-3.3265544732359036
1769250981724,122,-6,-4.644201928980286,-3.261995049314105,-2.8801756717313034
1769250981728,123,-5,-4.025649409593412,-2.565485950888222,-2.2633679834910043
1769250981732,124,-4,-3.299673551395644,-1.5017579746159324,-1.5372520764910051
1769250981736,125,-3,-2.6119722932570317,-0.5657142455693611,-0.8490659192741767
1769250981740,125,-3,-2.071759158096623,-0.5226298919483461,-0.3091007121757796
1769250981744,125,-3,-1.6729600304163568,-0.2199234588934953,0.0894384883797823
1769250981748,126,-2,-1.327641918634881,0.3683015835160104,0.4353338338588122
1769250981752,126,-2,-0.9577921265003688,0.5799093406343445,0.8059904005414129
1769250981756,127,-1,-0.5487299031904773,1.3276598733310878,1.2148561247709335
1769250981760,127,-1,-0.1312068938159005,1.5716545184205353,1.631189490138139
1769250981764,127,-1,0.2657400563215761,1.7214868298079875,2.027368819456909
1769250981768,128,0,0.6410044903164016,2.4030497332112533,2.4032073107221734
1769250981772,128,0,1.0182164996427103,2.5762567910808603,2.781312398939925
1769250981776,129,1,1.4307410604744848,3.26719836122722,3.1932545579704783
1769250981780,129,1,1.9011711383893368,3.680680850701328,3.661593563068566
1769250981784,129,1,2.4142024113999616,3.579441012206823,4.173177513467092
1769250981788,130,2,2.907082129217734,4.583966010608679,4.666897905559164
1769250981792,131,3,3.3142289943657492,5.373648100473087,5.075973089916234
1769250981796,131,3,3.6450729256620553,5.444091849682094,5.407212547904511
1769250981800,131,3,4.000627335699138,5.530907822259561,5.760944326661017
1769250981804,131,3,4.4708134172071174,5.702997436381711,6.228998450571579
1769250981808,132,4,4.998418957244052,6.496932811905672,6.755890265307606
1769250981812,133,5,5.370470276778949,7.42606340852922,7.128050014099525
1769250981816,133,5,5.380419457548633,7.407443668369586,7.137401002757401
1769250981820,132,4,5.011718207571361,6.540772537896298,6.767508000805446
1769250981824,131,3,4.456120826549231,5.7217019116748595,6.211653459921871
1769250981828,131,3,3.952465518350435,5.441345129000984,5.7089699843128185
1769250981832,131,3,3.613666906537611,5.514455277042043,5.370536485517218
1769250981836,131,3,3.3971437574071675,5.2909283882541,5.152251746735558
1769250981840,130,2,3.207276711453346,4.684662524571375,4.959581931476306
1769250981844,130,2,3.00380762631496,4.5572933714509665,4.754725459138213
1769250981848,130,2,2.827296683453905,4.597642527636945,4.578998927128349
1769250981852,130,2,2.750304822629134,4.362710560068421,4.503187785591731
1769250981856,130,2,2.8076699319045857,4.430798178519682,4.560012992978274
1769250981860,130,2,2.949160026747464,4.5808586247425875,4.699067090542583
1769250981864,130,2,3.0404901615081577,4.6091265553058784,4.787740471799347
1769250981868,130,2,2.9216228023335415,4.586392205175018,4.667594088718304
1769250981872,130,2,2.4987372356862565,4.31112283657142,4.244859881918059
1769250981876,129,1,1.8100614938645945,3.5484157538647976,3.5566151719546255
1769250981880,128,0,1.0068815763275345,2.4100877541128956,2.7531194751083348
1769250981884,127,-1,0.2518360367843102,1.816023769905804,1.996839000664567
1769250981888,127,-1,-0.3872589216595246,1.3394317794144128,1.3560329129356814
1769250981892,126,-2,-0.9586098061185452,0.5696203718609403,0.7830352765061726
1769250981896,126,-2,-1.546931929057863,0.3072888034226499,0.1934728271826697
1769250981900,125,-3,-2.1672204489482683,-0.3710373214848972,-0.4275570466487584
1769250981904,124,-4,-2.7291249357283323,-1.3829348137733106,-0.9898631471020888
1769250981908,124,-4,-3.1046671946979307,-1.5154303368076842,-1.365930215622961
1769250981912,124,-4,-3.23677349793421,-1.530131593059314,-1.499237344322558
1769250981916,124,-4,-3.190813239018224,-1.6241764977093809,-1.4552178656108032
1769250981920,124,-4,-3.106663042411368,-1.3995501896068578,-1.3731156541800913
1769250981924,124,-4,-3.093718717654828,-1.3908962900686737,-1.3616100518874663
1769250981928,124,-4,-3.1522830616631836,-1.5238038146850703,-1.4208497869643488
1769250981932,124,-4,-3.1817779134786437,-1.5069482272936,-1.4505745041738298
1769250981936,124,-4,-3.0705615614785304,-1.6619996204342748,-1.3395816359898998
1769250981940,124,-4,-2.7958177528355277,-1.3289565705815465,-1.0656539527296798
1769250981944,125,-3,-2.448875198310828,-0.4943127693258327,-0.7207610291970235
1769250981948,125,-3,-2.1661334345509857,-0.4259884732643977,-0.4411345199388048
1769250981952,125,-3,-2.033317174744814,-0.6098470102476004,-0.3110856555574708
1769250981956,125,-3,-2.0447906237521005,-0.5492025542504471,-0.3235811157746413
