timestamp_ms,ecg_u8_raw,ecg_counts_raw_int,ecg_counts_filt_monitor,ecg_counts_filt_diagnostic,ecg_counts_filt_st
1769245665576,125,-3,-1.711386880677458,-3.3250723977376033,-2.995521432677408
1769245665580,124,-4,-3.611912776318041,-4.8154003575775155,-4.895067042888117
1769245665584,122,-6,-5.444495083923668,-6.516496141776781,-6.726253514286739
1769245665588,120,-8,-7.041163376456778,-8.572143104090586,-8.321980307154053
1769245665592,119,-9,-8.246373465350386,-9.597657547268131,-9.526770676403082
1769245665596,118,-10,-9.016665840149608,-10.525462938778066,-10.296881283010729
1769245665600,118,-10,-9.449842293554005,-10.657319684456384,-10.730271456097366
1769245665604,118,-10,-9.712492595533844,-10.613587074166874,-10.993755600731664
1769245665608,117,-11,-9.929805533454813,-11.517615434725698,-11.211891069218009
1769245665612,117,-11,-10.133648696372587,-11.629990985552029,-11.415439198517143
1769245665616,117,-11,-10.293712205707536,-11.476955594601884,-11.573943797132417
1769245665620,117,-11,-10.373078073230143,-11.717945010190403,-11.651574520911216
1769245665624,117,-11,-10.351623054084502,-11.507435951074497,-11.629161509565032
1769245665628,117,-11,-10.22064372993283,-11.644987743126048,-11.497884578416924
1769245665632,117,-11,-9.97958273074938,-11.499291788226142,-11.256683702036051
1769245665636,118,-10,-9.643404481591466,-10.579764922128112,-10.92047336908392
1769245665640,118,-10,-9.249836345755025,-10.63062762330335,-10.527012794586236
1769245665644,118,-10,-8.860104826163086,-10.549074764774304,-10.137123079821052
1769245665648,119,-9,-8.546101370408055,-9.624667120491935,-9.822377430028084
1769245665652,119,-9,-8.353787737778415,-9.511197981410913,-9.628984184137206
1769245665656,119,-9,-8.260682045815118,-9.560816807323445,-9.534673608184876
1769245665660,119,-9,-8.175481686295061,-9.629162859351975,-9.447938186971305
1769245665664,119,-9,-7.996606787240178,-9.543546006578984,-9.26738225270801
1769245665668,120,-8,-7.6810544534341165,-8.623374087622828,-8.950969703202825
1769245665672,120,-8,-7.266522543820684,-8.51437749828974,-8.536890944052487
1769245665676,120,-8,-6.844178467263824,-8.541050529207624,-8.115262908029415
1769245665680,121,-7,-6.513184686711125,-7.6377732387833,-7.783732067888191
1769245665684,121,-7,-6.333316980913069,-7.516024688847294,-7.601894302639333
1769245665688,121,-7,-6.286062130509185,-7.67493310911996,-7.552389279532812
1769245665692,121,-7,-6.274039885312732,-7.421492857946899,-7.538751515088381
1769245665696,121,-7,-6.179548384631893,-7.659835479170701,-7.443064076017202
1769245665700,121,-7,-5.949562872397927,-7.474706396134294,-7.21173708054999
1769245665704,122,-6,-5.636012018722538,-6.681088920971053,-6.896909718076357
1769245665708,122,-6,-5.352353238855955,-6.5115764416459445,-6.612775393876387
1769245665712,122,-6,-5.1871822828334055,-6.561592701493043,-6.447884534213064
1769245665716,122,-6,-5.154582526050854,-6.530761366876754,-6.415073714459601
1769245665720,122,-6,-5.212334929642855,-6.577273999491769,-6.470871508837372
1769245665724,122,-6,-5.305205859555988,-6.578174912551783,-6.560182258286014
1769245665728,122,-6,-5.379831436101317,-6.602999244186132,-6.631189114961299
1769245665732,122,-6,-5.372608972473799,-6.461402393235029,-6.621877754257472
1769245665736,122,-6,-5.218146957180755,-6.619918303885573,-6.467117613190673
1769245665740,122,-6,-4.903341329696147,-6.486158349926993,-6.152704668557153
1769245665744,123,-5,-4.522421451141244,-5.646153940122579,-5.771549293595125
1769245665748,123,-5,-4.257440589158228,-5.54346781810104,-5.505128810683286
1769245665752,123,-5,-4.267761020334328,-5.493881765997011,-5.513001095647465
1769245665756,123,-5,-4.565819759759518,-5.591553312790379,-5.808108708336809
1769245665760,122,-6,-4.98548119354497,-6.5052745595123085,-6.22478201461727
1769245665764,122,-6,-5.280838060825603,-6.620162662547726,-6.517444856724324
1769245665768,122,-6,-5.286501168598475,-6.556357203336936,-6.520943534453223
1769245665772,122,-6,-5.018062327373296,-6.465405042653816,-6.251020898507133
1769245665776,123,-5,-4.639992182562204,-5.609874308637507,-5.872084102237383
1769245665780,123,-5,-4.336439851484857,-5.473376823644992,-5.567795851297986
1769245665784,123,-5,-4.194769212401711,-5.666356923950235,-5.424704636054905
1769245665788,123,-5,-4.186997323246546,-5.481258435009394,-5.414313682841723
1769245665792,123,-5,-4.237353744430391,-5.544662889414229,-5.461193901821014
1769245665796,123,-5,-4.294051599042721,-5.51362247927211,-5.51446828432767
1769245665800,123,-5,-4.342944442162514,-5.542692544709439,-5.56066781715661
1769245665804,123,-5,-4.37205636196324,-5.627466070403121,-5.587836423538296
1769245665808,123,-5,-4.341828508730989,-5.466927232290615,-5.555929878696062
1769245665812,123,-5,-4.2022267306505,-5.594723674281769,-5.414344217641424
1769245665816,123,-5,-3.944555056879098,-5.409622795586327,-5.1542095564611845
1769245665820,124,-4,-3.632584975725263,-4.661880814787836,-4.839662203151175
1769245665824,124,-4,-3.3715429534209633,-4.490760009874538,-4.576268829116728
1769245665828,124,-4,-3.2370975901240513,-4.5963773185617365,-4.439413421030643
1769245665832,124,-4,-3.228398602182101,-4.464928045968254,-4.427724434532504
1769245665836,124,-4,-3.2816417992388067,-4.511600463480093,-4.477539235131954
1769245665840,124,-4,-3.32359374924502,-4.572151722774417,-4.516418635393418
1769245665844,124,-4,-3.3202850900709455,-4.54404519340452,-4.510847778653715
1769245665848,124,-4,-3.290794420766711,-4.558998574711202,-4.479418053572222
1769245665852,124,-4,-3.2816909892449413,-4.4746716154399016,-4.46784161082608
1769245665856,124,-4,-3.319843789799425,-4.497211779933761,-4.502740227307334
1769245665860,124,-4,-3.3765380083574685,-4.58410490413972,-4.555934404421934
1769245665864,124,-4,-3.3744748102992213,-4.503247120169634,-4.550661456461888
1769245665868,124,-4,-3.242014676113205,-4.616165246656122,-4.415196802327005
1769245665872,124,-4,-2.976625372889898,-4.382318880118353,-4.146720998575109
1769245665876,125,-3,-2.659561443828785,-3.5975121569690196,-3.8267066796802935
1769245665880,125,-3,-2.4010383246347224,-3.4591848845834963,-3.5657848130993144
1769245665884,125,-3,-2.2644096975773236,-3.624306427906259,-3.4270114563135454
1769245665888,125,-3,-2.23926504987582,-3.490094832217,-3.3990321705800346
1769245665892,125,-3,-2.2764396796850472,-3.4935766844948097,-3.4322151711508497
1769245665896,125,-3,-2.334193537904996,-3.490981277176433,-3.4854745802700267
1769245665900,125,-3,-2.3885039511811565,-3.522270818188449,-3.535944078803414
1769245665904,125,-3,-2.4131411453390212,-3.584248587147088,-3.557925554268899
1769245665908,125,-3,-2.3691971275907493,-3.485307775161389,-3.5118780218279864
1769245665912,125,-3,-2.2271818509426815,-3.535381903169937,-3.3671054923166217
1769245665916,125,-3,-1.999909479237794,-3.392006583752389,-3.135976561787047
1769245665920,126,-2,-1.7407317936792053,-2.650056018244946,-2.872765096746798
1769245665924,126,-2,-1.495136303726562,-2.395151808809748,-2.624068957051342
1769245665928,126,-2,-1.255028679672158,-2.717992323481433,-2.381494407194541
1769245665932,126,-2,-0.9714138132394274,-2.257709294338638,-2.0946826711308306
1769245665936,127,-1,-0.6111016584942521,-1.684138271061423,-1.729959096919624
1769245665940,127,-1,-0.1887808262907411,-1.3408690798384924,-1.3031505555931822
1769245665944,128,0,0.2563431943246517,-0.6540883329892784,-0.8546967412389039
1769245665948,128,0,0.6952820158514958,-0.5130603360604271,-0.413286897883959
1769245665952,128,0,1.102642414542474,-0.3841684710956206,-0.0030073250713398
1769245665956,129,1,1.4213843722189643,0.361724977529122,0.3195490928654265
1769245665960,129,1,1.5582999432020102,0.719038046114576,0.4602758161132114
1769245665964,129,1,1.4313070923963314,0.2352678994061203,0.3363268888958841
1769245665968,128,0,1.022436141887669,-0.3492468590798023,-0.069817250470163
1769245665972,128,0,0.3885395026200753,-0.5687284907015919,-0.7003853887928178
1769245665976,127,-1,-0.3651709529758022,-1.4642090514434236,-1.4498873701752697
1769245665980,126,-2,-1.1171882403244286,-2.387900039329142,-2.197213371437024
1769245665984,126,-2,-1.7539774053244594,-2.689902796706962,-2.829400140407679
1769245665988,125,-3,-2.191603578624533,-3.357583047276703,-3.263053156499423
1769245665992,125,-3,-2.3982927936793264,-3.6177384282406098,-3.4668195022507184
1769245665996,125,-3,-2.4112332828231633,-3.3720393824276296,-3.477817877957152
1769245666000,125,-3,-2.3342211867049807,-3.46887528091946,-3.398928318201575
1769245666004,125,-3,-2.3055893945457573,-3.59596529675753,-3.3671888485478685
1769245666008,125,-3,-2.4372853016140508,-3.41773779897549,-3.494144208268252
1769245666012,125,-3,-2.746193078945328,-3.603281575178972,-3.797783687430379
1769245666016,124,-4,-3.123649058805162,-4.3448295454050845,-4.170982099998711
1769245666020,124,-4,-3.386090168357189,-4.493839991851514,-4.430484173470361
1769245666024,124,-4,-3.3923903819630223,-4.539180335200684,-4.4339090310140445
1769245666028,124,-4,-3.1442370739584047,-4.461304100359432,-4.181586383656511
1769245666032,125,-3,-2.7834885308504136,-3.5806000222305903,-3.81570167933705
1769245666036,125,-3,-2.483863726991803,-3.331912037307028,-3.5121029790002916
1769245666040,125,-3,-2.331660374080286,-3.516406714641424,-3.358983025373598
1769245666044,125,-3,-2.300707826331297,-3.4658103414168084,-3.329361920439489
1769245666048,125,-3,-2.328824853186718,-3.5575938311276207,-3.357013799665926
1769245666052,125,-3,-2.397003877085945,-3.4742400017213395,-3.4182387105174072
1769245666056,125,-3,-2.5160027041601873,-3.419543533255183,-3.5231285824365934
1769245666060,125,-3,-2.6386343236294216,-3.4224976112716807,-3.6309695872107
1769245666064,125,-3,-2.622578654133913,-3.509150354840408,-3.6102252367228655
1769245666068,125,-3,-2.344575146369733,-3.5542629770336425,-3.343745901962439
1769245666072,125,-3,-1.8954917935788251,-3.437889355928795,-2.9157175767505334
1769245666076,125,-3,-1.6012194235094852,-3.4812723416606093,-2.634570745487471
1769245666080,126,-2,-1.6379470653155046,-2.298310750770005,-2.661363736135531
1769245666084,128,0,-1.3614544181392414,-0.6399057361890836,-2.352320043619785
1769245666088,129,1,1.0587513885337438,0.6035125123522649,0.1060493619582256
1769245666092,135,7,8.028288774813408,6.375490801125572,7.0979659297873425
1769245666096,147,19,20.906748046650264,18.761956223816973,19.971910025856847
1769245666100,164,36,38.33134224472074,35.46306623404459,37.370085643351466
1769245666104,183,55,55.877489020102374,54.68204251270649,54.88340217516091
1769245666108,198,70,67.74222006168372,69.25718029344742,66.7251562990686
1769245666112,199,71,69.6536814677741,70.66730950655587,68.63467669998155
1769245666116,188,60,61.130182873626424,59.41211635853622,60.13377198336257
1769245666120,171,43,45.5630750022977,42.749286532991114,44.60630503995282
1769245666124,155,27,28.183612480592945,26.47866154388243,27.265032678002015
1769245666128,141,13,13.4252578162286,12.503207985811692,12.523720371429054
1769245666132,131,3,3.334597367658814,2.5722257740883876,2.4222762966060927
1769245666136,126,-2,-2.3562888572894893,-2.534459551985363,-3.296070026393295
1769245666140,123,-5,-5.066952180451355,-5.272977622644543,-6.03095268265894
1769245666144,121,-7,-6.16925269053489,-7.558150341440722,-7.139443466811257
1769245666148,120,-8,-6.464366021630005,-8.407369524127471,-7.421298314313121
1769245666152,121,-7,-6.326273241305445,-7.472544411336823,-7.261219016844251
1769245666156,122,-6,-6.019352844605536,-6.527947077395751,-6.937671882015534
1769245666160,122,-6,-5.785865400630664,-6.240699993156677,-6.700117843503257
1769245666164,122,-6,-5.723530009364394,-6.669829433938379,-6.64261950786527
1769245666168,121,-7,-5.723683886516613,-7.189112072004079,-6.6472862526174055
1769245666172,122,-6,-5.604539364139505,-6.727148967640819,-6.52646471997078
1769245666176,122,-6,-5.30305697299118,-6.2021634194057,-6.218575516435621
1769245666180,123,-5,-4.921542964635811,-5.623702427714447,-5.831076128024463
1769245666184,123,-5,-4.6002461392582825,-5.244138087696308,-5.50702400806289
1769245666188,123,-5,-4.3707764777418605,-5.616558885068101,-5.276518403156508
1769245666192,123,-5,-4.139170711503273,-5.264123768959748,-5.042776688615255
1769245666196,124,-4,-3.7919513961004303,-4.650142103808818,-4.691690729339255
1769245666200,124,-4,-3.3025406889959545,-4.203351359324544,-4.19826377545896
1769245666204,125,-3,-2.7448428933819113,-3.613906526357483,-3.6377221870054015
1769245666208,125,-3,-2.225146989382534,-3.2697695224996703,-3.1160285353717017
1769245666212,126,-2,-1.8040780576085904,-2.5418052440393506,-2.692711634723727
1769245666216,126,-2,-1.467344937689421,-2.4109981840235877,-2.352989000889103
1769245666220,126,-2,-1.156499328112694,-2.409503367646013,-2.0388080038489873
1769245666224,127,-1,-0.8261532444400435,-1.4237064221992644,-1.705345804852151
1769245666228,127,-1,-0.479153486488904,-1.4093344128448435,-1.3554707286225562
1769245666232,127,-1,-0.1556373436570708,-1.4056784498956938,-1.0290356205505953
1769245666236,128,0,0.1116863307600741,-0.5141260706272088,-0.7589701613114845
1769245666240,128,0,0.3412409695206335,-0.3348717019898102,-0.5273225161888284
1769245666244,128,0,0.6032072404127415,-0.4704556073175852,-0.2633910269302921
1769245666248,128,0,0.9625635268611537,-0.3396506484036452,0.0990770301190535
1769245666252,129,1,1.4177590199268035,0.5374892933760902,0.5584906385120127
1769245666256,130,2,1.9132126560828615,1.5647769825170492,1.057403774457641
1769245666260,130,2,2.418462357304003,1.5687113539689688,1.5641853929806175
1769245666264,130,2,2.9706858990975005,1.6571034883034153,2.117426531024675
1769245666268,131,3,3.619381673450884,2.534702654842122,2.768767714665321
1769245666272,132,4,4.34621412187592,3.6983286314552366,3.4998088263656157
1769245666276,133,5,5.06815380937041,4.396901939528763,4.225469735447283
1769245666280,133,5,5.71975073836502,4.764859149267859,4.879065758548481
1769245666284,134,6,6.310350877084387,5.449212500846461,5.470937424734323
1769245666288,134,6,6.89099415766025,5.773132883374004,6.053822846561979
1769245666292,135,7,7.478733339472921,6.4648228389381694,6.645047182993653
1769245666296,136,8,8.030470197678554,7.648891452307693,7.200302063797266
1769245666300,136,8,8.491152237899557,7.540164024263016,7.663559425185887
1769245666304,136,8,8.85368507298656,7.645317856678055,8.027978875207546
1769245666308,137,9,9.164963503703172,8.640001964763215,8.341241079614075
1769245666312,137,9,9.4802482066951,8.550411247862808,8.659058498887141
1769245666316,137,9,9.81477751557544,8.640566824583885,8.996700689700276
1769245666320,138,10,10.133472918856755,9.524528886780857,9.318762712273363
1769245666324,138,10,10.384020040202424,9.6855969027934,9.572357677779005
1769245666328,138,10,10.537585680655091,9.605301968701196,9.728324340175195
1769245666332,138,10,10.588735741268057,9.594328163447187,9.781411995341845
1769245666336,138,10,10.511047517607008,9.622656114019849,9.705565279247663
1769245666340,138,10,10.221479233307086,9.550612108858846,9.418085130547691
1769245666344,137,9,9.601729682231197,8.67086518590953,8.801049406624859
1769245666348,136,8,8.567850203209753,7.632217401726147,7.770557968183836
1769245666352,135,7,7.13642722948191,6.568349458558408,6.34251614191327
1769245666356,133,5,5.434373928870846,4.68655949557135,4.643100466602959
1769245666360,131,3,3.631839973798541,2.4711401271507603,2.842673288079431
1769245666364,129,1,1.8393945410080517,0.7993626238225393,1.052544385003802
1769245666368,128,0,0.0609085011633316,-0.5214141818782734,-0.7233624442240525
1769245666372,126,-2,-1.744393237528815,-2.238402952323532,-2.5262828431917628
1769245666376,124,-4,-3.5523055289683025,-4.490930136124748,-4.331778512442241
1769245666380,122,-6,-5.235351477507773,-6.3573895238524685,-6.011612273370835
1769245666384,121,-7,-6.635003713304805,-7.328614834629871,-7.407461610753769
1769245666388,120,-8,-7.667422142522911,-8.432358772510932,-8.436832192223786
1769245666392,119,-9,-8.36867084359201,-9.253772211132462,-9.136501544373475
1769245666396,119,-9,-8.858521768226458,-9.497054793508642,-9.625184175671412
1769245666400,118,-10,-9.263750959729878,-10.307965072969376,-10.028086805341438
1769245666404,118,-10,-9.64864268314233,-10.405918695279077,-10.409350771188972
1769245666408,118,-10,-9.985486134348584,-10.319956254808831,-10.74247874454846
1769245666412,117,-11,-10.186120638035831,-11.365934431902051,-10.94012025037206
1769245666416,117,-11,-10.18410409108214,-11.3444224608664,-10.935559519918058
1769245666420,118,-10,-10.002547472037048,-10.4604434850669,-10.751558120941532
1769245666424,118,-10,-9.73787829684002,-10.254154708785396,-10.484550160601591
1769245666428,118,-10,-9.475142350324203,-10.444897373078842,-10.219258684380922
1769245666432,118,-10,-9.225887718881772,-10.236850922592124,-9.966735263246065
1769245666436,119,-9,-8.94449225286333,-9.436421561678616,-9.681715997566515
1769245666440,119,-9,-8.59292315018181,-9.38433053071306,-9.327187106272303
1769245666444,119,-9,-8.193669638924659,-9.29927933770186,-8.925957240570732
1769245666448,120,-8,-7.833324351089812,-8.40484854193251,-8.563809501211525
1769245666452,120,-8,-7.6106305282215505,-8.237469925296777,-8.338465616139171
1769245666456,120,-8,-7.56066607555102,-8.437180533037093,-8.284717161208292
1769245666460,120,-8,-7.615183872132084,-8.365037554433332,-8.334987212762076
1769245666464,120,-8,-7.638169287165255,-8.314067171310066,-8.354342340698693
1769245666468,120,-8,-7.516707285166522,-8.384172175572651,-8.230379282576637
1769245666472,120,-8,-7.242584512417425,-8.211671063208843,-7.954384592297673
1769245666476,121,-7,-6.920140454940836,-7.477552505056847,-7.629808392697889
1769245666480,121,-7,-6.685219377759288,-7.279373852446532,-7.392034197324826
1769245666484,121,-7,-6.594525487193603,-7.432228848193056,-7.297839709424219
1769245666488,121,-7,-6.579104537429291,-7.219263822027384,-7.27854025188994
1769245666492,121,-7,-6.504887564395354,-7.380896373603386,-7.20038504888586
1769245666496,121,-7,-6.288865625977434,-7.277251354492234,-6.980829475257856
1769245666500,122,-6,-5.969888250678012,-6.470094855700815,-6.659212562499783
1769245666504,122,-6,-5.675053595076269,-6.237837928017112,-6.362555229818081
1769245666508,122,-6,-5.517950698893273,-6.388435150429076,-6.203459632357618
1769245666512,122,-6,-5.519875803118302,-6.214510362816308,-6.202120775404633
1769245666516,122,-6,-5.609212542094944,-6.39515426840514,-6.286948081589509
1769245666520,122,-6,-5.679910189113615,-6.399680541311022,-6.353063193352916
1769245666524,122,-6,-5.656440039776005,-6.210202443297843,-6.325936057975979
1769245666528,122,-6,-5.529220480230023,-6.50303076737678,-6.195890775815652
1769245666532,122,-6,-5.350458030651016,-5.975907017820044,-6.0145011702987246
1769245666536,123,-5,-5.196617707614271,-5.710688887800266,-5.858006481616649
1769245666540,122,-6,-5.1206616830359994,-6.0180155348822115,-5.77943558963971
1769245666544,123,-5,-5.128588067963419,-5.592317693252814,-5.784393981564963
1769245666548,122,-6,-5.195840173408449,-6.1331775107174415,-5.84764062401824
1769245666552,122,-6,-5.29715132487939,-6.270563735699187,-5.944122029302662
1769245666556,123,-5,-5.408280347472059,-5.48471205072488,-6.050979145804193
1769245666560,122,-6,-5.481417782072933,-6.130923834383531,-6.1212803756267835
1769245666564,122,-6,-5.4475663835202415,-6.574088150922501,-6.085060615727639
1769245666568,122,-6,-5.271962839033667,-6.029972311654594,-5.9060821777575505
1769245666572,123,-5,-5.003936183388735,-5.4545182574138815,-5.633830700869494
1769245666576,123,-5,-4.750604909270334,-5.218404328911171,-5.376839279381779
1769245666580,123,-5,-4.595870562228147,-5.405392079360397,-5.219517954897144
1769245666584,123,-5,-4.5514502577051665,-5.302875671426214,-5.172527557095481
1769245666588,123,-5,-4.578732899642636,-5.248962638324236,-5.196112363637915
1769245666592,123,-5,-4.637092158795616,-5.289332456772602,-5.2497427793581934
1769245666596,123,-5,-4.701170460326894,-5.284991046015838,-5.309133643522564
1769245666600,123,-5,-4.7420333866640965,-5.3904918893775475,-5.346249371108168
1769245666604,123,-5,-4.711884372906086,-5.248736249725049,-5.313230117938812
1769245666608,123,-5,-4.565306336286534,-5.340579804975271,-5.163805593337244
1769245666612,123,-5,-4.304432526828586,-5.160114764735108,-4.899416948771593
1769245666616,124,-4,-3.998729359830062,-4.3975980672473165,-4.589735385806093
1769245666620,124,-4,-3.747421124174535,-4.260694014488147,-4.334681432245049
1769245666624,124,-4,-3.613294760216246,-4.359891017109155,-4.197248575539953
1769245666628,124,-4,-3.5893869552222477,-4.237368892071987,-4.1700098088653625
1769245666632,124,-4,-3.6233486361552023,-4.243175704610882,-4.200171517389753
1769245666636,124,-4,-3.6664136651385864,-4.299015650955183,-4.239011850997554
1769245666640,124,-4,-3.7000802762381033,-4.326398312626701,-4.268431867848725
1769245666644,124,-4,-3.7245756106939494,-4.2896339717654905,-4.2891284405306465
1769245666648,124,-4,-3.729696776989943,-4.299209465328079,-4.291093716337319
1769245666652,124,-4,-3.683503395144111,-4.179648748053801,-4.2419257589730925
1769245666656,124,-4,-3.557579515352755,-4.3246001208358145,-4.112340567363715
1769245666660,124,-4,-3.365834035245725,-4.298001567549466,-3.916107250737555
1769245666664,125,-3,-3.167257419120075,-3.277293546565146,-3.7133065626630457
1769245666668,125,-3,-3.0183656281925426,-3.341880383062908,-3.561374040359523
1769245666672,124,-4,-2.928257872485476,-4.092114087227909,-3.4686900429989778
1769245666676,125,-3,-2.869643345910175,-3.4231750425079577,-3.406546795601946
1769245666680,125,-3,-2.8211500989811347,-3.147492172829604,-3.353459729474543
1769245666684,125,-3,-2.777624379799318,-3.4442867911729973,-3.305441804890376
1769245666688,125,-3,-2.722366914366704,-3.140552828384766,-3.24649662193248
1769245666692,125,-3,-2.6126747684981573,-3.294561487654703,-3.1334789599789277
1769245666696,125,-3,-2.4062872359821497,-3.2125667690268283,-2.9235867309652774
1769245666700,126,-2,-2.0984537524927767,-2.3099502928458193,-2.6122500360776932
1769245666704,126,-2,-1.7286087573883222,-2.300767516474452,-2.2392249297625364
1769245666708,126,-2,-1.3538715698807071,-2.2389169240580045,-1.8613348056718964
1769245666712,127,-1,-1.0148708538271047,-1.2146848547728646,-1.5186515364960678
1769245666716,127,-1,-0.7143453736010783,-1.25828475066778,-1.2138787809856746
1769245666720,127,-1,-0.4183478958625541,-1.2646710387733404,-0.9136186361172924
1769245666724,128,0,-0.0827953822424132,-0.2976260305199807,-0.5743287748586541
1769245666728,128,0,0.3066920038748302,-0.2678518630024684,-0.1816110543501472
1769245666732,128,0,0.7063926514226013,-0.1408035067572792,0.2212489102338102
1769245666736,129,1,1.0214397263969222,0.652035903183239,0.5394979689453774
1769245666740,129,1,1.1540263594986713,0.8692109853141219,0.6750345272780724
1769245666744,129,1,1.0608199147459727,0.5695215075925042,0.5847462770503613
1769245666748,128,0,0.7672774062239731,-0.1126861959498373,0.2949338017624734
1769245666752,128,0,0.3308362844926851,-0.2967247306002714,-0.1369289299779068
1769245666756,128,0,-0.1945851310289308,-0.1817402220442496,-0.6582178357878385
1769245666760,127,-1,-0.7571643694415302,-1.2517292120041592,-1.217977458854426
1769245666764,126,-2,-1.2993420925113308,-2.3228533202400445,-1.7578039447402216
1769245666768,126,-2,-1.7755546390918888,-2.16489592480811,-2.23095850625373
1769245666772,126,-2,-2.1691020876556597,-2.294895619950971,-2.620865307372944
1769245666776,125,-3,-2.476997507071996,-3.118154502360125,-2.925262533088829
1769245666780,125,-3,-2.6878178707885745,-3.319872380630663,-3.132727891231878
1769245666784,125,-3,-2.7895869277607352,-3.2157680751896236,-3.230962300192777
1769245666788,125,-3,-2.795392642485872,-3.2781197477629154,-3.233449347819801
1769245666792,125,-3,-2.7499055949644804,-3.1785780249787203,-3.1856315255444403
1769245666796,125,-3,-2.708884702369387,-3.2007895226610765,-3.143149129115704
1769245666800,125,-3,-2.7120299350631014,-3.2327037096177373,-3.14434874327557
1769245666804,125,-3,-2.764926965898371,-3.254625308355781,-3.1933919602645973
1769245666808,125,-3,-2.831279432961611,-3.2764220651239073,-3.254005892015931
1769245666812,125,-3,-2.838649376448875,-3.131305464080364,-3.2556229193628834
1769245666816,125,-3,-2.710437997097917,-3.265148459530121,-3.1242566572187376
1769245666820,125,-3,-2.423472587509298,-3.1082791125810907,-2.838179265741871
1769245666824,126,-2,-2.0530863626468108,-2.3845333343751243,-2.4712122218694983
1769245666828,126,-2,-1.7531637075785858,-2.1354628256483807,-2.1723799125323864
1769245666832,126,-2,-1.661793992827367,-2.258137281244973,-2.074350619003362
1769245666836,126,-2,-1.7887712336484496,-2.1391704250272574,-2.186586610286727
1769245666840,126,-2,-1.971221634145535,-2.174422017445765,-2.35450023678963
1769245666844,126,-2,-1.9604430381711115,-2.349585501150471,-2.3417858303446377
1769245666848,126,-2,-1.6255451306615716,-2.115473330267964,-2.0227204861110897
1769245666852,126,-2,-1.1308438436493904,-2.305660213883897,-1.5515977682242654
1769245666856,126,-2,-0.8442926094150385,-2.0533592580780193,-1.2763806084063556
1769245666860,128,0,-0.8362164495224289,-0.2290909733554658,-1.253448687459552
1769245666864,129,1,-0.2119797545929076,0.6947682790928216,-0.5929726572294021
1769245666868,131,3,3.069720927753524,2.8909191282136817,2.725233279209622
1769245666872,139,11,11.316703212411424,10.650311751498414,10.987112119464191
1769245666876,151,23,25.349953099554533,23.076598543447727,25.006336904471247
1769245666880,169,41,43.010560828910215,40.62123412561491,42.63417061191222
1769245666884,188,60,59.28496205048162,59.94640271897124,58.87532660333656
1769245666888,199,71,68.45018649255195,70.58387688665456,68.02233522133214
1769245666892,196,68,67.07680997471178,67.92253991229771,66.65380093380534
1769245666896,183,55,55.87821478023646,54.75603143712118,55.482401559021845
1769245666900,165,37,39.137950633657965,36.86640955252293,38.78083097717173
1769245666904,149,21,22.222527379997675,20.82496642877446,21.89700393056983
1769245666908,137,9,8.969967029818426,8.759324673084066,8.6525979855201
1769245666912,129,1,0.5442940227405284,0.8819324933088639,0.208967822688856
1769245666916,125,-3,-3.956491043290971,-3.2201230747618528,-4.322519142829265
1769245666920,122,-6,-6.068789583552121,-6.190256831694021,-6.458111848824875
1769245666924,120,-8,-6.897888046135345,-8.12760743140661,-7.289644175112263
1769245666928,120,-8,-6.944800630111754,-8.249775945820417,-7.319597361503851
1769245666932,121,-7,-6.489622040543544,-7.051683727142775,-6.842223628630372
1769245666936,123,-5,-5.877830369544124,-5.2915423205406125,-6.218570319918613
1769245666940,123,-5,-5.426152154838291,-5.140058284772492,-5.770264719372018
1769245666944,122,-6,-5.200807521085346,-6.192310176576247,-5.555253174888957
1769245666948,122,-6,-5.026169346075217,-6.147747065665941,-5.385932382582167
1769245666952,123,-5,-4.731423353838846,-5.100422402531921,-5.0874061583714845
1769245666956,124,-4,-4.338178041312213,-4.238429619556765,-4.686992355520039
1769245666960,124,-4,-3.9931576460861344,-4.179395103037243,-4.338839928422782
1769245666964,124,-4,-3.76780937625505,-4.181299389145589,-4.115716604181035
1769245666968,124,-4,-3.573568918266848,-4.115158345300621,-3.9244450168579137
1769245666972,124,-4,-3.271747030498805,-4.11259739541894,-3.621889934573088
1769245666976,125,-3,-2.8299820117191583,-3.191896507137786,-3.1761659417844483
1769245666980,126,-2,-2.3441603160786624,-2.2277316699597063,-2.6873899041784757
1769245666984,126,-2,-1.916381766057192,-2.13316694148411,-2.2604242546856064
1769245666988,126,-2,-1.5476339251483004,-2.1474974266443545,-1.8943880525026933
1769245666992,126,-2,-1.1717705691946527,-2.0408144726161885,-1.519218706605736
1769245666996,127,-1,-0.7700998202961493,-1.2647322819425009,-1.1152118606283832
1769245667000,128,0,-0.4054438592796017,-0.1178935184279479,-0.7479491332792549
1769245667004,128,0,-0.1317274248236852,-0.2672441703837702,-0.4738239616379887
1769245667008,127,-1,0.0926370322605909,-0.967578357861714,-0.250460806095766
1769245667012,128,0,0.3697046852668326,-0.2177791920899823,0.0262076068190055
1769245667016,129,1,0.7541734996798728,0.9306740038448535,0.4110172181750717
1769245667020,129,1,1.2030800963437382,0.714588159429024,0.8598637496651682
1769245667024,129,1,1.6233147152601737,0.8863239353872785,1.2795581280365118
1769245667028,130,2,1.9543087673275992,1.940047607949685,1.6105031217145145
1769245667032,130,2,2.2189589737196647,1.8315810310932612,1.8759322074729456
1769245667036,130,2,2.5146730336130383,1.9456610426709404,2.1725069750996715
1769245667040,131,3,2.948217708426209,2.6902194260631824,2.6061214216680955
1769245667044,131,3,3.555040261517351,2.928574290446756,3.212006662180655
1769245667048,132,4,4.26638372035848,3.935700322751405,3.921891009035446
1769245667052,133,5,4.956509144492835,4.810188528661583,4.610899407655873
1769245667056,133,5,5.534919348756101,5.031257318974313,5.189254198231023
1769245667060,134,6,6.009001342768209,5.570802188346766,5.664226910796457
1769245667064,134,6,6.469675853114169,6.107312776040701,6.125620860480544
1769245667068,135,7,7.015037200786098,6.731971427114862,6.670451780836247
1769245667072,135,7,7.667023275173203,7.059775907265929,7.320856106775083
1769245667076,136,8,8.33874330706804,7.78651942665209,7.991088982927409
1769245667080,137,9,8.884741746542716,8.829871490144956,8.536294885449907
1769245667084,137,9,9.209498873437331,8.875959140359825,8.86053997694557
1769245667088,137,9,9.3477992879001,8.948764592692758,8.998208030052503
1769245667092,137,9,9.438407097206175,8.895346683724146,9.088347846987068
1769245667096,137,9,9.609077515575896,8.926071907641173,9.258981000728737
1769245667100,138,10,9.879909006709264,9.745829763611054,9.529706131420962
1769245667104,138,10,10.169360499298636,9.951529256078947,9.818287833466826
1769245667108,138,10,10.376851351076304,9.90262466141908,10.024261036125289
1769245667112,138,10,10.445455698999046,9.952331241310588,10.091388712600102
1769245667116,138,10,10.350516418323814,9.873336133590827,9.995217109613794
1769245667120,138,10,10.04845594883484,9.819080536840271,9.691822017692964
1769245667124,137,9,9.452076145335273,8.905329231939142,9.094046666629843
1769245667128,136,8,8.46303231252715,7.948786435974657,8.104131522084387
1769245667132,135,7,7.042814372212479,6.944003633026764,6.683729293619797
1769245667136,133,5,5.27076839010547,4.8579542945130445,4.911511367145357
1769245667140,131,3,3.332164443032921,2.8789926960115526,2.972056028608738
1769245667144,129,1,1.4232653132540125,0.8559879619503996,1.0616291563603335
1769245667148,127,-1,-0.3609380554931305,-0.9875816907386924,-0.724394682572123
1769245667152,126,-2,-2.057396146252538,-2.0883290889993926,-2.422713299990532
1769245667156,124,-4,-3.751921764719242,-4.121750981846688,-4.118932648834799
1769245667160,122,-6,-5.457086985422041,-6.099279533433025,-5.825311261988116
1769245667164,121,-7,-7.0602548324176855,-7.169862500278553,-7.4290577876896915
1769245667168,119,-9,-8.384487391232149,-8.925441716981911,-8.753474059716908
1769245667172,118,-10,-9.309864843129304,-10.161698986684254,-9.679262526753822
1769245667176,118,-10,-9.855020087644242,-10.000991680373325,-10.225878129250404
1769245667180,118,-10,-10.152638450521636,-10.231114056634423,-10.526283278415388
1769245667184,117,-11,-10.348654731152267,-10.99652019897883,-10.725345851096904
1769245667188,117,-11,-10.52010007726189,-11.0987399640982,-10.89845410978649
1769245667192,117,-11,-10.666923653642389,-10.979677027368124,-11.045285712601364
1769245667196,117,-11,-10.750145545526795,-11.16145234748845,-11.128376720300194
1769245667200,117,-11,-10.728661046565662,-11.0603437412444,-11.1080474268437
1769245667204,117,-11,-10.582734182122293,-11.126461162713024,-10.964311158078564
1769245667208,117,-11,-10.327693730038709,-10.98279124699887,-10.711269335818692
1769245667212,118,-10,-10.00748386067439,-10.063026445261883,-10.392312637239412
1769245667216,118,-10,-9.664541244692186,-10.08216209346389,-10.050381750648242
1769245667220,118,-10,-9.313355721762138,-10.104844629356228,-9.700666540594115
1769245667224,119,-9,-8.947184559410827,-9.061894729031144,-9.336552281498086
1769245667228,119,-9,-8.569757595508172,-9.04439177048882,-8.961168747390449
1769245667232,119,-9,-8.21661174543678,-8.993444624714526,-8.60924049461362
1769245667236,120,-8,-7.939670977654061,-8.121823939846124,-8.332687072300086
1769245667240,120,-8,-7.759948476290971,-8.061648704915575,-8.153608111059654
1769245667244,120,-8,-7.63140256191829,-8.063611899710354,-8.02688881150883
1769245667248,120,-8,-7.466952743273671,-8.052885187263756,-7.864989379925259
1769245667252,120,-8,-7.219407595137202,-7.9643281236561565,-7.619468653218265
1769245667256,121,-7,-6.9363714743438685,-7.145638725499677,-7.337458126983929
1769245667260,121,-7,-6.719742178628242,-6.990517340492778,-7.121552215022161
1769245667264,121,-7,-6.6215222787036225,-7.143357961222734,-7.024562785825215
1769245667268,121,-7,-6.582744558349337,-6.929196159406072,-6.987519615289133
1769245667272,121,-7,-6.482153408234924,-7.1262971389187575,-6.888571240867091
1769245667276,121,-7,-6.250173857767296,-6.933461614320938,-6.657815671606953
1769245667280,122,-6,-5.937571325114011,-6.186447924247444,-6.346378177692532
1769245667284,122,-6,-5.671877369332716,-5.927293305820204,-6.082314790937079
1769245667288,122,-6,-5.544627589900212,-6.111461127212295,-5.957086843513811
1769245667292,122,-6,-5.537002174630098,-5.999457428747953,-5.951230226819772
1769245667296,122,-6,-5.547402657945072,-5.966691431942599,-5.962654103019121
1769245667300,122,-6,-5.48598854189707,-6.22617770558437,-5.901710739474827
1769245667304,122,-6,-5.34607389867101,-5.736814778726474,-5.76251689055655
1769245667308,123,-5,-5.191544573043936,-5.417748224041728,-5.609713004450479
1769245667312,122,-6,-5.081487876127364,-5.582303198382288,-5.502205751943012
1769245667316,123,-5,-5.012602845094333,-5.45894261226866,-5.435457340257542
1769245667320,122,-6,-4.935148414850871,-5.650598650742841,-5.358671980638081
1769245667324,123,-5,-4.815065081840526,-5.305383010420471,-5.238314417600219
1769245667328,123,-5,-4.6696209137343665,-4.851075493204655,-5.093430421052378
1769245667332,123,-5,-4.545567505317656,-5.102875794673122,-4.971831593823443
1769245667336,123,-5,-4.477310566879282,-4.9975958698730425,-4.906931347805833
1769245667340,123,-5,-4.471847491669125,-4.9935274322182766,-4.903611970400627
1769245667344,123,-5,-4.519019837167942,-5.044508967710288,-4.950657737981486
1769245667348,123,-5,-4.594427425338578,-4.988727078135971,-5.024822947507945
1769245667352,123,-5,-4.646321662272402,-5.063355711752368,-5.076692847014888
1769245667356,123,-5,-4.59844903154392,-4.938073590079718,-5.031201108334611
1769245667360,123,-5,-4.399281403786156,-5.094040546995016,-4.8355632431912445
1769245667364,123,-5,-4.091324969588385,-4.877214289784012,-4.529951465352144
1769245667368,124,-4,-3.8202252909630894,-4.163134035587124,-4.259262853559815
1769245667372,124,-4,-3.7358984099209858,-3.880837956714535,-4.174877343179164
1769245667376,124,-4,-3.855685839080656,-4.09620948543786,-4.295560338104006
1769245667380,123,-5,-4.031775946222042,-4.9347874863314996,-4.473021991061218
1769245667384,123,-5,-4.075808432626263,-4.992259372753835,-4.517743362514802
1769245667388,124,-4,-3.922763364569354,-4.063421235753771,-4.365036713163644
1769245667392,124,-4,-3.670978315197553,-3.935616537286073,-4.1146050292675564
1769245667396,124,-4,-3.474324952138499,-4.053135969932259,-3.920430438178449
1769245667400,124,-4,-3.4112083137382827,-3.927768789138904,-3.859369838644364
1769245667404,124,-4,-3.4482047396295186,-4.017066514934038,-3.896860731372944
1769245667408,124,-4,-3.500329044037744,-4.0126537793952615,-3.948643926681865
1769245667412,124,-4,-3.51094192461405,-3.971187739960088,-3.959658016388978
1769245667416,124,-4,-3.4858751953155607,-3.998675823900011,-3.9362602059751
1769245667420,124,-4,-3.470159322898595,-3.954421931274136,-3.922518076670913
1769245667424,124,-4,-3.496277178242282,-3.988702522521779,-3.949750824681602
1769245667428,124,-4,-3.543885856912688,-4.034507402241742,-3.997538847862264
1769245667432,124,-4,-3.5407984520809204,-3.919440795859686,-3.9945602124473982
1769245667436,124,-4,-3.4108702733197775,-4.041969648433098,-3.8653810320133153
1769245667440,124,-4,-3.139565971488818,-3.874859083396926,-3.5954641823830698
1769245667444,125,-3,-2.802854035276958,-3.076131506521739,-3.2603931471142533
1769245667448,125,-3,-2.525395064009091,-2.9226971464559455,-2.9844015340839127
1769245667452,125,-3,-2.3965275529687524,-3.026686583889356,-2.8564569061009695
1769245667456,125,-3,-2.412586900891947,-2.8965335738938913,-2.872899436005807
1769245667460,125,-3,-2.486316312971094,-3.019823174316925,-2.947014823156065
1769245667464,125,-3,-2.506878455311559,-2.916392394280869,-2.9683804130229645
1769245667468,125,-3,-2.404833066075093,-3.0616020403292685,-2.8671869789886713
1769245667472,125,-3,-2.180456074671609,-2.8898200722813536,-2.643163734200424
1769245667476,126,-2,-1.876852175903153,-1.9711812794839303,-2.3397473039370142
1769245667480,126,-2,-1.5228647228150152,-1.9801226809421133,-1.9866925348168896
1769245667484,126,-2,-1.1077817899411593,-1.8953192386772233,-1.573469853274161
1769245667488,127,-1,-0.6225919475577624,-1.121385112296172,-1.0901844920298254
1769245667492,127,-1,-0.121138009463833,-0.7656444837376355,-0.5897572403345395
1769245667496,128,0,0.2819079968527518,-0.1131281900865616,-0.18680392777469
1769245667500,128,0,0.4953318085001066,0.2167967582110985,0.0268171036308727
1769245667504,128,0,0.5418354039472804,-0.1113975694435388,0.0732078350604408
1769245667508,128,0,0.5582795608450786,0.109041961369082,0.08913445704515
1769245667512,128,0,0.6880129889156641,0.0400376380199336,0.2181824987244237
1769245667516,128,0,0.9510494533658104,0.0641797712518575,0.480395388311098
1769245667520,129,1,1.208066988329218,1.1198411429608148,0.7361207087437591
1769245667524,129,1,1.2557270631377655,0.9415485276903982,0.7819645414049142
1769245667528,128,0,0.971620719820903,0.0948743769135515,0.496250800792485
1769245667532,128,0,0.3873996464798483,0.0602870943493105,-0.0884848850309847
1769245667536,127,-1,-0.3540765584440097,-0.9508653949243042,-0.8293803139423539
1769245667540,126,-2,-1.099998208352973,-1.8169097950221085,-1.5745645383348972
1769245667544,126,-2,-1.7599084597308132,-2.12500765225746,-2.234627399883629
1769245667548,125,-3,-2.3065563292321007,-2.8202802947631596,-2.782611754812112
1769245667552,125,-3,-2.7312233422430667,-3.013718200065735,-3.2090337640025925
1769245667556,124,-4,-3.0144984046432937,-3.8540088124466223,-3.493350023666377
1769245667560,124,-4,-3.1421363848469825,-3.901008599467785,-3.621093600421721
1769245667564,125,-3,-3.13623004954047,-3.0099851549365866,-3.615271021009269
1769245667568,124,-4,-3.0608355436214474,-3.943072358352752,-3.540716332506601
1769245667572,124,-4,-2.9991730832879453,-3.8669194098220214,-3.480455113905777
1769245667576,125,-3,-3.0193446746943553,-2.9789480725246467,-3.5020062890867494
1769245667580,124,-4,-3.139736274083933,-3.775018687259446,-3.6232959445246657
1769245667584,124,-4,-3.3134472277010456,-4.097329309977054,-3.796946806422702
1769245667588,124,-4,-3.45176292340256,-3.8644381480699663,-3.934127862346326
1769245667592,124,-4,-3.473148128289967,-3.915863419666368,-3.9542906439806007
1769245667596,124,-4,-3.342276715042066,-3.931551751929002,-3.8239377032630446
1769245667600,124,-4,-3.0809986250870667,-3.7688779986838146,-3.5661537840596096
1769245667604,125,-3,-2.753390629050209,-3.129388589872759,-3.2439081621578096
1769245667608,125,-3,-2.4344609056518363,-2.777709739496473,-2.9280525237091934
1769245667612,125,-3,-2.1802185838201176,-3.0288472180985764,-2.6698710841426663
1769245667616,125,-3,-2.012322455290274,-2.78068745383662,-2.491382827391019
1769245667620,126,-2,-1.9128906788981388,-1.895456985472572,-2.383351869578685
1769245667624,126,-2,-1.836654339595298,-2.0117986634533107,-2.311863526395923
1769245667628,125,-3,-1.7690947876286738,-2.8448843331017604,-2.264913968511482
1769245667632,125,-3,-1.7905202617629663,-2.9896570831387477,-2.3106199680346693
1769245667636,125,-3,-1.9752355074670376,-2.7769314245306407,-2.504037668534572
1769245667640,126,-2,-1.997160996186505,-1.8931664771278065,-2.508606800170356
1769245667644,128,0,-0.6560795490370839,0.0148070964627677,-1.1325626819084125
1769245667648,132,4,4.1009078319731005,4.159704900936479,3.6546187490446833
1769245667652,141,13,14.202471342031297,12.997217272318004,13.761802915277158
1769245667656,155,27,29.79783839561393,27.284812990971936,29.33485833680859
1769245667660,174,46,48.049023515575904,46.05696493844779,47.5488861909337
1769245667664,192,64,63.60218851046251,64.1170629460461,63.068454666282946
1769245667668,201,73,70.93840873816194,73.04939168989578,70.38830994836967
1769245667672,196,68,67.29111694303128,68.03563216995123,66.74794617962846
1769245667676,180,52,54.15347063900387,52.2097707252734,53.63840977139489
1769245667680,162,34,36.32774706640143,34.062562814502364,35.84991186264876
1769245667684,146,18,19.26384020496676,18.24731381428019,18.812988388548092
1769245667688,134,6,6.543434684001816,5.984518018042163,6.093818442934401
1769245667692,127,-1,-1.037861875013924,-0.7619486568678138,-1.5120384864652645
1769245667696,124,-4,-4.688323132023528,-4.036482566369022,-5.196817604967922
1769245667700,121,-7,-6.1394884038094615,-6.728464074215792,-6.67125387340022
1769245667704,120,-8,-6.602265721624094,-7.955789593832902,-7.134691182788493
1769245667708,120,-8,-6.604438277033003,-7.77016722947912,-7.119309227230744
1769245667712,121,-7,-6.358577549905193,-6.94452161406836,-6.853353097825246
1769245667716,122,-6,-6.060707423323256,-5.883686935848182,-6.547345493374996
1769245667720,122,-6,-5.871690510012994,-5.900501249681631,-6.364802795237122
1769245667724,121,-7,-5.784118987102896,-6.796164664433507,-6.288980889036649
1769245667728,121,-7,-5.648961059082347,-6.8597496148124995,-6.159691920225461
1769245667732,122,-6,-5.355592739784327,-5.820087315139975,-5.8636784797258334
1769245667736,123,-5,-4.941555619478054,-4.99775983912119,-5.444747880852414
1769245667740,123,-5,-4.515450560977236,-4.814157268386805,-5.018082034588535
1769245667744,123,-5,-4.120987762215678,-4.867310010285188,-4.6273067278102635
1769245667748,123,-5,-3.718759101080258,-4.7615327088882315,-4.228147165543753
1769245667752,124,-4,-3.281031532837346,-3.86050089326502,-3.790039217412353
1769245667756,125,-3,-2.848966840712426,-2.970946778044843,-3.356188599965252
1769245667760,125,-3,-2.4745253238356577,-2.8315027982901215,-2.9817415310361133
1769245667764,125,-3,-2.1380859876433913,-2.8611149406858996,-2.647021458065154
1769245667768,125,-3,-1.762428960285089,-2.7213650160455964,-2.272285041482719
1769245667772,126,-2,-1.3066070176280211,-1.8739434274984208,-1.8157041043075408
1769245667776,127,-1,-0.8174930891356738,-0.9467178266648846,-1.3261874360529182
1769245667780,127,-1,-0.3811423324470544,-0.8452679944609268,-0.891551663039313
1769245667784,127,-1,-0.0467728138281318,-0.8699200234457426,-0.5597310747313446
1769245667788,127,-1,0.1894818066271177,-0.6403170235512681,-0.3241948326510064
1769245667792,128,0,0.3551960127788875,0.0101863500805857,-0.1568732500052412
1769245667796,128,0,0.4944093371187654,0.2606058311800379,-0.015884975196712
1769245667800,128,0,0.6868013090617078,-0.1253492210626298,0.1764505316208875
1769245667804,128,0,1.0330746063109395,0.4799275781082934,0.5211060147805742
1769245667808,129,1,1.5859368322829686,0.9921377918782364,1.0724816378756374
1769245667812,129,1,2.290633814562339,1.4122337264047484,1.7768021588136902
1769245667816,131,3,3.0096781415770253,2.906503755684907,2.4960373174240815
1769245667820,131,3,3.624407714633737,3.183944846960854,3.11058178911229
1769245667824,131,3,4.121539699057994,3.231756486182946,3.6071764394929486
1769245667828,132,4,4.582578267897565,4.196344516768024,4.0681512288283175
1769245667832,132,4,5.092402522369994,4.293381906485915,4.578680264788108
1769245667836,133,5,5.6623188715784085,4.990683483736661,5.14920237404936
1769245667840,134,6,6.238725588996783,6.168426689847307,5.725119602692666
1769245667844,134,6,6.773233002842739,6.197244494672048,6.2584174570055655
1769245667848,134,6,7.269124972319768,6.28538560273856,6.7538825412993155
1769245667852,135,7,7.760080720923954,7.204208528351804,7.245793749750389
1769245667856,136,8,8.26227598514771,8.108223815286763,7.7491250541633665
1769245667860,136,8,8.755519331457277,8.070844766372794,8.242352418148482
1769245667864,136,8,9.19426197622893,8.290038915751357,8.680086832065932
1769245667868,137,9,9.525625358482792,9.215177046970377,9.010504011753284
1769245667872,137,9,9.713698624849794,9.2840397170596,9.198407529132208
1769245667876,137,9,9.767566618423952,9.056972901313106,9.253119579870146
1769245667880,137,9,9.747021424528032,9.141370682654886,9.234308425273367
1769245667884,137,9,9.731301815182292,9.214867618455823,9.220414634339546
1769245667888,137,9,9.769896004757136,9.3113217966776,9.259739452866054
1769245667892,137,9,9.841395515999416,9.199548670674114,9.330452276152036
1769245667896,137,9,9.834844284287373,9.177790582032582,9.322493530077535
1769245667900,137,9,9.568355559572332,9.026100457458964,9.055297672471031
1769245667904,136,8,8.856566467457455,8.337630577432172,8.344017686974464
1769245667908,135,7,7.605204868657589,7.195140455559915,7.093941571343164
1769245667912,133,5,5.872021107041956,5.332860090424322,5.36222678969686
1769245667916,131,3,3.8421351937426382,3.0827498012173833,3.333770808841616
1769245667920,129,1,1.731159014867297,1.1085118875224378,1.2240742406863698
1769245667924,127,-1,-0.3096565106132583,-0.6998673833391607,-0.8158734071967011
1769245667928,125,-3,-2.22070075130327,-2.800514320630839,-2.7265762495109453
1769245667932,123,-5,-3.9942790673166826,-4.596412868156929,-4.50005018770142
1769245667936,122,-6,-5.619491535088088,-6.009937237125234,-6.124993163399162
1769245667940,120,-8,-7.058863600086173,-7.754653998934321,-7.563746106933269
1769245667944,119,-9,-8.265848853031297,-8.853742720419909,-8.769681994717837
1769245667948,118,-10,-9.217896906945684,-9.62240250617215,-9.72011983634146
1769245667952,117,-11,-9.930211183819443,-10.747292246804813,-10.430389610938056
1769245667956,117,-11,-10.434757167596796,-10.852048834355797,-10.933145806599128
1769245667960,117,-11,-10.745163206894537,-10.873933927627672,-11.242672359917758
1769245667964,116,-12,-10.851846069426047,-11.769484332583696,-11.34904007540882
1769245667968,116,-12,-10.76597109226638,-11.650453093636926,-11.262403198810103
1769245667972,117,-11,-10.564605936104757,-10.737392010547811,-11.059539049274855
1769245667976,117,-11,-10.368994458584709,-10.80092868234817,-10.8623334037755
1769245667980,117,-11,-10.261373282313532,-10.949924816708238,-10.753369891859466
1769245667984,117,-11,-10.222372449979035,-10.649675628779407,-10.71277978911334
1769245667988,117,-11,-10.15027737719314,-10.804775672690852,-10.638352966176708
1769245667992,117,-11,-9.94130967297061,-10.52517718007822,-10.42662402090399
1769245667996,118,-10,-9.562735545434336,-10.004561551354485,-10.045768123559853
1769245668000,118,-10,-9.06831239426656,-9.73025526407953,-9.550228444736234
1769245668004,119,-9,-8.556377472667986,-8.848001936494907,-9.038085254418592
1769245668008,119,-9,-8.112128105666526,-8.630072474924525,-8.593274487088708
1769245668012,119,-9,-7.777015719979136,-8.647323990254199,-8.255962008641404
1769245668016,120,-8,-7.550955956708128,-7.886793033071973,-8.026137976342527
1769245668020,120,-8,-7.401640097793665,-7.804537604783526,-7.873040093286895
1769245668024,120,-8,-7.270107958724785,-7.794141064006331,-7.739106868431975
1769245668028,120,-8,-7.09277994759963,-7.654566209388125,-7.560587936606501
1769245668032,120,-8,-6.846204353755825,-7.616159363441319,-7.312800798108587
1769245668036,121,-7,-6.57501109032983,-6.896020149090706,-7.039608816756496
1769245668040,121,-7,-6.360889946831507,-6.753310780038828,-6.822917576671037
1769245668044,121,-7,-6.249525429704919,-6.880854417795252,-6.708828962972895
1769245668048,121,-7,-6.203124900536832,-6.511850684157462,-6.659457110574185
1769245668052,121,-7,-6.126408188592265,-6.787517614638961,-6.579221290776771
1769245668056,121,-7,-5.944735553588177,-6.677273604611339,-6.393851858199632
1769245668060,122,-6,-5.663993885340143,-5.942541031895853,-6.110420013719659
1769245668064,122,-6,-5.3611333979849904,-5.721506517875642,-5.806525086307927
1769245668068,122,-6,-5.124274703514056,-5.602494056873711,-5.568951110250344
1769245668072,122,-6,-5.003530668234869,-5.758578664389366,-5.445390881297556
1769245668076,122,-6,-4.999259129802461,-5.607790002225268,-5.435607165754259
1769245668080,123,-5,-5.0631035085140095,-5.067756915855635,-5.49362349366594
1769245668084,122,-6,-5.1018287620899105,-5.512515096933612,-5.528936246581581
1769245668088,122,-6,-5.018829424093672,-5.8673339594831875,-5.444859586246287
1769245668092,122,-6,-4.799396686156595,-5.425463817503672,-5.224211407943671
1769245668096,123,-5,-4.559583207653575,-4.9678867179879855,-4.981305964142155
1769245668100,123,-5,-4.4741871678831995,-4.656468144180671,-4.891537971878205
1769245668104,123,-5,-4.621915012176273,-4.914966052561092,-5.035066936200265
1769245668108,122,-6,-4.895041950849048,-5.4714221061042325,-5.30446801772819
1769245668112,122,-6,-5.074251065228854,-5.790949508292312,-5.479642049488939
1769245668116,122,-6,-5.007048509440978,-5.621036350424978,-5.4078411994461835
1769245668120,123,-5,-4.724909821834091,-4.934333325202686,-5.1214983239279235
1769245668124,123,-5,-4.399050977596893,-4.651060352061622,-4.792794275068135
1769245668128,123,-5,-4.192775433545208,-4.694050763503233,-4.584596976107297
1769245668132,123,-5,-4.152116304773363,-4.605287433676048,-4.541351269075686
1769245668136,123,-5,-4.214688677502266,-4.761611585794426,-4.599473993242189
1769245668140,123,-5,-4.29543340935977,-4.804292404525873,-4.674214955133336
1769245668144,123,-5,-4.351622708690398,-4.707421301420788,-4.724411390171747
1769245668148,123,-5,-4.374607708310689,-4.676907530735433,-4.742917789765549
1769245668152,123,-5,-4.342846262722224,-4.576777331574416,-4.708260563132768
1769245668156,123,-5,-4.210698618710452,-4.822505699212076,-4.573321924557302
1769245668160,123,-5,-3.9581837236399062,-4.6859811237561875,-4.316689345746097
1769245668164,124,-4,-3.64212337701815,-3.816016140671668,-3.995437011968321
1769245668168,124,-4,-3.375060451152973,-3.549404583089089,-3.7235600837177394
1769245668172,124,-4,-3.2416452932448645,-3.704155452890604,-3.586312913572761
1769245668176,124,-4,-3.238491315867558,-3.694458902185801,-3.5792689628676273
1769245668180,124,-4,-3.29475593785803,-3.781394441811567,-3.6303841093189098
1769245668184,124,-4,-3.340330811079285,-3.711862026077512,-3.6698532467559457
1769245668188,124,-4,-3.349811879681993,-3.612924574646302,-3.6738116855274745
1769245668192,124,-4,-3.334403362402348,-3.6643364367584392,-3.654474956225721
1769245668196,124,-4,-3.312909898763208,-3.702367841751933,-3.6299601424360786
1769245668200,124,-4,-3.300075773831217,-3.773505413964725,-3.61331632889766
1769245668204,124,-4,-3.311364527951008,-3.6874777262055343,-3.6190778014046847
1769245668208,124,-4,-3.355899671752914,-3.61417703130321,-3.6571495252539
1769245668212,124,-4,-3.4104582235914194,-3.6761717859425858,-3.7058851271577287
1769245668216,124,-4,-3.4084070513292124,-3.658268444192355,-3.699256534081646
1769245668220,124,-4,-3.278293519830351,-3.8288515206877856,-3.5649004540864797
1769245668224,124,-4,-3.0118309426821357,-3.5820231179353983,-3.2934679839506926
1769245668228,125,-3,-2.69117565029829,-2.7211703677806964,-2.967336416816177
1769245668232,125,-3,-2.4345177893640595,-2.5495360119439834,-2.7056827203722165
1769245668236,125,-3,-2.3081856309587168,-2.7830246068121305,-2.574953713286317
1769245668240,125,-3,-2.2930126316581876,-2.693336882442724,-2.5549833551019554
1769245668244,125,-3,-2.3283835846262813,-2.6863169993967384,-2.5844796648449435
1769245668248,125,-3,-2.3726670684427287,-2.6214918437928634,-2.622422809848335
1769245668252,125,-3,-2.415974036646651,-2.602849233357492,-2.6600559442985916
1769245668256,125,-3,-2.448052411650369,-2.759567672220308,-2.687415501714557
1769245668260,125,-3,-2.4326847694889966,-2.6669172484740526,-2.66743599071951
1769245668264,125,-3,-2.3228966552399037,-2.7260348245418893,-2.5522053190256724
1769245668268,125,-3,-2.098844217333067,-2.544511040173065,-2.3220107720004894
1769245668272,126,-2,-1.7840992872199006,-1.6731688074862738,-2.001458495812668
1769245668276,126,-2,-1.4247831556293855,-1.6774248772492284,-1.637250382411322
1769245668280,126,-2,-1.0603073871102149,-1.736155118010914,-1.2682115349882612
1769245668284,127,-1,-0.7138800249377679,-0.6479023798335495,-0.916656125419964
1769245668288,127,-1,-0.3950462436214015,-0.59286467759514,-0.5919526230973292
1769245668292,127,-1,-0.0968999935027357,-0.6353671340645266,-0.2876177794801238
1769245668296,128,0,0.2065246226309831,0.3352602977369332,0.021960140985875
1769245668300,128,0,0.5467023053219653,0.2231991175618615,0.3681926004898872
1769245668304,128,0,0.9300132064887658,0.4270981494849886,0.7573506928308189
1769245668308,129,1,1.3102296239574254,1.358286235833493,1.142769984402885
1769245668312,129,1,1.589457265541239,1.3888207126611365,1.4262774221238124
1769245668316,129,1,1.6512074251426272,1.3904192666788089,1.4920599641711505
1769245668320,129,1,1.4052435950369715,1.0958606633710464,1.2511784362982
1769245668324,128,0,0.8278617029236441,0.6477349556719021,0.6804224202315985
1769245668328,128,0,-0.0083761331072111,0.0770704331851259,-0.1485623717309541
1769245668332,126,-2,-0.9346961007578576,-1.2465951058346172,-1.0682651983949911
1769245668336,126,-2,-1.7415937856338304,-2.007102128059402,-1.8695560047228947
1769245668340,125,-3,-2.2756723683074407,-2.471046641529765,-2.398573695781195
1769245668344,125,-3,-2.5125008722843605,-2.7748872829067768,-2.630423357878609
1769245668348,125,-3,-2.546559515357127,-2.5052469112215303,-2.659473901577671
1769245668352,125,-3,-2.50820701682588,-2.593332035029163,-2.6159826993282658
1769245668356,125,-3,-2.4795101213311153,-2.7206445782967337,-2.581735640061526
1769245668360,125,-3,-2.472798888286039,-2.673021768974402,-2.5690366637045754
1769245668364,125,-3,-2.4699655982150945,-2.6429515777689456,-2.560349870681152
1769245668368,125,-3,-2.468105465659642,-2.5490499259299915,-2.5533610703245273
1769245668372,125,-3,-2.4863944175922015,-2.5771157925665658,-2.5668906770074926
1769245668376,125,-3,-2.53668374960183,-2.6905460927140044,-2.611552669618965
1769245668380,125,-3,-2.59253540258933,-2.723736203540891,-2.6601862395804323
1769245668384,125,-3,-2.5879714889610965,-2.566884686516305,-2.6478705147296875
1769245668388,125,-3,-2.454364391638106,-2.61808181089514,-2.508390663145037
1769245668392,125,-3,-2.17710163930047,-2.47065269466374,-2.228831119475286
1769245668396,126,-2,-1.8308388722364783,-1.7958312615029774,-1.882586016261245
1769245668400,126,-2,-1.5538810229072555,-1.60917771243039,-1.6033388309455758
1769245668404,126,-2,-1.4624054980828722,-1.6749572244103588,-1.502301576405491
1769245668408,126,-2,-1.5566402636928065,-1.4955662633779925,-1.5797854819933106
1769245668412,126,-2,-1.6927649550772597,-1.5581512717593082,-1.6999710023397634
1769245668416,126,-2,-1.6704402871858437,-1.7179448992733053,-1.6738928458102027
1769245668420,126,-2,-1.4104302994866822,-1.6574072851905115,-1.4267000825074234
1769245668424,126,-2,-1.0812328858365612,-1.6374740950412718,-1.1171401252281927
1769245668428,126,-2,-0.9652078469191088,-1.5042669635391983,-1.0084582797193953
1769245668432,127,-1,-0.9749690353509796,-0.5180149126826072,-0.9998957251162522
1769245668436,129,1,-0.0747376998909166,1.2248326747538405,-0.0606153146543624
1769245668440,132,4,3.8032297187890727,4.458050150910122,3.856162644462138
1769245668444,140,12,12.847652561898483,12.196256177073964,12.917866294898442
1769245668448,153,25,27.66892706797468,25.76652581953863,27.728084654500726
1769245668452,172,44,45.90528359774955,44.18163801380085,45.93466939709294
1769245668456,191,63,62.433877980243714,63.59564303463257,62.4320377892241
1769245668460,202,74,71.53367177761406,74.07537650795851,71.515090221328
1769245668464,198,70,69.82754465858775,70.48251472985851,69.81666560863732
1769245668468,185,57,58.06390730117827,57.50009446124905,58.08532849670996
1769245668472,167,39,40.56013390288344,39.31049447079095,40.6258606895089
1769245668476,149,21,22.79914185778072,21.62808202060272,22.900180529595605
1769245668480,137,9,8.841943849180836,9.073322957325448,8.952693334343275
1769245668484,128,0,0.0653647173647042,0.6246566370660442,0.1595278443849341
1769245668488,124,-4,-4.400463806767208,-3.653046398407677,-4.334092637888714
1769245668492,122,-6,-6.288252391128756,-5.594004380413574,-6.24120069296359
1769245668496,120,-8,-6.980258437142119,-7.420651728076099,-6.9323950918377175
1769245668500,120,-8,-7.116341427132505,-7.929630615018245,-7.049527420724717
1769245668504,120,-8,-6.893441963326044,-7.214847156115792,-6.8020682411157605
1769245668508,122,-6,-6.474509217947441,-5.949069200007416,-6.366943321575603
1769245668512,122,-6,-6.083537489788842,-5.211317391810263,-5.973866729839376
1769245668516,122,-6,-5.845841630728408,-5.876115533354102,-5.7422886112830005
1769245668520,121,-7,-5.695095234465977,-6.412353066436929,-5.594924096887796
1769245668524,122,-6,-5.492063128761052,-5.661415853580767,-5.387003878570719
1769245668528,123,-5,-5.192028663284863,-4.590676916457252,-5.077500565521263
1769245668532,123,-5,-4.860059336630726,-4.455752385201324,-4.738236037263955
1769245668536,123,-5,-4.555816000260852,-4.758036824636759,-4.43094117946894
1769245668540,123,-5,-4.257717534146144,-4.366967196535504,-4.130936449527571
1769245668544,124,-4,-3.9045590740940943,-3.793216326549244,-3.774073649248004
1769245668548,124,-4,-3.4761097710984643,-3.384324863814118,-3.3406475862993403
1769245668552,125,-3,-3.0155848472497335,-2.6926452076535123,-2.8759219415865545
1769245668556,125,-3,-2.5907591879873992,-2.5181297630601076,-2.4479909523913257
1769245668560,125,-3,-2.250353654470861,-2.5347536076483728,-2.104120618693469
1769245668564,126,-2,-2.0047535816861353,-1.6828223611723296,-1.8539378256835104
1769245668568,126,-2,-1.8193609989733168,-1.3959807032851457,-1.6637912116371882
1769245668572,126,-2,-1.6203200381459446,-1.782440756415867,-1.4608500589291769
1769245668576,126,-2,-1.332401655299467,-1.3161540291522469,-1.1696014538327766
1769245668580,127,-1,-0.9353017474567212,-0.7857090095518097,-0.7689435850785671
1769245668584,127,-1,-0.4819465832740475,-0.3827370186147911,-0.311805120673694
1769245668588,128,0,-0.0502107002940461,0.3270920749688926,0.1233435800148423
1769245668592,128,0,0.326650522135397,0.4385254314258477,0.5032017796737831
1769245668596,128,0,0.6805719569438433,0.5658354446056981,0.8604297518850235
1769245668600,129,1,1.065943750193584,1.24031863478915,1.2498909221142864
1769245668604,129,1,1.5073686768526358,1.7253532108856784,1.6956650368325596
1769245668608,130,2,1.99236675164539,2.124522275844766,2.184342665517879
1769245668612,130,2,2.504647147759804,2.7280120420085283,2.6994167835462504
1769245668616,131,3,3.0505360886643764,3.2406316789283656,3.247978499642608
1769245668620,131,3,3.647273773935714,3.5817778254594375,3.8481247549194624
1769245668624,132,4,4.290264454449767,4.448394008766562,4.495138406410984
1769245668628,133,5,4.941087069711538,5.328373655707692,5.149550243219759
1769245668632,133,5,5.551725864592312,5.64378662227507,5.762633743847189
1769245668636,134,6,6.09701194410909,6.205706927389269,6.309813252964287
1769245668640,134,6,6.583094193288423,6.760518121466931,6.798592051650994
1769245668644,135,7,7.034421234796098,7.166503555251295,7.2541332243511905
1769245668648,135,7,7.482618259666767,7.723610979973517,7.707362507477926
1769245668652,136,8,7.964099346742935,8.18514698549686,8.193098044883644
1769245668656,136,8,8.50914074440374,8.714887978926972,8.740473847046056
1769245668660,137,9,9.10891730139436,9.251116346358849,9.341032201660994
1769245668664,137,9,9.68034948490144,9.683325866904385,9.913298789322472
1769245668668,138,10,10.07673111853802,10.244491611526689,10.311981371602329
1769245668672,138,10,10.170559728530026,10.638514359290369,10.409726679323594
1769245668676,138,10,9.961863223017644,10.310881052952858,10.205776667500585
1769245668680,137,9,9.611143114081507,9.61831363944899,9.85978504882426
1769245668684,137,9,9.340034954344937,9.387305628108525,9.592630955565728
1769245668688,137,9,9.26128729789679,9.486590845028587,9.516260057404171
1769245668692,137,9,9.271506462673171,9.489299785944162,9.52705859386934
1769245668696,137,9,9.090900524045722,9.384308356681672,9.346381170890574
1769245668700,136,8,8.420219577170462,8.65203025017469,8.67689953617289
1769245668704,135,7,7.109946871138768,7.262622115543595,7.37005368192348
1769245668708,133,5,5.24110899049569,5.705349137157203,5.506028325082662
1769245668712,131,3,3.0748862459831807,3.220015394786322,3.344403539065556
1769245668716,128,0,0.9049672343341286,0.6988614088778125,1.177917554669681
1769245668720,127,-1,-1.0888483437389749,-0.6378477448162068,-0.8136987350455254
1769245668724,125,-3,-2.8850736701097093,-2.480323442792307,-2.60859527085485
1769245668728,123,-5,-4.545785898901351,-4.468247807857674,-4.268238469915908
1769245668732,122,-6,-6.104427714881014,-5.680902003907399,-5.825328819496397
1769245668736,120,-8,-7.514617540375891,-7.294584039712445,-7.232973158784755
1769245668740,119,-9,-8.688437515951712,-8.730489368066259,-8.403327893563127
1769245668744,118,-10,-9.571593054974882,-9.287157187286311,-9.282820934618256
1769245668748,118,-10,-10.179436922225593,-9.71792324927597,-9.887736083960268
1769245668752,117,-11,-10.56725391267481,-10.3710110872338,-10.273722141463656
1769245668756,117,-11,-10.777267837850944,-10.613571963475476,-10.482465992838732
1769245668760,117,-11,-10.8197726906166,-10.4083298618203,-10.52330244493012
1769245668764,117,-11,-10.700423240785849,-10.580479850341932,-10.401292297637715
1769245668768,117,-11,-10.456922106819146,-10.435814361837863,-10.154467232455564
1769245668772,118,-10,-10.160160464386273,-9.612631294586132,-9.854813229856466
1769245668776,118,-10,-9.873492721252507,-9.37917962705632,-9.56638801821326
1769245668780,118,-10,-9.615594870479324,-9.63042172927867,-9.30720605579053
1769245668784,118,-10,-9.371408378407892,-9.345053963405562,-9.061020661578114
1769245668788,119,-9,-9.131365880685346,-8.669332271834007,-8.818181830570161
1769245668792,119,-9,-8.902318877086893,-8.35520541088803,-8.586434347801262
1769245668796,119,-9,-8.681890205278183,-8.61783258333287,-8.36372486682319
1769245668800,119,-9,-8.442376195134667,-8.403855748549095,-8.121828496983444
1769245668804,120,-8,-8.14939299982527,-7.534631607020573,-7.826195870868053
1769245668808,120,-8,-7.792426965965392,-7.5110127768608,-7.466897026162704
1769245668812,120,-8,-7.401513008424132,-7.446294985980378,-7.07442086505071
1769245668816,121,-7,-7.043651306515192,-6.554906793190803,-6.7155128186285085
1769245668820,121,-7,-6.7965285425871995,-6.42391982550221,-6.467108111643563
1769245668824,121,-7,-6.705741483106223,-6.549990073738636,-6.374012615805874
1769245668828,121,-7,-6.750898022571566,-6.444289738689603,-6.415653294871015
1769245668832,121,-7,-6.84465755379176,-6.531009155326672,-6.5055857000623645
1769245668836,121,-7,-6.868394762942695,-6.4237220621335185,-6.5265243005176
1769245668840,121,-7,-6.733206382520362,-6.570580198688005,-6.390026483721054
1769245668844,121,-7,-6.439629264436722,-6.390250451119858,-6.0958554439775
1769245668848,122,-6,-6.091049624499225,-5.586577891179235,-5.746330414492002
1769245668852,122,-6,-5.83187911052525,-5.3849570615556015,-5.485335029825377
1769245668856,122,-6,-5.744910885922765,-5.53192955654068,-5.395673003418701
1769245668860,122,-6,-5.789056308971661,-5.488026658519691,-5.436604013334841
1769245668864,122,-6,-5.829389793486486,-5.438844446800968,-5.473780426555438
1769245668868,122,-6,-5.736153671572658,-5.56312767671256,-5.377970482985166
1769245668872,122,-6,-5.478117649352246,-5.346181191967949,-5.118178682271786
1769245668876,123,-5,-5.141085195588863,-4.588326799087613,-4.780148108182334
1769245668880,123,-5,-4.8594421061456154,-4.399201714499871,-4.497784558756657
1769245668884,123,-5,-4.719905833191059,-4.547926346177657,-4.356850472001621
1769245668888,123,-5,-4.716048359844011,-4.436222107125924,-4.350188097482477
1769245668892,123,-5,-4.776967711556189,-4.45155108072292,-4.407345035261829
1769245668896,123,-5,-4.828009669761057,-4.477339906483028,-4.45511804184337
1769245668900,123,-5,-4.832654636777143,-4.4820811204375826,-4.458063991921397
1769245668904,123,-5,-4.799590585760484,-4.488165821796257,-4.424512197813234
1769245668908,123,-5,-4.765956535646832,-4.462539637432062,-4.390185005246107
1769245668912,123,-5,-4.769713224124317,-4.431111792353484,-4.391923107001166
1769245668916,123,-5,-4.819924581243463,-4.457278385246967,-4.438953386737515
1769245668920,123,-5,-4.878229568128609,-4.517056191224633,-4.494076872803966
1769245668924,123,-5,-4.869894401026576,-4.429927876367481,-4.48349760593536
1769245668928,123,-5,-4.730415082636048,-4.53412892131945,-4.3425791217063985
1769245668932,123,-5,-4.460996462669484,-4.323057994385063,-4.07176853283089
1769245668936,124,-4,-4.143003329548174,-3.559553217332844,-3.752048648496855
1769245668940,124,-4,-3.8873902981430577,-3.3998238224002257,-3.494529913222354
1769245668944,124,-4,-3.758641576824804,-3.546657018929513,-3.3638023091859313
1769245668948,124,-4,-3.7414759169685183,-3.4178966961236235,-3.3445025410922535
1769245668952,124,-4,-3.773561709658001,-3.4136078454788588,-3.374410927951117
1769245668956,124,-4,-3.803863423060392,-3.466445735026652,-3.402757002147515
1769245668960,124,-4,-3.8230180086896266,-3.462195276310508,-3.4201469685211454
1769245668964,124,-4,-3.8469684749815807,-3.496631704710751,-3.442202504539553
1769245668968,124,-4,-3.875053826277755,-3.456861439258722,-3.4681140293014576
1769245668972,124,-4,-3.8635079476649863,-3.3572848551852363,-3.45426367326481
1769245668976,124,-4,-3.746331440784695,-3.518185187943948,-3.334836329556309
1769245668980,124,-4,-3.495197335808589,-3.377716031292923,-3.081757446406124
1769245668984,125,-3,-3.164527377952067,-2.600665608070006,-2.7498978232013425
1769245668988,125,-3,-2.8708307399794273,-2.329038333371785,-2.455803414137806
1769245668992,125,-3,-2.717803543327371,-2.4816861469925384,-2.3020621891489963
1769245668996,125,-3,-2.730767972182941,-2.3783367033194622,-2.3125192492748963
1769245669000,125,-3,-2.8456486076336582,-2.4924531913963657,-2.423171139452381
1769245669004,125,-3,-2.9451441442298996,-2.521123918412529,-2.5188244772550306
1769245669008,125,-3,-2.9155860553722768,-2.3461598528989884,-2.487853103830587
1769245669012,125,-3,-2.709290490246727,-2.5090114260241565,-2.2821837205792987
1769245669016,125,-3,-2.39031648373352,-2.2745686722518386,-1.963473675543307
1769245669020,126,-2,-2.1173269185370183,-1.6374748964652586,-1.68877413591168
1769245669024,126,-2,-2.0391097043787503,-1.3465590531205889,-1.6076106361560467
1769245669028,126,-2,-2.1674101832751296,-1.5190674422424943,-1.73326735110819
1769245669032,125,-3,-2.3511857747172806,-2.3308529725701264,-1.9149754720683856
1769245669036,125,-3,-2.39921563381513,-2.418530311536754,-1.960929258806771
1769245669040,126,-2,-2.2429060900802646,-1.5203365409689804,-1.802739418778742
1769245669044,126,-2,-1.9830328220057032,-1.4151570067158568,-1.5420040019073415
1769245669048,126,-2,-1.7870958292728965,-1.4796659061586208,-1.3460518140533542
1769245669052,126,-2,-1.7476185069641534,-1.3087174222185265,-1.3060520249908534
1769245669056,126,-2,-1.8223334857014812,-1.4849243556303855,-1.378762418476188
1769245669060,126,-2,-1.8822200355963332,-1.4178937791010835,-1.4355445927582986
1769245669064,126,-2,-1.8101288794528747,-1.5209004933159338,-1.3604229297561918
1769245669068,126,-2,-1.5730971003176686,-1.3564612012277115,-1.1214808771393336
1769245669072,127,-1,-1.222804695893387,-0.4019882428342662,-0.77077814749549
1769245669076,127,-1,-0.8383726750443099,-0.4099500222097586,-0.3868011628757926
1769245669080,127,-1,-0.4713150850970256,-0.4753360745249614,-0.0196676558781497
1769245669084,128,0,-0.1352844352017661,0.5365584665594108,0.3179652589556981
1769245669088,128,0,0.1749697079226391,0.6103705144454528,0.6310091235915085
1769245669092,128,0,0.4729936279489615,0.6345829337053748,0.9317293507405648
1769245669096,129,1,0.7844100495129349,1.576729116725986,1.2447401178680098
1769245669100,129,1,1.1405637809755405,1.516960432013008,1.6014935734883182
1769245669104,129,1,1.545755118557945,1.5700829164618848,2.0072081650909444
1769245669108,130,2,1.9395405384817843,2.584929840097727,2.40197607440877
1769245669112,130,2,2.1998574941832363,2.6795571095718507,2.6632672851065156
1769245669116,130,2,2.2022947972542344,2.531074008903464,2.666059171682157
1769245669120,130,2,1.8916319646279331,2.5734347494635865,2.35554542778681
1769245669124,129,1,1.30709158436371,1.5054556547947169,1.7721273515279643
1769245669128,128,0,0.5516430340453007,0.6724358336700005,1.0191301228147085
1769245669132,128,0,-0.2514672063254892,0.6112399304231191,0.218535216246918
1769245669136,127,-1,-0.9792267494766124,-0.402967037260034,-0.5081223027606891
1769245669140,126,-2,-1.523205366887105,-1.472836376980612,-1.0522758144614617
1769245669144,126,-2,-1.8261156638908536,-1.4584128703826449,-1.3553081708280534
1769245669148,126,-2,-1.9160686409553151,-1.339762137499515,-1.4446901562461631
1769245669152,126,-2,-1.8884354018442873,-1.3691883671707077,-1.4162886035381317
1769245669156,126,-2,-1.840165279479552,-1.3996368592455892,-1.3674531698730843
1769245669160,126,-2,-1.817674821009852,-1.4859864058769805,-1.3442929625509272
1769245669164,126,-2,-1.818539079193016,-1.439457268026623,-1.344179220594197
1769245669168,126,-2,-1.8260047575810832,-1.351453022741362,-1.3508801625594518
1769245669172,126,-2,-1.8328553277426136,-1.3381755100130508,-1.35767311587646
1769245669176,126,-2,-1.8401524228182713,-1.4108139062315126,-1.365021415571673
1769245669180,126,-2,-1.84775743896022,-1.48193067475026,-1.3715103535895734
1769245669184,126,-2,-1.8519622575733683,-1.439721896650923,-1.3733083109017616
1769245669188,126,-2,-1.8474821001171875,-1.34645279587641,-1.3671847720088004
1769245669192,126,-2,-1.8288189677971596,-1.3173467413206004,-1.350227867584149
1769245669196,126,-2,-1.7973413377676255,-1.417627579519969,-1.323648294611487
1769245669200,126,-2,-1.7755931069391713,-1.4784434121104175,-1.3056705656855352
1769245669204,126,-2,-1.8057445629307185,-1.4422245324931275,-1.3329375813988211
1769245669208,126,-2,-1.9063261534456413,-1.3423595801543526,-1.4229747858522568
1769245669212,126,-2,-2.0115900894460013,-1.2871409364964506,-1.5168413724680327
1769245669216,126,-2,-1.97725160889467,-1.4422450466365817,-1.481252651240475
1769245669220,126,-2,-1.710179673708665,-1.4505552696487962,-1.2289457089617688
1769245669224,126,-2,-1.335191812420748,-1.474374212401195,-0.8779851816744717
1769245669228,126,-2,-1.1652005750161667,-1.310884528354062,-0.7242738608729364
1769245669232,127,-1,-1.29539039976137,-0.2737129161305223,-0.8481421524409469
1769245669236,128,0,-0.981909494814092,0.537172275383555,-0.5058684744218533
1769245669240,130,2,1.633544466759254,2.5992117822209373,2.1439833868242815
1769245669244,137,9,8.8708807013162,9.434885787605626,9.399532286962364
1769245669248,148,20,21.945412435483178,20.84716767026473,22.464986247140196
1769245669252,165,37,39.39035026850492,37.55416667266529,39.87924624065196
1769245669256,185,57,56.77816308109749,57.80747864220082,57.230708217852246
1769245669260,199,71,68.39386544188429,71.26833555030686,68.8205297166158
1769245669264,199,71,70.07595727691304,71.73145921651673,70.49808704340613
1769245669268,189,61,61.39584669853196,61.49082789654982,61.83746911165258
1769245669272,172,44,45.71745045884187,44.8323028396093,46.194017497438914
1769245669276,155,27,28.210905964352538,27.624635497148677,28.71968478217437
1769245669280,141,13,13.266977446973318,13.469364589613676,13.787513737289366
1769245669284,131,3,2.9185831660987427,3.692168364083768,3.424999512877773
1769245669288,126,-2,-3.0892449527421277,-1.535062779192975,-2.612680210043306
1769245669292,122,-6,-6.124364439096183,-5.077242378335673,-5.675180237671643
1769245669296,120,-8,-7.470982164911559,-7.576314553838614,-7.0322693503448095
1769245669300,119,-9,-7.852081101573745,-8.220856003674173,-7.404605805640855
1769245669304,120,-8,-7.629678962369868,-7.660498390763096,-7.164304373960315
1769245669308,121,-7,-7.134360628110012,-6.138460047993974,-6.656493710323632
1769245669312,122,-6,-6.704750166890995,-5.49987405831285,-6.227717687492871
1769245669316,121,-7,-6.501595539201969,-6.193554458403123,-6.034664228842232
1769245669320,121,-7,-6.426491970068633,-6.5286423575082635,-5.968267534959636
1769245669324,121,-7,-6.286834345885965,-6.404946392085879,-5.829592501753252
1769245669328,122,-6,-6.015061686876561,-5.304782949845981,-5.554238700996979
1769245669332,123,-5,-5.69814214176067,-4.405148914680959,-5.236191741339212
1769245669336,122,-6,-5.427864891746952,-5.228177740670372,-4.969299114203425
1769245669340,122,-6,-5.184144793759259,-5.529014111098728,-4.729479304701443
1769245669344,123,-5,-4.869142793333895,-4.3678415338274,-4.415424253539394
1769245669348,124,-4,-4.40179697067659,-3.342336121754525,-3.9472934831927944
1769245669352,124,-4,-3.757270706821192,-3.365427404258572,-3.3030574980302387
1769245669356,124,-4,-2.9624857505362185,-3.2307010961862233,-2.5100674507405367
1769245669360,126,-2,-2.098087967469362,-1.570277951904249,-1.6479392961883452
1769245669364,127,-1,-1.286869198776477,-0.2756679796589114,-0.8393283123836928
1769245669368,127,-1,-0.6418435887818803,-0.4648423950522633,-0.1973026030671729
1769245669372,127,-1,-0.2161653243828953,-0.1953210952787907,0.2261463726303615
1769245669376,128,0,0.0020573018655123,0.5882980284213973,0.4440290547226226
1769245669380,128,0,0.0752614641797859,0.596507814096213,0.517999122261811
1769245669384,128,0,0.1144632963016407,0.5850342507300504,0.5571083088707374
1769245669388,128,0,0.2630606421691013,0.6748488158579768,0.7037623693891644
1769245669392,128,0,0.6319061561965666,0.693382349613509,1.0694486954750917
1769245669396,129,1,1.220190879850746,1.6915145599680417,1.654526886509677
1769245669400,130,2,1.9017549395630744,2.4917496341935053,2.333547419331774
1769245669404,130,2,2.5081914094446827,2.700555175557086,2.938294149445568
1769245669408,131,3,2.9500765722407523,3.576973849410673,3.3792249831978936
1769245669412,131,3,3.280054458460555,3.802683734202611,3.7085964558979576
1769245669416,131,3,3.646813056696272,3.570453131856687,4.074478683814523
1769245669420,132,4,4.1767225640143355,4.617932415371211,4.602634573941267
1769245669424,133,5,4.878732924923355,5.5850360012011775,5.3019710259267985
1769245669428,133,5,5.643812793887531,5.71382490217135,6.064284322725328
1769245669432,134,6,6.329118555737802,6.676840958494597,6.747617149221884
1769245669436,135,7,6.858986184879697,7.692972685732048,7.276147482173593
1769245669440,135,7,7.270207529336751,7.472625223594419,7.685820815956784
1769245669444,135,7,7.665203330615189,7.767708103318268,8.078804290900782
1769245669448,136,8,8.108337236730085,8.531418090941726,8.519984157330843
1769245669452,136,8,8.561564923152932,8.881861272594733,8.971641933364426
1769245669456,137,9,8.926697600917251,9.482905588335282,9.335223955799002
1769245669460,137,9,9.153787575667916,9.667122341969536,9.560350583837565
1769245669464,137,9,9.301989803072916,9.604964927725662,9.706456519116944
1769245669468,137,9,9.481876460281685,9.683006746071458,9.884835127493002
1769245669472,137,9,9.72826653294194,9.775292896887724,10.1302563799505
1769245669476,138,10,9.930171040059577,10.54568539121895,10.330498536108855
1769245669480,138,10,9.891530434221476,10.648137114582264,10.288637535815363
1769245669484,137,9,9.461713815632349,9.597124938504887,9.855223532432504
1769245669488,136,8,8.610737435685104,8.724427437608181,9.00246579650429
1769245669492,135,7,7.402502703015049,7.741509689683884,7.794591039128959
1769245669496,134,6,5.928797790353046,6.538120129877717,6.321164034164164
1769245669500,132,4,4.271701661624341,4.734732498242421,4.662165711511178
1769245669504,130,2,2.4934285925177564,2.431067027781029,2.8801970523159177
1769245669508,128,0,0.6312311289920212,1.0033998002372264,1.014517309311798
1769245669512,127,-1,-1.2904768356660412,-0.6328291673992732,-0.9091172279093592
1769245669516,124,-4,-3.218358696042767,-3.013931116776159,-2.83746909793681
1769245669520,123,-5,-5.033572592477021,-4.74341081207956,-4.652575519364747
1769245669524,121,-7,-6.569951338013844,-6.074852491371573,-6.1892654173848936
1769245669528,120,-8,-7.690801320306237,-7.448808227317311,-7.311546593277077
1769245669532,119,-9,-8.375432130713344,-8.249797105969854,-7.9988340864563074
1769245669536,119,-9,-8.750389591512953,-8.291612645408177,-8.377201136710593
1769245669540,119,-9,-9.029944194687763,-8.575745088732104,-8.660061287712065
1769245669544,118,-10,-9.394639370255549,-9.114583305826413,-9.026919129102287
1769245669548,118,-10,-9.888142214383311,-9.50388130834544,-9.520748029832784
1769245669552,117,-11,-10.400667769331854,-10.133792975367395,-10.03215205407961
1769245669556,117,-11,-10.744145598062202,-10.427360041167043,-10.37460391252582
1769245669560,117,-11,-10.767575173140512,-10.446135327361104,-10.39878876380468
1769245669564,117,-11,-10.445822636844524,-10.178432914301103,-10.080061509284894
1769245669568,118,-10,-9.89712119945244,-9.504126098177538,-9.535456567437969
1769245669572,118,-10,-9.323704913803,-9.062801459463374,-8.965189716520982
1769245669576,119,-9,-8.90738231418819,-8.55968824082502,-8.54982199272211
1769245669580,119,-9,-8.714504448217758,-8.270203929287366,-8.356172353692694
1769245669584,119,-9,-8.664867067808274,-8.343789282386666,-8.305656712409345
1769245669588,119,-9,-8.589654578842095,-8.368732377245504,-8.23076737833697
1769245669592,119,-9,-8.347846360945308,-8.134054828754905,-7.990545080627123
1769245669596,120,-8,-7.92213183581126,-7.571221311742193,-7.566816259672864
1769245669600,120,-8,-7.421955768235288,-7.15430607125553,-7.068269889283068
1769245669604,121,-7,-6.990422838844897,-6.531692010620373,-6.637947168347323
1769245669608,121,-7,-6.691678737955633,-6.109586905220458,-6.340176139283872
1769245669612,121,-7,-6.476009092581522,-6.443710227857417,-6.125027447691198
1769245669616,121,-7,-6.251306206621462,-6.244381726968335,-5.9001704954820475
1769245669620,122,-6,-5.9855247921417165,-5.46162866949663,-5.634182255811107
1769245669624,122,-6,-5.7357728860331045,-5.235677919015807,-5.385217573150941
1769245669628,122,-6,-5.584499338800507,-5.355662330150866,-5.235762349797563
1769245669632,122,-6,-5.559919436359789,-5.256543478034376,-5.21279000891271
1769245669636,122,-6,-5.6161641506585065,-5.37644871509021,-5.269331865230368
1769245669640,122,-6,-5.673508987274843,-5.392709844980515,-5.325884902997717
1769245669644,122,-6,-5.669309314441518,-5.2005625733119505,-5.320928194987532
1769245669648,122,-6,-5.5819810545350474,-5.469890456103028,-5.23374048713072
1769245669652,122,-6,-5.424829119305894,-5.063066451238051,-5.077641841072598
1769245669656,123,-5,-5.226697116335435,-4.649367083381551,-4.880773072246935
1769245669660,122,-6,-5.0184650294513995,-5.060801767175971,-4.673106721706115
1769245669664,123,-5,-4.831551175611759,-4.539519789112162,-4.48573357333067
1769245669668,123,-5,-4.695454814507663,-4.115466459987247,-4.348810123478274
1769245669672,123,-5,-4.623615126538749,-4.414312481712112,-4.276708756736295
1769245669676,123,-5,-4.602584112495867,-4.331126000953716,-4.25612572979908
1769245669680,123,-5,-4.604383676706661,-4.329189286477831,-4.258382110037581
1769245669684,123,-5,-4.611704922879515,-4.308265891526905,-4.265471130193715
1769245669688,123,-5,-4.626518742500139,-4.272670456689724,-4.279318027872363
1769245669692,123,-5,-4.652858674148967,-4.3281487481053595,-4.304551980355783
1769245669696,123,-5,-4.675282014760253,-4.361217567096649,-4.326500114093645
1769245669700,123,-5,-4.6602290219883375,-4.351197812224992,-4.311848851709422
1769245669704,123,-5,-4.585586782619692,-4.2142718220746245,-4.237756951410666
1769245669708,123,-5,-4.473785919526174,-4.407558814151773,-4.125527407443742
1769245669712,123,-5,-4.388896450615962,-4.148896101249103,-4.039071714376826
1769245669716,124,-4,-4.381399313753896,-3.593882970019531,-4.030032131852558
1769245669720,123,-5,-4.424185347067118,-4.071051992949278,-4.072244410784861
1769245669724,123,-5,-4.417001790540886,-4.510915688908046,-4.064878607670618
1769245669728,123,-5,-4.275529516147456,-4.080962558924653,-3.922507434946622
1769245669732,124,-4,-4.017854999493701,-3.487166154914178,-3.6632849597998383
1769245669736,124,-4,-3.753488380878122,-3.273065300689451,-3.397734396807598
1769245669740,124,-4,-3.588682959574171,-3.3452534370414906,-3.232520512967984
1769245669744,124,-4,-3.5481319416550297,-3.2759876220016,-3.1917114602772396
1769245669748,124,-4,-3.5802304318369806,-3.255400502725127,-3.222956576961644
1769245669752,124,-4,-3.621408108552819,-3.3770242432707005,-3.262497270625108
1769245669756,124,-4,-3.648878525223622,-3.335606814113917,-3.2878216776427385
1769245669760,124,-4,-3.676445499395119,-3.297337304198041,-3.3132608131947343
1769245669764,124,-4,-3.7060998408242622,-3.3028075641832766,-3.3413897949552847
1769245669768,124,-4,-3.691525311001264,-3.221494195597632,-3.326025124464122
1769245669772,124,-4,-3.5625455163928272,-3.434554708444997,-3.196341599195784
1769245669776,124,-4,-3.29791085924915,-3.2597427654679376,-2.9303047877460604
1769245669780,125,-3,-2.971363639950328,-2.374676144894295,-2.601720804893946
1769245669784,125,-3,-2.710149597528257,-2.198989903018616,-2.3385960302728224
1769245669788,125,-3,-2.596557031721182,-2.3374245620669467,-2.2235720896285316
1769245669792,125,-3,-2.6077699247105643,-2.3117627445156343,-2.233386893561553
1769245669796,125,-3,-2.6483531615961207,-2.4089592150986694,-2.272069038222811
1769245669800,125,-3,-2.63622605878482,-2.1909494158600027,-2.257522747788214
1769245669804,125,-3,-2.560776082638731,-2.3787635439285233,-2.179586813382875
1769245669808,125,-3,-2.4674894506987743,-2.1499890060787683,-2.084315614700997
1769245669812,126,-2,-2.392029832290953,-1.500201666147448,-2.0074886397182237
1769245669816,125,-3,-2.314216135056638,-2.2476064508921003,-1.9281724464676968
1769245669820,125,-3,-2.1838047086223793,-2.315965627676383,-1.7952887194644858
1769245669824,126,-2,-1.9880958726569224,-1.2614150176844914,-1.596591434145715
1769245669828,126,-2,-1.7793132917499923,-1.2395000389511848,-1.3856543773090322
1769245669832,126,-2,-1.632796403645437,-1.440951753771241,-1.2380546510435997
1769245669836,126,-2,-1.5896656976938224,-1.2892034417275386,-1.19353177732683
1769245669840,126,-2,-1.6362351809734736,-1.2893074368516042,-1.2372848506769507
1769245669844,126,-2,-1.715033942052115,-1.263809386770936,-1.3124101141775244
1769245669848,126,-2,-1.744840607837888,-1.2249089195796563,-1.3389860112175145
1769245669852,126,-2,-1.650642566825557,-1.473082410571426,-1.2424413315738252
1769245669856,126,-2,-1.4038321121059738,-1.2489490150877225,-0.9937171613688208
1769245669860,127,-1,-1.043699153493591,-0.334432197420483,-0.6317050145215173
1769245669864,127,-1,-0.6528807109316954,-0.2072283498550824,-0.2388980177880118
1769245669868,127,-1,-0.3046993091886096,-0.2512015427129637,0.1116172058388478
1769245669872,128,0,-0.0260696836797591,0.5119297454715908,0.3930774815551512
1769245669876,128,0,0.2042122802098123,0.7989586142832121,0.6265067488538687
1769245669880,128,0,0.4300514476664374,0.5719304869423911,0.8556087177691074
1769245669884,128,0,0.6816570716093313,0.9508971104811794,1.110471805802283
1769245669888,129,1,0.9512946424907512,1.5701417301260585,1.382988752788989
1769245669892,129,1,1.199339708840217,1.6896676470653007,1.633183145477838
1769245669896,129,1,1.377186515521657,1.6312243603009506,1.8128363460987809
1769245669900,129,1,1.438250921980487,1.700677970181124,1.8762450757429885
1769245669904,129,1,1.3375284425081388,1.8937032721475011,1.7787184552166575
1769245669908,129,1,1.0434714543711656,1.5754322594050367,1.4881546636919496
1769245669912,128,0,0.5633831925246671,0.7377133363033814,1.0111741866585902
1769245669916,128,0,-0.0446413574270767,0.5212744345136642,0.405742425900735
1769245669920,127,-1,-0.6909064709176995,-0.144739298271475,-0.2379722342312011
1769245669924,126,-2,-1.2927310590968843,-1.2785067041982603,-0.8367043701661994
1769245669928,126,-2,-1.8028875716853172,-1.2198209960525013,-1.3432340640988687
1769245669932,126,-2,-2.205620678035004,-1.4739611272504458,-1.7424947478007935
1769245669936,125,-3,-2.4920575531562585,-2.294457326499398,-2.026164556177855
1769245669940,125,-3,-2.652962032922679,-2.2928975354630827,-2.1848058813764384
1769245669944,125,-3,-2.702505466549974,-2.161375883203219,-2.23197826284556
1769245669948,125,-3,-2.700646105115443,-2.282611441117658,-2.2272524368050632
1769245669952,125,-3,-2.7366824056431187,-2.451442778116389,-2.2600823278592124
1769245669956,125,-3,-2.873828278322429,-2.2998236969914543,-2.3942402448405473
1769245669960,125,-3,-3.0941390942518847,-2.303598498401674,-2.611937652969768
1769245669964,124,-4,-3.29654994447408,-3.1372459070597523,-2.811212444390665
1769245669968,124,-4,-3.364519542999803,-3.2846496528493363,-2.874610771997142
1769245669972,125,-3,-3.247939907671215,-2.4764225927127823,-2.752949347312988
1769245669976,125,-3,-2.9826913923329013,-2.2472622366306005,-2.4845587772758764
1769245669980,125,-3,-2.644395765307097,-2.39469390834505,-2.1463026711035944
1769245669984,125,-3,-2.303301226308884,-1.9941579644238745,-1.8065796591022447
1769245669988,126,-2,-2.018336019034062,-1.4533295069962529,-1.520398426591543
1769245669992,126,-2,-1.8398772058227368,-1.3084721302946216,-1.335049152273397
1769245669996,126,-2,-1.7880806941578378,-1.3928964069845853,-1.271521061767376
1769245670000,126,-2,-1.8251714156174916,-1.3007395005259803,-1.2980988553249393
1769245670004,126,-2,-1.8682533601866895,-1.0041053984979245,-1.3400236138982804
1769245670008,126,-2,-1.8601308862644583,-1.5181646865101337,-1.343090985920899
1769245670012,125,-3,-1.8353035247426617,-2.188710840434266,-1.334575391320608
1769245670016,126,-2,-1.8373538471934696,-1.5365928093133414,-1.3439572963949322
1769245670020,127,-1,-1.5969551844524568,-0.1850822411415817,-1.091147126898516
1769245670024,128,0,-0.1446494844232893,0.982628525689865,0.3915160233698671
1769245670028,132,4,4.198375870537886,4.369388837108431,4.7673770767196935
1769245670032,141,13,13.097335898807742,14.081989200040612,13.681929303400343
1769245670036,155,27,26.914030101178614,27.03923247167694,27.48772996178262
1769245670040,168,40,43.61479514052201,41.38945175961659,44.159562448034166
1769245670044,187,59,58.83657471488476,59.33962865964463,59.352490814571865
1769245670048,198,70,67.53251700851564,71.03787322003505,68.03389368433449
1769245670052,196,68,66.47638962427794,68.35125084353446,66.98297106061818
1769245670056,183,55,56.018562951382904,55.67911547390949,56.54895761419564
1769245670060,166,38,39.839113234494334,38.77951127980276,40.404069468948585
1769245670064,150,22,22.905950658951856,22.868709953257937,23.501123326872612
1769245670068,137,9,9.099663461511089,9.714974719494617,9.705579736655078
1769245670072,128,0,-0.0421480608637949,0.6291553191545374,0.5511264310754624
1769245670076,124,-4,-5.0431264851944855,-3.4715965600706604,-4.475173613528385
1769245670080,121,-7,-7.313112133616428,-6.201316720698268,-6.765704896862227
1769245670084,119,-9,-8.081344420872473,-8.133619401880933,-7.537191179621992
1769245670088,119,-9,-8.031689878550642,-8.290254397072282,-7.473265110895849
1769245670092,120,-8,-7.522883400475635,-7.316932158380108,-6.943882588608531
1769245670096,122,-6,-6.875961788219078,-5.539872246126724,-6.283975260118539
1769245670100,122,-6,-6.3903273052600795,-5.152894984465938,-5.798519846159721
1769245670104,121,-7,-6.191691662280521,-6.234905105794283,-5.606888650390698
1769245670108,121,-7,-6.190703335015105,-6.1531778402086035,-5.609135278122326
1769245670112,122,-6,-6.219072013356984,-5.432292083715713,-5.632841489075285
1769245670116,122,-6,-6.171221111617339,-5.4183617974790605,-5.5771547811013855
1769245670120,122,-6,-6.0167081887925615,-5.277883637212404,-5.418242405314303
1769245670124,122,-6,-5.7409095080887065,-5.152424818978155,-5.142857188902526
1769245670128,122,-6,-5.3352754702975975,-5.215824032602532,-4.7386373055808075
1769245670132,123,-5,-4.844999696743429,-4.354579853905456,-4.247092590139178
1769245670136,124,-4,-4.376722251254852,-3.4714860649148784,-3.774994625934239
1769245670140,124,-4,-4.0160170543741085,-3.2537765137463746,-3.410441634995441
1769245670144,124,-4,-3.73504780071298,-3.182082416703197,-3.1270030003594096
1769245670148,124,-4,-3.4052443172838447,-3.2080346049781414,-2.7954281639162772
1769245670152,125,-3,-2.9162158490131884,-2.325048429729854,-2.304422610981738
1769245670156,126,-2,-2.2823930559471304,-1.4914931693930868,-1.668676682678529
1769245670160,126,-2,-1.6347804403990798,-1.2396980482893998,-1.0198525916837755
1769245670164,127,-1,-1.1140192625724636,-0.2195329673163494,-0.4983386199673784
1769245670168,127,-1,-0.7666171049726662,-0.1693348071911755,-0.1495191237741718
1769245670172,127,-1,-0.5272029111711358,-0.3701356847651744,0.092673317751449
1769245670176,128,0,-0.2840117713390411,0.603618700078461,0.3392868503300978
1769245670180,128,0,0.0408389818505887,0.626565107280429,0.6666940876995004
1769245670184,128,0,0.4558152919251272,0.9165138274928286,1.0826663496172937
1769245670188,129,1,0.915121196954271,1.688429536506558,1.5421774402405428
1769245670192,129,1,1.3579345044730555,1.768498259531147,1.9856733387576957
1769245670196,130,2,1.746957669986297,2.505290225768019,2.3763769315910395
1769245670200,130,2,2.090301065385464,2.697275551365628,2.721940435502995
1769245670204,130,2,2.4373196795265386,2.839044225832938,3.0709768504165034
1769245670208,131,3,2.851028053548003,3.754237573568167,3.4862318028683656
1769245670212,131,3,3.3735792943216096,3.724644887598105,4.0101875051376865
1769245670216,132,4,4.005948729963192,4.544155298672112,4.644165226709427
1769245670220,133,5,4.713923569656448,5.692648468326181,5.353733228362879
1769245670224,133,5,5.451941514664611,5.77293077044342,6.092755832141203
1769245670228,134,6,6.179506264213105,6.8628335247514025,6.820592359802392
1769245670232,135,7,6.854903819318714,7.595696156565715,7.496203690309935
1769245670236,135,7,7.421694535272542,7.694209445274552,8.06407358285956
1769245670240,136,8,7.819356984242507,8.554987302275396,8.463774488728632
1769245670244,136,8,8.028161206043684,8.859926302064911,8.674588045717638
1769245670248,136,8,8.111780646588954,8.803749587825283,8.759314952072524
1769245670252,136,8,8.198783557870758,8.635777318711652,8.846870183875376
1769245670256,136,8,8.394355271206939,8.692712402938398,9.043296327866
1769245670260,137,9,8.697555482391257,9.532080772466996,9.347597751066417
1769245670264,137,9,9.007496909402624,9.882606103336068,9.658139871027055
1769245670268,137,9,9.207761055530185,9.767860727148758,9.8585343404185
1769245670272,137,9,9.237248921911911,9.683335639337308,9.888612549679324
1769245670276,137,9,9.08705692864606,9.656309642899968,9.739756942656788
1769245670280,137,9,8.752070127093887,9.55018929735106,9.40590240723712
1769245670284,136,8,8.19700446089297,8.865181597923815,8.851041046545276
1769245670288,135,7,7.358757051612349,7.778077748175263,8.012705338195989
1769245670292,134,6,6.175744849121886,6.67601568388886,6.8302445738911555
1769245670296,133,5,4.633619264490653,5.680993912884612,5.2891053410448245
1769245670300,131,3,2.803436848866546,3.5002322722560306,3.459508440006029
1769245670304,128,0,0.8301181434821889,0.9239030249565342,1.4862688012587018
1769245670308,127,-1,-1.1361710297514491,-0.2931488693055275,-0.4798208928578074
1769245670312,125,-3,-3.0064736315042806,-2.2458469548069413,-2.3494232165280224
1769245670316,123,-5,-4.754480592341069,-4.380606362771305,-4.096525775449478
1769245670320,122,-6,-6.360322680780287,-5.459639859896685,-5.701949656950465
1769245670324,120,-8,-7.760721343977,-7.0921574839307215,-7.102859837922294
1769245670328,119,-9,-8.860136962684587,-8.340492554714022,-8.203220247887263
1769245670332,118,-10,-9.599355764709362,-9.114159899893943,-8.942602754185256
1769245670336,118,-10,-10.015040688625966,-9.595573362360891,-9.35717361583102
1769245670340,118,-10,-10.217958721619322,-9.156413305817583,-9.558795311317128
1769245670344,118,-10,-10.298466549654844,-9.478334330058226,-9.63928900739696
1769245670348,117,-11,-10.258841115890723,-9.919135577243654,-9.600912921239226
1769245670352,118,-10,-10.053589551907193,-9.54378636347072,-9.396769526564515
1769245670356,118,-10,-9.694881413313016,-9.1830835976654,-9.038088007419852
1769245670360,119,-9,-9.298324107574643,-8.525024691115906,-8.641021195719844
1769245670364,119,-9,-9.007673230045873,-8.169146235028931,-8.35035843178578
1769245670368,119,-9,-8.87202000947388,-8.177934220415212,-8.215262720650815
1769245670372,119,-9,-8.802577420489163,-8.345869977842064,-8.146127333033348
1769245670376,119,-9,-8.653418910928858,-8.330433753997779,-7.996689882144163
1769245670380,120,-8,-8.346166167894639,-7.418929164085503,-7.689316540455907
1769245670384,120,-8,-7.925890214222895,-7.235109414616372,-7.269808404984813
1769245670388,120,-8,-7.514237869100244,-7.151261121291578,-6.859499572563727
1769245670392,121,-7,-7.21434302217111,-6.346761327774189,-6.560762294436286
1769245670396,121,-7,-7.0419549153186205,-6.363029610670036,-6.38911663072626
1769245670400,121,-7,-6.926211484721703,-6.366615595368019,-6.27377542649766
1769245670404,121,-7,-6.776224106378859,-6.291841994441944,-6.12368433775535
1769245670408,121,-7,-6.558434715620294,-6.102611181864717,-5.905393644703745
1769245670412,122,-6,-6.313292975359028,-5.389226165489432,-5.660367755612985
1769245670416,122,-6,-6.096741886806375,-5.3391049741324785,-5.445590557471388
1769245670420,122,-6,-5.915131900651013,-5.37276126085904,-5.266884212902938
1769245670424,122,-6,-5.729461419159243,-5.300939253199727,-5.0832455079167955
1769245670428,122,-6,-5.517346057576267,-5.090014518739596,-4.870957682063339
1769245670432,123,-5,-5.3063668867907365,-4.41485369128391,-4.658562244093453
1769245670436,123,-5,-5.130434660365872,-4.309072245773947,-4.4822119543343435
1769245670440,123,-5,-4.967023830399819,-4.39357036189749,-4.32047583222451
1769245670444,123,-5,-4.7488130913762525,-4.302794458094306,-4.105067584442391
1769245670448,123,-5,-4.454673564165167,-4.069415815184982,-3.813277543158081
1769245670452,124,-4,-4.177522657457119,-3.4812367091143126,-3.537537606559713
1769245670456,124,-4,-4.075191727479534,-3.190735289789518,-3.436222178858401
1769245670460,124,-4,-4.233075404147737,-3.5462585831402063,-3.5950322355374835
1769245670464,123,-5,-4.567040547539336,-4.136950891034201,-3.9294854504377743
1769245670468,123,-5,-4.862249847880767,-4.252213481524095,-4.22463571329021
1769245670472,123,-5,-4.918799987328558,-4.327376682956903,-4.281393808793434
1769245670476,123,-5,-4.686812942455445,-4.288825927640493,-4.051054413723748
1769245670480,124,-4,-4.291038850818332,-3.4913403638739595,-3.658736322147055
1769245670484,124,-4,-3.935848646604259,-3.145899949126291,-3.3077067494660692
1769245670488,124,-4,-3.769639800801387,-3.3120800066574994,-3.14428897895994
1769245670492,124,-4,-3.806642284987764,-3.245557648634329,-3.181364349746841
1769245670496,124,-4,-3.943772845144319,-3.3722710543701697,-3.316807974947808
1769245670500,124,-4,-4.03632157375219,-3.411472599327403,-3.4086953174287853
1769245670504,124,-4,-3.977888708597828,-3.198635925088183,-3.352651950299323
1769245670508,124,-4,-3.756297089592285,-3.3160340114978397,-3.1357339375469246
1769245670512,124,-4,-3.4701999527639806,-3.216783383960029,-2.8539573870396477
1769245670516,125,-3,-3.2828352762647905,-2.4144769917734332,-2.6687888371441173
1769245670520,125,-3,-3.314240750602818,-2.3596129284215004,-2.7006290981242573
1769245670524,124,-4,-3.5421281079202496,-3.2354129733439216,-2.92860682761002
1769245670528,124,-4,-3.805740249957555,-3.338779445712836,-3.193088357072078
1769245670532,124,-4,-3.9248676205819337,-3.153166809240336,-3.3143361611910476
1769245670536,124,-4,-3.838496989101104,-3.534053820936847,-3.2311801069674484
1769245670540,124,-4,-3.648898400053683,-3.1588040647986397,-3.0452241199515653
1769245670544,125,-3,-3.5348517997789215,-2.4934155661542223,-2.9344520711081707
1769245670548,124,-4,-3.6024203582868624,-3.0652022684103413,-3.004329123888821
1769245670552,124,-4,-3.7954323802867176,-3.4679376736089176,-3.1985063585298867
1769245670556,124,-4,-3.939502962049398,-3.206412350755539,-3.343135901711459
1769245670560,124,-4,-3.879030899093629,-3.4652263327585255,-3.2837939116438446
1769245670564,124,-4,-3.593766574129511,-3.206026385293753,-3.001315161240151
1769245670568,125,-3,-3.2082856535288387,-2.3356394600266923,-2.620381226477535
1769245670572,125,-3,-2.8976441815827436,-2.2590278401150607,-2.314788455890884
1769245670576,125,-3,-2.7703890355493512,-2.371890146097091,-2.1911245216412847
1769245670580,125,-3,-2.8138899683128886,-2.3201399219964403,-2.235785176853367
1769245670584,125,-3,-2.9207456964453646,-2.337444073343528,-2.342528941923125
1769245670588,125,-3,-2.956313750495197,-2.2230086793146984,-2.37900802853604
1769245670592,125,-3,-2.8273864840188874,-2.3917560691718913,-2.25326647859098
1769245670596,125,-3,-2.5322421062994125,-2.227301020085236,-1.962977312902139
1769245670600,126,-2,-2.169226141626207,-1.4586638974853952,-1.6050859452999109
1769245670604,126,-2,-1.8836305348762885,-1.206149520646978,-1.3237995517278411
1769245670608,126,-2,-1.774961947308873,-1.3551856957823611,-1.218038531529034
1769245670612,126,-2,-1.8280036022208428,-1.3040047506434846,-1.2725645274189
1769245670616,126,-2,-1.9165603200701629,-1.2739913572319754,-1.36200840494614
1769245670620,126,-2,-1.8758766512971128,-1.4567105087795356,-1.3230305640863604
1769245670624,126,-2,-1.5995009169323755,-1.146434645576655,-1.0502378878556202
1769245670628,127,-1,-1.10577846120901,-0.4873252458951679,-0.561875972298113
1769245670632,127,-1,-0.5342383513804858,-0.1350608246351275,0.0037671186795107
1769245670636,128,0,-0.0695640669827017,0.5142768473510618,0.4635747565071508
1769245670640,128,0,0.1658754094087648,0.7918181921905497,0.6960198427987345
1769245670644,128,0,0.1870737043672425,0.583136517573251,0.7156880917442885
1769245670648,128,0,0.1389183719296309,0.7745186997225421,0.6661749983929789
1769245670652,128,0,0.2035479425775981,0.5954335166342153,0.728336184118608
1769245670656,128,0,0.4760897850475221,0.7607452958684433,0.996732480841798
1769245670660,129,1,0.8894463106518926,1.5950960763067217,1.4045757022670609
1769245670664,129,1,1.2407413636845237,1.7293623157048017,1.749906063029686
1769245670668,129,1,1.303445841624172,1.6677367407712096,1.8071826505580757
1769245670672,129,1,0.9534960778219136,1.6255853571793342,1.4528933583404595
1769245670676,128,0,0.2342183457917817,0.7834261152592301,0.7304491699905618
1769245670680,127,-1,-0.6733607645447606,-0.4761328825185005,-0.1793088537626717
1769245670684,126,-2,-1.5478391711370845,-1.144841027588515,-1.05566785981702
1769245670688,126,-2,-2.222990328159,-1.5145888255786963,-1.7337653237555617
1769245670692,125,-3,-2.628122489846467,-2.1790301035502924,-2.1440776185371586
1769245670696,125,-3,-2.7795502903661817,-2.4195665373347777,-2.3026045946239035
1769245670700,125,-3,-2.7602440359231575,-2.279051572919373,-2.2904232964781297
1769245670704,125,-3,-2.6982483890612503,-2.315819679858602,-2.233560882808827
1769245670708,125,-3,-2.7236592635159877,-2.3986304321089675,-2.2617551984026543
1769245670712,125,-3,-2.8985155292539115,-2.2672207414459686,-2.438769080543508
1769245670716,125,-3,-3.1619090269667964,-2.373661819446878,-2.7058437152824792
1769245670720,124,-4,-3.356173546265028,-3.2873243635589717,-2.9057446577360446
1769245670724,124,-4,-3.345023085900642,-3.33356946644954,-2.900785778959455
1769245670728,125,-3,-3.131992606426451,-2.3828151361999153,-2.693066363836356
1769245670732,125,-3,-2.862329947206172,-2.2960941174008624,-2.427598602136907
1769245670736,125,-3,-2.700382577862174,-2.353038003963745,-2.2695570874634448
1769245670740,125,-3,-2.697329862343325,-2.280398732504592,-2.271588239709524
1769245670744,125,-3,-2.7629418047049814,-2.38931785054404,-2.344647420587044
1769245670748,125,-3,-2.753294412908537,-2.302420267870621,-2.343660869272993
1769245670752,125,-3,-2.595941832142789,-2.4247344392425134,-2.191895925408672
1769245670756,125,-3,-2.3504580071935015,-2.182435892097246,-1.945174114900703
1769245670760,126,-2,-2.147482102522934,-1.473510749956751,-1.7368669984408327
1769245670764,126,-2,-2.0536945976078993,-1.1931892568578997,-1.6436003588857535
1769245670768,126,-2,-2.005885643794752,-1.5225257028103014,-1.6110735320126417
1769245670772,125,-3,-1.9116972866463011,-2.2185175825251204,-1.544361761271615
1769245670776,125,-3,-1.7944517912270792,-2.376124541845454,-1.451594041430637
1769245670780,126,-2,-1.6846011075459035,-1.292377962307266,-1.3467069358982535
1769245670784,128,0,-1.1369937910353074,0.6359243477208576,-0.7807922592235625
1769245670788,130,2,1.2441697674337808,2.638742792247397,1.6288037115682297
1769245670792,135,7,7.568964843208432,7.59497893909932,7.971204837580778
1769245670796,146,18,19.387726241687066,18.84787403908078,19.78242089638507
1769245670800,162,34,36.00065469570437,34.44241355916857,36.36354564685017
1769245670804,180,52,53.67468114585964,52.97449673804024,53.995097357879
1769245670808,197,69,66.76464555063004,69.24785569828694,67.04904369265242
1769245670812,200,72,70.41143038523869,72.97260191155942,70.67941833217952
1769245670816,191,63,63.16143990763574,63.362243016978624,63.43798578662583
1769245670820,174,46,47.72375546663534,46.86346012497721,48.028399096316576
1769245670824,156,28,29.38565416414918,28.550656572762033,29.721420722478793
1769245670828,140,12,13.25395889185288,12.716304410168735,13.603795174886027
1769245670832,130,2,2.128394390547144,2.6370751869500766,2.464363966107322
1769245670836,125,-3,-3.9070435275094977,-2.3122166246029994,-3.6068182437088665
1769245670840,122,-6,-6.407911768133387,-5.468863937213068,-6.146287159432845
1769245670844,120,-8,-7.110838768619773,-7.193280573114957,-6.871571472732827
1769245670848,120,-8,-7.092860809915766,-7.539173233613776,-6.853159672629716
1769245670852,120,-8,-6.774752177237182,-7.080952152634301,-6.521121704804268
1769245670856,122,-6,-6.3154611126103894,-5.60022114746902,-6.051021314928638
1769245670860,122,-6,-5.871015427795242,-5.199784406255695,-5.6095769364128625
1769245670864,122,-6,-5.576277699620555,-5.526613190404931,-5.329649012290925
1769245670868,122,-6,-5.44364683717514,-5.194056756733517,-5.213469926354032
1769245670872,122,-6,-5.371199865239225,-5.407733084710665,-5.150869349018785
1769245670876,122,-6,-5.250954637701232,-5.274227932790182,-5.033674219858353
1769245670880,123,-5,-5.046184396295453,-4.516176404999624,-4.831005333665058
1769245670884,123,-5,-4.7689235207171325,-4.29520539627303,-4.55994627259037
1769245670888,123,-5,-4.420899503450285,-4.377038078144141,-4.221749976510194
1769245670892,123,-5,-3.992668096451528,-4.258735147259658,-3.8027101397685423
1769245670896,124,-4,-3.513626302319038,-3.3690251055901053,-3.329781535045946
1769245670900,125,-3,-3.0585510424074585,-2.4821963712100006,-2.87971097301025
1769245670904,125,-3,-2.6764288881815017,-2.3314111825251302,-2.504596855872206
1769245670908,125,-3,-2.331365038596016,-2.3670280670985697,-2.1684391288667295
1769245670912,125,-3,-1.945800978187643,-2.243798488921427,-1.790762264385556
1769245670916,126,-2,-1.499441745921709,-1.386672840321978,-1.3498151655263233
1769245670920,127,-1,-1.0536112341369797,-0.4838118822952522,-0.9090098291370272
1769245670924,127,-1,-0.6655029262582506,-0.3469162341324379,-0.5283099978129151
1769245670928,127,-1,-0.3069521550360479,-0.3674441154573421,-0.1792901405921311
1769245670932,127,-1,0.0989596047980816,-0.2271837687804818,0.2177965368696892
1769245670936,128,0,0.5675474509137111,0.5845194908629108,0.6799012871514738
1769245670940,129,1,1.0169401012470347,1.5333379750282092,1.1237537016184171
1769245670944,129,1,1.3653264234596327,1.630666967204382,1.4653933448646144
1769245670948,129,1,1.6487949702884768,1.6221593098741105,1.740914788696983
1769245670952,129,1,2.0153942997606773,1.824237400236493,2.1000910645161843
1769245670956,130,2,2.594011662819746,2.467688395161491,2.6724555584637217
1769245670960,131,3,3.3752047276441415,3.7025070068423753,3.4470909603110966
1769245670964,132,4,4.21768766119534,4.398112003818521,4.28120841365158
1769245670968,132,4,4.956922142747123,4.8912731177231406,5.010954434649923
1769245670972,133,5,5.507329153783079,5.523091583653878,5.55294063534347
1769245670976,133,5,5.889341621853331,5.759479325624913,5.928729284865316
1769245670980,134,6,6.1958561427896965,6.404273929784336,6.230178113551242
1769245670984,134,6,6.54081453862576,6.686216476344865,6.569440816171115
1769245670988,134,6,7.00943919716366,6.608388591376475,7.030935014792027
1769245670992,135,7,7.618018511046436,7.786633536649578,7.631255124752037
1769245670996,136,8,8.302156414100939,8.49815409981792,8.306687904566465
1769245671000,136,8,8.945056236127169,8.627473539107372,8.94115700612915
1769245671004,137,9,9.429890562648083,9.497542957453346,9.418389433123348
1769245671008,137,9,9.690154050481564,9.75416327188973,9.671892626519742
1769245671012,137,9,9.739583406282623,9.653032644214882,9.71491438969946
1769245671016,137,9,9.66767334327227,9.610321530768204,9.636497226615676
1769245671020,137,9,9.5972354317785,9.493760539028328,9.559385098544094
1769245671024,137,9,9.623548210301628,9.658197782679464,9.57901436466649
1769245671028,137,9,9.768003785875637,9.550818264001768,9.716728475837684
1769245671032,137,9,9.969044308155157,9.887613127473058,9.910485934832996
1769245671036,138,10,10.108898592576637,10.321828704016726,10.04209736946456
1769245671040,137,9,10.051340627627148,9.801977674999952,9.975857284231376
1769245671044,137,9,9.66541061170078,9.328681019512771,9.582131866654676
1769245671048,136,8,8.841070682761409,8.870617960598437,8.751603916573972
1769245671052,135,7,7.523012151889663,7.580978151901042,7.428170763226461
1769245671056,133,5,5.756536070076153,5.562794813327178,5.655687716030247
1769245671060,131,3,3.695436407725995,3.627784588710964,3.587405445787484
1769245671064,129,1,1.5384303618137816,1.4051399589586722,1.4228337166263365
1769245671068,126,-2,-0.5687712959115334,-1.114230482518732,-0.6913076910182765
1769245671072,125,-3,-2.581996333417978,-2.5373995439211376,-2.7109426685192446
1769245671076,123,-5,-4.511012826573648,-4.241757474223748,-4.646771331817901
1769245671080,121,-7,-6.326650884828755,-6.650681202575521,-6.469799637360124
1769245671084,119,-9,-7.926341211102917,-8.266511592559592,-8.076424687686162
1769245671088,118,-10,-9.195441301343976,-9.491384614796294,-9.351330281742817
1769245671092,117,-11,-10.091577826625736,-10.158347047535976,-10.252997390071986
1769245671096,117,-11,-10.663269034159514,-10.610976981802832,-10.831189480619818
1769245671100,116,-12,-11.00003457721085,-11.32583744008441,-11.175348011108117
1769245671104,116,-12,-11.177974104372508,-11.543609232394312,-11.360435292031656
1769245671108,116,-12,-11.242590659885131,-11.310684581687754,-11.431370542755722
1769245671112,116,-12,-11.21827036263215,-11.257113667822596,-11.412953860643846
1769245671116,116,-12,-11.122547978949935,-11.616126802883178,-11.32315608034494
1769245671120,116,-12,-10.9767931479177,-11.225009721804488,-11.18331320119166
1769245671124,117,-11,-10.805586337545437,-10.747090371898556,-11.01799271660151
1769245671128,116,-12,-10.621320304734247,-11.061395450017088,-10.839803127964387
1769245671132,117,-11,-10.412042997790747,-10.548296082157508,-10.636788292617736
1769245671136,117,-11,-10.1550522683251,-10.326062119271818,-10.385860195596631
1769245671140,117,-11,-9.848866699853428,-10.493582946241643,-10.085342109176546
1769245671144,118,-10,-9.527789148716874,-9.549187882112657,-9.769979290912852
1769245671148,118,-10,-9.236845080696812,-9.194646148124384,-9.485227056460982
1769245671152,118,-10,-8.992327953956016,-9.521465239446435,-9.246845008325453
1769245671156,118,-10,-8.77333011228824,-9.254761536029262,-9.032985976012188
1769245671160,119,-9,-8.547772406823572,-8.665789105874223,-8.811776082457454
1769245671164,119,-9,-8.294894993396273,-8.324832202073667,-8.563766641111576
1769245671168,119,-9,-8.008700208827182,-8.467514411463629,-8.28359542462972
1769245671172,119,-9,-7.703209634156883,-8.247065920707405,-7.984490065477769
1769245671176,120,-8,-7.421701393365361,-7.526977873454468,-7.708743266451353
1769245671180,120,-8,-7.220769622246431,-7.425244365479891,-7.512850031817021
1769245671184,120,-8,-7.124502164787962,-7.554528882420882,-7.421269752718135
1769245671188,120,-8,-7.090616587462864,-7.270699594018636,-7.391840698671584
1769245671192,120,-8,-7.027023533142617,-7.433230897416158,-7.33246854789626
1769245671196,120,-8,-6.848620792594019,-7.377044496227655,-7.158386852764435
1769245671200,121,-7,-6.528947450284047,-6.549444675264512,-6.843639276427696
1769245671204,121,-7,-6.112128494093647,-6.477658722287083,-6.4323239552780445
1769245671208,121,-7,-5.6867510761174325,-6.321977874514312,-6.012363392200311
1769245671212,122,-6,-5.3430961442761085,-5.427334930930452,-5.673518070445001
1769245671216,122,-6,-5.132587490681328,-5.369572441447394,-5.467277404182773
1769245671220,122,-6,-5.04846878062035,-5.58727218443356,-5.38707710244095
1769245671224,122,-6,-5.042419947415826,-5.43032607105313,-5.384645749192885
1769245671228,122,-6,-5.0632107855563415,-5.395990266792989,-5.409036837392535
1769245671232,122,-6,-5.081862367798202,-5.361426071754628,-5.43179490888667
1769245671236,122,-6,-5.088841974718978,-5.43854350106673,-5.443454167776796
1769245671240,122,-6,-5.082448328748155,-5.541053739289441,-5.441642705269045
1769245671244,122,-6,-5.066871649301127,-5.468187094192723,-5.429890324444959
1769245671248,122,-6,-5.053514688865094,-5.391415143806005,-5.419763192538777
1769245671252,122,-6,-5.052552295353845,-5.3645887857938455,-5.422184216281482
1769245671256,122,-6,-5.060977867981258,-5.450342035594451,-5.434506336308167
1769245671260,122,-6,-5.0649597203976935,-5.537892436980469,-5.442443764711427
1769245671264,122,-6,-5.057138262479153,-5.480798891249291,-5.437999794867016
1769245671268,122,-6,-5.046928307720751,-5.397508347855322,-5.430583776777558
1769245671272,122,-6,-5.048172745469898,-5.367062954361216,-5.43463857487247
1769245671276,122,-6,-5.058556145255921,-5.454819920811184,-5.44831415082445
1769245671280,122,-6,-5.059045049702107,-5.547361132256182,-5.452428008066685
1769245671284,122,-6,-5.038164789554132,-5.481222595104681,-5.4350152342185565
1769245671288,122,-6,-5.012887580892582,-5.41406060276259,-5.412755584986715
1769245671292,122,-6,-5.017187741046014,-5.36321569503677,-5.419690119232147
1769245671296,122,-6,-5.0638380104868705,-5.454920474228911,-5.468797406244151
1769245671300,122,-6,-5.116130829439596,-5.577871240744028,-5.523490132833715
1769245671304,122,-6,-5.100936572099307,-5.441920973820048,-5.510620380509759
1769245671308,122,-6,-4.959051088023333,-5.49408967150619,-5.370955168778571
1769245671312,122,-6,-4.694581993290658,-5.269489416010644,-5.108809801856824
1769245671316,123,-5,-4.380901545972819,-4.568953941282165,-4.797959168107807
1769245671320,123,-5,-4.115654353582316,-4.4697144928911445,-4.536035762846222
1769245671324,123,-5,-3.963723708658643,-4.5654282567143145,-4.387097158550317
1769245671328,123,-5,-3.9334324333172512,-4.394576591329564,-4.358566911372022
1769245671332,123,-5,-3.989798114509778,-4.371535623543492,-4.415642397157168
1769245671336,123,-5,-4.075883034667541,-4.481200210112188,-4.502609057245025
1769245671340,123,-5,-4.126565019248415,-4.559674989990177,-4.555289976663506
1769245671344,123,-5,-4.085222973985678,-4.491234277709227,-4.516690852481223
1769245671348,123,-5,-3.929864486664299,-4.496015550389794,-4.36361356456515
1769245671352,123,-5,-3.6890335281512727,-4.264189167548698,-4.124056074966494
1769245671356,124,-4,-3.4211583301322257,-3.616216756394016,-3.8572142470833
1769245671360,124,-4,-3.165974922051971,-3.4088339499543108,-3.603774253219614
1769245671364,124,-4,-2.9171312558445024,-3.677592954017261,-3.3571594132431617
1769245671368,124,-4,-2.6475787353269133,-3.324021892918078,-3.0893106017649457
1769245671372,125,-3,-2.352848274353895,-2.4422394971936856,-2.795341928091149
1769245671376,125,-3,-2.054541960829477,-2.4632309967154375,-2.4973430289780816
1769245671380,125,-3,-1.7623043906067943,-2.532362892029969,-2.205658662706677
1769245671384,126,-2,-1.4447495647277644,-1.6117509534270835,-1.8893517563158435
1769245671388,126,-2,-1.0461467814535317,-1.3743526143459892,-1.4926079150368936
1769245671392,126,-2,-0.5401680897905017,-1.4449383281551746,-0.9883144573469824
1769245671396,127,-1,0.0236853142540285,-0.4260493570307715,-0.4251890667013286
1769245671400,128,0,0.5326666100554203,0.4016565880659049,0.0838054784011314
1769245671404,128,0,0.8867402061446574,0.445937905680359,0.4376982416386815
1769245671408,128,0,1.0682133125179796,0.5434282066223596,0.6183436603377572
1769245671412,128,0,1.1293529378070963,0.6157248843319751,0.678408430782325
1769245671416,128,0,1.1081933894718858,0.5099022432099787,0.656429780029641
1769245671420,128,0,0.9625099189169904,0.4724487904593248,0.5101463396596775
1769245671424,128,0,0.5958201535390129,0.3401443801514869,0.1427626615911247
1769245671428,127,-1,-0.0434988178896524,-0.3452652223207213,-0.4972359775408796
1769245671432,126,-2,-0.8835058075796312,-1.5482538628172278,-1.3373392321608255
1769245671436,125,-3,-1.7453166382602086,-2.3029567909570337,-2.1984705291201356
1769245671440,125,-3,-2.440197738354427,-2.7392553933038988,-2.8925753333139355
1769245671444,124,-4,-2.86735233013891,-3.449771548346363,-3.31971014284669
1769245671448,124,-4,-3.0465309141394217,-3.57017733475069,-3.4997362004515957
1769245671452,124,-4,-3.0766966379303247,-3.356495771114667,-3.53100343007326
1769245671456,124,-4,-3.0600229689022505,-3.4842602495686887,-3.5149622771192695
1769245671460,124,-4,-3.047880490287897,-3.588567066369324,-3.5026192719854725
1769245671464,124,-4,-3.042070521609603,-3.5868911098226413,-3.4960308582123596
1769245671468,124,-4,-3.033236058117959,-3.4817407670203404,-3.4866370112909015
1769245671472,124,-4,-3.028651272117277,-3.4362793693987883,-3.482297678032122
1769245671476,124,-4,-3.0444327068964308,-3.4415333589905557,-3.4986113826538365
1769245671480,124,-4,-3.0805003089990683,-3.602187870150928,-3.5341251431548915
1769245671484,124,-4,-3.1097879420908976,-3.631186949767837,-3.5611831787252695
1769245671488,124,-4,-3.0913860009636034,-3.4056288088226494,-3.5404482994187148
1769245671492,124,-4,-2.99488631727489,-3.5924529439721233,-3.444381993779825
1769245671496,124,-4,-2.8208365228594947,-3.2282067486950043,-3.2746001100536044
1769245671500,125,-3,-2.6090720486633576,-2.877475348353596,-3.067602333186334
1769245671504,124,-4,-2.427598830453995,-3.3281070835996864,-2.885150108231271
1769245671508,125,-3,-2.33219782457934,-2.760225508988201,-2.7799025376543036
1769245671512,125,-3,-2.3048249790607467,-2.2432772642623013,-2.7391565543823955
1769245671516,125,-3,-2.2293707611197267,-2.5827726340347232,-2.658538236283148
1769245671520,125,-3,-1.982432562539121,-2.542602492956962,-2.42305426108565
1769245671524,125,-3,-1.608703636038974,-2.649399391980248,-2.073177722233728
1769245671528,125,-3,-1.366650701587684,-2.509175294193322,-1.850830614169446
1769245671532,126,-2,-1.4059797822067006,-1.4612131734314129,-1.888250110572125
1769245671536,127,-1,-1.1425333541076168,-0.4113861760406609,-1.5970617701056011
1769245671540,129,1,1.1487697494054716,1.3212141766525374,0.73344292048019
1769245671544,135,7,7.866851499572693,7.442839392222647,7.478095746998703
1769245671548,147,19,20.595314309883378,19.399221514728097,20.203754293062637
1769245671552,163,35,38.35456261052518,35.61659518405726,37.93286215253282
1769245671556,183,55,56.94203701846029,55.54255010053165,56.48026259667765
1769245671560,200,72,70.29177936230236,72.3537907613432,69.79998086698077
1769245671564,203,75,73.40498282197592,75.34770306449329,72.9063066732712
1769245671568,192,64,65.05331633403641,64.38028690956045,64.57431887135175
1769245671572,174,46,48.402049856080744,46.56597754984382,47.96165599656229
1769245671576,155,27,29.16001478057823,27.56071908456416,28.759024061306352
1769245671580,139,11,12.609570409115475,11.445615378682591,12.228296934404868
1769245671584,129,1,1.4524819572843013,1.3106740902944525,1.061556713288219
1769245671588,124,-4,-4.461051239515509,-3.5327405434102612,-4.882857487605406
1769245671592,121,-7,-6.8771539756482705,-6.614763887680453,-7.330697681176228
1769245671596,119,-9,-7.580761928624772,-8.293315026780082,-8.047981465905446
1769245671600,119,-9,-7.581005649812341,-8.71459386682929,-8.03831559657998
1769245671604,119,-9,-7.221085596130431,-8.520547718027672,-7.655221417866408
1769245671608,121,-7,-6.660784867992943,-6.684411909683939,-7.076057716289853
1769245671612,122,-6,-6.12806453764785,-5.558313699547937,-6.539969438836455
1769245671616,121,-7,-5.818877577171239,-6.343352935557313,-6.239821604238177
1769245671620,121,-7,-5.7385607855622185,-6.724592743107195,-6.1685642026884056
1769245671624,121,-7,-5.733181171031062,-6.435953617930319,-6.163395222147085
1769245671628,122,-6,-5.6496539150542615,-5.835038765115706,-6.0732369039015595
1769245671632,122,-6,-5.427915160384322,-5.394399726558501,-5.846025507718318
1769245671636,122,-6,-5.073857051005679,-5.566192050191327,-5.491819348699264
1769245671640,122,-6,-4.617077785535356,-5.508977412370008,-5.037370485199423
1769245671644,123,-5,-4.117209000145424,-4.623382639264886,-4.537808215720164
1769245671648,124,-4,-3.661877866678952,-3.7002963833340026,-4.080174704527824
1769245671652,124,-4,-3.304737928339514,-3.503961270857931,-3.720669844711446
1769245671656,124,-4,-3.0052386712833687,-3.5408193328964677,-3.4201109004487815
1769245671660,124,-4,-2.661493720068127,-3.4964610015087345,-3.075504770015388
1769245671664,125,-3,-2.213663812502137,-2.687658409840501,-2.6259931647208656
1769245671668,126,-2,-1.6989990242588655,-1.5963966418457385,-2.109608755451532
1769245671672,126,-2,-1.1999825976449938,-1.6646903323849385,-1.6098909418126142
1769245671676,126,-2,-0.7582012398527533,-1.383019929764017,-1.1679528582738363
1769245671680,127,-1,-0.3525979996373038,-0.686731817882851,-0.7614938931688235
1769245671684,127,-1,0.0526280555390714,-0.509828885589394,-0.3544869068787533
1769245671688,128,0,0.4600810228748655,0.23812971871435,0.0547754445533832
1769245671692,128,0,0.8398060973544932,0.4690886089705187,0.435621613050275
1769245671696,128,0,1.1666055954272692,0.471160997999511,0.7630039984154247
1769245671700,129,1,1.4551851810108969,1.413403869869409,1.0522525992497802
1769245671704,129,1,1.7647976394433909,1.4108634647375973,1.3632134543116337
1769245671708,129,1,2.1678154561133085,1.273183934486506,1.768383785470346
1769245671712,130,2,2.7059599270243084,2.4771075034304095,2.308673584138444
1769245671716,131,3,3.373439917404633,3.370848241391788,2.977098966273699
1769245671720,131,3,4.134266204676408,3.548506839070064,3.737700913116581
1769245671724,132,4,4.93898432308076,4.2202316402809945,4.54253627456701
