timestamp_ms,ecg_u8_raw,ecg_counts_raw_int,ecg_counts_filt_monitor,ecg_counts_filt_diagnostic,ecg_counts_filt_st
1770447413864,128,0,0.6391564411074826,1.0955949081364431,1.511315141012446
1770447413868,128,0,0.6187178831569491,1.3923113630822517,1.4838250304866394
1770447413872,128,0,0.6561982481047779,1.1742026655612232,1.514121081444414
1770447413876,128,0,0.8843514908491079,1.492923186610523,1.73393999908952
1770447413880,129,1,1.3609579459565255,2.159327554152581,2.2009561379933507
1770447413884,129,1,2.0272225514492535,2.3192801886533827,2.8575981100986323
1770447413888,130,2,2.7281966426478093,3.2048791627639175,3.5500542574133744
1770447413892,131,3,3.299592063531526,4.2950840699595005,4.113666812024152
1770447413896,131,3,3.6733018201033496,4.4223894742080345,4.479261202907962
1770447413900,131,3,3.912212661104814,4.172749161239151,4.709748457505867
1770447413904,131,3,4.131835830260012,4.375464048020107,4.921561078837695
1770447413908,132,4,4.3839264204282085,5.0966058712901186,5.166470452471217
1770447413912,132,4,4.62262891259192,5.430641480743878,5.397428639764984
1770447413916,132,4,4.776470092137388,5.268160631434514,5.54230433109407
1770447413920,132,4,4.8310181269552475,5.32241411423064,5.587594430798397
1770447413924,132,4,4.8307539325159885,5.263820774081938,5.579128769765944
1770447413928,132,4,4.8115769017799215,5.148033630054079,5.552885029374393
1770447413932,132,4,4.746458906306689,5.441481953329304,5.480618113851644
1770447413936,132,4,4.558367675068215,5.191039430804069,5.284318351618214
1770447413940,131,3,4.177244765833104,4.458089370816767,4.894279201616786
1770447413944,131,3,3.5820065726519794,4.093010882147027,4.290489541699458
1770447413948,130,2,2.8002320030627708,3.326836337190116,3.501050063457994
1770447413952,129,1,1.883094838705735,2.2587844384761935,2.576798793318492
1770447413956,128,0,0.8826222224630789,1.3650569979153273,1.569204030103397
1770447413960,127,-1,-0.1572949190329176,0.3074971802063266,0.521861138837582
1770447413964,126,-2,-1.1990431463621167,-0.7775485172746359,-0.5276886515317831
1770447413968,125,-3,-2.2078274833551146,-1.789355137593259,-1.5446061886647264
1770447413972,124,-4,-3.1548522086123025,-2.645915859744066,-2.499829051039331
1770447413976,123,-5,-4.026745118683385,-3.7151319446764166,-3.3795350267142696
1770447413980,122,-6,-4.828859590179114,-4.616036843278876,-4.188908477918916
1770447413984,122,-6,-5.568211105616625,-4.849343020568273,-4.935322795391615
1770447413988,121,-7,-6.223952685013376,-5.728125985409727,-5.5982299019099235
1770447413992,120,-8,-6.740365070775176,-6.70794819849959,-6.121650331139153
1770447413996,120,-8,-7.062467733131342,-6.656605011833879,-6.4504252571902825
1770447414000,120,-8,-7.183386772737544,-6.6616861077074985,-6.578305844161021
1770447414004,120,-8,-7.156798099799386,-6.819274552254129,-6.559691499459314
1770447414008,120,-8,-7.069280569669495,-6.7410335166705275,-6.480752569340622
1770447414012,120,-8,-7.00240143167324,-6.721018820019012,-6.42169012146735
1770447414016,120,-8,-7.004028770417462,-6.635756845065113,-6.429524393444857
1770447414020,120,-8,-7.069245684206312,-6.6772427510544015,-6.49996199521169
1770447414024,120,-8,-7.136559978565218,-6.8180074617763085,-6.572980358339625
1770447414028,120,-8,-7.115411519394544,-6.719538735634446,-6.5588689640166375
1770447414032,120,-8,-6.9453093239753505,-6.778466348391403,-6.396623586477628
1770447414036,120,-8,-6.650247946576646,-6.553342642458227,-6.109094529101254
1770447414040,121,-7,-6.335509276824092,-5.77811894558437,-5.8010411263965
1770447414044,121,-7,-6.113387487673157,-5.694977596447224,-5.585115434862884
1770447414048,121,-7,-6.015140259230088,-5.865239531358291,-5.493035092777596
1770447414052,121,-7,-5.969911085161312,-5.6232954545757226,-5.453958957203565
1770447414056,121,-7,-5.870914463274029,-5.732925224089174,-5.360961101925876
1770447414060,121,-7,-5.6660022268126715,-5.578738345740554,-5.162081281321601
1770447414064,122,-6,-5.389307260687087,-4.895107823460611,-4.891836430779456
1770447414068,122,-6,-5.111097267411634,-4.664999267706503,-4.620380472516556
1770447414072,122,-6,-4.863207689374375,-4.830705608359411,-4.378763187633476
1770447414076,122,-6,-4.614276755678611,-4.54178326767887,-4.135111708177183
1770447414080,123,-5,-4.309848279447494,-3.757040253100712,-3.8355046465784586
1770447414084,123,-5,-3.934217052745866,-3.723908308481292,-3.4651753309960616
1770447414088,123,-5,-3.5471288027114767,-3.812778615022276,-3.084272547449173
1770447414092,124,-4,-3.269752124524625,-2.7228651032023667,-2.813841470858799
1770447414096,124,-4,-3.219874551724911,-2.6232836085901297,-2.771108634286414
1770447414100,123,-5,-3.4374168335322617,-3.719705678657955,-2.9947874597710658
1770447414104,123,-5,-3.8581923589192697,-3.7069580499065378,-3.4196701335675304
1770447414108,123,-5,-4.346141858973459,-3.866450126890901,-3.910348354466505
1770447414112,122,-6,-4.745278963696102,-4.665964891931774,-4.312909466329257
1770447414116,122,-6,-4.927711699815623,-4.673775513167683,-4.500845217068761
1770447414120,122,-6,-4.843349060809011,-4.697703131463198,-4.423449650091063
1770447414124,122,-6,-4.5579504312890435,-4.675485946558654,-4.144863781179582
1770447414128,123,-5,-4.235024450798484,-3.9582981002731543,-3.8277360148729698
1770447414132,123,-5,-4.042482256780526,-3.518519915499371,-3.64011905561811
1770447414136,123,-5,-4.041055559050449,-3.897704132634832,-3.6427798403306495
1770447414140,122,-6,-4.148770999154102,-4.40504487059304,-3.753515284430353
1770447414144,123,-5,-4.210946404025403,-4.026234883003985,-3.818345406781453
1770447414148,123,-5,-4.10807882372381,-3.5697738028428807,-3.7194238596354863
1770447414152,123,-5,-3.821285790320386,-3.920492386528215,-3.438518702269937
1770447414156,123,-5,-3.435225474600005,-3.5219101418959418,-3.058902581727767
1770447414160,124,-4,-3.0931891169239982,-2.722607088997008,-2.72208290935294
1770447414164,124,-4,-2.9182296601787066,-2.804216160601427,-2.550834927102387
1770447414168,124,-4,-2.9352068098529216,-2.6850954320591645,-2.570940459504831
1770447414172,124,-4,-3.0540814449316915,-2.914402963229118,-2.692992331811522
1770447414176,123,-5,-3.139664051805317,-3.443513843114584,-2.781778712999724
1770447414180,124,-4,-3.112586131760082,-2.870404146324036,-2.758077341621786
1770447414184,124,-4,-2.9930760418637465,-2.6146083013513404,-2.6426391635389592
1770447414188,124,-4,-2.8592946503293746,-2.8899770923478805,-2.513639658654633
1770447414192,124,-4,-2.775635210686872,-2.713327786410817,-2.4345988753765506
1770447414196,124,-4,-2.7574412241805604,-2.637452817161091,-2.4200075073718357
1770447414200,124,-4,-2.7833280257746615,-2.7138401625358175,-2.4485253076911557
1770447414204,124,-4,-2.823703439656105,-2.7338037082802615,-2.4912817877745774
1770447414208,124,-4,-2.856941092866507,-2.796065266988939,-2.527333974617899
1770447414212,124,-4,-2.8665459704462624,-2.7899821283434365,-2.5404186835317484
1770447414216,124,-4,-2.830442184000866,-2.5821500136058466,-2.508119021439939
1770447414220,124,-4,-2.7202841062333527,-2.7699656930162635,-2.401347716629491
1770447414224,124,-4,-2.5165936464836296,-2.6842424460633,-2.200158382234413
1770447414228,125,-3,-2.2224017684635653,-1.823245602145508,-1.9079767166139303
1770447414232,125,-3,-1.8570419928541115,-1.791407272264183,-1.544979903913002
1770447414236,125,-3,-1.4403732585913107,-1.563182776211095,-1.1313742920843006
1770447414240,126,-2,-0.9912220530613682,-0.8194854627677334,-0.6856403130779775
1770447414244,126,-2,-0.5382659712845217,-0.6196848034064912,-0.2359234871499821
1770447414248,127,-1,-0.1192418505526493,0.1065889962959159,0.1804973164680774
1770447414252,127,-1,0.2401097052176783,0.2875571819904077,0.5382210203729131
1770447414256,127,-1,0.549028144358835,0.334018173649208,0.84630517243817
1770447414260,128,0,0.8539436027060077,1.2900972377931077,1.150236388274967
1770447414264,128,0,1.209267735586668,1.254235340857922,1.5034727343848846
1770447414268,128,0,1.6226644320792798,1.252390097145177,1.913660945062145
1770447414272,129,1,2.009373859752144,2.1303332512672206,2.2968121626450633
1770447414276,129,1,2.2088590022333636,2.4904660412922848,2.493242322196095
1770447414280,129,1,2.0765146068852527,2.110432629551638,2.359047015181574
1770447414284,128,0,1.587774320123826,1.448689196133932,1.869945534866938
1770447414288,128,0,0.872207806993389,1.0512534236915865,1.1548016615242072
1770447414292,127,-1,0.1504145591911936,0.3204672041697646,0.4328033807949121
1770447414296,126,-2,-0.3883826212027386,-0.6769350866007352,-0.1076524798519051
1770447414300,126,-2,-0.6943329752188869,-0.7819118766083157,-0.4163384613892991
1770447414304,126,-2,-0.8755970261636856,-0.5796553093657786,-0.6004823343233612
1770447414308,126,-2,-1.1058969153821112,-1.007471192806645,-0.8330051320735621
1770447414312,125,-3,-1.4886701985721438,-1.5383888816979123,-1.2168527114245045
1770447414316,125,-3,-1.9846995162600132,-1.9004268098326016,-1.712832122198705
1770447414320,124,-4,-2.4524866441924527,-2.524734403542758,-2.1801560073848387
1770447414324,124,-4,-2.7571216174706814,-2.849633088256211,-2.4849008483152675
1770447414328,124,-4,-2.85905715109723,-2.7420235785934963,-2.5879944873357443
1770447414332,124,-4,-2.823032573950452,-2.772862033860372,-2.55375064187046
1770447414336,124,-4,-2.755057746107081,-2.7224005064337753,-2.4872729703002174
1770447414340,124,-4,-2.7261654952249548,-2.6649502467819275,-2.459072630860625
1770447414344,124,-4,-2.7400529042986186,-2.758425514783906,-2.473151855105435
1770447414348,124,-4,-2.7585694363785667,-2.789211994854662,-2.492020927482805
1770447414352,124,-4,-2.7534529350106087,-2.754365800022074,-2.48756658616252
1770447414356,124,-4,-2.7369321275038816,-2.733247121021165,-2.4714046984409195
1770447414360,124,-4,-2.745619927335399,-2.677612545389398,-2.4795405627386637
1770447414364,124,-4,-2.7935724881045845,-2.734126328508298,-2.526455853948633
1770447414368,124,-4,-2.839326234041881,-2.825917494880106,-2.5721255588871386
1770447414372,124,-4,-2.8043998795547953,-2.6991631043757205,-2.539036574395268
1770447414376,124,-4,-2.638420317941278,-2.818894482951854,-2.3757658547706906
1770447414380,124,-4,-2.376362386676744,-2.588448038393741,-2.1145975084017774
1770447414384,125,-3,-2.122290752216953,-1.8263705550695624,-1.85763500867606
1770447414388,125,-3,-1.9540616676796736,-1.7378777917652268,-1.6836610709657864
1770447414392,125,-3,-1.8361877372861592,-1.7708164766058794,-1.5609962853886912
1770447414396,125,-3,-1.6463413795618391,-1.7844051333905775,-1.371799569467704
1770447414400,125,-3,-1.310825703646886,-1.610817125623169,-1.044259540063955
1770447414404,126,-2,-0.9013221736797792,-0.8317496993840638,-0.6467430937540617
1770447414408,126,-2,-0.5263785859191012,-0.6900411493153567,-0.279834846942372
1770447414412,127,-1,-0.0067070355663245,0.145391356664657,0.243529398621543
1770447414416,129,1,1.4491146179743035,2.322502504680747,1.7161322269800208
1770447414420,132,4,5.227324877933208,5.236827688307569,5.5167257885042265
1770447414424,139,11,12.733958994206608,12.340858196132675,13.038822181722498
1770447414428,151,23,24.42239430120361,24.16895468475418,24.72597374394205
1770447414432,165,37,38.97914978682586,38.26861308784927,39.26420825688419
1770447414436,180,52,53.30027830084469,53.23202496774661,53.559329388740494
1770447414440,191,63,63.50306821957575,64.25451776249571,63.742883239141584
1770447414444,194,66,66.5663813322513,67.31440716052913,66.80411127642672
1770447414448,189,61,61.711667837155254,62.138530388552944,61.965432860162075
1770447414452,177,49,50.70804315201913,50.28837087507407,50.98758592376552
1770447414456,163,35,36.924541944312125,36.18622758957335,37.226795969711304
1770447414460,150,22,23.729398861949775,23.3417123371477,24.04102652197878
1770447414464,140,12,13.189031631471623,13.247479902382134,13.494326596145024
1770447414468,133,5,5.717125569799654,6.264304085180001,6.006614988969678
1770447414472,128,0,0.6373225398385944,1.1501492242225786,0.9120422410398838
1770447414476,124,-4,-2.9263767486588392,-2.7005510329037348,-2.657010888312451
1770447414480,121,-7,-5.4730664044900275,-5.7897424849121615,-5.197827785311851
1770447414484,119,-9,-7.1123885060906495,-7.6429281515884515,-6.8249783906617205
1770447414488,119,-9,-7.891651799396483,-7.800656209724738,-7.593637774481296
1770447414492,119,-9,-8.0529612577817,-7.817617907168485,-7.75134567684809
1770447414496,119,-9,-7.998372309008172,-7.722110617349692,-7.699736557036545
1770447414500,119,-9,-8.061672558153038,-7.816980249160439,-7.767348728709523
1770447414504,118,-10,-8.33500943539652,-8.60823132753283,-8.04091625756837
1770447414508,118,-10,-8.691568674266161,-8.832585939576052,-8.392455411640535
1770447414512,118,-10,-8.942940493818773,-8.780781575621152,-8.637011807354114
1770447414516,118,-10,-8.978484393417714,-8.768011207093956,-8.66828600034651
1770447414520,118,-10,-8.802400650219138,-8.792256220574892,-8.491756635539428
1770447414524,118,-10,-8.4927691017885,-8.631520594643664,-8.183313974790359
1770447414528,119,-9,-8.142034403550635,-7.812800040541784,-7.832412207826234
1770447414532,119,-9,-7.812586483090421,-7.787392797261328,-7.500151574968559
1770447414536,119,-9,-7.516445106465833,-7.784939498989338,-7.1994829712227135
1770447414540,120,-8,-7.218410374181514,-6.78218342485714,-6.897212387134539
1770447414544,120,-8,-6.859103592402858,-6.653865207058974,-6.535211554210566
1770447414548,120,-8,-6.395738015770018,-6.786927271528834,-6.0702443537339725
1770447414552,121,-7,-5.8444383421547474,-5.799797978652675,-5.517270978643803
1770447414556,122,-6,-5.284163070556769,-4.796246248390213,-4.954788389679508
1770447414560,122,-6,-4.804059760309799,-4.779901828713246,-4.4720888824266405
1770447414564,122,-6,-4.438775105331384,-4.662227293318699,-4.103795237350466
1770447414568,123,-5,-4.151724627394693,-3.7817798453018088,-3.813265308490328
1770447414572,123,-5,-3.873272986164387,-3.794356021666293,-3.531232898716585
1770447414576,123,-5,-3.554291050699138,-3.8258639765195177,-3.2091331723498024
1770447414580,124,-4,-3.195061319200115,-2.749284579276234,-2.8474589113764934
1770447414584,124,-4,-2.833755605292624,-2.704343509180511,-2.4840000698286966
1770447414588,124,-4,-2.5085825551190295,-2.745740148122078,-2.1562709422846096
1770447414592,125,-3,-2.223970659876782,-1.808369114466145,-1.8683497757153469
1770447414596,125,-3,-1.9411556843111468,-1.8544634719190076,-1.5817541233683567
1770447414600,125,-3,-1.5962956961428825,-1.7046886145291271,-1.2330753096859453
1770447414604,126,-2,-1.138027677957583,-0.7745507625354253,-0.7710689075953874
1770447414608,126,-2,-0.5636646483247085,-0.657678162303994,-0.193096309325466
1770447414612,127,-1,0.0724119692648717,0.085927902535288,0.4460728492525101
1770447414616,128,0,0.686657683696841,1.2625924877580863,1.0625568321986818
1770447414620,128,0,1.2070532361792012,1.1404195718524708,1.5849523451419067
1770447414624,128,0,1.5928521190025688,1.389596148219851,1.9738903643777552
1770447414628,129,1,1.8320846842885312,2.181312309925855,2.217948639175196
1770447414632,129,1,1.9468451298553493,2.2175542312008467,2.33810008312502
1770447414636,129,1,2.0103418040298777,2.1708097689712855,2.406005433986153
1770447414640,129,1,2.134872280510967,2.160573731234514,2.533597827016715
1770447414644,129,1,2.409043057156226,2.4264640084073976,2.8103313446599856
1770447414648,130,2,2.830110340347334,3.0771896583339173,3.234414622174577
1770447414652,130,2,3.300326374112827,3.3873032535597103,3.7083771643532257
1770447414656,131,3,3.701299211740049,3.936482523182956,4.113503100536454
1770447414660,131,3,3.985991823056055,4.428436910347029,4.40241167190519
1770447414664,131,3,4.206191752699071,4.117514916921531,4.626925597807768
1770447414668,131,3,4.447771521009919,4.38304194713857,4.873003436665593
1770447414672,132,4,4.733082289214213,5.114942533066416,5.162598413468698
1770447414676,132,4,4.982176922368919,5.145749297143669,5.415223585535317
1770447414680,132,4,5.063876675862685,5.286026181855915,5.499941529285849
1770447414684,132,4,4.882774786143553,5.165153676795851,5.322385465276223
1770447414688,131,3,4.428482788171157,4.400895782342279,4.872828153353247
1770447414692,131,3,3.7613799464775113,4.034541285155171,4.211067946790562
1770447414696,130,2,2.9614498202605377,3.272629677902203,3.415942549174336
1770447414700,129,1,2.0799837591370807,2.116482308306183,2.5384158995980437
1770447414704,128,0,1.119327450955949,1.3427328458198229,1.5815348470688857
1770447414708,127,-1,0.051066431795649,0.2125912684787025,0.5174344983695511
1770447414712,126,-2,-1.1343782210124238,-0.7953235457368781,-0.6637493580784697
1770447414716,125,-3,-2.38353283683925,-1.866812454396643,-1.9087911529815549
1770447414720,123,-5,-3.5885780627769144,-3.790358009459534,-3.1093089160752703
1770447414724,122,-6,-4.649327938030768,-4.730721756602308,-4.164710500084269
1770447414728,122,-6,-5.52324474849844,-4.745368355187162,-5.03330406366446
1770447414732,121,-7,-6.210242487955923,-5.824569291993356,-5.716013363375476
1770447414736,120,-8,-6.707210652834566,-6.839593554145856,-6.209192643405638
1770447414740,120,-8,-7.002880518762264,-6.823628087712617,-6.500239635728162
1770447414744,120,-8,-7.11375073180452,-6.726717932132037,-6.6056747257079165
1770447414748,120,-8,-7.101477884212245,-6.747896514994134,-6.588570488513213
1770447414752,120,-8,-7.047132951293501,-6.821756438289824,-6.530676989318617
1770447414756,120,-8,-7.0156416073840795,-6.841580156365688,-6.495788814691661
1770447414760,120,-8,-7.038788885589229,-6.829080348480294,-6.51413593044722
1770447414764,120,-8,-7.107288664795523,-6.7639074451299015,-6.576275181267316
1770447414768,120,-8,-7.16112871537779,-6.684597779220778,-6.62346837303743
1770447414772,120,-8,-7.099284862919802,-6.916249919424861,-6.555973988661425
1770447414776,120,-8,-6.8334092314477015,-6.701965755382438,-6.2857558832449705
1770447414780,121,-7,-6.362591271259336,-6.0295787953828786,-5.811465197096371
1770447414784,121,-7,-5.80389244176911,-5.548680772545453,-5.249484355723594
1770447414788,122,-6,-5.337212884693233,-4.925156715318343,-4.778885010849251
1770447414792,122,-6,-5.095902370453033,-4.663443925527837,-4.532208989237361
1770447414796,122,-6,-5.082918570104949,-4.941279417073181,-4.512374080222353
1770447414800,122,-6,-5.172187059232039,-4.853905895888415,-4.594576880745533
1770447414804,122,-6,-5.191782304354329,-4.680886347187566,-4.608577450892856
1770447414808,122,-6,-5.035928003138499,-4.870957054205496,-4.448920765392849
1770447414812,122,-6,-4.7390758184685,-4.625533422340077,-4.14868010065013
1770447414816,123,-5,-4.457947354047837,-4.049035394212883,-3.863270265238896
1770447414820,123,-5,-4.3555015300732505,-3.726601803037469,-3.755761775041475
1770447414824,123,-5,-4.465012739476235,-3.84509433729655,-3.859987305113841
1770447414828,122,-6,-4.656333247650242,-4.715414129425254,-4.045482293473044
1770447414832,122,-6,-4.745404392612756,-4.755999190242489,-4.127845344855446
1770447414836,123,-5,-4.642993620728488,-3.940670781521295,-4.01899245062685
1770447414840,123,-5,-4.401711581568722,-3.84123123866523,-3.773217207727788
1770447414844,123,-5,-4.141405018982114,-3.743855079769998,-3.5100798987253374
1770447414848,123,-5,-3.9548813899820248,-3.829869553586133,-3.3200394596254807
1770447414852,123,-5,-3.8763499632758727,-3.630279688815723,-3.235734589105265
1770447414856,124,-4,-3.897540294163692,-3.089734636121963,-3.249914222679811
1770447414860,123,-5,-3.9846338636729057,-3.6873188066441087,-3.3308106833576017
1770447414864,123,-5,-4.091220275309727,-3.925905760540013,-3.4326806574631945
1770447414868,123,-5,-4.181023306502107,-3.638516416458483,-3.5183143340336342
1770447414872,123,-5,-4.245699655318513,-3.837267188631217,-3.5782838344361654
1770447414876,123,-5,-4.294029268645875,-3.8855358737757206,-3.621112846352932
1770447414880,123,-5,-4.321070198822225,-3.8907367719234554,-3.6423315965953376
1770447414884,123,-5,-4.2913558817546855,-3.755499667948538,-3.607070026799705
1770447414888,123,-5,-4.159123591662161,-3.7927091592155873,-3.4697630311151575
1770447414892,123,-5,-3.914134610456752,-3.711848408679739,-3.219979450966099
1770447414896,124,-4,-3.611525104925062,-2.9958912050096145,-2.9126815284067304
1770447414900,124,-4,-3.349893651186976,-2.800401699846092,-2.64640058292839
1770447414904,124,-4,-3.209083648993109,-2.85531543630422,-2.500729068677975
1770447414908,124,-4,-3.1998566064056746,-2.702252981925031,-2.4860664974820024
1770447414912,124,-4,-3.2652206334199843,-2.8108888491690256,-2.545454377443139
1770447414916,124,-4,-3.3265848410423797,-2.905366417541098,-2.6009040962176453
1770447414920,124,-4,-3.336637749709405,-2.8866990244087565,-2.605823813061046
1770447414924,124,-4,-3.302981273056039,-2.796170438188707,-2.5680382626878617
1770447414928,124,-4,-3.270970842561186,-2.751089779861342,-2.532341798845482
1770447414932,124,-4,-3.282742303321539,-2.792857366101323,-2.5398214930015652
1770447414936,124,-4,-3.3423456362562947,-2.904237730760685,-2.593825685695872
1770447414940,124,-4,-3.406669787459618,-2.9238109609155147,-2.651617191201346
1770447414944,124,-4,-3.403901472795576,-2.7398350140021934,-2.6426044413024004
1770447414948,124,-4,-3.272337855578759,-2.846527155432849,-2.5060859899735135
1770447414952,124,-4,-3.0054437894505157,-2.679613178798241,-2.2355464989771288
1770447414956,125,-3,-2.6747987147619545,-2.037314846304281,-1.9017716111770413
1770447414960,125,-3,-2.402271422122388,-1.80107315750194,-1.6255914981482964
1770447414964,125,-3,-2.2870866073815246,-1.8541075715716575,-1.5054754817662317
1770447414968,125,-3,-2.3342564304359548,-1.7785340422822695,-1.546483452625625
1770447414972,125,-3,-2.435543620347387,-1.71175606845564,-1.6413348401249366
1770447414976,125,-3,-2.4223881696059086,-2.0588703041580634,-1.6226083386544068
1770447414980,125,-3,-2.1658196944609727,-1.7503055671729832,-1.3617494242504125
1770447414984,126,-2,-1.6614940342445328,-0.9248136724926924,-0.8539863079344635
1770447414988,126,-2,-1.036623462774144,-0.7340015655267998,-0.225868145371593
1770447414992,127,-1,-0.46597295439746,0.2771809348362414,0.3482741095941546
1770447414996,128,0,-0.0551829033235256,0.883920420237131,0.7632033245639809
1770447415000,127,-1,0.2183349385836179,0.3623296808840625,1.0420390799412256
1770447415004,128,0,0.4626346467002911,0.8861226481230088,1.2926937063774888
1770447415008,128,0,0.7746022255284322,1.50353735316632,1.6105438402575238
1770447415012,129,1,1.1770977652632555,1.9862477679636752,2.0168706309509505
1770447415016,129,1,1.6196572121214905,2.2003870070830067,2.461650422730825
1770447415020,129,1,2.007074637756202,2.03622383954136,2.85174786509877
1770447415024,130,2,2.2327605421836227,3.158179748606128,3.0816720174395313
1770447415028,130,2,2.226231909785952,3.2922648634185414,3.0800972502955033
1770447415032,129,1,1.9964404292837816,2.0940627004885,2.8548973985545296
1770447415036,129,1,1.6226013574094489,2.1973131560538066,2.485215299954535
1770447415040,129,1,1.1925720321345457,1.933312793121224,2.059134853531312
1770447415044,128,0,0.7519271010381812,1.300163270471471,1.6221509834483625
1770447415048,128,0,0.3072848885567891,1.128384157035054,1.1810104988806007
1770447415052,127,-1,-0.1382055313903163,0.2430588348209623,0.7393229779742603
1770447415056,127,-1,-0.5603402688656036,0.0686021722118843,0.3212685523413682
1770447415060,127,-1,-0.9169769521842864,0.0199985079525849,-0.0317061198699889
1770447415064,126,-2,-1.173434451889679,-0.7874200660048424,-0.2852152651330456
1770447415068,126,-2,-1.3364627346614382,-0.7940498067665679,-0.4453045008303036
1770447415072,126,-2,-1.468005267088425,-0.8332729759468824,-0.5732408896125796
1770447415076,126,-2,-1.648890469156319,-0.8731187225184771,-0.7502857824556897
1770447415080,126,-2,-1.90826432965889,-1.0349540206064087,-1.0064848218412468
1770447415084,125,-3,-2.18673665043187,-1.7769387594977002,-1.2823618008453643
1770447415088,125,-3,-2.3818879990316777,-1.7771070373071516,-1.4743808828648748
1770447415092,125,-3,-2.4386185172626043,-1.891859493107456,-1.5269123810913428
1770447415096,125,-3,-2.3922840457219507,-1.7832196146190669,-1.4764823329281744
1770447415100,126,-2,-2.320625152768611,-1.172248006323374,-1.4024835407075444
1770447415104,125,-3,-2.2633819896427463,-1.619449896359459,-1.3444423011002944
1770447415108,125,-3,-2.20528882008447,-1.9813176260333876,-1.2848493494191595
1770447415112,125,-3,-2.1339353126947,-1.6647352271176934,-1.2098493670146346
1770447415116,126,-2,-2.080560671420961,-1.040340497785048,-1.1520334683425544
1770447415120,126,-2,-2.077537969713428,-0.912792104682814,-1.145936615463504
1770447415124,125,-3,-2.094170415715423,-1.879754916132332,-1.1607914462780131
1770447415128,125,-3,-2.0524793614611507,-1.7667578217277695,-1.1169473706176882
1770447415132,126,-2,-1.91192496301156,-0.8513535673498178,-0.9736393196124477
1770447415136,126,-2,-1.716642153768028,-0.906327393772962,-0.7765760374774353
1770447415140,126,-2,-1.5550429618905528,-1.0005829293577415,-0.6147240841735796
1770447415144,126,-2,-1.488312239701702,-0.8350917250104729,-0.547312973115322
1770447415148,126,-2,-1.5160049840793834,-0.8186926520488919,-0.5714337247014516
1770447415152,126,-2,-1.5876991083189371,-0.8262899492995841,-0.6366093633553542
1770447415156,126,-2,-1.6374078491061346,-0.9249136211489788,-0.680016379424521
1770447415160,126,-2,-1.623334341612229,-0.9853717473723624,-0.6643516082382382
1770447415164,126,-2,-1.5538240855701664,-0.8519685512076243,-0.6003233967776991
1770447415168,126,-2,-1.4631492637849757,-0.8401280432206952,-0.5195095515937189
1770447415172,126,-2,-1.3007250345741137,-0.8098503198975385,-0.3638926545701518
1770447415176,127,-1,-0.7424449290536375,0.0469302668923394,0.1981429112602972
1770447415180,129,1,0.9769447523881748,2.062673507245085,1.9333062630621296
1770447415184,133,5,5.0235022969621115,6.0719052418016854,6.0006693301743965
1770447415188,140,12,12.54799888186645,13.244535152444316,13.539518081585822
1770447415192,151,23,23.937396992615657,24.065172229812127,24.92835337622499
1770447415196,165,37,38.101487934390725,38.21216003475252,39.07701667064029
1770447415200,180,52,52.33617678257238,52.87440485464288,53.2897419562497
1770447415204,191,63,63.08742424045194,64.2541530624724,64.02393573048707
1770447415208,196,68,67.37990698386609,69.0065560594567,68.31263466947226
1770447415212,192,64,64.15347452623129,65.22894341883656,65.09726106665943
1770447415216,182,54,54.70438001956258,55.04628527344576,55.66870510809771
1770447415220,169,41,41.96118199205396,41.994964076641224,42.94586850181162
1770447415224,156,28,29.06947142416367,29.206092316273953,30.064800337892827
1770447415228,146,18,18.15484386451447,19.020796583380264,19.14656047702516
1770447415232,138,10,9.900806963358615,11.277499918667225,10.87807796642885
1770447415236,132,4,3.949589586752529,4.961527503178642,4.911184770877275
1770447415240,127,-1,-0.3720048669696307,0.0804322617842983,0.5819551725214658
1770447415244,124,-4,-3.5396528119296535,-2.8903786495693726,-2.582801631889031
1770447415248,122,-6,-5.739711710388453,-4.935732290670966,-4.774328257010184
1770447415252,120,-8,-7.058914315367122,-6.7182159047449295,-6.086348708002834
1770447415256,120,-8,-7.68492880140557,-7.114985354158831,-6.710381657390928
1770447415260,120,-8,-7.931038753283529,-6.787157695988444,-6.959300396039979
1770447415264,120,-8,-8.088191840605132,-7.110837095582271,-7.1210452852535076
1770447415268,119,-9,-8.267760962331073,-7.678595980704616,-7.303462046808844
1770447415272,119,-9,-8.39608062898672,-8.017425764236254,-7.431047085801609
1770447415276,119,-9,-8.356384692319345,-7.811982211185906,-7.388502556298622
1770447415280,120,-8,-8.126100120202548,-7.097515951229761,-7.15689361867216
1770447415284,120,-8,-7.7894035766282865,-6.822649528188107,-6.822461084392873
1770447415288,120,-8,-7.455300505988585,-6.968953502117851,-6.492404903192791
1770447415292,120,-8,-7.187568398969533,-6.743462806331751,-6.227023293549444
1770447415296,121,-7,-6.990815054480424,-6.106905367550476,-6.0297738094810605
1770447415300,121,-7,-6.821214693881619,-5.803056586458096,-5.858789274593113
1770447415304,121,-7,-6.603112977107182,-6.128583575897453,-5.640651358279051
1770447415308,121,-7,-6.2707245243792995,-5.681749616278473,-5.309845857766294
1770447415312,122,-6,-5.828030170879227,-5.01946417839731,-4.869389693989212
1770447415316,122,-6,-5.37063521714847,-4.89676740104242,-4.4143858782687655
1770447415320,123,-5,-5.0308061662542665,-3.95581476374909,-4.077155649799883
1770447415324,123,-5,-4.882640556369882,-4.042424269802975,-3.931286998616816
1770447415328,122,-6,-4.887519725259918,-4.739938898391337,-3.93704277250657
1770447415332,123,-5,-4.917795728829663,-3.9997094494242504,-3.96661969038971
1770447415336,123,-5,-4.822575416164657,-3.941941944168863,-3.870750937248615
1770447415340,123,-5,-4.485373288965073,-3.8797514733962792,-3.5348152675544053
1770447415344,124,-4,-3.865316854519403,-3.167619162776563,-2.918090689068234
1770447415348,124,-4,-3.0269015559076866,-2.568987616096896,-2.083638853538868
1770447415352,126,-2,-2.1335760727495012,-1.269448002720844,-1.193521970623451
1770447415356,126,-2,-1.379330603008753,-0.6077622217632793,-0.4413468727182963
1770447415360,127,-1,-0.8855294722238845,-0.2892574507979027,0.0512339236354788
1770447415364,127,-1,-0.6352724311546223,0.2891096601376546,0.3007415915944958
1770447415368,127,-1,-0.4971328258629841,-0.061374635933632,0.438155158482326
1770447415372,127,-1,-0.3200833829828329,0.1659870719804692,0.6137704454688593
1770447415376,128,0,-0.0264772008771079,1.023255837384114,0.9046064148516636
1770447415380,128,0,0.3595032692991375,0.9734183892988616,1.2868391802273151
1770447415384,128,0,0.7511828732899957,1.1447350002419416,1.67509811956744
1770447415388,129,1,1.067616441784237,1.9480470008521735,1.9893151282508423
1770447415392,129,1,1.2901072531820017,2.2170578070381763,2.2103726097307983
1770447415396,129,1,1.4742500293168384,1.899719950828899,2.3928928096957875
1770447415400,129,1,1.7037897027714315,2.131401152627475,2.6200919095243003
1770447415404,130,2,2.020382610617883,2.979251223818112,2.933698993409093
1770447415408,130,2,2.391960934720614,3.071057557034761,3.3021539377239777
1770447415412,130,2,2.745266264590724,3.107564160371414,3.65278111438694
1770447415416,131,3,3.0302596098331565,3.945732607861568,3.9355357991231767
1770447415420,131,3,3.2633377852905414,4.14612745418018,4.166247771159405
1770447415424,131,3,3.5101718089057528,3.889849464115521,4.41040114858021
1770447415428,131,3,3.811211916298315,4.212772144963457,4.708833962148104
1770447415432,132,4,4.113677239412706,4.868638448070185,5.008755080982235
1770447415436,132,4,4.284792340338866,5.234881129573267,5.176772612484326
1770447415440,132,4,4.200743483970175,4.815301667312514,5.088989185760566
1770447415444,131,3,3.8232636298093263,4.234476229628321,4.708036322014289
1770447415448,131,3,3.1976381067307034,3.848134048066556,4.07993264076065
1770447415452,130,2,2.395401118317352,3.165790831416077,3.275854022542433
1770447415456,129,1,1.4665054831816462,2.002877094323211,2.3448436648974305
1770447415460,128,0,0.4332013128370828,0.9524519525521916,1.3085913220969054
1770447415464,127,-1,-0.6862057058446722,0.2137318821798433,0.1854187057547001
1770447415468,126,-2,-1.8533960398713696,-1.2932073835061533,-0.9858287429071976
1770447415472,124,-4,-3.0106453487866673,-2.5958010442705923,-2.1465684483206813
1770447415476,124,-4,-4.10487046479277,-3.3417974405341075,-3.2431973882124474
1770447415480,122,-6,-5.104970741050481,-4.632864916706656,-4.245136503008031
1770447415484,122,-6,-5.988835692846494,-5.233478865706987,-5.131504735835412
1770447415488,121,-7,-6.718075419739836,-5.883077035107852,-5.864524559452763
1770447415492,120,-8,-7.242187702718793,-6.996365388752871,-6.392890713038364
1770447415496,120,-8,-7.540983768707153,-7.010286469774304,-6.695086924315337
1770447415500,120,-8,-7.658445963477186,-6.885391324064877,-6.814836326290582
1770447415504,120,-8,-7.678632775927723,-7.062964674885926,-6.837292834307346
1770447415508,120,-8,-7.659577651670678,-7.0132342917181605,-6.821611714458794
1770447415512,120,-8,-7.594880672190473,-6.943576260554658,-6.761215238651247
1770447415516,120,-8,-7.446232589064446,-7.054511944297748,-6.616462285606953
1770447415520,120,-8,-7.211996624906528,-6.838091447401853,-6.384746282778729
1770447415524,121,-7,-6.9528576588778055,-6.12310968218317,-6.127384740322939
1770447415528,121,-7,-6.739182496823811,-5.966307251900486,-5.916328972522676
1770447415532,121,-7,-6.577358578777788,-6.024835210209021,-5.758588405782739
1770447415536,121,-7,-6.405599540419903,-5.996657716062094,-5.591300495977348
1770447415540,121,-7,-6.171690030838342,-5.8747433477500275,-5.360873555651139
1770447415544,122,-6,-5.904209621917805,-5.123137224423704,-5.095828367782876
1770447415548,122,-6,-5.6912135405612085,-4.939786138509105,-4.885282661040437
1770447415552,122,-6,-5.586001155328589,-5.130960995010411,-4.783265587362525
1770447415556,122,-6,-5.542270721404005,-4.8601988550567,-4.743137237763522
1770447415560,122,-6,-5.449050080957354,-5.053586141649832,-4.653165736639802
1770447415564,122,-6,-5.232457508187819,-4.928785930450887,-4.439310759158813
1770447415568,123,-5,-4.925925035602407,-4.146714389579116,-4.13565341845643
1770447415572,123,-5,-4.643393452750543,-3.96730927071806,-3.856748756157648
1770447415576,123,-5,-4.485144907149371,-4.016633701138578,-3.702585675477931
1770447415580,123,-5,-4.465757430134461,-3.93221968674775,-3.686802972486948
1770447415584,123,-5,-4.520870670757956,-4.033422305429963,-3.744526137384306
1770447415588,123,-5,-4.57081993801534,-4.079877254491137,-3.7965263518342542
1770447415592,123,-5,-4.577994457605298,-4.035019933755752,-3.806085613881576
1770447415596,123,-5,-4.555803912832685,-3.9846804933975024,-3.787169850575146
1770447415600,123,-5,-4.535933585710204,-3.955178877198173,-3.771300662530736
1770447415604,123,-5,-4.532875567495736,-4.031921979756724,-3.772254653274525
1770447415608,123,-5,-4.537749273622653,-4.091049922078913,-3.780430912919607
1770447415612,123,-5,-4.538349665193242,-4.049633048447185,-3.7834711381395865
1770447415616,123,-5,-4.53603263296438,-3.9861088870956767,-3.783274599629165
1770447415620,123,-5,-4.539447932975642,-3.9603711019679064,-3.7892463999073898
1770447415624,123,-5,-4.546882785161037,-4.034542039187893,-3.799981708625304
1770447415628,123,-5,-4.543869447518767,-4.108775598978606,-3.80068600164508
1770447415632,123,-5,-4.522595599177053,-4.05340148058942,-3.7829828271834423
1770447415636,123,-5,-4.499667479786799,-3.9992959034433433,-3.7631546315681943
1770447415640,123,-5,-4.50621784512276,-3.957199621672527,-3.772368375590753
1770447415644,123,-5,-4.553480527942229,-4.035037395888143,-3.82208485209589
1770447415648,123,-5,-4.605700189981,-4.14528449613744,-3.876785531199969
1770447415652,123,-5,-4.5907245975061635,-4.01951333860049,-3.8644386125770898
1770447415656,123,-5,-4.4481997477157975,-4.073521851556443,-3.724690275770043
1770447415660,123,-5,-4.180758384681454,-3.866926707093633,-3.460249546978136
1770447415664,124,-4,-3.863802305844104,-3.147683927836385,-3.146723370464247
1770447415668,124,-4,-3.600545539063058,-3.042348115879222,-2.887217286079267
1770447415672,124,-4,-3.4586626630842403,-3.1528893615831812,-2.748675221475028
1770447415676,124,-4,-3.439232066674194,-2.959567202806008,-2.7314660414550684
1770447415680,124,-4,-3.4916368292279576,-2.983252819219365,-2.7852170716474047
1770447415684,124,-4,-3.5498752937945683,-3.051108999593627,-2.845017072970687
1770447415688,124,-4,-3.5656710571544057,-3.1329916779279863,-2.863488975074888
1770447415692,124,-4,-3.529688611286125,-3.115772910586336,-2.831294659085374
1770447415696,124,-4,-3.4748632246888604,-2.9850918416346164,-2.7806199957004996
1770447415700,124,-4,-3.4548758184664417,-2.9955762984877756,-2.7642015897746366
1770447415704,124,-4,-3.503185683278923,-3.0229280710446744,-2.8148803189925053
1770447415708,124,-4,-3.595245238049123,-3.187870776280351,-2.9081977718721856
1770447415712,124,-4,-3.6406826858739674,-3.093198762716584,-2.9545807155703856
1770447415716,124,-4,-3.5194172857213073,-3.006771533974098,-2.834931381057955
1770447415720,124,-4,-3.1504578804306647,-3.012904230285642,-2.468813491701245
1770447415724,125,-3,-2.5531823403644687,-1.9766955141259248,-1.875497818030477
1770447415728,126,-2,-1.852890072817142,-1.2746889787065192,-1.1795462807068549
1770447415732,126,-2,-1.2164655433243596,-1.027025181012893,-0.5467155364517748
1770447415736,127,-1,-0.7561534122542559,-0.0793125810428614,-0.0884033897280998
1770447415740,127,-1,-0.4632340833374697,0.0153101600973921,0.2039466507496145
1770447415744,127,-1,-0.2156226056014762,0.0300169749834606,0.4512386584496514
1770447415748,128,0,0.1404685546030166,0.6573982415917489,0.8058944860265538
1770447415752,128,0,0.6822101877682418,1.0630562139388378,1.344599489077479
1770447415756,129,1,1.3427919900298404,1.7644088987652884,2.001317354279755
1770447415760,129,1,1.930014859642952,2.211217949590006,2.5850152248890237
1770447415764,130,2,2.2266882089872655,2.776128582336998,2.8788546850221852
1770447415768,130,2,2.115310892895472,2.937989826795445,2.7649741663634257
1770447415772,129,1,1.6406738665586715,1.717820877069986,2.28821959107225
1770447415776,128,0,0.9627705952234882,1.1112632801819142,1.6091384024522817
1770447415780,128,0,0.248752531488348,0.8481733891374952,0.8947210995703686
1770447415784,127,-1,-0.3954689856070918,0.1234762887147428,0.2496605477653438
1770447415788,127,-1,-0.9147942960566005,-0.3973256682875519,-0.2719359895163509
1770447415792,126,-2,-1.2705895212947145,-1.00243134571793,-0.6312023616004793
1770447415796,126,-2,-1.4445723947246132,-1.1598219424005505,-0.808898190437668
1770447415800,126,-2,-1.4723923613410357,-0.9330739954475432,-0.839836269817636
1770447415804,126,-2,-1.4522688346325698,-1.0551604321033838,-0.8217009496774552
1770447415808,126,-2,-1.498953056607787,-1.2762390658834313,-0.8691844904228421
1770447415812,126,-2,-1.6663414977512288,-1.105524980950503,-1.0370245716518096
1770447415816,126,-2,-1.8964724851210824,-1.1244011505499438,-1.2684799617076965
1770447415820,125,-3,-2.0513283875570023,-1.9590556165770283,-1.4257226503753746
1770447415824,125,-3,-2.0278940524781968,-2.037718451261134,-1.404769840220745
1770447415828,126,-2,-1.8654530295318357,-1.3131487216590187,-1.2443935924759235
1770447415832,126,-2,-1.73144120388966,-1.0735633072165505,-1.1126734846139954
1770447415836,126,-2,-1.7834711266946717,-1.2107450367838133,-1.1675480799312736
1770447415840,125,-3,-2.0381657113121268,-1.8542551058147927,-1.4245411730978854
1770447415844,125,-3,-2.368461672799886,-2.188631008559571,-1.7554363805232351
1770447415848,125,-3,-2.6131722404044107,-2.1452483765398824,-1.9998009059945925
1770447415852,125,-3,-2.6831147250330725,-2.2851035144704945,-2.070621295951465
1770447415856,125,-3,-2.5840220535974945,-2.007175959891089,-1.9746125248494864
1770447415860,125,-3,-2.3751754083597856,-2.0646222425615117,-1.769486511430628
1770447415864,125,-3,-2.124341074244106,-2.0169389955230015,-1.520690024740462
1770447415868,126,-2,-1.883748137930552,-1.3007068664866277,-1.2802303570719968
1770447415872,126,-2,-1.674740809932659,-1.1884572424796391,-1.0715951953803062
1770447415876,126,-2,-1.482369732595702,-1.0876813667667165,-0.8816103145107382
1770447415880,126,-2,-1.2817977117655808,-1.0199559500487625,-0.6845685332671736
1770447415884,126,-2,-1.0869354993565823,-1.0695668956886315,-0.4918366669073257
1770447415888,127,-1,-0.9641902963496471,-0.2704372766746149,-0.3684151088393198
1770447415892,127,-1,-0.9778819082974104,-0.2348681227449726,-0.379736986762741
1770447415896,126,-2,-1.12096601786433,-1.0572912854931789,-0.5215912489559883
1770447415900,126,-2,-1.3153286062065412,-1.0676783729857835,-0.7188913527799013
1770447415904,126,-2,-1.4794033029867308,-1.0384185048226682,-0.8914267136628409
1770447415908,126,-2,-1.5599866785470815,-1.3358535834962448,-0.9834372757303752
1770447415912,126,-2,-1.435604105826008,-1.156198774012824,-0.8667061068826154
1770447415916,127,-1,-0.7140897132180921,-0.1744844442771359,-0.1422688960885239
1770447415920,129,1,1.424014601721848,2.0533868447711385,2.009961364489861
1770447415924,134,6,6.124706458083274,6.808350640775693,6.72812777326182
1770447415928,142,14,14.37047721763938,14.805267342887852,14.983098097656098
1770447415932,153,25,26.216987891247353,25.72164963072704,26.823268568686416
1770447415936,167,39,40.17836402549177,39.89586027725024,40.764725451585406
1770447415940,181,53,53.286690107001014,54.02790753047405,53.84918216965182
1770447415944,190,62,62.045679316925295,62.71050002559569,62.59174883333181
1770447415948,192,64,63.904682137927054,64.94173857586016,64.44881092918803
1770447415952,187,59,58.437190495181234,59.460286919376486,58.99345776183443
1770447415956,174,46,47.50332406582447,47.16262673354879,48.07898731766177
1770447415960,161,33,34.29179960631731,33.7270229266232,34.884498047565074
1770447415964,149,21,21.847912989768467,22.01864969741365,22.44713794579065
1770447415968,140,12,11.969677099473802,12.688431494985435,12.562090463368682
1770447415972,133,5,4.99522574901942,5.68777498764846,5.571682158249066
1770447415976,128,0,0.342665427392733,0.9623051942817972,0.9028326095277855
1770447415980,125,-3,-2.7593684568940864,-2.159098953809295,-2.2078069541988636
1770447415984,122,-6,-4.845169982676847,-5.087183921704439,-4.291881354613661
1770447415988,121,-7,-6.200083062127035,-6.243024040636174,-5.638391929338103
1770447415992,121,-7,-7.0326081586052265,-6.366774625159767,-6.4629143422131605
1770447415996,120,-8,-7.555021004927761,-7.0152652999504355,-6.983192636465912
1770447416000,120,-8,-7.914787367370783,-7.219830335845941,-7.346790217929874
1770447416004,119,-9,-8.126446183355686,-8.045055029652302,-7.563758375579784
1770447416008,119,-9,-8.132089367991512,-8.316453940400375,-7.5718866497583965
1770447416012,120,-8,-7.936455023498808,-7.277490427998076,-7.375676529859072
1770447416016,120,-8,-7.66369474726789,-7.126275803569622,-7.102131462762311
1770447416020,120,-8,-7.477728657959787,-7.150902061852496,-6.917109765251964
1770447416024,120,-8,-7.458372941626222,-7.1087884378539705,-6.899527408940297
1770447416028,120,-8,-7.5524602759037505,-7.328484398913198,-6.9942974736649965
1770447416032,120,-8,-7.625823500700153,-7.208688136566387,-7.066819095382809
1770447416036,120,-8,-7.555468782112231,-7.265178161392602,-6.995424756554261
1770447416040,120,-8,-7.29203175156017,-6.983191218036895,-6.732246544756471
1770447416044,121,-7,-6.864657645223229,-6.351229817678761,-6.306635178512999
1770447416048,121,-7,-6.344784902679355,-6.065664326247451,-5.788813974382943
1770447416052,122,-6,-5.803649490111248,-5.523683557429643,-5.248524740599562
1770447416056,122,-6,-5.286006547083186,-4.910941255669776,-4.730164344776053
1770447416060,123,-5,-4.800832680445902,-4.41811929090577,-4.24381793964919
1770447416064,123,-5,-4.325424842694723,-3.894835824786275,-3.768189536100131
1770447416068,124,-4,-3.82681402377395,-3.581620771892681,-3.2705687334897484
1770447416072,124,-4,-3.296255400901018,-3.0002173885868015,-2.74117031224682
1770447416076,125,-3,-2.76973845599569,-2.431049423256738,-2.2148966563644508
1770447416080,125,-3,-2.305679684966719,-1.970462962884313,-1.7502088895736343
1770447416084,126,-2,-1.9292022863329072,-1.2951879274983389,-1.3731537167659391
1770447416088,126,-2,-1.5968620673863008,-1.300571817271315,-1.0408219013029614
1770447416092,126,-2,-1.2287657990054597,-1.1828547676830952,-0.6729260399350845
1770447416096,127,-1,-0.7868495599646015,-0.3712727144546588,-0.2309340063826995
1770447416100,127,-1,-0.3195897486565378,0.050165361222991,0.2364138654440538
1770447416104,128,0,0.0784298863837715,0.5650332018372523,0.634117128051549
1770447416108,128,0,0.3531430771456239,0.8953274972115852,0.9085589619224091
1770447416112,128,0,0.5373041412276542,0.5539499456798662,1.0933986634259325
1770447416116,128,0,0.7196246358077734,0.898609807013079,1.2771592669221614
1770447416120,129,1,0.9814035352812732,1.7633269214118563,1.5397197870971882
1770447416124,129,1,1.3586581360292176,1.797506037065204,1.9164927432775751
1770447416128,129,1,1.8367876747728864,1.6945818043751242,2.3942145476486454
1770447416132,130,2,2.362761355685408,2.6856416706947575,2.9211635800060143
1770447416136,131,3,2.8810925776060117,3.793033890121451,3.4411041862993423
1770447416140,131,3,3.382060558988201,3.80948367379497,3.942787101763974
1770447416144,131,3,3.9031988011737258,3.7566577529771097,4.463766680866317
1770447416148,132,4,4.459675264153591,4.702390631834783,5.020363390154485
1770447416152,133,5,4.981110896125346,5.658488588209543,5.542535670954803
1770447416156,133,5,5.344359595385976,5.806994992217426,5.906589390880881
1770447416160,133,5,5.478381414434971,5.77365282110064,6.04141311083461
1770447416164,133,5,5.431831952140193,5.772835077651934,5.996184090705634
1770447416168,133,5,5.338788183784125,5.657176951019232,5.904985882501843
1770447416172,133,5,5.318554718895329,5.679297333905648,5.886374076656904
1770447416176,133,5,5.390894545718467,5.785637712586999,5.959598689023735
1770447416180,133,5,5.461547157317211,5.76573124446607,6.030705295568034
1770447416184,133,5,5.380226610894564,5.775153634929572,5.9499078310303775
1770447416188,133,5,5.02989464854517,5.6030133075267745,5.600201266635235
1770447416192,132,4,4.386769896622326,4.731330858383428,4.957766685033646
1770447416196,131,3,3.509965367132037,3.702038184103194,4.08224836639633
1770447416200,130,2,2.477859914787655,2.849189522588325,3.052634601774566
1770447416204,129,1,1.3386152115561376,1.6592108916825998,1.9165898864381825
1770447416208,128,0,0.1242955497910736,0.6900239823916159,0.7045823274800178
1770447416212,127,-1,-1.100406881621128,-0.3624344123983052,-0.5196277420533475
1770447416216,125,-3,-2.23456372120138,-2.2383803135444413,-1.653993925168438
1770447416220,124,-4,-3.2113551742521036,-3.2056991325133364,-2.6297344954452315
1770447416224,124,-4,-4.065841030984802,-3.330496841878981,-3.4815737105650175
1770447416228,123,-5,-4.903266607596152,-4.331946332212462,-4.316342546567148
1770447416232,122,-6,-5.7828174896926265,-5.364718937503691,-5.194458839919034
1770447416236,121,-7,-6.639247946653231,-6.246414441266259,-6.049942191363611
1770447416240,120,-8,-7.3278211716532,-7.226033546631638,-6.736441921762586
1770447416244,120,-8,-7.743909699163666,-7.34325582276537,-7.149002727927629
1770447416248,120,-8,-7.896192980799765,-7.319296575090477,-7.297809560162634
1770447416252,120,-8,-7.872841846413469,-7.41965691381204,-7.272725594924475
1770447416256,120,-8,-7.754767421872243,-7.1697586562214,-7.154567537912236
1770447416260,120,-8,-7.573244482080616,-7.368016533373082,-6.972640437251318
1770447416264,120,-8,-7.342454597473874,-7.214374221312245,-6.7393196879076465
1770447416268,121,-7,-7.10384825285252,-6.464750021012956,-6.496386552117536
1770447416272,121,-7,-6.910697594837689,-6.305937852892164,-6.299141339320282
1770447416276,121,-7,-6.768357355200836,-6.260226320074575,-6.154314173504823
1770447416280,121,-7,-6.6155444141192605,-6.351794324519699,-6.000028072285216
1770447416284,121,-7,-6.3878023788451985,-6.229214175999147,-5.770457727566452
1770447416288,122,-6,-6.099188933817688,-5.497756702959802,-5.47930816045829
1770447416292,122,-6,-5.847529800710879,-5.259838476884443,-5.225063446442505
1770447416296,122,-6,-5.730710338993623,-5.322986932036886,-5.105912668782653
1770447416300,122,-6,-5.754693049010205,-5.32655708670147,-5.127197676322665
1770447416304,122,-6,-5.81702485431354,-5.2895576905972606,-5.185763316015855
1770447416308,122,-6,-5.7765221259460935,-5.4647956819651835,-5.140653397259271
1770447416312,122,-6,-5.550568776576446,-5.291660403181436,-4.910485416559944
1770447416316,123,-5,-5.168035870572524,-4.29396375203825,-4.525385271638566
1770447416320,123,-5,-4.749260711781791,-4.39585638822199,-4.105684780456762
1770447416324,123,-5,-4.441419011294787,-4.2617030478044144,-3.797072110833256
1770447416328,124,-4,-4.353309556365782,-3.508419586489243,-3.7066213249513824
1770447416332,123,-5,-4.510119297056067,-4.270274961059725,-3.8589262360574783
1770447416336,123,-5,-4.834767949569743,-4.30472083924247,-4.177692752590929
1770447416340,123,-5,-5.167976564974419,-4.427411371977475,-4.505158708216118
1770447416344,122,-6,-5.332967833545533,-5.274411263323432,-4.665956697659249
1770447416348,123,-5,-5.223159688926335,-4.509414699586683,-4.554027620145731
1770447416352,123,-5,-4.866440580527829,-4.278795144358747,-4.196373100840017
1770447416356,123,-5,-4.423063869501305,-4.300934262042501,-3.7513859276690873
1770447416360,124,-4,-4.105159562792574,-3.460048571537306,-3.4299422676135056
1770447416364,124,-4,-4.049479561904413,-3.291760151975343,-3.369228236259417
1770447416368,124,-4,-4.220931490536955,-3.523218493669902,-3.535355069640907
1770447416372,123,-5,-4.432812861022992,-4.254241339445066,-3.7421585477150927
1770447416376,123,-5,-4.4884499435866605,-4.350981921535208,-3.793118728004631
1770447416380,124,-4,-4.329646545150292,-3.4292063576818306,-3.630749439423588
1770447416384,124,-4,-4.062558406263098,-3.363623037309919,-3.361686494530034
1770447416388,124,-4,-3.85405027453409,-3.485260514552903,-3.151544067862391
1770447416392,124,-4,-3.805730489809392,-3.274810010411859,-3.099683359286558
1770447416396,124,-4,-3.8995338343739014,-3.371537609808422,-3.187374249885279
1770447416400,124,-4,-4.0243921280214625,-3.4314437415270285,-3.3054263321146493
1770447416404,124,-4,-4.047039925883698,-3.391762988828238,-3.322985076480656
1770447416408,124,-4,-3.891286398021723,-3.4975871483591954,-3.1643596949250545
1770447416412,124,-4,-3.589928693882289,-3.2341234843574833,-2.860836420996362
1770447416416,125,-3,-3.2693822916203157,-2.468146058386802,-2.5371418386706845
1770447416420,125,-3,-3.0606548083627234,-2.3335674633073977,-2.3237560848515826
1770447416424,125,-3,-2.9976363948788207,-2.5552321827664732,-2.255049825499277
1770447416428,125,-3,-2.990575389580983,-2.3343230040822305,-2.242109643135587
1770447416432,125,-3,-2.9029867141551,-2.4187821949994692,-2.1493055387557023
1770447416436,125,-3,-2.668476787600026,-2.2992132654093265,-1.9108554424646127
1770447416440,126,-2,-2.348763419302663,-1.5265363040652764,-1.5883872119007492
1770447416444,126,-2,-2.0846201803340936,-1.401693946492285,-1.3215680209021503
1770447416448,126,-2,-1.980799483348351,-1.5092748351392415,-1.2135582276425794
1770447416452,126,-2,-2.016046503818357,-1.25148769356946,-1.2424240975102665
1770447416456,126,-2,-2.043059726021511,-1.4971755216416258,-1.2620446263119645
1770447416460,126,-2,-1.8760969519744837,-1.3518818367822891,-1.088893681779753
1770447416464,127,-1,-1.410794708098535,-0.6043172770347972,-0.6198362378936317
1770447416468,127,-1,-0.703922446415822,-0.3356463396790423,0.0892322716188441
1770447416472,128,0,0.0418944536423415,0.5758601796586211,0.837640035258725
1770447416476,129,1,0.5949332797552236,1.6388689828018623,1.3948292019722035
1770447416480,129,1,0.8481439079627373,1.4944718774803272,1.6536097758261012
1770447416484,129,1,0.8975268110517582,1.4953374285506018,1.7094545072089018
1770447416488,129,1,0.9728459136459198,1.5728966600559853,1.79173629171336
1770447416492,129,1,1.26757861568497,1.61230628713322,2.093113999646829
1770447416496,130,2,1.8033888743434103,2.629471336801468,2.6337948446023303
1770447416500,131,3,2.4288208551127175,3.441589572575116,3.2615863677775656
1770447416504,131,3,2.927825585352196,3.537094786738271,3.761962374215881
1770447416508,131,3,3.132705431134228,3.5042718647174733,3.970127625707263
1770447416512,131,3,2.9750253596594485,3.6386930120181864,3.818968055460036
1770447416516,131,3,2.491291871801473,3.613990740920904,3.3433384807167403
1770447416520,130,2,1.8112968906403075,2.401416876643861,2.6703620882211485
1770447416524,129,1,1.1142809529115478,1.57449932532405,1.9781878971486169
1770447416528,129,1,0.5444270272708518,1.4308478254318164,1.4118079802952894
1770447416532,128,0,0.1348874226775092,0.6773530149283986,1.005718503022086
1770447416536,128,0,-0.1945700221006809,0.5879306266181737,0.6804907502888116
1770447416540,128,0,-0.5587239827986694,0.3720163405061838,0.321412784987279
1770447416544,127,-1,-1.008317430406078,-0.3908638421978836,-0.1226573439974718
1770447416548,127,-1,-1.48965342806944,-0.6690421030449538,-0.5984700613014382
1770447416552,126,-2,-1.8929120463471631,-1.2237308358808057,-0.996359697333393
1770447416556,126,-2,-2.147436356655846,-1.5402448448061066,-1.2455776991816994
1770447416560,126,-2,-2.2830358368306696,-1.5158855705464194,-1.3760542602276509
1770447416564,126,-2,-2.4038227508646264,-1.5169189996745156,-1.4924091962706665
1770447416568,126,-2,-2.5979519451972664,-1.6070511791559876,-1.6829837008859825
1770447416572,125,-3,-2.8671628672000695,-2.270375120744911,-1.948595031798172
1770447416576,125,-3,-3.1391141393470923,-2.5591251767464276,-2.215428537179848
1770447416580,125,-3,-3.338234277393135,-2.4751708935272174,-2.4075585168137232
1770447416584,125,-3,-3.4347561552230466,-2.611538904094594,-2.4967975159320903
1770447416588,125,-3,-3.4310393819515324,-2.5330370720689546,-2.487759768850882
1770447416592,125,-3,-3.3263784076240555,-2.3595724847223507,-2.3804115600875804
1770447416596,125,-3,-3.1247295291500157,-2.5163872270515784,-2.1769018571714995
1770447416600,125,-3,-2.884558928293015,-2.50996998859159,-1.9331124117907523
1770447416604,126,-2,-2.7328888898308263,-1.6335149693417763,-1.7753177131619302
1770447416608,126,-2,-2.7840835681385134,-1.5131249248148286,-1.8194652045444029
1770447416612,125,-3,-3.020971646704395,-2.4233396915708214,-2.0503315775754154
1770447416616,125,-3,-3.2705132910939696,-2.4656824316649173,-2.2954792979080896
1770447416620,125,-3,-3.325921375231327,-2.59058048917463,-2.347549555426879
1770447416624,125,-3,-3.113889658958551,-2.5858572059554232,-2.132355378046931
1770447416628,126,-2,-2.752659335927788,-1.5703887823284108,-1.7671583180868604
1770447416632,126,-2,-2.4483195584747444,-1.387993244243452,-1.456956280554448
1770447416636,126,-2,-2.3275981611245444,-1.543463773768171,-1.3282125128482467
1770447416640,126,-2,-2.358041403999241,-1.513849005601847,-1.350623459222399
1770447416644,126,-2,-2.412960763658395,-1.7400861127948135,-1.401843586591634
1770447416648,126,-2,-2.3960652969279743,-1.393893201061631,-1.3884079430601848
1770447416652,126,-2,-2.281271163873119,-1.5989745838013476,-1.28110631270585
1770447416656,126,-2,-1.9830553430607625,-1.3681620341722067,-0.9855973501878365
1770447416660,128,0,-1.1032069310385575,0.3213809658195882,-0.0956542739958559
1770447416664,130,2,1.2598986604407765,2.324347220865266,2.290065673064755
1770447416668,135,7,6.3832434120361565,7.60104635505546,7.43853547010592
1770447416672,144,16,15.3259849395314,16.33878998271678,16.395640840357952
1770447416676,155,27,28.044209581762697,27.716643935862272,29.11011846663958
1770447416680,171,43,42.74027406860456,43.192839398082,43.7876680327074
1770447416684,185,57,56.03920527737155,57.413188825626605,57.06500540828325
1770447416688,193,65,64.16741073641361,65.49434766753242,65.18168556169962
1770447416692,194,66,64.61763908529863,66.36172718951656,65.63790115405374
1770447416696,186,58,57.34845289936363,58.67173023195765,58.39026355218883
1770447416700,173,45,44.773101402649274,45.11417621746549,45.84242049398187
1770447416704,158,30,30.535126105754948,30.531857532651166,31.62633180648453
1770447416708,146,18,17.831112775663886,18.36070717179349,18.930795996596252
1770447416712,137,9,8.276070882477942,9.543057766446566,9.369995984459852
1770447416716,131,3,1.846472376594133,3.50537443518073,2.926439108179649
1770447416720,127,-1,-2.3438562490542942,-0.8153254975139372,-1.2763345048374166
1770447416724,123,-5,-5.1618793826075,-4.5227706326277595,-4.097191717424088
1770447416728,121,-7,-7.055212717412868,-6.687956604666363,-5.982016998568933
1770447416732,120,-8,-8.184156773830146,-7.343467288198335,-7.096508937973987
1770447416736,120,-8,-8.716703930544055,-7.686464605102521,-7.616920349021996
1770447416740,120,-8,-8.92990912117519,-7.622749185724333,-7.825389252891776
1770447416744,120,-8,-9.076401279754476,-7.787613436513068,-7.973488550190954
1770447416748,119,-9,-9.23063968697768,-8.440388053944552,-8.130495385839575
1770447416752,119,-9,-9.307215491736208,-8.61504311687664,-8.206398860385015
1770447416756,119,-9,-9.226618497703033,-8.41101767861089,-8.121075112076879
1770447416760,120,-8,-9.042402595163104,-7.964843737774653,-7.931048430041252
1770447416764,120,-8,-8.89765037038815,-7.442693226793029,-7.782537224948887
1770447416768,120,-8,-8.871490491599216,-7.853167071379092,-7.755007579966598
1770447416772,119,-9,-8.890693427080388,-8.194964464205261,-7.773154372924551
1770447416776,120,-8,-8.799240711741398,-7.854457210623416,-7.679350799559034
1770447416780,120,-8,-8.506254218141054,-7.580839721780966,-7.383290029474334
1770447416784,121,-7,-8.063368152842838,-6.813545280093213,-6.938050612951567
1770447416788,121,-7,-7.610753277796863,-6.556877911754542,-6.4840021726583155
1770447416792,121,-7,-7.257166920670693,-6.463749848987203,-6.12883185898342
1770447416796,122,-6,-6.999517079038726,-5.650931724861392,-5.86876746309713
1770447416800,122,-6,-6.737730409933863,-5.79826215378732,-5.604217928466001
1770447416804,122,-6,-6.367001362207514,-5.6408817542346394,-5.231216812746945
1770447416808,123,-5,-5.875346664590966,-4.738856406199097,-4.738134286807387
1770447416812,123,-5,-5.365522491522485,-4.311911573820106,-4.227548880425209
1770447416816,124,-4,-4.977724984504711,-3.8171071367963094,-3.839153056730874
1770447416820,124,-4,-4.776967787005901,-3.688372002256062,-3.637308863623861
1770447416824,124,-4,-4.701413056859473,-3.756802706395925,-3.559783117037914
1770447416828,124,-4,-4.611162933525888,-3.686484834912489,-3.466994057064838
1770447416832,124,-4,-4.389593049360042,-3.334242003930176,-3.2432449101980563
1770447416836,125,-3,-4.013554768563795,-2.868981205676062,-2.866172828878505
1770447416840,125,-3,-3.547436463817826,-2.627586488917993,-2.4001498394948335
1770447416844,126,-2,-3.081387082845479,-1.877942206564026,-1.934582705045993
1770447416848,126,-2,-2.6686808473390826,-1.587787588692054,-1.5218403436274812
1770447416852,126,-2,-2.305332175374673,-1.438286477379295,-1.1574117459745
1770447416856,127,-1,-1.9547590631143024,-0.8229537959192843,-0.8049686707025943
1770447416860,127,-1,-1.5837087436035944,-0.6619796067966479,-0.4322925574398757
1770447416864,128,0,-1.1754614441460145,0.069455623981545,-0.0236555013400413
1770447416868,128,0,-0.7225148221130269,0.4958867498816149,0.4286088272791989
1770447416872,128,0,-0.2272835719013749,0.4042274147618611,0.9232969576355812
1770447416876,129,1,0.2826132588291133,1.3487417056946451,1.43347439443295
1770447416880,130,2,0.7550514614262614,2.1073835591104597,1.906288664829076
1770447416884,130,2,1.1463296756029002,2.2723073672898115,2.297175648178267
1770447416888,130,2,1.450805048287853,2.281827756857165,2.600943910953034
1770447416892,130,2,1.6900976387949922,2.568887129030709,2.840187392329345
1770447416896,131,3,1.883271882914916,3.185206940171079,3.0337579892141955
1770447416900,131,3,2.0431418133399077,3.2027193049272613,3.19330814573065
1770447416904,131,3,2.194848879143199,3.187358681422233,3.343664507582538
1770447416908,131,3,2.37448334008087,3.3029121307539375,3.5219408092982945
1770447416912,131,3,2.5992593628778,3.556062616481643,3.746218316271844
1770447416916,132,4,2.8487546485602806,4.136528700235786,3.995638127125925
1770447416920,132,4,3.0820578549184865,4.241742520229115,4.228297510175778
1770447416924,132,4,3.2628934563196887,4.119605340730846,4.407632359024754
1770447416928,132,4,3.356172543120728,4.320916573600034,4.498958903471282
1770447416932,132,4,3.3058599573728142,4.550049815649655,4.446604054392221
1770447416936,132,4,3.0336069291794043,4.0511140964303864,4.1724277522757625
1770447416940,131,3,2.472454083334334,3.369396125200004,3.609768698846187
1770447416944,131,3,1.6123146312021874,2.899299062983037,2.7486664731100223
1770447416948,129,1,0.5235750249037782,1.558375674819812,1.659097075846511
1770447416952,128,0,-0.6631211687030889,0.2531485701142508,0.4710115931824279
1770447416956,127,-1,-1.8172944220647056,-0.6730634562985638,-0.6854705957557319
1770447416960,126,-2,-2.87348368542436,-1.9187947199611768,-1.7446204415085798
1770447416964,125,-3,-3.852986114376768,-2.868436093825298,-2.7271287600858045
1770447416968,124,-4,-4.821783943986177,-3.666003626533768,-3.698573666559691
1770447416972,123,-5,-5.813320373986368,-4.593160269423787,-4.692362201588746
1770447416976,122,-6,-6.778882733473218,-5.827270199471406,-5.659891127699556
1770447416980,121,-7,-7.610341683956893,-6.806362717539257,-6.4932919206943644
1770447416984,121,-7,-8.214927321792095,-7.015238775605022,-7.100361948753173
1770447416988,120,-8,-8.57424511408266,-7.522711709587956,-7.4631539732617
1770447416992,120,-8,-8.741138586120965,-7.805463922220966,-7.63413223834751
1770447416996,120,-8,-8.786638918747105,-7.597649227950267,-7.683309297306437
1770447417000,120,-8,-6.133604106427672,-3.1193989458061537,-3.0716846705086636
1770447417004,120,-8,-6.157613503044713,-3.079313460252143,-3.09790186081092
1770447417008,120,-8,-6.2098040825384455,-3.1352664816905618,-3.1517635642641584
1770447417012,120,-8,-6.2494435713817476,-3.1613852003136023,-3.1934547248023173
1770447417016,120,-8,-6.2242795689479316,-3.0697180769401338,-3.1707944900396385
1770447417020,120,-8,-6.099260999511618,-3.2008028116998974,-3.047776630005348
1770447417024,120,-8,-5.882376679659901,-3.0109223697602796,-2.831749403380717
1770447417028,121,-7,-5.617605073377272,-2.294204001907426,-2.5674762222652707
1770447417032,121,-7,-5.343462748871977,-2.032002884592452,-2.294729324361604
1770447417036,121,-7,-5.064480925915241,-2.2770291351343417,-2.0179250850899235
1770447417040,121,-7,-4.77636983979118,-2.026037291385792,-1.7313527353278666
1770447417044,122,-6,-4.5114043022808605,-1.2457229846265092,-1.4664558522950473
1770447417048,122,-6,-4.331544289821332,-1.1095533389493648,-1.2858297834623718
1770447417052,122,-6,-4.261713992677771,-1.274585224779572,-1.2153531656792544
1770447417056,122,-6,-4.2402218962905565,-1.0862366743387766,-1.1934474039131204
1770447417060,122,-6,-4.1530328355142885,-1.2704477618738246,-1.1056907016395456
1770447417064,122,-6,-3.928277180828839,-1.0603391893273917,-0.8802780635739191
1770447417068,123,-5,-3.603278687999294,-0.3253282216736365,-0.5550383658129727
1770447417072,123,-5,-3.303302259411756,-0.1451341171885686,-0.2551794620857469
1770447417076,123,-5,-3.154102315164901,-0.2210880158921623,-0.105461664735531
1770447417080,123,-5,-3.200432261310534,-0.2521254801630082,-0.1498486503977301
1770447417084,123,-5,-3.3814925972112317,-0.0705190743672214,-0.328023585016023
1770447417088,123,-5,-3.5689842225462463,-0.4288270643595946,-0.5127483606352637
1770447417092,122,-6,-3.645833673735707,-1.0326289176743313,-0.5873104597511485
1770447417096,123,-5,-3.580057259333419,-0.4319412156033353,-0.5194880877965979
1770447417100,123,-5,-3.4366942198123533,-0.066138970734576,-0.3742713122495048
1770447417104,123,-5,-3.3149290300111818,-0.3270762327501316,-0.2508146442141812
1770447417108,123,-5,-3.270159111147873,-0.2214028563983876,-0.2039536021590475
1770447417112,123,-5,-3.2905054478648075,-0.2738723450243759,-0.2211229390750007
1770447417116,123,-5,-3.332169437548922,-0.284144899290967,-0.2585664458898449
1770447417120,123,-5,-3.363613167197877,-0.220066047870505,-0.2855341612493511
1770447417124,123,-5,-3.37876761772902,-0.2760337960525409,-0.2967144689205223
1770447417128,123,-5,-3.3828920580176822,-0.2725491806242444,-0.2975160784742503
1770447417132,123,-5,-3.3785305952415765,-0.3126902822561122,-0.2901073708577797
1770447417136,123,-5,-3.367847534952989,-0.282048685443607,-0.2761276134961471
1770447417140,123,-5,-3.3628706351603093,-0.2824639337761059,-0.2671762469474212
1770447417144,123,-5,-3.3841829778884995,-0.2715383027953573,-0.2836447043468122
1770447417148,123,-5,-3.4402656479272333,-0.3048926243515941,-0.3342209882773586
1770447417152,123,-5,-3.502308055157995,-0.3632350073579131,-0.3906662782367215
1770447417156,123,-5,-3.5028408152540527,-0.2559551460763969,-0.3859993990729122
1770447417160,123,-5,-3.374847313859821,-0.395966573227564,-0.2531794650832881
1770447417164,123,-5,-3.111055982690194,-0.1807470201332647,0.0153793672026409
1770447417168,124,-4,-2.790710027588706,0.5425862274704198,0.3405213857467286
1770447417172,124,-4,-2.5373450233415484,0.7357889604364776,0.598686739178894
1770447417176,124,-4,-2.434167712075042,0.6034237732650306,0.7070573278894223
1770447417180,124,-4,-2.4661020192905214,0.6582442498360478,0.6813685541863365
1770447417184,124,-4,-2.531263624162286,0.75027119254624,0.6236426034368235
1770447417188,124,-4,-2.50569878492195,0.5252295074762423,0.6570383816828615
1770447417192,124,-4,-2.312912018459487,0.7348582596949518,0.856775539435257
1770447417196,125,-3,-1.9578076055132092,1.537505041355357,1.2172432420608494
1770447417200,125,-3,-1.5169755257742636,1.65576092351315,1.66258989184866
1770447417204,125,-3,-1.1052604181386787,1.7365851260275538,2.079656498263134
1770447417208,126,-2,-0.833862391601421,2.433234378711208,2.358111569638454
1770447417212,126,-2,-0.7589041595042696,2.840284870812356,2.4410988637782767
1770447417216,126,-2,-0.8390425485469155,2.3159289128450635,2.3689113371778654
1770447417220,125,-3,-0.9473517373432538,1.866259078446036,2.26831678264653
1770447417224,126,-2,-0.9456774903262656,2.4573239933847373,2.2776652108372257
1770447417228,126,-2,-0.7617197437782157,2.6404340717375727,2.4690403725760817
1770447417232,126,-2,-0.408549792829469,2.6459694791012303,2.8291652567432735
1770447417236,127,-1,0.0508204464393116,3.3716078245813046,3.295341091520454
1770447417240,127,-1,0.5519915900931558,3.86017102200873,3.8036266999456982
1770447417244,128,0,1.0588510974063006,4.288710308590971,4.318106763154724
1770447417248,128,0,1.5637635690293177,4.868669526246051,4.831271263662213
1770447417252,129,1,2.064616700151689,5.2839991847466035,5.341142450749822
1770447417256,129,1,2.5404375182521215,5.739501040951394,5.826393099824998
1770447417260,130,2,2.9482537513007108,6.410153578032458,6.242965091907742
1770447417264,130,2,3.240330842660594,6.676204786343819,6.54219614403494
1770447417268,130,2,3.376083045182877,6.456503270055049,6.683992746527753
1770447417272,130,2,3.3140565206932804,6.615036206763193,6.628750430356536
1770447417276,130,2,3.009049337207642,6.392341123460326,6.3327870236172
1770447417280,129,1,2.449655147309275,5.664583676934333,5.784272062925794
1770447417284,129,1,1.7225832992727126,5.398318910938304,5.067894636789202
1770447417288,128,0,1.0305224920616531,4.656859806039042,4.38490839646946
1770447417292,127,-1,0.5998517476032701,3.3981347283494254,3.962253983466437
1770447417296,127,-1,0.5180373410955994,3.517388023565255,3.888614027132307
1770447417300,128,0,0.6453195555558242,4.538901459575977,4.024099852538331
1770447417304,128,0,0.7058535960454886,4.401850765701967,4.092070761094927
1770447417308,127,-1,0.4877061900472723,3.6892037100593034,3.881288708227874
1770447417312,127,-1,-0.0266087332231728,3.2287828738711983,3.3761537176355128
1770447417316,126,-2,-0.6892081527661291,2.6940858230762528,2.7249997828843195
1770447417320,126,-2,-1.3090085650395484,2.252901318850644,2.1169657624883453
1770447417324,125,-3,-1.754636384294909,1.6787663990894994,1.68118298865958
1770447417328,125,-3,-1.9902013614664948,1.36448703463759,1.4532672977060617
1770447417332,125,-3,-2.0589903989170564,1.483083949119431,1.3915158902843998
1770447417336,125,-3,-2.0429237835441634,1.4081880511529938,1.4156983651964885
1770447417340,125,-3,-2.0181224891377125,1.4339428721587353,1.450158400670676
1770447417344,125,-3,-2.0234656235601634,1.5125991513075594,1.455245465642054
1770447417348,125,-3,-2.054356261558038,1.433311174946536,1.4344517111807042
1770447417352,125,-3,-2.082555928159916,1.4033198034765142,1.4155309369816735
1770447417356,125,-3,-2.0885066099986167,1.389404285846359,1.4184338626347002
1770447417360,125,-3,-2.082533367071475,1.417652652987729,1.433511476365271
1770447417364,125,-3,-2.096165005219624,1.4788610395038264,1.4293643859427452
1770447417368,125,-3,-2.147619154545358,1.430961539489218,1.3871792216994807
1770447417372,125,-3,-2.2104722591294363,1.3419672909617042,1.332863359704633
1770447417376,125,-3,-2.217661166567159,1.395074038644757,1.33410754938965
1770447417380,125,-3,-2.106065192498259,1.341329461425239,1.455733145165
1770447417384,125,-3,-1.868766834225875,1.5360333270259727,1.7056481311708305
1770447417388,126,-2,-1.5688103018832753,2.3091353308301485,2.0191242998637877
1770447417392,126,-2,-1.3019441398513134,2.435861667968013,2.296371009366069
1770447417396,126,-2,-1.144422243184164,2.204549379419951,2.4578277564486433
1770447417400,126,-2,-1.1187088852501264,2.5013010243546687,2.4820354109026805
1770447417404,126,-2,-1.1492878602644216,2.3157891969685016,2.4507646212951557
1770447417408,126,-2,-0.9500879010298704,2.489742462409992,2.6582086232444255
1770447417412,128,0,0.1412634642481162,4.225935939142456,3.770535826358765
1770447417416,131,3,3.226586687111578,7.313211609726548,6.884820996660071
1770447417420,137,9,9.581120458451306,13.395588432456506,13.26507865358968
1770447417424,147,19,19.97164358715972,23.325950240210165,23.66776639089193
1770447417428,160,32,33.8185855658488,36.51524596184068,37.51073970465959
1770447417432,176,48,48.77227474093631,52.078695765493954,52.45071607191278
1770447417436,189,61,61.209389927808445,65.46855575730126,64.87544862852553
1770447417440,196,68,67.61949519790585,72.08363536902644,71.28440589009618
1770447417444,194,66,66.18323760176189,70.61836753771276,69.8627468481632
1770447417448,185,57,57.596359751237074,61.10320156563894,61.30355682830708
1770447417452,171,43,44.63113637073555,47.420605861332525,48.37009296489667
1770447417456,158,30,30.744711628519763,34.126341584979436,34.50805070163034
1770447417460,146,18,18.614585126332297,22.353504212076217,22.387303032551436
1770447417464,137,9,9.399377559102778,13.431887651332469,13.167481730111708
1770447417468,131,3,2.9312451539177404,7.1687250977189585,6.689629134050808
1770447417472,126,-2,-1.551415175504799,2.362202242469045,2.2028019272067687
1770447417476,123,-5,-4.724491686534197,-0.9587517109123542,-0.9630828166854082
1770447417480,120,-8,-6.918067490071566,-3.5525642634901393,-3.139810217772941
1770447417484,119,-9,-8.243856600274245,-4.737972086460203,-4.446179558645225
1770447417488,119,-9,-8.82528007330266,-4.675919058635295,-5.013123919874591
1770447417492,119,-9,-8.886527254845651,-4.881145794740563,-5.067891449097023
1770447417496,119,-9,-8.680884807747118,-4.785351888487949,-4.860677182517687
1770447417500,119,-9,-8.396201164041107,-4.757728065247909,-4.573095760132205
1770447417504,119,-9,-8.137071795323587,-4.597301437100658,-4.305807978941419
1770447417508,120,-8,-7.9538586517615615,-3.828288549349131,-4.110556227970402
1770447417512,120,-8,-7.846603084742224,-3.822501449301128,-3.9919621101716105
1770447417516,120,-8,-7.747148618676549,-3.8913566062087095,-3.884847296292426
1770447417520,120,-8,-7.545672921689272,-3.704731309534864,-3.678262061970366
1770447417524,120,-8,-7.178994795814661,-3.6912545465923943,-3.3057788391727865
1770447417528,121,-7,-6.699976319272879,-2.7748735933858306,-2.818706119618258
1770447417532,122,-6,-6.238108957976282,-1.9308956345636457,-2.3479621407753912
1770447417536,122,-6,-5.874556861437785,-1.8585095944378025,-1.9767682883846456
1770447417540,122,-6,-5.563665625776231,-1.7702073303082164,-1.659492613012306
1770447417544,122,-6,-5.193806917328343,-1.6850866653233794,-1.2829154252312078
1770447417548,123,-5,-4.723600664722085,-0.8235909473608956,-0.804962877029682
1770447417552,124,-4,-4.240989517477368,0.0736757016988671,-0.3146711700879436
1770447417556,124,-4,-3.8812549108976415,0.0619898049849383,0.0515731415517144
1770447417560,124,-4,-3.696640954411615,0.2797610905665622,0.2420404144891839
1770447417564,124,-4,-3.611780684459705,0.2015137913096143,0.3334287052253892
1770447417568,124,-4,-3.4952695914054708,0.232520065679225,0.4574104285040945
1770447417572,125,-3,-3.2624741919627147,0.9929797374698592,0.6975699066404659
1770447417576,125,-3,-2.916235280887417,1.0516871150720433,1.05025019345904
1770447417580,125,-3,-2.5108256454404336,1.295230424230669,1.4615840237394155
1770447417584,126,-2,-2.090049386427162,2.0731884824081472,1.888526400482286
1770447417588,126,-2,-1.6527133371331393,2.3681303445557536,2.3322212735383743
1770447417592,127,-1,-1.166879850540322,2.742267952169515,2.824015409986235
1770447417596,127,-1,-0.6195422366795014,3.3188194062864222,3.3768133847639175
1770447417600,128,0,-0.0583195780165892,3.921599396165835,3.943568275573511
1770447417604,128,0,0.4215644784990648,4.438351002655493,4.4295010813087785
1770447417608,129,1,0.7482224910112882,4.921072414195547,4.762458892629275
1770447417612,129,1,0.944031251020595,5.147638569995902,4.96424391111821
1770447417616,129,1,1.1234278339344097,4.872262184377062,5.149129572056486
1770447417620,129,1,1.4055790834721174,5.296510951063781,5.436538462357977
1770447417624,130,2,1.816120466757334,6.040626592808783,5.852262045326613
1770447417628,130,2,2.269796717452616,6.238319384429733,6.310949852634581
1770447417632,131,3,2.649975417487483,6.806694136563977,6.695908500889362
1770447417636,131,3,2.911210712155651,7.151507424823556,6.961845231502611
1770447417640,131,3,3.1141614875788326,6.958076682704448,7.169690394054612
1770447417644,131,3,3.3662263035491224,7.3393845214231614,7.426984587443841
1770447417648,132,4,3.725632557649708,7.872888680329353,7.791735352041838
1770447417652,132,4,4.156293626760336,8.142091468617064,8.227311445537609
1770447417656,133,5,4.569137967578893,8.762946864945707,8.644214346804288
1770447417660,133,5,4.902834973881028,9.28311647100988,8.981395296260946
1770447417664,133,5,5.161157209379263,8.983947338376392,9.243591749793968
1770447417668,133,5,5.372111681449512,9.125520462075514,9.459354344083463
1770447417672,134,6,5.5208909903505035,9.92363321637305,9.613068598731424
1770447417676,134,6,5.535124381396535,9.83140204343604,9.63115399563508
1770447417680,133,5,5.332033334435971,9.281883869907638,9.430966622052283
1770447417684,133,5,4.868264161116027,8.809647122512937,8.970425061697613
1770447417688,132,4,4.1518502562520805,8.342657593336336,8.258077431810264
1770447417692,132,4,3.229901438445074,7.592750017703376,7.3402456171277874
1770447417696,130,2,2.170578237473121,6.148054091300882,6.2844406586023975
1770447417700,129,1,1.0376234084509526,4.93332101041162,5.1546903102390065
1770447417704,128,0,-0.1313171302635241,4.041530997895037,3.988922759503578
1770447417708,127,-1,-1.3153995806799794,3.137697824505164,2.8077057650155997
1770447417712,126,-2,-2.4774778136919577,1.662238413797874,1.6482457773943096
1770447417716,124,-4,-3.5544827511334,0.1239004536485413,0.5743616537716325
1770447417720,124,-4,-4.49009852759161,-0.157384978672795,-0.3574405534905096
1770447417724,123,-5,-5.269331222499487,-0.8999938085811512,-1.133257322648657
1770447417728,122,-6,-5.917358775465448,-1.9689092120896996,-1.7793719589673684
1770447417732,122,-6,-6.476304305986679,-2.306358591124767,-2.337586939368969
1770447417736,121,-7,-6.987504079521897,-2.891026337070072,-2.8477796991921633
1770447417740,121,-7,-7.477644988906633,-3.274940269560497,-3.3354228919766022
1770447417744,120,-8,-7.936738786510045,-3.763638748210097,-3.790560555379167
1770447417748,120,-8,-8.298418237378973,-4.223221933883472,-4.148126936138187
1770447417752,120,-8,-8.450830060091953,-4.051420837020517,-4.2978433036696195
1770447417756,120,-8,-8.29525096654913,-4.196605491684766,-4.141431400775684
1770447417760,120,-8,-7.8309929190641,-4.05226725072411,-3.677175627296967
1770447417764,121,-7,-7.200865159134148,-2.989225053580976,-3.046622587509775
1770447417768,122,-6,-6.634226232989358,-2.120373804117971,-2.478794191464768
1770447417772,122,-6,-6.30695016041754,-2.1207575425760097,-2.1498435330314765
1770447417776,122,-6,-6.228434805268518,-2.240083432873873,-2.069299387292063
1770447417780,122,-6,-6.253010115117223,-2.0152211669584985,-2.09156852019181
1770447417784,122,-6,-6.2023187307417915,-2.127474218775403,-2.0387307833986936
1770447417788,122,-6,-5.994762513380136,-2.0031420362993333,-1.82982426672567
1770447417792,123,-5,-5.685524585573401,-1.2822344367317262,-1.5203509820116925
1770447417796,123,-5,-5.401784226238653,-1.12171518885132,-1.237173187834491
1770447417800,123,-5,-5.240251002278503,-1.1906661087432502,-1.0761831861076037
1770447417804,123,-5,-5.2121749568315945,-1.0265470630051008,-1.047884569163943
1770447417808,123,-5,-5.264546157761995,-1.138505846073678,-1.099116681530488
1770447417812,123,-5,-5.336944433412551,-1.20316485707312,-1.1699120748864935
1770447417816,123,-5,-5.395819558416668,-1.2089107595816455,-1.227456735362478
1770447417820,123,-5,-5.424060886095705,-1.2047607161764662,-1.2553056487181358
1770447417824,123,-5,-5.392560203474643,-1.0324917192024317,-1.2244840014148943
1770447417828,123,-5,-5.259614399530054,-1.223150137326489,-1.0926164502489897
1770447417832,123,-5,-5.0119042592022325,-1.1203476950938938,-0.8454773833552305
1770447417836,124,-4,-4.70391918134539,-0.3534585285300111,-0.5374217759250264
1770447417840,124,-4,-4.440052648290204,-0.1108402547594029,-0.2735439254433975
1770447417844,124,-4,-4.303232303258394,-0.1893069928787825,-0.1372951765744832
1770447417848,124,-4,-4.296937952812675,-0.1237761270278352,-0.131886683457344
1770447417852,124,-4,-4.354643048049205,-0.2454977732368017,-0.1902457015922436
1770447417856,124,-4,-4.401462714670965,-0.2892937776458828,-0.2373950560202709
1770447417860,124,-4,-4.407967537590153,-0.2077331412894003,-0.2443065711647087
1770447417864,124,-4,-4.393637430999577,-0.1761989918740807,-0.2308704318887851
1770447417868,124,-4,-4.388797980824888,-0.165724878593535,-0.2274504800228576
1770447417872,124,-4,-4.398842547727201,-0.2576656399754127,-0.2391514770027651
1770447417876,124,-4,-4.404700132825995,-0.3145301179976816,-0.246618080639446
1770447417880,124,-4,-4.392683174087333,-0.2394457359981256,-0.2361088963545767
1770447417884,124,-4,-4.377142427288797,-0.2050269942382461,-0.2220495145150141
1770447417888,124,-4,-4.389067741274353,-0.186492764277625,-0.2354283727702077
1770447417892,124,-4,-4.439721959270688,-0.2690022568518708,-0.2874782881503952
1770447417896,124,-4,-4.4938154316792005,-0.3629988016122145,-0.3430507518209806
1770447417900,124,-4,-4.480514016268015,-0.2274229410187795,-0.3315505290727565
1770447417904,124,-4,-4.340896588691332,-0.2983854229436711,-0.1940992494303277
1770447417908,124,-4,-4.078611171553783,-0.1196319121160038,0.0657982805598855
1770447417912,125,-3,-3.769696832643018,0.609629782708565,0.3721589479338991
1770447417916,125,-3,-3.5162697818969413,0.7250855408174544,0.6228917681845458
1770447417920,125,-3,-3.38072654027769,0.6194985429227289,0.7558428734608045
1770447417924,125,-3,-3.356477088268848,0.7979873615062094,0.7778240950625803
1770447417928,125,-3,-3.3924545511289512,0.7354418660923865,0.7396532068705661
1770447417932,125,-3,-3.4390480701455077,0.7048271350893476,0.6904045275160504
1770447417936,125,-3,-3.4744044860790475,0.6148808543342863,0.6517506436855269
1770447417940,125,-3,-3.4958794043798376,0.6321803927859624,0.6267414696872264
1770447417944,125,-3,-3.4903542863111485,0.7807721655130464,0.6291176240839069
1770447417948,125,-3,-3.413139405876587,0.6348758152639247,0.7038753445453503
1770447417952,125,-3,-3.19969796100591,0.8399238102834612,0.9151651904012912
1770447417956,126,-2,-2.806765106680458,1.3687160021077809,1.3052620840282034
1770447417960,126,-2,-2.2530781364515287,1.883023086357145,1.8546371651057347
1770447417964,127,-1,-1.6302070596868496,2.427152449978055,2.472038807847184
1770447417968,127,-1,-1.0733026773627987,2.9576118394443847,3.0236462037570284
1770447417972,128,0,-0.6995615118040028,3.4855168575064504,3.3934516094973035
1770447417976,128,0,-0.5395902342871559,3.642429551135059,3.550930909298454
1770447417980,128,0,-0.504773517454792,3.616166641047629,3.583763643787225
1770447417984,128,0,-0.4275054303083005,3.555061885968937,3.658346919410902
1770447417988,128,0,-0.1644430223110822,3.8640929263060144,3.9172197495818626
1770447417992,129,1,0.3013835921106866,4.4639356978716656,4.377307222843001
1770447417996,129,1,0.8334738352774047,4.68824864770656,4.9028043163997745
1770447418000,130,2,1.2160726119880598,5.469418398401581,5.279050895896624
1770447418004,130,2,1.2848306927817674,5.670495210756883,5.3427552325798695
1770447418008,129,1,1.0248869468174884,4.67634474080959,5.079505597046342
1770447418012,129,1,0.5703836694668907,4.618408288558948,4.6226359022146575
1770447418016,129,1,0.1152379619173582,4.494435573043173,4.164245793625804
1770447418020,128,0,-0.1994363203957967,3.6067128151784584,3.844181565382995
1770447418024,128,0,-0.3588557600602977,3.482012906161536,3.677684108499404
1770447418028,128,0,-0.4740408925893666,3.814911749662053,3.5552749208362315
1770447418032,128,0,-0.7049452239000078,3.427593446054949,3.3181834194814135
1770447418036,127,-1,-1.1520736230996276,2.656704624201822,2.865975619550974
1770447418040,127,-1,-1.789263868612894,2.3831387728709488,2.223978614825363
1770447418044,126,-2,-2.480662597073286,1.6440100151691048,1.527239985783878
1770447418048,125,-3,-3.064791804174705,0.6143435303554985,0.9373688578487608
1770447418052,125,-3,-3.4447559739242988,0.5627272910804735,0.5519949342060821
1770447418056,125,-3,-3.6190609048416023,0.5247587783118117,0.3726250418060868
1770447418060,125,-3,-3.63536513868814,0.4099472747420711,0.350487393465587
1770447418064,125,-3,-3.5238818476513156,0.6210245767448188,0.4544476322338386
1770447418068,125,-3,-3.2898562841522283,0.5180061761631223,0.6799386624744819
1770447418072,125,-3,-2.975012019432238,0.6756763213829433,0.9870591164051354
1770447418076,126,-2,-2.7044171573322995,1.3221847099669004,1.251738734928113
1770447418080,126,-2,-2.6315736530217615,1.6048251333877253,1.3195708937588106
1770447418084,126,-2,-2.8056574606743716,1.3353148773713943,1.1397453276141774
1770447418088,125,-3,-3.094175307623516,0.7746896839561859,0.8442385773179146
1770447418092,125,-3,-3.263516162460431,0.3527770535621284,0.6674476567372949
1770447418096,125,-3,-3.1635309669336547,0.6118293379632456,0.7602117741870391
1770447418100,126,-2,-2.8481697064182043,1.281729489236067,1.0683042736716142
1770447418104,126,-2,-2.5207571222796807,1.5824697948421216,1.3878114913395354
1770447418108,126,-2,-2.3591241296969754,1.5160570615897466,1.5409129085342526
1770447418112,126,-2,-2.378364803039308,1.4997569715002024,1.513090694900579
1770447418116,126,-2,-2.438854569837627,1.4825880581678028,1.444694093814385
1770447418120,126,-2,-2.375220554759001,1.3005393211015002,1.5018360789634464
1770447418124,126,-2,-2.1300512057176,1.582235716949596,1.742214779066681
1770447418128,127,-1,-1.7857670018073026,2.4138033910200756,2.082224624944965
1770447418132,127,-1,-1.483537616560249,2.5876474035469506,2.377823642618819
1770447418136,127,-1,-1.3171328224119585,2.3235239807622428,2.532303206251032
1770447418140,127,-1,-1.2900145972679578,2.4189645193881772,2.541877372044862
1770447418144,127,-1,-1.3197929835925517,2.4242926790100547,2.493078106457472
1770447418148,127,-1,-1.1903842638980695,2.4970182076242486,2.6094926879028204
1770447418152,128,0,-0.4036004058807414,3.4966084540518265,3.395301153996865
1770447418156,131,3,1.9574925747542684,6.3253553859356595,5.76621771986296
1770447418160,136,8,7.112064022282921,11.421497914695534,10.931869790164711
1770447418164,144,16,16.032422024322578,19.34210925679305,19.852246152495457
1770447418168,156,28,28.59418002726969,31.56080153210555,32.396052864463705
1770447418172,171,43,42.94036178908689,46.386816139928655,46.709664748400115
1770447418176,184,56,55.66432310967452,59.370985183016245,59.39843164319082
1770447418180,192,64,63.00211246718495,67.34352055341958,66.71198428011101
1770447418184,192,64,62.527646361551625,67.29619649982837,66.23145222067751
1770447418188,183,55,54.38109975625739,58.54854833466731,58.094364174411496
1770447418192,169,41,41.23330858198759,44.29317900473811,44.96164158579368
1770447418196,154,26,26.956776809305076,29.46231639467706,30.69417649471483
1770447418200,143,15,14.820562375933738,18.230190713646444,18.55280185575684
1770447418204,135,7,6.3025581107193345,10.43315788842752,10.014030926115652
1770447418208,130,2,1.0951937565877898,5.366110130940242,4.776761376675262
1770447418212,127,-1,-1.9889007737034137,2.431130180996005,1.6649438196965018
1770447418216,124,-4,-4.020690042034346,-0.752233319415319,-0.3828470719181402
1770447418220,122,-6,-5.506118139849016,-2.625356337876838,-1.8710706401873147
1770447418224,122,-6,-6.5365797557520935,-2.7257942475336687,-2.8984352836801
1770447418228,121,-7,-7.144216562781497,-3.544902566396668,-3.507170666240831
1770447418232,121,-7,-7.477972312223527,-3.680893904969083,-3.8513182212847736
1770447418236,121,-7,-7.728512140653091,-3.715573395008958,-4.118856910616632
1770447418240,120,-8,-7.981352915127248,-4.724251923677694,-4.388607800957084
1770447418244,120,-8,-8.179988904279568,-4.662091736213215,-4.599412888328959
1770447418248,120,-8,-8.218588345245006,-4.640343214416983,-4.645914740679819
1770447418252,120,-8,-8.052125002705708,-4.649393194396797,-4.487021563821207
1770447418256,121,-7,-7.722578422839129,-3.767337432286984,-4.167985396862086
1770447418260,121,-7,-7.305555007204801,-3.775330087848446,-3.764281942234179
1770447418264,121,-7,-6.855555712883902,-3.612097222523068,-3.32770288214198
1770447418268,122,-6,-6.401866185201181,-2.765522991392584,-2.8854415168649306
1770447418272,122,-6,-5.972076960191504,-2.5352298980883763,-2.465703544768436
1770447418276,123,-5,-5.595403282629957,-1.972954452309942,-2.099857760272827
1770447418280,123,-5,-5.2829839396052405,-1.5833696710420615,-1.7999135219899225
1770447418284,123,-5,-5.022110084778924,-1.8920068053074235,-1.551792194731704
1770447418288,123,-5,-4.797049398942766,-1.4940247407396914,-1.338215999186966
1770447418292,124,-4,-4.599818179779349,-0.8606861143025304,-1.1516939806804745
1770447418296,124,-4,-4.403877928915158,-0.7193490354364598,-0.9674059589807268
1770447418300,124,-4,-4.14035781485628,-0.8416334643297247,-0.7168280846897406
1770447418304,124,-4,-3.733479006560823,-0.7460143702074595,-0.3227154180886158
1770447418308,125,-3,-3.173121731139899,0.3849642626992784,0.2260758095069528
1770447418312,126,-2,-2.5379569148435865,1.156848186301191,0.8500003497367539
1770447418316,126,-2,-1.935365075210077,1.2605725799366794,1.4401753302387927
1770447418320,127,-1,-1.4248081576516225,2.100162507459229,1.9369491382103723
1770447418324,127,-1,-1.00491695132385,2.272009013296179,2.342987603368505
1770447418328,127,-1,-0.6630960189128805,2.3116482702349037,2.672179871187913
1770447418332,128,0,-0.4145521784002688,3.1930190471007314,2.909255999935684
1770447418336,128,0,-0.2747187949538001,3.1859106573115867,3.037595928414738
1770447418340,128,0,-0.1949626610063095,3.107761101129123,3.1049605298526615
1770447418344,128,0,-0.0477882442363759,3.241317548349058,3.23908190874473
1770447418348,128,0,0.2983622502372649,3.249031961174626,3.5721401804509902
1770447418352,129,1,0.8747563646293245,4.262591955197085,4.135446689038352
1770447418356,130,2,1.576274500381928,5.0359848538005565,4.823516760974455
1770447418360,130,2,2.227274626292911,5.243765521514579,5.460678602957229
1770447418364,131,3,2.6940825885912973,6.02353621341556,5.913647718365185
1770447418368,131,3,2.960166921879939,6.427672903195601,6.166320092582737
1770447418372,131,3,3.1168436434139037,6.032790427877101,6.310325513575537
1770447418376,131,3,3.285813112580062,6.22415840553149,6.467320070220276
1770447418380,132,4,3.541377679574164,7.0343577498165475,6.710836359875287
1770447418384,132,4,3.8933844172745986,7.1333170434493915,7.049670263044029
1770447418388,132,4,4.322326159969012,7.328610474596313,7.464070462952798
1770447418392,133,5,4.806350504217953,8.016736391980617,7.933026025776151
1770447418396,133,5,5.30895199138825,8.27340439795586,8.421117214186687
1770447418400,134,6,5.757523517159675,8.868271108067395,8.85623179362723
1770447418404,134,6,6.0569133588598,9.307546935227126,9.142951378675516
1770447418408,134,6,6.141155761804681,9.058339186605965,9.214528906320428
1770447418412,134,6,6.021015961623244,9.262957167932086,9.080948950973006
1770447418416,134,6,5.77806367210305,8.99186667875078,8.823717507798385
1770447418420,133,5,5.495385133871158,8.070355314824734,8.526693251357568
1770447418424,133,5,5.177076237395532,8.104977439882155,8.194537848916696
1770447418428,133,5,4.7371913878415866,8.156963497277584,7.740824971868697
1770447418432,132,4,4.08080071961444,7.1686679420723465,7.069988711453545
1770447418436,131,3,3.1988694247429574,6.010548804713233,6.173499054709085
1770447418440,130,2,2.1798800313393785,5.023584807739903,5.140902990882669
1770447418444,129,1,1.1353588261628087,4.08257161511281,4.08364342958396
1770447418448,128,0,0.1235944938156292,3.1411189710187553,3.0585901845533527
1770447418452,127,-1,-0.8621531634871986,2.141327721543602,2.057951906828271
1770447418456,126,-2,-1.852385723923312,1.008265944369418,1.051868963375623
1770447418460,125,-3,-2.858183511578935,-0.0438942053557509,0.0309362432598905
1770447418464,124,-4,-3.8552063590485792,-0.8844401909779638,-0.9795504649854968
1770447418468,123,-5,-4.789110427271374,-1.9682101611365803,-1.925941200329555
1770447418472,122,-6,-5.589231515280291,-2.7514536562326763,-2.739217833882917
1770447418476,122,-6,-6.189329249788998,-3.1669584435777134,-3.3541498578233915
1770447418480,121,-7,-6.55802385695172,-3.900991104958141,-3.738736776790352
1770447418484,121,-7,-6.726161380109795,-4.0959956441217145,-3.922229488796467
1770447418488,121,-7,-6.780668933969996,-3.8050950236305505,-3.9906776274590054
1770447418492,121,-7,-6.809503613607007,-3.9316997010988017,-4.0327007927143725
1770447418496,121,-7,-6.834209329411159,-4.0592714794064255,-4.071129337450499
1770447418500,121,-7,-6.797451392393457,-4.0159709187571,-4.049113601916336
1770447418504,121,-7,-6.630019196083389,-4.09880309142277,-3.896824075234597
1770447418508,121,-7,-6.3389780198997,-3.790501358844394,-3.620552149450051
1770447418512,122,-6,-6.026126057620926,-3.0289056742382843,-3.3220343377685366
1770447418516,122,-6,-5.809102904635144,-2.956595732456168,-3.1193092278696737
1770447418520,122,-6,-5.718275159682392,-3.2048220069069164,-3.0428615252768414
1770447418524,122,-6,-5.671253196726218,-2.954872890418566,-3.0100958366181967
1770447418528,122,-6,-5.549920467471803,-2.9930914350766367,-2.902904158456771
1770447418532,122,-6,-5.306647773468996,-2.856376774100953,-2.674047250498077
1770447418536,123,-5,-5.003873569293765,-2.1513368884243484,-2.3862920356346304
1770447418540,123,-5,-4.755683431042474,-2.073587107108648,-2.1535022635797505
1770447418544,123,-5,-4.626949559434955,-2.145961308100038,-2.0398221752878216
1770447418548,123,-5,-4.578417200103832,-1.854011174073536,-2.0053627197301616
1770447418552,123,-5,-4.501124845386167,-2.032858431272108,-1.9412394461211304
1770447418556,123,-5,-4.307046841320754,-1.9988988705023352,-1.760364306854404
1770447418560,124,-4,-3.999758004011846,-1.2785973749893724,-1.4675882375385898
1770447418564,124,-4,-3.671219054890108,-1.0064563033713183,-1.155334556297011
1770447418568,124,-4,-3.4379611198215643,-1.039314606313687,-0.938911665500382
1770447418572,124,-4,-3.375900771208721,-0.8912914999753339,-0.8921346455524222
1770447418576,124,-4,-3.492705552192608,-1.1580814748801165,-1.0218725215348536
1770447418580,124,-4,-3.728984169391655,-1.1959914173788433,-1.2702995851520311
1770447418584,124,-4,-3.972626827700137,-1.1192302211612022,-1.527553169371016
1770447418588,123,-5,-4.098869879693918,-2.003330918567088,-1.669275440338447
1770447418592,123,-5,-4.042472594181622,-1.946276351080064,-1.628677013763983
1770447418596,124,-4,-3.852681324468373,-1.129814514754642,-1.4537771612746466
1770447418600,124,-4,-3.663003742086951,-1.3039888273846527,-1.278547344274361
1770447418604,124,-4,-3.5845200544976645,-1.028427093333184,-1.2150031583574066
1770447418608,124,-4,-3.620608615389062,-1.1795187706599748,-1.2661990371933838
1770447418612,123,-5,-3.685355785837033,-1.7943340912874843,-1.3449609925845136
1770447418616,124,-4,-3.699034750978351,-1.3099296222142192,-1.3713580404570545
1770447418620,124,-4,-3.656293650483973,-1.2021923697797616,-1.341744818647042
1770447418624,124,-4,-3.604564337051775,-1.1334188198596635,-1.305323714610117
1770447418628,124,-4,-3.579129566423063,-1.18170173546695,-1.2967953509500152
1770447418632,123,-5,-3.5816368474081273,-1.771834741702894,-1.3152535454519798
1770447418636,124,-4,-3.613395237480282,-1.4388047976865508,-1.3605222274021207
1770447418640,124,-4,-3.692416346973495,-1.060708856912119,-1.4519311319036414
1770447418644,124,-4,-3.813721766611048,-1.3660616940337564,-1.5867017048676249
1770447418648,123,-5,-3.9115140663550503,-1.9733249724927733,-1.6993974311582232
1770447418652,123,-5,-3.896039691519764,-2.021639728344427,-1.699033571710432
1770447418656,124,-4,-3.737999589952064,-1.2682551795100414,-1.5556643485843615
1770447418660,124,-4,-3.5047117400625116,-1.2192149343542154,-1.3370468366628798
1770447418664,124,-4,-3.309321129481278,-1.3125189948704108,-1.1564922067107517
1770447418668,124,-4,-3.2277516342693895,-1.0110756510034091,-1.089320792992889
1770447418672,124,-4,-3.2541361724647793,-1.088530560520797,-1.129301091408033
1770447418676,124,-4,-3.317919962478481,-1.2204509735981055,-1.2064055770190183
1770447418680,124,-4,-3.341893295600931,-1.3116404347838937,-1.2442783670913655
1770447418684,124,-4,-3.2997652310587458,-1.27145584348298,-1.2169854506474076
1770447418688,124,-4,-3.232065035322552,-1.075404290552633,-1.1646620614003345
1770447418692,124,-4,-3.2072558162712386,-1.102214606867386,-1.154911382986047
1770447418696,124,-4,-3.25786493171694,-1.2352767726156817,-1.219555591375836
1770447418700,124,-4,-3.3410686477121216,-1.3480804612225024,-1.3158502098298834
1770447418704,124,-4,-3.3527019389749935,-1.2712591766611163,-1.3404748753185145
1770447418708,124,-4,-3.1865033123301507,-1.123544385544597,-1.1879761781532916
1770447418712,124,-4,-2.80286620274127,-1.0992612821261305,-0.8189070550717439
1770447418716,125,-3,-2.260352758058595,-0.298575051649081,-0.2915664056064244
1770447418720,126,-2,-1.680132932114024,0.699128956923178,0.2733040223327427
1770447418724,126,-2,-1.165898929921302,0.6109884568989652,0.7728216261174516
1770447418728,126,-2,-0.7451150123701322,0.9757789236933992,1.180355916767592
1770447418732,127,-1,-0.3737685263794832,1.725858327538567,1.539590704181582
1770447418736,127,-1,0.0154484566155517,1.8381754180955536,1.9161791771403047
1770447418740,128,0,0.4627914226985827,2.5222773702672914,2.349136103483924
1770447418744,128,0,0.9462406294931878,2.756164883706835,2.8170907555853844
1770447418748,128,0,1.369819085375691,2.7730093492735337,3.2256586232223077
1770447418752,129,1,1.5977412201832888,3.882259698404697,3.4395614437432096
1770447418756,129,1,1.5368067395676808,3.630114468750629,3.3648756568419462
1770447418760,128,0,1.208665227733535,2.6854968968039903,3.022948819658789
1770447418764,128,0,0.7385607387530839,2.5772751110547096,2.539669604998167
1770447418768,127,-1,0.2662045289750185,1.872181320485911,2.05492611105025
1770447418772,127,-1,-0.1344558897143954,1.7501584739766556,1.6415326240623729
1770447418776,127,-1,-0.4622021502588025,1.7124721321611789,1.2995371728039586
1770447418780,126,-2,-0.7467640687101353,0.5729312460707319,0.9995414762123572
1770447418784,126,-2,-1.019597424976087,0.6422840088893929,0.7115300379830192
1770447418788,126,-2,-1.3122745857055562,0.7700978696444327,0.4049256486710542
1770447418792,125,-3,-1.6522369234289822,-0.2372141430386141,0.0522192208051404
1770447418796,125,-3,-2.0407715767527694,-0.2949614498767556,-0.3485260617287742
1770447418800,125,-3,-2.4338781524357698,-0.4886751818879404,-0.7540605466335357
1770447418804,124,-4,-2.753149786204908,-1.3214135766874664,-1.0865949553476049
1770447418808,124,-4,-2.9314017506249628,-1.3224510176076776,-1.279167455407609
1770447418812,124,-4,-2.965494661876714,-1.2080762580487256,-1.3282055259040244
1770447418816,124,-4,-2.9329442709259386,-1.3455007102711436,-1.310188921090611
1770447418820,124,-4,-2.9500367611198453,-1.483435982933062,-1.3405245756972883
1770447418824,124,-4,-3.091011735102851,-1.3628112747130303,-1.493694474704093
1770447418828,124,-4,-3.321844050948342,-1.344971286106658,-1.7368001727157498
1770447418832,123,-5,-3.5093635688589133,-2.234729782275018,-1.937334752833621
1770447418836,123,-5,-3.519819008690371,-2.357990471385276,-1.9612913666191147
1770447418840,124,-4,-3.33235867808237,-1.500464709785354,-1.7875436624146088
1770447418844,124,-4,-3.0598405848215133,-1.3880713580262816,-1.529002129177833
1770447418848,124,-4,-2.855390129476672,-1.378376921273904,-1.3384277955889423
1770447418852,124,-4,-2.795765370254402,-1.2427026043238385,-1.291740908835604
1770447418856,124,-4,-2.8428100896949373,-1.409900630449156,-1.3506602596075137
1770447418860,124,-4,-2.8994117977851435,-1.470220027120971,-1.419320635961923
1770447418864,124,-4,-2.897930417415896,-1.4629559394918852,-1.4315908889249158
1770447418868,124,-4,-2.8473815344817504,-1.3577593929841472,-1.396369348876632
1770447418872,124,-4,-2.8098637007445073,-1.3001305011582105,-1.3733867758411678
1770447418876,124,-4,-2.8341208126512667,-1.417374321878595,-1.4085615872434825
1770447418880,124,-4,-2.902954155817827,-1.4781969947327722,-1.4846085599195735
1770447418884,124,-4,-2.9361877194759827,-1.512495621064562,-1.525595953850701
1770447418888,124,-4,-2.8496776188715893,-1.3476253127768794,-1.4533935875440882
1770447418892,124,-4,-2.6273428828525387,-1.3621095090489002,-1.2541472101158138
1770447418896,124,-4,-2.3285820732511207,-1.402014341296197,-0.9820574752400612
1770447418900,125,-3,-1.9521852652491012,-0.5267559656734413,-0.6257267823640786
1770447418904,126,-2,-1.1614290522237058,0.4983217175186638,0.1593352119297151
1770447418908,128,0,0.9546075205422913,2.582985325946895,2.2827542042559985
1770447418912,133,5,5.782644963775393,7.682361181261501,7.120549233389847
1770447418916,141,13,14.554488869093614,15.495062827948107,15.891028160572302
1770447418920,153,25,27.363348327353982,27.562571948502523,28.679797886204497
1770447418924,169,41,42.41946206906129,43.37757867659697,43.70006317919952
1770447418928,183,55,56.207132751601115,57.64707466159252,57.44786974234444
1770447418932,192,64,64.73484923816619,66.56770481416316,65.94569638275537
1770447418936,193,65,65.31936517379829,67.50954385835593,66.51903211197042
1770447418940,185,57,57.88097848519763,59.472381163082545,59.08721876988797
1770447418944,171,43,44.94819484502612,45.39565774242778,46.16893853515073
1770447418948,156,28,30.365888947791973,30.59514510591144,31.59560262103107
1770447418952,144,16,17.516115952879126,18.63445940842777,18.73915225204253
1770447418956,135,7,8.098833297264697,9.423729749025204,9.298226108037609
1770447418960,129,1,2.03418559765995,3.574275686589099,3.2009813985545583
1770447418964,126,-2,-1.7376060339804722,0.2075232064751437,-0.6001929636124839
1770447418968,122,-6,-4.274971781549465,-3.2490290556355017,-3.1548634523845003
1770447418972,120,-8,-6.106690605347039,-5.605564847377378,-4.9911272673054485
1770447418976,119,-9,-7.305306158215184,-6.352544550612038,-6.188533974122768
1770447418980,119,-9,-7.852188794769312,-6.691992591572535,-6.73772343618722
1770447418984,119,-9,-7.889935176734312,-6.584313988098932,-6.786269415595343
1770447418988,119,-9,-7.702018930591788,-6.477757185750341,-6.615701446213033
1770447418992,119,-9,-7.5404103843952175,-6.480407198677599,-6.472101902805784
1770447418996,119,-9,-7.502386822607136,-6.462454596901714,-6.448096873511215
1770447419000,119,-9,-7.547813801760999,-6.666488414743831,-6.502983183312222
1770447419004,119,-9,-7.601796926323154,-6.622562150151132,-6.5645512316814445
1770447419008,119,-9,-7.631150898975859,-6.494304268527786,-6.602833473448657
1770447419012,119,-9,-7.637915884425321,-6.52828393644299,-6.621264700546461
1770447419016,119,-9,-7.608692834888002,-6.427875029531904,-6.605334366075134
1770447419020,119,-9,-7.497878130940771,-6.7592879252567215,-6.5071533003853705
1770447419024,119,-9,-7.269143161720436,-6.568993899493307,-6.28925973951039
1770447419028,120,-8,-6.939539230138721,-5.577709597385518,-5.969703835405704
1770447419032,120,-8,-6.566068789983055,-5.532329853938028,-5.6070304214855256
1770447419036,120,-8,-6.189768774176188,-5.407277590496809,-5.24227091217425
1770447419040,121,-7,-5.801936414575561,-4.87129688161279,-4.865389453375659
1770447419044,121,-7,-5.360344226285569,-4.4652574435173715,-4.433502494628737
1770447419048,122,-6,-4.826313303799042,-3.752297771450525,-3.908872203014401
1770447419052,122,-6,-4.190098515178638,-3.396017937238854,-3.2831207498470647
1770447419056,123,-5,-3.481298942966534,-2.566300952934985,-2.5860489493788683
1770447419060,124,-4,-2.770819021253663,-1.7776429797625857,-1.887362025349908
1770447419064,124,-4,-2.1583948055240345,-1.5775955289181232,-1.2854879020269645
1770447419068,125,-3,-1.7340617031767998,-0.7223396655452432,-0.8705119611143712
1770447419072,125,-3,-1.5215588408474818,-0.433462531074861,-0.6674590525215551
1770447419076,125,-3,-1.4459972341393532,-0.5984734630463056,-0.6022041841475554
1770447419080,125,-3,-1.371223655254484,-0.756144852371706,-0.5378013097520564
1770447419084,125,-3,-1.1910221183689624,-0.6736139256569027,-0.366971324390728
1770447419088,126,-2,-0.8902591416328338,0.3430112563183702,-0.0749551689829606
1770447419092,126,-2,-0.5167514361313483,0.4575748679912195,0.2891019502213732
1770447419096,126,-2,-0.1078064655041095,0.4755813127511756,0.6874488541532937
1770447419100,127,-1,0.33675645109067,1.1331444919226643,1.121129543159307
1770447419104,127,-1,0.8136782757779648,1.3726861178813312,1.587808863591934
1770447419108,128,0,1.2750025293416272,2.251668554900893,2.0397274473519382
1770447419112,128,0,1.649323577509321,2.5240787806788485,2.4053669445507406
1770447419116,128,0,1.9109271303737625,2.3636187867852394,2.658882421286948
1770447419120,129,1,2.129587499097129,3.209087837024406,2.86954882824375
1770447419124,129,1,2.448229623623457,3.2379276760752203,3.1795469978093127
1770447419128,129,1,2.9890354998435473,3.325482192889347,3.7108615462146215
1770447419132,130,2,3.747991683125702,4.45035331804476,4.459977074530649
1770447419136,131,3,4.56760010014781,5.377064265389681,5.269907690055829
1770447419140,132,4,5.229198717527899,6.1630506810853145,5.922241192059861
1770447419144,132,4,5.599546288527209,6.238073939822074,6.284012661284689
1770447419148,132,4,5.710826005934144,6.233881931497487,6.38762478334335
1770447419152,132,4,5.713321907513242,6.571087974530081,6.383106477203841
1770447419156,132,4,5.748888222492565,6.15473345676465,6.411591835269294
1770447419160,132,4,5.848576943292296,6.406703540287539,6.503361488263667
1770447419164,133,5,5.927625974477484,6.902063375957635,6.5733140368502205
1770447419168,132,4,5.867697644020742,6.530888413297363,6.50372716478375
1770447419172,132,4,5.604548238474783,6.253112308573037,6.231824170971403
1770447419176,131,3,5.147704590496556,5.409257111354644,5.7680144429218565
1770447419180,131,3,4.54136661140915,5.14118639632978,5.155502485465591
1770447419184,131,3,3.830105866839809,5.085363077718746,4.437188183613554
1770447419188,129,1,3.0532421243527077,3.328778880276353,3.652555718652825
1770447419192,128,0,2.235855367490352,2.398208135582416,2.8284550987047066
1770447419196,128,0,1.3681905217434278,2.2497076879794755,1.9553200069157075
1770447419200,127,-1,0.4125986940922665,1.2331726912208238,0.9929643128278852
1770447419204,126,-2,-0.6558864339196919,-0.0377425368701325,-0.0855379216017042
1770447419208,124,-4,-1.829509571585162,-1.5955257892144874,-1.270457800554292
1770447419212,123,-5,-3.0901270668162253,-2.723772080597186,-2.5391121761567605
1770447419216,122,-6,-4.412034436567428,-3.657108208344796,-3.863392687390945
1770447419220,121,-7,-5.695527744400582,-4.9108258649751475,-5.146153718842156
1770447419224,120,-8,-6.700686939193853,-5.931651845487831,-6.153133969518847
1770447419228,119,-9,-7.117157340754922,-6.739091670155772,-6.5779699334511506
1770447419232,119,-9,-6.798158692692636,-6.637316653341701,-6.272655081581767
1770447419236,120,-8,-5.986443104830471,-5.767196032412162,-5.474287967807684
1770447419240,121,-7,-5.279031708581318,-4.846954342022058,-4.774487147613252
1770447419244,122,-6,-5.249620448615696,-4.035232146243429,-4.7461415529173925
1770447419248,121,-7,-5.972458701004949,-4.673984141017265,-5.467187092452952
1770447419252,119,-9,-6.872327756292545,-6.777347643138526,-6.366893875760474
1770447419256,118,-10,-7.118509422926644,-7.652968128110675,-6.617112912395092
1770447419260,120,-8,-6.298408940746757,-6.0109797377999,-5.805808258417459
1770447419264,122,-6,-4.80526104093088,-3.883625655933456,-4.324791535299299
1770447419268,123,-5,-3.589788710582292,-2.8520899461811866,-3.1208776700628356
1770447419272,123,-5,-3.465652827361098,-2.663860520603814,-3.0030633084777323
1770447419276,122,-6,-4.515424427658383,-3.823333153458462,-4.052514071305565
1770447419280,120,-8,-6.038436905282614,-5.920111624009437,-5.572182761529092
1770447419284,119,-9,-7.056970682917391,-6.974927750251844,-6.589857667372301
1770447419288,119,-9,-6.993544068712618,-6.790747905993943,-6.530779873314495
1770447419292,120,-8,-6.024364070570843,-5.742783701187481,-5.569853108153703
1770447419296,122,-6,-4.867678947875368,-3.814975700914444,-4.4224819194479945
1770447419300,123,-5,-4.200948979101276,-2.974393282551067,-3.7639296149999337
1770447419304,122,-6,-4.188377239674833,-3.975861093007864,-3.7566342154120376
1770447419308,121,-7,-4.488091157979815,-4.8061458465358955,-4.057309045226631
1770447419312,121,-7,-4.666997318237416,-4.780242134276694,-4.233739819890616
1770447419316,122,-6,-4.589179066708813,-3.8310418380711546,-4.154089794948826
1770447419320,123,-5,-4.427439510144891,-2.978335412272907,-3.995191320052765
1770447419324,122,-6,-4.3750330258120425,-4.023526670524335,-3.9500696271924793
1770447419328,121,-7,-4.4231481228072465,-4.771149311593545,-4.005968714887128
1770447419332,122,-6,-4.424984960038365,-3.9022492370702313,-4.0128871842364475
1770447419336,122,-6,-4.318431741539552,-3.741619935765952,-3.908388332779859
1770447419340,122,-6,-4.2382684268812785,-4.109161699108254,-3.828075116377846
1770447419344,122,-6,-4.401893093783662,-3.8958929543404066,-3.990268724705217
1770447419348,122,-6,-4.877927075923742,-3.951416542516931,-4.465660994546628
1770447419352,121,-7,-5.457016917032291,-4.801132567317025,-5.047457738750871
1770447419356,120,-8,-5.781879899980893,-5.869120749275427,-5.378351160911843
1770447419360,120,-8,-5.671299441830014,-6.046189880097708,-5.27371532559832
1770447419364,121,-7,-5.34178727682403,-4.9204700912983546,-4.94677000201766
1770447419368,122,-6,-5.255905668178701,-4.024414101834349,-4.8601861984943096
1770447419372,121,-7,-5.6734300290751145,-4.733290117906584,-5.276133373296316
1770447419376,120,-8,-6.32492733288427,-6.052382210077921,-5.92662316278356
1770447419380,119,-9,-6.5660555655848905,-6.850429019051584,-6.167211534983865
1770447419384,120,-8,-5.91883027461375,-6.181849631275296,-5.520371556279253
1770447419388,122,-6,-4.517737134956815,-3.7582694690471214,-4.122203623612679
1770447419392,124,-4,-3.0552248667648203,-2.0474177050424713,-2.6653412888881456
1770447419396,124,-4,-2.2782621625750616,-1.815776208468817,-1.8935620267474804
1770447419400,124,-4,-2.4658698247588524,-2.0903308065835593,-2.0817570583167204
1770447419404,123,-5,-3.284833607029284,-3.06643808597948,-2.896063141079917
1770447419408,122,-6,-4.077640439526763,-3.814326782487577,-3.6826687967021887
1770447419412,122,-6,-4.3212964185410865,-4.112011388143822,-3.9230401817879503
1770447419416,122,-6,-3.924627418318396,-3.7048039188315194,-3.5275990319773207
1770447419420,124,-4,-3.1924985474264274,-2.311009364626756,-2.799605581140555
1770447419424,124,-4,-2.5385238046291523,-1.8501125423308769,-2.149746165125236
1770447419428,124,-4,-2.197630001396001,-2.085047914291487,-1.8105192323737596
1770447419432,124,-4,-2.149177012400857,-1.8926301161020491,-1.76041253481469
1770447419436,124,-4,-2.251466761717366,-1.9352173311113647,-1.8586672869647756
1770447419440,124,-4,-2.411001509010916,-2.175331181225874,-2.0138818448533256
1770447419444,124,-4,-2.622048525211975,-1.967132557766154,-2.222319901286856
1770447419448,124,-4,-2.8736938359078996,-2.0454020077992174,-2.473721778291143
1770447419452,123,-5,-3.0625315244557747,-2.9500813491162052,-2.663533602868291
1770447419456,123,-5,-3.0335752024547116,-2.926590241865112,-2.6347807644951264
1770447419460,124,-4,-2.7198760781151416,-2.2460788581338793,-2.3194092652313167
1770447419464,124,-4,-2.2301801761042612,-1.9056869353521104,-1.826716502085988
1770447419468,125,-3,-1.779694319362776,-1.1566999552787545,-1.373321259497085
1770447419472,125,-3,-1.5185746886294091,-0.8657822769903363,-1.1102680719114884
1770447419476,125,-3,-1.417647221644439,-1.0683379210158814,-1.007977162611733
1770447419480,125,-3,-1.3198762088958902,-1.1687836024515468,-0.9082150214187914
1770447419484,125,-3,-1.10697549544838,-0.988212195023764,-0.6921478911988173
1770447419488,126,-2,-0.8155418864209949,-0.138712156409785,-0.3972721495564135
1770447419492,126,-2,-0.5878576164882592,0.1307123343648686,-0.1671648541118666
1770447419496,126,-2,-0.5129906159092963,-0.1650442835649976,-0.0908309706904417
1770447419500,126,-2,-0.5226595013148694,-0.0899309110871842,-0.0983704924918202
1770447419504,126,-2,-0.4419766146902666,-0.1303060794802135,-0.0134729299583535
1770447419508,126,-2,-0.1378241749172977,-0.0139013174669431,0.296371224516657
1770447419512,127,-1,0.3789864709647663,0.984066750449728,0.8178867851369782
1770447419516,128,0,0.9816511460067484,1.9238151324239976,1.422441740923413
1770447419520,128,0,1.533519604432808,1.7749489358845572,1.9745425396020744
1770447419524,128,0,1.957782369671635,1.953846191891042,2.4006055592841853
1770447419528,129,1,2.2311679492010925,2.8760003695535694,2.6791619412366976
1770447419532,129,1,2.361224634575591,3.0595219570619805,2.816396999451498
1770447419536,129,1,2.392835757444649,2.81523531030347,2.8545558575626067
1770447419540,129,1,2.407579174687791,2.8196831520815873,2.8738804879739943
1770447419544,129,1,2.4697606196644495,2.876481348268684,2.9390186444520676
1770447419548,129,1,2.5486513921049334,2.902053186496591,3.020154266719993
1770447419552,129,1,2.498024910065198,3.028547147309077,2.9719461853427687
1770447419556,129,1,2.1357382612856277,2.791819416913272,2.6132726383683194
1770447419560,128,0,1.3791300942848943,1.796839776788564,1.862418943675132
1770447419564,127,-1,0.3391918310428075,0.8476779937651764,0.830293697220045
1770447419568,126,-2,-0.7001413074350091,-0.1123289430162173,-0.2007592867066869
1770447419572,125,-3,-1.4177830756320624,-0.9671987091735668,-0.9116953566788668
1770447419576,125,-3,-1.6346749187837788,-1.25910136605513,-1.1243410422458822
1770447419580,125,-3,-1.427182396584686,-1.1859714623267554,-0.9143790310228505
1770447419584,126,-2,-1.088172706784989,-0.238676123002778,-0.5731059564419039
1770447419588,126,-2,-0.9460307476476386,-0.0390263668388852,-0.4270283887392607
1770447419592,125,-3,-1.1649774735150271,-1.0924652000710653,-0.6389340818394045
1770447419596,125,-3,-1.666198590519444,-1.15236399380378,-1.1304993660874647
1770447419600,125,-3,-2.20556162797544,-1.3614373443585377,-1.6603815728662998
1770447419604,124,-4,-2.535529677324757,-2.11163531709763,-1.983744448514716
1770447419608,124,-4,-2.5535713450341806,-2.1786812883899107,-1.9979556647477223
1770447419612,124,-4,-2.3602720351527076,-1.993019121597588,-1.801156616854437
1770447419616,125,-3,-2.184380673375143,-1.2788441408454516,-1.6200439537692972
1770447419620,125,-3,-2.2102799614980184,-1.2980069668112262,-1.6387714251516847
1770447419624,124,-4,-2.435711331420261,-2.2232874016430975,-1.855958224318535
1770447419628,124,-4,-2.6809004910751524,-2.097700805622416,-2.092823792505274
1770447419632,124,-4,-2.740426883430368,-2.098541910537115,-2.1446485786299756
1770447419636,124,-4,-2.5459532309791486,-2.2192374735126625,-1.943241605469624
1770447419640,125,-3,-2.2094191158168286,-1.3959025642504388,-1.6002045462339352
1770447419644,125,-3,-1.9222511316047648,-1.1708646548988648,-1.306736064901433
1770447419648,125,-3,-1.7994389401432158,-1.2017847785492908,-1.177918211862799
1770447419652,125,-3,-1.7966226452162912,-0.994490771087638,-1.1690048048494468
1770447419656,125,-3,-1.7654372070185258,-1.4020035856108175,-1.1300868777271718
1770447419660,125,-3,-1.5932043554374142,-1.23131963437736,-0.9468842716378294
1770447419664,126,-2,-1.298714608636862,-0.385620579798795,-0.6389416720903194
1770447419668,126,-2,-1.0022916988684072,-0.0361069829212046,-0.3306244507373441
1770447419672,126,-2,-0.8173496412036777,-0.1457430561568213,-0.1402435077879182
1770447419676,126,-2,-0.7794246507834499,-0.3559429172988277,-0.1047115510988598
1770447419680,126,-2,-0.8491272940739161,-0.2646768245897513,-0.1796671219963674
1770447419684,126,-2,-0.8921196553774303,-0.4566366526217122,-0.2212536368660407
1770447419688,126,-2,-0.5277905502233098,0.0526256017157567,0.1585798489892651
1770447419692,129,1,1.093532197451462,2.7265397529062128,1.8080714277044336
1770447419696,133,5,5.3067249241396794,6.721184225222693,6.051413273033608
1770447419700,140,12,13.438978501117306,13.64995238549274,14.202996794284765
1770447419704,152,24,25.84194860722878,25.533069026330075,26.607957909963694
1770447419708,167,39,41.00920557777311,41.11561446901654,41.76294765009015
1770447419712,183,55,55.55517197307399,56.56745433045871,56.29262634231209
1770447419716,193,65,65.38729558247599,66.89854890941659,66.11644951672223
1770447419720,196,68,67.55005800340095,69.32896349889319,68.28708446451682
1770447419724,189,61,61.64259035429782,62.7816409765661,62.40434577307274
1770447419728,176,48,49.91324390731728,49.80157732824215,50.70933826972427
1770447419732,162,34,36.00016370214358,35.843836710839135,36.827977197138374
1770447419736,150,22,23.170252661104755,23.685272945396925,24.015681249156017
1770447419740,141,13,13.140188002745475,14.478732666826648,13.98515385962462
1770447419744,134,6,6.009199240440991,7.671386496594085,6.842720394419686
1770447419748,128,0,1.0089295113663548,1.8066288881844672,1.8341418049926224
1770447419752,124,-4,-2.648955807221512,-2.1634669954317953,-1.8180234755580615
1770447419756,122,-6,-5.355201916513557,-4.372052194407608,-4.504835446641247
1770447419760,120,-8,-7.168465871633948,-6.481184624069774,-6.294814672375599
1770447419764,119,-9,-8.097722498513342,-7.428672163194051,-7.207141443858776
1770447419768,119,-9,-8.314254618150589,-7.10747262026988,-7.415846199434344
1770447419772,119,-9,-8.160675812379253,-7.3382494044175965,-7.258593827126059
1770447419776,119,-9,-7.995541964482886,-7.186442851959694,-7.087182845327074
1770447419780,120,-8,-8.007712085101966,-6.740731523056524,-7.087780531965517
1770447419784,119,-9,-8.134983276327278,-7.186662655305433,-7.200495136446762
1770447419788,119,-9,-8.15054000026851,-7.399246641476964,-7.202303599303049
1770447419792,119,-9,-7.868293325205113,-7.10490378579411,-6.9088855083012986
1770447419796,120,-8,-7.319329575767324,-6.416571136055289,-6.35063871028247
1770447419800,121,-7,-6.7554625707167135,-5.592141698096994,-5.7779200660404335
1770447419804,121,-7,-6.468722997631282,-5.301847378285452,-5.481814612005164
1770447419808,121,-7,-6.5722701743623295,-5.414517977351676,-5.574929525415901
1770447419812,120,-8,-6.923083189412797,-6.05348287365972,-5.913642158852053
1770447419816,120,-8,-7.241436944512291,-6.588359829508922,-6.218137301207311
1770447419820,120,-8,-7.308472537317302,-6.373945611514942,-6.270966954337498
1770447419824,121,-7,-7.067547065787824,-5.6018176069054535,-6.017717991190234
1770447419828,121,-7,-6.574463065484311,-5.124454914195187,-5.514787669584711
1770447419832,121,-7,-5.901058123890507,-5.394313821333784,-4.83203909427719
1770447419836,122,-6,-5.109316603304608,-4.321807179214373,-4.029391419142034
1770447419840,124,-4,-4.28545465960153,-2.6111481323473567,-3.193362413036826
1770447419844,124,-4,-3.5468409179067217,-2.480052707052046,-2.4427516882990723
1770447419848,124,-4,-2.9953242906512885,-2.1755207705572586,-1.8794029382666393
1770447419852,125,-3,-2.662769953899218,-1.5039222276787054,-1.5341013349893742
1770447419856,125,-3,-2.4844804242951932,-1.163243727077654,-1.3421405436238758
1770447419860,126,-2,-2.3111147400849807,-0.8859392279400602,-1.1553054687230864
1770447419864,125,-3,-1.9752967711153968,-1.156311160521008,-0.8068065188330049
1770447419868,126,-2,-1.401483829519523,-0.5804448680407797,-0.2209068662522875
1770447419872,127,-1,-0.6790054110782804,0.8694086476565679,0.51294297416911
1770447419876,128,0,-0.0174538740411012,1.4226814129343976,1.1849777155174306
1770447419880,128,0,0.3898070249985892,1.4624968111933163,1.6029475339739134
1770447419884,128,0,0.4814802494271644,1.5370229634534691,1.7074331076743987
1770447419888,128,0,0.3501903530971686,1.6026882390185726,1.5913857445924935
1770447419892,128,0,0.1888709121080403,1.7101012412252743,1.4458600535860966
1770447419896,128,0,0.2066614961995427,1.4783170836412425,1.477992302257166
1770447419900,128,0,0.5364645091268816,1.4234516061559952,1.8203385577473767
1770447419904,129,1,1.1636346050527724,2.5409612006296634,2.458971475618419
1770447419908,130,2,1.926396643254619,3.54475862055291,3.2327289168778583
1770447419912,130,2,2.6025533464547355,3.7420225663050406,3.920068881753613
1770447419916,131,3,3.0263714959651775,4.366730414374697,4.356335168316507
1770447419920,131,3,3.162878402901881,4.5523506517460195,4.507286000292152
1770447419924,131,3,3.113166129893185,4.333266757066538,4.4734721850595225
1770447419928,131,3,3.064937618283298,4.757080207321659,4.441144444330966
1770447419932,131,3,3.208871805500174,4.450935418138744,4.599739167490919
1770447419936,131,3,3.6462607087466585,4.628050423206005,5.05002630066892
1770447419940,133,5,4.330946415339908,6.276627984862893,5.746067812049322
1770447419944,133,5,5.081970877552207,6.556715987555212,6.508129914055847
1770447419948,133,5,5.658868777661692,6.520758855990934,7.097567975885605
1770447419952,134,6,5.860850994206258,7.612164128708656,7.314288319761313
1770447419956,134,6,5.6145193781750695,7.442287029481535,7.08367740027191
1770447419960,133,5,5.007286426583414,6.407984759059964,6.491735998995779
1770447419964,132,4,4.221831307749067,5.4360996121927965,5.721058947759452
1770447419968,131,3,3.398639149530963,4.562084681559263,4.912294920287448
1770447419972,131,3,2.5429681932590533,4.550679350405588,4.0698791911288
1770447419976,130,2,1.5603682922184898,3.454951986811641,3.0989688176463805
1770447419980,128,0,0.3693972676358057,1.3597168177067631,1.9198696857400168
1770447419984,127,-1,-1.0215650868618191,0.4875059144448523,0.5433132079993519
1770447419988,126,-2,-2.5116253591630837,-0.5803382533280841,-0.9298080905246012
1770447419992,124,-4,-3.941667865919573,-2.3184149764172197,-2.3427955176109405
1770447419996,123,-5,-5.143972679440188,-3.730534456650288,-3.530138026722343
1770447420000,122,-6,-6.0105447865575234,-4.466596471322221,-4.3840886750026895
1770447420004,122,-6,-6.552218680574021,-4.716555136579111,-4.914088083787944
1770447420008,121,-7,-6.8964942774298885,-5.433042052964814,-5.2456917314528315
1770447420012,121,-7,-7.210364319475965,-5.502136512596279,-5.54456066860168
1770447420016,121,-7,-7.594857115650461,-5.5834581095465365,-5.912073131417401
1770447420020,120,-8,-8.024217428056993,-6.645221096355857,-6.324615971779575
