timestamp_ms,ecg_u8_raw,ecg_counts_raw_int,ecg_counts_filt_monitor,ecg_counts_filt_diagnostic,ecg_counts_filt_st
1768725499964,124,-4,-2.869481348148713,-0.9162072825973364,-0.8441202670249898
1768725499968,125,-3,-2.210324359973214,-0.2448867134253711,-0.1917144192455118
1768725499972,126,-2,-1.4891149985100691,1.167144621171504,0.5257855190532851
1768725499976,127,-1,-1.2424225518081902,1.6233857064655155,0.7729166274141528
1768725499980,126,-2,-1.649951762411831,0.9777413079315014,0.3676652802580863
1768725499984,125,-3,-2.3937895723232057,-0.2455755057911139,-0.3748804170887416
1768725499988,124,-4,-2.922353265165906,-0.9685130791903434,-0.9040614508079844
1768725499992,124,-4,-2.9138305758698704,-0.9456955113423292,-0.897417352686
1768725499996,125,-3,-2.537369510606545,-0.3724265424891637,-0.5237208927409156
1768725500000,126,-2,-2.274087301371739,1.14166649847353,-0.2642740498194051
1768725500004,126,-2,-2.4606025820403143,0.4827647346385892,-0.4545478158573766
1768725500008,123,-5,-2.9830521221952635,-1.5901197218157053,-0.977793430506309
1768725500012,124,-4,-3.3981709003555314,-1.3325176641852172,-1.3896051367345752
1768725500016,124,-4,-3.334411836037545,-0.9693834373958496,-1.3220477485546331
1768725500020,125,-3,-2.784741725094089,-0.1811349733133187,-0.7734853132301324
1768725500024,126,-2,-2.0702003061381413,0.7813538263874281,-0.065861985372145
1768725500028,125,-3,-1.579952273263301,0.2051424167962495,0.4167471349697598
1768725500032,126,-2,-1.5259323585655948,0.8054927119390228,0.4680631467967509
1768725500036,126,-2,-1.847202484149592,0.9829749807959912,0.1496368939026687
1768725500040,125,-3,-2.264433926883753,-0.1595983265397044,-0.2631894208792709
1768725500044,125,-3,-2.4356445559052,-0.1564439474576485,-0.432451586847739
1768725500048,125,-3,-2.143703544820267,0.163696664411687,-0.1421726127401326
1768725500052,126,-2,-1.4167075502381272,0.8279399433240111,0.5806552133212415
1768725500056,127,-1,-0.5035622053769627,2.0338327685701647,1.4888257866232608
1768725500060,128,0,0.2785220789243872,2.774407672154013,2.2667722973899416
1768725500064,128,0,0.7176980262124957,2.989310043753602,2.7041550421311418
1768725500068,128,0,0.7929870182962995,3.014284008007922,2.7806291609604696
1768725500072,128,0,0.6435987699100512,2.9828717034647254,2.6341362714374785
1768725500076,128,0,0.4743023647459099,2.9107451645320292,2.4666749445930978
1768725500080,128,0,0.4592086305031302,2.934760683759019,2.4502866434054904
1768725500084,128,0,0.6695375996276147,2.874137958755925,2.6566760489536616
1768725500088,128,0,1.0366039914151792,3.1547285014978925,3.0195388118943947
1768725500092,129,1,1.3783725858379097,3.831162844716556,3.358770603815165
1768725500096,129,1,1.5045010053969905,4.102076099968979,3.4842619606128147
1768725500100,129,1,1.345673100147677,3.772498877586521,3.3259791346694616
1768725500104,128,0,1.0051694267795153,3.0872449785088794,2.9864228030632103
1768725500108,128,0,0.6841033623646233,2.947633854045083,2.665730982925151
1768725500112,128,0,0.5412799088772424,3.0445516807447315,2.5216923311087136
1768725500116,128,0,0.5945177643856598,2.916130085551555,2.572280027020663
1768725500120,128,0,0.7197472456158296,3.0109284666801632,2.695098242629654
1768725500124,128,0,0.7334239407688093,2.8863213462619024,2.7079073170300205
1768725500128,128,0,0.507537212739566,3.1528952136057224,2.481908224178616
1768725500132,128,0,0.0475924295273653,2.846747479302702,2.0210314094152984
1768725500136,126,-2,-0.5330910514905914,1.133312999680807,1.438761255550409
1768725500140,126,-2,-1.1342655249744071,0.8498232375798517,0.8369271132094924
1768725500144,126,-2,-1.7661649918241142,1.0817649615633984,0.2056267788081272
1768725500148,125,-3,-2.5094287376507856,-0.0318330548268783,-0.537381258287926
1768725500152,124,-4,-3.379053906560344,-0.9629279171406688,-1.4084099896541489
1768725500156,123,-5,-4.252866841649871,-2.016884844125537,-2.2847064431322206
1768725500160,122,-6,-4.9497957477778245,-2.9903427235442552,-2.9837368028856437
1768725500164,122,-6,-5.369304295802877,-3.001358066013649,-3.4042754403758213
1768725500168,122,-6,-5.539411330873153,-2.971457039699041,-3.5743417885591606
1768725500172,122,-6,-5.5314699849155256,-2.9750865095197456,-3.564813910679474
1768725500176,122,-6,-5.352176322176936,-3.0031999036967143,-3.3818512711788458
1768725500180,122,-6,-4.945616575759934,-2.9607659987409254,-2.9714150415313902
1768725500184,123,-5,-4.30958102996046,-2.0039812922945295,-2.336453219378898
1768725500188,124,-4,-3.5970943730153664,-0.946147792446377,-1.6342050914916006
1768725500192,124,-4,-3.070770529518303,-0.9839447479796704,-1.1241412754728946
1768725500196,124,-4,-2.8813509475769745,-0.9680689292024264,-0.9457447019045104
1768725500200,125,-3,-2.7544516400263586,0.0236629890254662,-0.8133775642222605
1768725500204,126,-2,-1.7662566985450434,1.053026519182964,0.1975718493830915
1768725500208,129,1,1.5393527819188693,4.001248743773429,3.530609350172584
1768725500212,136,8,8.509633347777642,11.133563619463,10.51499435472345
1768725500216,146,18,19.350435496024243,20.91225207227441,21.34620575163167
1768725500220,158,30,32.26175997752568,33.204685640954885,34.22890384571081
1768725500224,171,43,43.479471336419586,45.89278792295951,45.41473183298746
1768725500228,177,49,48.5792921649911,52.15099184694106,50.49557543994759
1768725500232,173,45,44.54931080671717,48.00491515509179,46.46738131372513
1768725500236,159,31,31.43266315889997,33.963424404102895,33.37046962166663
1768725500240,139,11,12.455734027174993,14.203081568306477,14.420672744095018
1768725500244,119,-9,-7.482868124383998,-6.131570408789818,-5.495898273741368
1768725500248,102,-26,-24.004417271269514,-22.685448523747933,-22.009226884445876
1768725500252,93,-35,-34.790113097491755,-32.0990544188157,-32.802378829711934
1768725500256,89,-39,-39.72131622134297,-35.86379402264822,-37.751643205299814
1768725500260,88,-40,-39.92628860572083,-36.93394860573662,-37.97538227320706
1768725500264,90,-38,-36.71244723685953,-35.06192067031718,-34.77109982332398
1768725500268,95,-33,-31.146971074607105,-29.653073074025983,-29.202442047702363
1768725500272,103,-25,-24.25513518751917,-22.208230226826636,-22.300177436660977
1768725500276,110,-18,-17.248732905335963,-14.60746608465372,-15.285641861103397
1768725500280,117,-11,-11.34286121009144,-8.268369542133957,-9.37901876852262
1768725500284,120,-8,-7.277525967926392,-4.681118503394393,-5.317338181767339
1768725500288,122,-6,-5.008314445343245,-3.057592147912063,-3.049624030351133
1768725500292,123,-5,-3.8716404355547462,-1.8000244601856952,-1.909350169756902
1768725500296,124,-4,-3.0977099587343604,-0.901838847684471,-1.1298649729547503
1768725500300,125,-3,-2.272941063803387,-0.0246464610529799,-0.3028973343675043
1768725500304,126,-2,-1.4466585641828194,1.2050207797287027,0.5202209985787228
1768725500308,127,-1,-0.8914629939850491,1.937044113054653,1.069972894952287
1768725500312,126,-2,-0.7771567467238756,1.3457918980004038,1.1816807351606702
1768725500316,126,-2,-1.020733863564541,0.8847242130277365,0.9406244237495818
1768725500320,126,-2,-1.372015959091154,1.3070368767632172,0.5944278198131472
1768725500324,126,-2,-1.6010186610234485,0.8320572780229187,0.368741466115724
1768725500328,125,-3,-1.626944729062943,0.342277659409028,0.3427289781504167
1768725500332,126,-2,-1.5206050026989375,0.9826017224173402,0.4474518005419078
1768725500336,126,-2,-1.4030136044113768,1.2328303147327535,0.5644718772672741
1768725500340,126,-2,-1.3218772165908623,1.0649409888729573,0.6469637871354563
1768725500344,126,-2,-1.2064413897904451,0.9984897300328814,0.7647706333617829
1768725500348,126,-2,-0.940952614604064,1.2798243179015534,1.032061181921424
1768725500352,127,-1,-0.4886516088892587,1.970980075972136,1.484638399182132
1768725500356,127,-1,0.0487426866889455,2.3725425452847624,2.0213825913871704
1768725500360,128,0,0.4902049864379569,2.88537044294504,2.463022076245794
1768725500364,128,0,0.7068149467782083,3.2425329509205967,2.681737902069023
1768725500368,128,0,0.7242307720276089,3.0172440863457255,2.702290693958854
1768725500372,128,0,0.713997353379068,3.236462062517648,2.6942474249382893
1768725500376,128,0,0.8667236937147853,3.2000935946856464,2.8474026946686952
1768725500380,128,0,1.2330347338488512,3.0127490358573925,3.213417464678787
1768725500384,129,1,1.6676815168772976,4.224932534003124,3.648283845740029
1768725500388,130,2,1.950716580775764,4.95433754948926,3.932238154250381
1768725500392,129,1,1.997468725395936,4.377650513115648,3.9806232909198
1768725500396,129,1,1.9586683666062712,4.070881264370154,3.94476916794832
1768725500400,129,1,2.103972605573835,4.162046529413552,4.094130579439665
1768725500404,130,2,2.596535449125276,5.1195311526165925,4.589726032711329
1768725500408,131,3,3.3618959227452914,6.0332695140363795,5.354959272406232
1768725500412,131,3,4.142631620107517,6.367820383863805,6.133203540498002
1768725500416,132,4,4.666354009249341,7.082348054176921,6.655503771501581
1768725500420,132,4,4.80235937106303,7.185811606867771,6.793724482281552
1768725500424,132,4,4.6307632219844885,7.102117817182994,6.627254153240503
1768725500428,132,4,4.402806371371786,7.047381305908704,6.404542938488194
1768725500432,131,3,4.407473714846695,6.426009875943383,6.4124793941852065
1768725500436,132,4,4.808006961529383,7.0000424948696764,6.813970085361997
1768725500440,133,5,5.551196381540633,8.360081216899584,7.556597097598359
1768725500444,134,6,6.414200363760271,8.870000925901277,8.41892124555961
1768725500448,134,6,7.1470158318866455,9.348859940180972,9.152550525656766
1768725500452,135,7,7.603125465983641,10.126199038342511,9.611638549351085
1768725500456,135,7,7.784657323117724,10.317614310950288,9.797252592275692
1768725500460,135,7,7.799268300699048,10.095223305793846,9.815245237161054
1768725500464,135,7,7.770326295708662,10.099975341888353,9.78816144496432
1768725500468,135,7,7.760326149995962,10.193510348084292,9.779172547412944
1768725500472,135,7,7.758498264005156,10.255709610668571,9.778831289441058
1768725500476,135,7,7.73399161293126,10.261627490657805,9.757134792396965
1768725500480,135,7,7.697540382502805,10.137526566353644,9.72454522180791
1768725500484,135,7,7.705933515926954,10.090072676196236,9.736536080861342
1768725500488,135,7,7.797325548515067,10.211246763929386,9.82980716584856
1768725500492,135,7,7.912644508400506,10.26483221769055,9.94501315371645
1768725500496,135,7,7.88097036087365,10.2891575335195,9.912780158664948
1768725500500,135,7,7.505514867606656,10.118000734127309,9.538753230397042
1768725500504,134,6,6.709401061982875,9.135523233736164,8.747319366494946
1768725500508,133,5,5.641284379100123,8.157359645027164,7.685853959952318
1768725500512,132,4,4.646046294565682,7.369418364563251,6.6963308167516535
1768725500516,131,3,4.082723659942082,6.19361662540548,6.135786727344924
1768725500520,131,3,4.085211886972852,6.247779493558121,6.138489508378098
1768725500524,132,4,4.437280599517803,7.032303486351534,6.489969250260502
1768725500528,132,4,4.685421252103271,7.238681208024065,6.738175424283924
1768725500532,132,4,4.43579632753068,7.372131915939811,6.490162091468976
1768725500536,131,3,3.615177175748363,6.142101109525191,5.673595943859656
1768725500540,129,1,2.4914620274195096,4.3849662692134235,4.55661047651526
1768725500544,129,1,1.4536802056618592,3.8379327580031504,3.5262299974651947
1768725500548,128,0,0.7498133231678938,3.5087616057184503,2.826773420712519
1768725500552,128,0,0.3779813250058812,3.103085221017597,2.454670223872988
1768725500556,127,-1,0.1550188554592884,2.4602520420950276,2.229531597893919
1768725500560,127,-1,-0.1437531310560957,2.082137303759033,1.9313815684495603
1768725500564,127,-1,-0.6637759882959395,2.104427624722043,1.4164576512227345
1768725500568,126,-2,-1.3993854719785497,1.3209592078309864,0.6877424144169281
1768725500572,125,-3,-2.196088569781362,0.2503759816943769,-0.1038330357739971
1768725500576,124,-4,-2.84992395262167,-0.5640960041051022,-0.75517304341409
1768725500580,124,-4,-3.2549414529222633,-0.9778432941112172,-1.1586406969414669
1768725500584,124,-4,-3.477050555760287,-0.7580229278861137,-1.3783912001624712
1768725500588,124,-4,-3.6775913467248817,-0.8477188873002306,-1.5753969961713523
1768725500592,123,-5,-3.9525405447427167,-1.5049249005027372,-1.846261236809283
1768725500596,123,-5,-4.239085718897641,-1.797556931473577,-2.128936632003364
1768725500600,123,-5,-4.375530368196599,-1.7468749298362911,-2.2620629289831937
1768725500604,123,-5,-4.256806687984444,-1.9784513202461929,-2.1402071633252966
1768725500608,123,-5,-3.943643730825747,-1.6150992058533675,-1.8234875126084849
1768725500612,124,-4,-3.621739673125788,-0.6665072156912812,-1.4976836913908087
1768725500616,124,-4,-3.4378449329199476,-0.6395231168660984,-1.3102576447604457
1768725500620,124,-4,-3.3622908313867073,-0.883283460872609,-1.2316224864350325
1768725500624,124,-4,-3.217998797535338,-0.8680117906251203,-1.0837172047347283
1768725500628,124,-4,-2.856377638118474,-0.6842738802918935,-0.7173217918515755
1768725500632,125,-3,-2.306966901958498,0.4394014026706003,-0.1629658477785749
1768725500636,126,-2,-1.7536493003447553,1.3012161022472737,0.3939226221900203
1768725500640,126,-2,-1.37327696774739,1.156472861024044,0.7765510324844869
1768725500644,126,-2,-1.2074549611389962,1.10378515965389,0.9450618110520496
1768725500648,126,-2,-1.1798006555832032,1.3365907422821728,0.9770160616490088
1768725500652,126,-2,-1.2074149488659784,1.487087440930265,0.9545500173406308
1768725500656,126,-2,-1.2791449919081477,1.2736462542196558,0.8873990198151291
1768725500660,126,-2,-1.4379198267729612,1.203212322243042,0.7323872356475599
1768725500664,126,-2,-1.7049551950163977,1.0364235614229782,0.46913463630788
1768725500668,125,-3,-2.0228544575906033,0.4188178465024417,0.1555108159014945
1768725500672,125,-3,-2.26617919353309,0.4525129125052678,-0.0835385984563313
1768725500676,125,-3,-2.312423475655218,0.3439992749188996,-0.1260145947975517
1768725500680,125,-3,-2.121851639198656,0.1447375265360697,0.0682767641993926
1768725500684,126,-2,-1.7640681667064708,1.07536867057043,0.4306234879456698
1768725500688,126,-2,-1.36310214554852,1.406525389227478,0.8369413313847041
1768725500692,126,-2,-1.0001331343595874,1.4893165278219458,1.204793640630942
1768725500696,127,-1,-0.661464762561256,2.3645611260425707,1.5469198028030489
1768725500700,127,-1,-0.2905963138946483,2.117816638891727,1.9206444509746632
1768725500704,127,-1,0.096397759963639,2.0779894009027773,2.311695667152207
1768725500708,128,0,0.3569414848805039,3.449382848015704,2.5778503167845264
1768725500712,128,0,0.3163389798094864,3.4502885737257154,2.5427333052806445
1768725500716,127,-1,-0.0616087874497788,2.485093866343136,2.1688001444466063
1768725500720,127,-1,-0.608405228795613,1.966048343324674,1.6254307093570364
1768725500724,126,-2,-1.074335017629121,1.2292577326212004,1.1641620404904196
1768725500728,126,-2,-1.3232940033547966,1.294242466536428,0.9213438948357254
1768725500732,126,-2,-1.407249570600441,1.6826607958286606,0.843335680913949
1768725500736,126,-2,-1.4631698055878049,1.275670186344754,0.7916381282873419
1768725500740,126,-2,-1.5578801764556174,1.1991156707445074,0.6997985517462157
1768725500744,126,-2,-1.64174681138682,0.9432206006656748,0.6191804014123965
1768725500748,125,-3,-1.6392488412787127,0.6043444417705206,0.6264126615980822
1768725500752,126,-2,-1.5578108429189317,1.4177836419603396,0.7136047825482036
1768725500756,126,-2,-1.490173934135829,1.6056679337291722,0.7870355433210481
1768725500760,126,-2,-1.5138180728507906,0.8605991386200313,0.7690228743448897
1768725500764,126,-2,-1.6017569148109752,1.244703129145522,0.6867415538633391
1768725500768,126,-2,-1.638703771622617,1.33093553530063,0.6549813915345405
1768725500772,125,-3,-1.5306570272195827,0.6916990013370448,0.7668631282321132
1768725500776,126,-2,-1.313320882719104,1.4725786398250036,0.9867853262630816
1768725500780,127,-1,-1.159502205055531,1.9007024917643192,1.143567531056779
1768725500784,126,-2,-1.2595741398395948,1.2621369082161429,1.0487955112248255
1768725500788,126,-2,-1.6546313105484678,1.2345126833171745,0.6616206095288385
1768725500792,125,-3,-2.153272436707941,0.9028079652678423,0.1713193017352294
1768725500796,125,-3,-2.4181631265820283,0.2716061202963677,-0.0872876587389754
1768725500800,125,-3,-2.1938285073475567,0.1342149031174526,0.1407993643223943
1768725500804,126,-2,-1.5216308677358747,0.9904901054056514,0.815637998322392
1768725500808,127,-1,-0.7533249271909317,2.495998031691081,1.5868204595946895
1768725500812,127,-1,-0.3140472879944663,2.7316346435344725,2.0297532475678475
1768725500816,127,-1,-0.3907560540722898,2.4415928029332603,1.9581182642310409
1768725500820,127,-1,-0.8060092295838134,2.0223831183981646,1.5502255772673783
1768725500824,126,-2,-1.1754041542291644,0.9962002601298034,1.1899775484745494
1768725500828,126,-2,-1.1956364880249029,1.5496556781738189,1.1778231534434536
1768725500832,127,-1,-0.8167440557502423,2.7121869974260657,1.5607091478667492
1768725500836,127,-1,-0.1951085413303213,2.5379646179771536,2.182836826853669
1768725500840,128,0,0.469102832188828,2.9207162992794915,2.8485356099425823
1768725500844,129,1,1.054764311534527,4.040275778537079,3.44053249091988
1768725500848,129,1,1.5502504364765834,4.508818328630158,3.9461424112714223
1768725500852,129,1,2.0220663806856556,4.814748111855751,4.4270104626867
1768725500856,130,2,2.546285706697711,5.512112413158272,4.955661418182146
1768725500860,131,3,3.116666587579287,5.929366313149996,5.527149167843488
1768725500864,131,3,3.5808870789950245,5.98508452955389,5.993626777425905
1768725500868,131,3,3.686576348262177,6.560997944231558,6.105379014246418
1768725500872,131,3,3.2596439259487795,6.825538886060135,5.686604722366033
1768725500876,130,2,2.3936063973369066,5.582506190107129,4.8276972816321795
1768725500880,129,1,1.448728993801064,3.8292024452411626,3.88856203975922
1768725500884,128,0,0.8000804831086765,3.0491673575500355,3.2460804017964033
1768725500888,128,0,0.5410823632425387,3.473283212934981,2.993636861505559
1768725500892,128,0,0.4302514734137945,4.011601857597775,2.8872269051346837
1768725500896,128,0,0.127599061642706,3.4654937158800387,2.586172902221737
1768725500900,127,-1,-0.529611213777349,1.9355697043413855,1.9314443927270677
1768725500904,126,-2,-1.465288927405806,0.8641079158349698,1.0031044310327768
1768725500908,125,-3,-2.5021858956855394,0.6470849268902248,-0.0231050727689199
1768725500912,124,-4,-3.494753368862144,-0.0807763332319622,-1.0075075207789932
1768725500916,123,-5,-4.346258291407538,-1.3345190953079116,-1.856239864321823
1768725500920,123,-5,-4.98603532260037,-2.296148401574505,-2.494566737579782
1768725500924,122,-6,-5.392945973443019,-2.965837689339083,-2.895553572961157
1768725500928,122,-6,-5.614714936200356,-2.565877479180589,-3.107306385067868
1768725500932,122,-6,-5.6986926268067695,-1.758451647365744,-3.1836120967355632
1768725500936,122,-6,-5.5969462992334265,-2.547800918766249,-3.080300366578208
1768725500940,122,-6,-5.208987418118589,-3.1452569630041873,-2.692029988192891
1768725500944,123,-5,-4.5697147187075515,-2.1259875419155954,-2.045667357600772
1768725500948,124,-4,-3.9486337152521536,-0.5502580596249671,-1.409999315762985
1768725500952,124,-4,-3.66766004524631,0.4634098592520286,-1.115943341584433
1768725500956,124,-4,-3.7834687660822017,-0.7681863372731137,-1.2303039245875036
1768725500960,123,-5,-3.9797266496250527,-1.9049653516024283,-1.4379839007895252
1768725500964,124,-4,-3.773205084266512,-1.446808775411189,-1.2454843924566594
1768725500968,125,-3,-2.7446715248962708,0.6352312000638216,-0.2169495023196233
1768725500972,127,-1,-0.4825872930004311,3.5616812609022843,2.071653452191354
1768725500976,131,3,3.66764437317684,6.145636667020625,6.2698989851852245
1768725500980,139,11,10.600644111158696,14.11840863280393,13.244106044632842
1768725500984,150,22,20.83627426048052,24.694145697861668,23.480257876440024
1768725500988,162,34,33.405619939870554,36.84861428484185,36.005189574109295
1768725500992,167,39,44.938143671339226,45.445872969385825,47.48635883692671
1768725500996,173,45,50.070035201385686,45.177153104684166,52.603038307750566
1768725501000,176,48,43.92168545537104,55.22237151321313,46.4778918536956
1768725501004,173,45,25.664068221960243,42.39993339422582,28.253086790935235
1768725501008,111,-17,0.2712907590622784,-8.193606326954832,2.8904001808124136
1768725501012,98,-30,-23.781039451636644,-29.738486306718563,-21.124533258178236
1768725501016,91,-37,-39.44832288355875,-30.56304301375103,-36.75455472350276
1768725501020,87,-41,-44.603658618193954,-39.66258789436253,-41.90474610381872
1768725501024,88,-40,-41.67263863729529,-37.167213790357906,-39.0129426222527
1768725501028,92,-36,-34.7460205909518,-31.712312273926564,-32.13758584366174
1768725501032,99,-29,-27.014088631087596,-25.514332459884617,-24.424582920739816
1768725501036,107,-21,-19.98963238241175,-16.622936472211602,-17.37440276077838
1768725501040,114,-14,-14.087774393652309,-11.71417776152762,-11.426875517757514
1768725501044,119,-9,-9.430112605367889,-6.067892062045115,-6.736343533523701
1768725501048,122,-6,-6.160948228732154,-2.3216830144059912,-3.461162702309355
1768725501052,123,-5,-4.292928272611865,-0.8489446222143506,-1.6053086588574188
1768725501056,124,-4,-3.5131173270561407,-0.3136497766426984,-0.837380386880062
1768725501060,124,-4,-3.282254845322382,-1.1289382483280284,-0.6052078842814244
1768725501064,125,-3,-3.1569985583662277,-0.2824594275246217,-0.4659722791320908
1768725501068,125,-3,-2.9935229635799585,0.7661158919631335,-0.2867687922546438
1768725501072,125,-3,-2.833878592027612,1.0432824699994458,-0.1199800699229221
1768725501076,125,-3,-2.6539372113499446,0.6697308358249661,0.0583612378432483
1768725501080,125,-3,-2.3028926970162056,-0.0314998755960536,0.4079759875471449
1768725501084,126,-2,-1.698966433831912,0.7579588005195257,1.017943131596402
1768725501088,127,-1,-0.9988009450830442,2.7747111466685244,1.7292057505298433
1768725501092,128,0,-0.4825015980124969,3.90885544638578,2.2536125169863706
1768725501096,127,-1,-0.2712202026573418,2.7526259957552877,2.466970154656318
1768725501100,127,-1,-0.223847012937971,1.923580383722384,2.515521191868949
1768725501104,128,0,-0.1314985830674475,2.9323778372933513,2.613710660281221
1768725501108,128,0,0.047591606377163,3.647278797765735,2.8019669628227044
1768725501112,128,0,0.1955396442078558,3.921791551721877,2.9568380262370977
1768725501116,128,0,0.2388748011668635,3.7265101867946946,3.0029851137667176
1768725501120,128,0,0.2700697334843842,2.931605818176007,3.0368366820230293
1768725501124,128,0,0.442704548379792,3.0993970323980635,3.215751294357284
1768725501128,129,1,0.7884211045399301,4.450119844420004,3.569500762193496
1768725501132,129,1,1.1785328141039269,5.107678404231194,3.9645287143611414
1768725501136,129,1,1.4496228721523925,4.434378009609992,4.236530686292985
1768725501140,129,1,1.527000946372684,4.302282963379815,4.315454683495836
1768725501144,130,2,1.439771567036786,4.796341661666842,4.2346950200958915
1768725501148,129,1,1.2859974387353144,4.791593342245368,4.090999883506091
1768725501152,129,1,1.223955569270074,4.720618459504996,4.037502793344098
1768725501156,129,1,1.4518175731393963,4.739838691326698,4.26926419087032
1768725501160,130,2,2.1041846409222833,5.077277414751306,4.922659541073365
1768725501164,131,3,3.1100476790659144,6.0559420311095895,5.930606263821808
1768725501168,132,4,4.1661127815637045,7.62123860092944,6.991430311680219
1768725501172,133,5,4.9131137241313265,8.789518926210313,7.744213882925601
1768725501176,133,5,5.197045349166598,8.650156915437993,8.033081144988628
1768725501180,133,5,5.177547892735039,8.179853544875284,8.018163942033258
1768725501184,133,5,5.1741329917623435,8.026798880546151,8.020524011493983
1768725501188,133,5,5.399399740600755,8.702315562051776,8.25242807439258
1768725501192,134,6,5.831838926490145,9.643550055232344,8.69010574152228
1768725501196,134,6,6.316798680258983,9.776455816902612,9.177810928061426
1768725501200,135,7,6.748185578872627,10.06514712234186,9.61135392391319
1768725501204,135,7,7.135650087917983,10.211346450583694,10.00302951871317
1768725501208,135,7,7.523858722996847,10.554726945813607,10.397377898313987
1768725501212,136,8,7.891426516289053,11.722583166406029,10.770220136045277
1768725501216,136,8,8.144708402917,11.71115590238184,11.026346777161304
1768725501220,136,8,8.191500662678092,11.09170072770107,11.075586204741104
1768725501224,136,8,8.011000302323206,11.322776370178527,10.900043409538542
1768725501228,136,8,7.680822534045405,11.386485469149015,10.577055586257345
1768725501232,135,7,7.364271436634124,10.919007028568624,10.266806064983994
1768725501236,135,7,7.243598666263703,10.438180556812606,10.149577434792189
1768725501240,135,7,7.398611378876268,10.423051221298929,10.306327251241743
1768725501244,136,8,7.71455781791846,11.03241993759707,10.624459589802289
1768725501248,136,8,7.934863789367944,11.7028441938238,10.84809366867362
1768725501252,136,8,7.855411800043617,11.575947027993372,10.77275520113588
1768725501256,135,7,7.497681365426142,10.730575509638808,10.420120154830984
1768725501260,135,7,7.0947252007640245,10.18100411685878,10.023627973124002
1768725501264,135,7,6.898788063249937,10.279825107640225,9.834377319472232
1768725501268,135,7,6.98170504420494,10.54051006158542,9.921689713131965
1768725501272,135,7,7.1836658441295995,10.651799329123495,10.12449748308267
1768725501276,135,7,7.220354698511788,10.689001785591651,10.160358173142152
1768725501280,135,7,6.847822941508031,10.180313076785517,9.78892867160584
1768725501284,134,6,5.985241625749045,9.359362289796977,8.93147168638283
1768725501288,133,5,4.752669106637956,8.468010314876532,7.7069061252600815
1768725501292,131,3,3.4215183816025605,6.704613935333656,6.383457282335579
1768725501296,130,2,2.2954579916892976,5.616070562919788,5.262107696460237
1768725501300,130,2,1.5674152443332123,5.261937235494532,4.535396137869597
1768725501304,129,1,1.224573815728697,4.326538460706422,4.192455251900656
1768725501308,129,1,1.0625652242959205,4.526667187672882,4.0315783742203415
1768725501312,129,1,0.8140887149047333,4.629974886265595,3.786757790535408
1768725501316,128,0,0.3208186176445977,3.6471789884137897,3.2988285871945746
1768725501320,128,0,-0.3687627144650454,3.253363843545368,2.6144316222995094
1768725501324,127,-1,-1.0544154609114305,2.3668298316842913,1.9327241104618604
1768725501328,126,-2,-1.5554396147988214,1.5134541588881425,1.4347119336325442
1768725501332,126,-2,-1.859517404696282,1.631710847910649,1.1334470136744073
1768725501336,126,-2,-2.119401814473729,1.6118695604549258,0.8762796141317775
1768725501340,126,-2,-2.5001305728343906,1.303330213343408,0.4980030864831151
1768725501344,125,-3,-3.0226562849531304,0.3602463692697066,-0.0218740925188456
1768725501348,124,-4,-3.5521335053260303,-0.4711746204861016,-0.5478451015166816
1768725501352,124,-4,-3.928185725642632,-0.3957878573679125,-0.9198818524683344
1768725501356,124,-4,-4.096806070309271,-0.3936855622270037,-1.0850742132069735
1768725501360,124,-4,-4.125073469232056,-0.6623917546700486,-1.110739300800654
1768725501364,124,-4,-4.1103735557588745,-0.6438676600400104,-1.0933020799608646
1768725501368,124,-4,-4.082313429817091,-0.434487573751567,-1.0618071979542427
1768725501372,124,-4,-3.978959994463811,-0.4915931297319325,-0.955169665314712
1768725501376,124,-4,-3.711124292506612,-0.2824070965104683,-0.6852271215769283
1768725501380,125,-3,-3.263586913872756,0.2066388372999734,-0.2362598118458891
1768725501384,125,-3,-2.747474276210724,0.5657628961323276,0.2822484988297729
1768725501388,126,-2,-2.3414163964938277,1.3424098451894693,0.6922850398174039
1768725501392,126,-2,-2.1476415472322192,1.7151747954936298,0.8902024112587916
1768725501396,126,-2,-2.084740078016402,1.4892606517312594,0.9557424408470347
1768725501400,126,-2,-1.9390757502735465,1.4304983096521502,1.1029381232555266
1768725501404,126,-2,-1.5603419361122606,1.4247303969849954,1.4839859416552774
1768725501408,127,-1,-1.0241397659450966,2.433629481314497,2.0237328120973683
1768725501412,128,0,-0.583989096185959,3.682740916458922,2.4667350126548184
1768725501416,128,0,-0.4415139340370001,3.412265403026744,2.6100235838906034
1768725501420,127,-1,-0.5676891489076558,2.606439204950247,2.4844646656439533
1768725501424,127,-1,-0.7590114474593452,2.205279884149915,2.29641788457999
1768725501428,127,-1,-0.849793380891622,2.7102761822966768,2.211173072963967
1768725501432,128,0,-0.8416383199681384,3.3643247273839245,2.2234961277212406
1768725501436,127,-1,-0.839178157099399,2.7334327249872055,2.2265340525039132
1768725501440,127,-1,-0.909744423344648,2.3030720792812724,2.154938071638803
1768725501444,127,-1,-1.0283887769348958,2.512105009724543,2.0371566244361925
1768725501448,127,-1,-1.1253793143121302,2.422664106679054,1.9438619544708529
1768725501452,127,-1,-1.143860030322947,2.614559385994879,1.9299609286602455
1768725501456,127,-1,-1.051166670838989,2.521578510458982,2.026025125136435
1768725501460,127,-1,-0.828104769344846,2.483312533865157,2.2508438523168732
1768725501464,128,0,-0.4750561158019243,3.3847554315312767,2.6048607081283883
1768725501468,128,0,-0.0359723298666069,3.5185882409361486,3.0450576437905665
1768725501472,128,0,0.3862155154629424,3.5245232243216567,3.4689175126393694
1768725501476,129,1,0.6493241583799405,4.612579711936384,3.7340178648665474
1768725501480,129,1,0.6306609049375906,4.396701823498294,3.717242772498651
1768725501484,128,0,0.2897112350908197,3.4766406659404048,3.378129219800834
1768725501488,128,0,-0.3140157246353797,3.443303746142502,2.7765461559216216
1768725501492,127,-1,-1.0567046347720053,2.558770330727839,2.0362772892635403
1768725501496,126,-2,-1.803425563306948,1.6154840138343562,1.2918343358429094
1768725501500,126,-2,-2.4445540272076127,1.3722446425595352,0.6526537752240893
1768725501504,125,-3,-2.908796774834592,0.5482303137426325,0.1901976512916701
1768725501508,125,-3,-3.1616009493317847,0.3296373859094075,-0.0609460127046479
1768725501512,125,-3,-3.1987841679477653,0.705069099626888,-0.096835393729354
1768725501516,125,-3,-3.0445495511836165,0.4284967790948859,0.0583719821582875
1768725501520,125,-3,-2.7579401306640143,0.6017913990617996,0.3462135860557664
1768725501524,126,-2,-2.4338631941478797,1.3176343751893544,0.6721802062349369
1768725501528,126,-2,-2.1756589421575936,1.5415657652816548,0.9325246109392942
1768725501532,126,-2,-2.044863168780746,1.514397190759517,1.0649817556042591
1768725501536,126,-2,-2.031000153105027,1.5762144876846762,1.079870077750059
1768725501540,126,-2,-2.0734737530165357,1.5095108510741106,1.0383792712104492
1768725501544,126,-2,-2.116119708399691,1.3767153285730624,0.9973799388617994
1768725501548,126,-2,-2.142717037715143,1.5079686891621158,0.9731046225021815
1768725501552,126,-2,-2.162287370666571,1.5311139161131502,0.9556773513960852
1768725501556,126,-2,-2.1662531009548194,1.544183815531683,0.9528308089379798
1768725501560,126,-2,-2.1144854197093066,1.5896619382461166,1.0049759375795124
1768725501564,126,-2,-1.9809823065173855,1.2453008777973076,1.1393051345476042
1768725501568,126,-2,-1.816513097016767,1.696678459092631,1.3055089022956292
1768725501572,127,-1,-1.7467951326635254,2.2811945923363037,1.3768113053052289
1768725501576,126,-2,-1.8856021602315127,1.83092807607516,1.2384235935586625
1768725501580,126,-2,-2.2443185698557437,1.297907873047269,0.8797511296145735
1768725501584,125,-3,-2.729299685499501,0.5321778885108184,0.3960998708278485
1768725501588,125,-3,-3.215078375921856,0.4160015503739167,-0.0869794191366897
1768725501592,125,-3,-3.603157347255327,0.5395937454373787,-0.472710996226136
1768725501596,124,-4,-3.822366782392656,-0.4047308307668058,-0.6911112810830864
1768725501600,124,-4,-3.8137888212823903,-0.4602748340919746,-0.6825842147081911
1768725501604,125,-3,-3.543811078085219,0.2755258850376745,-0.4122858829683453
1768725501608,125,-3,-3.027284814455646,0.6876892483042385,0.1052431115636851
1768725501612,126,-2,-2.326617241771178,1.2198455517277675,0.8072110451208947
1768725501616,126,-2,-1.528190189832923,1.9891966719688088,1.606853643148797
1768725501620,128,0,-0.7159807684000065,3.0787186348525424,2.419900720057242
1768725501624,128,0,0.045689903630512,3.7925392092541808,3.1819639576755696
1768725501628,129,1,0.7129211472631667,4.116680835831087,3.8495719426435846
1768725501632,129,1,1.248892289529458,4.796935645889679,4.386386149481028
1768725501636,130,2,1.6195457899860144,5.451498266266161,4.7581686746714
1768725501640,130,2,1.815267330100152,5.555324755261504,4.954766000045484
1768725501644,130,2,1.874993610295678,5.3979092077656095,5.015124054497042
1768725501648,130,2,1.8739870927802316,5.404997377405129,5.015021854940883
1768725501652,130,2,1.8768420378808977,5.587242374528622,5.019160056666394
1768725501656,130,2,1.8975259902635004,5.611240489179364,5.040890098072357
1768725501660,130,2,1.896829200118544,5.4344873087825665,5.040335287495614
1768725501664,130,2,1.8103213284003965,5.5079107695946465,4.953031837095075
1768725501668,130,2,1.5836584369175546,5.264910613256835,4.72535060069614
1768725501672,129,1,1.1992294200046305,4.742948544073263,4.3408183411316195
1768725501676,129,1,0.6885300360255617,4.443810242508764,3.831743231174732
1768725501680,128,0,0.1312031692771686,3.623100497308608,3.277285822390376
1768725501684,128,0,-0.357526826361593,3.3086443874122136,2.7908063309247124
1768725501688,128,0,-0.6581196408728649,3.4419740247467616,2.490244686193476
1768725501692,127,-1,-0.7085211369300375,2.5822775199003063,2.4381782821847446
1768725501696,127,-1,-0.5772720936426311,2.577490547298358,2.5680755951676826
1768725501700,128,0,-0.4746816299562366,3.543291713984895,2.6704919052093805
1768725501704,128,0,-0.6422385247455377,3.3275881783363888,2.5028778994527228
1768725501708,127,-1,-1.1794988958112995,2.454924304779182,1.964959140161393
1768725501712,126,-2,-1.9611662354185484,1.529963732108173,1.1833429266600248
1768725501716,125,-3,-2.724926086485379,0.6452256862257435,0.4220218943852818
1768725501720,125,-3,-3.244688304309439,0.47441108658749,-0.0936924505054528
1768725501724,125,-3,-3.43835098529958,0.4049749731777594,-0.2850864763548337
1768725501728,125,-3,-3.353577409451354,0.3566895761507185,-0.2027058037987363
1768725501732,125,-3,-3.1014740266996483,0.6446397892288325,0.0432927479838103
1768725501736,125,-3,-2.825101696327621,0.4917530237057488,0.3146748029258066
1768725501740,125,-3,-2.6986749188830426,0.6587124192951164,0.4420964939284968
1768725501744,126,-2,-2.882214397025471,1.1944206875886072,0.2659068564357927
1768725501748,125,-3,-3.4103572731559058,0.5795658495161657,-0.2537778418563068
1768725501752,124,-4,-4.116733797347039,-0.5954392223317815,-0.958033949059558
1768725501756,123,-5,-4.712523480889688,-1.2786425514445907,-1.5622117641818574
1768725501760,123,-5,-4.981325634079626,-1.5657863797261562,-1.8467770068609248
1768725501764,123,-5,-4.879556072182489,-1.5936738755139834,-1.7581088108598788
1768725501768,124,-4,-4.355494832795098,-0.6043724699674491,-1.2335448456197189
1768725501772,126,-2,-2.9576599607871317,1.55575872901421,0.1818177214057619
1768725501776,129,1,0.393445249517494,4.591170510827162,3.5591699878844163
1768725501780,135,7,7.041982652255163,10.518842757658373,10.22682213865804
1768725501784,145,17,17.583410570179495,20.381496497330566,20.76687163645259
1768725501788,158,30,30.752713932959512,33.36243406827652,33.91241799622711
1768725501792,171,43,43.10988489833195,46.675659853206106,46.2349539571009
1768725501796,179,51,50.08605512643894,54.355642363219495,53.18390417339169
1768725501800,177,49,48.06045633171054,52.80227628542925,51.15260993714516
1768725501804,166,38,36.31267601562906,40.954316074888354,39.42251629504793
1768725501808,145,17,17.602678101359764,20.81515510692904,20.743089721192995
1768725501812,124,-4,-3.0640104760228297,-0.817875369145109,0.1037805661941018
1768725501816,106,-22,-20.749059123249616,-18.09658685419604,-17.57017243614556
1768725501820,96,-32,-32.55023577987856,-28.659880192957026,-29.38053182804942
1768725501824,91,-37,-38.14650008630403,-33.59901190547656,-34.999642126850794
1768725501828,90,-38,-38.915360940496385,-34.543435450273506,-35.79180197708561
1768725501832,92,-36,-36.54822700676629,-32.60328167556247,-33.43655065128074
1768725501836,95,-33,-32.19094621096906,-29.230056207689707,-29.07617956908485
1768725501840,101,-27,-26.474266695205536,-23.6546463312335,-23.347435119076785
1768725501844,108,-20,-20.02060288052669,-16.48729977247169,-16.88320542537521
1768725501848,115,-13,-13.747786109636555,-9.746447923186516,-10.60874031817964
1768725501852,120,-8,-8.651922663643244,-4.360233838979632,-5.51988827361091
1768725501856,123,-5,-5.317044238264898,-1.5473449289267889,-2.194099370255421
1768725501860,124,-4,-3.6396133831892743,-0.3485979062625151,-0.5207660576355475
1768725501864,125,-3,-3.0128054173196306,0.2247765548717863,0.1089687586755763
1768725501868,125,-3,-2.7843349835144573,0.5229917824400245,0.3433322438558708
1768725501872,126,-2,-2.5976463671361523,1.4035261289494096,0.5325800578425293
1768725501876,126,-2,-2.39746876210124,1.6460386197955736,0.7288805589182681
1768725501880,126,-2,-2.214284600576752,1.459926589033961,0.904356519350094
1768725501884,126,-2,-2.004224591214398,1.4120297130553832,1.1085142894252662
1768725501888,126,-2,-1.6843892431730514,1.3227654834686575,1.4274450321934478
1768725501892,127,-1,-1.2560774895232996,2.6158827535932767,1.8578194860371768
1768725501896,128,0,-0.8312029918222956,3.404773532329852,2.2833354652515263
1768725501900,127,-1,-0.5272693897346274,2.708188984336239,2.5846929396861924
1768725501904,128,0,-0.3590944770889599,3.13607386405767,2.7490679203851176
1768725501908,128,0,-0.2388694602629981,3.610124976283291,2.8669602072210623
1768725501912,128,0,-0.064246816798823,3.294943181574002,3.041197529143776
1768725501916,128,0,0.1992406812263856,3.741133687665848,3.304554414707249
1768725501920,129,1,0.5045412051206943,4.365492178830994,3.608021594283751
1768725501924,129,1,0.7709088869269904,4.441099983310783,3.870462554787488
1768725501928,129,1,0.9380834404013384,4.344035138926163,4.0331901870407565
1768725501932,129,1,0.9838415102792482,4.479923282978071,4.076043619907005
1768725501936,129,1,0.9176127954552706,4.625203743827968,4.009035108221069
1768725501940,129,1,0.7875297390920128,4.409314813575138,3.879008659079336
1768725501944,129,1,0.6982374155101114,4.432059628633719,3.788857271358403
1768725501948,129,1,0.7941970970864265,4.328982972201141,3.8823184736378256
1768725501952,129,1,1.1860126581729862,4.456127632898044,4.2705385094814705
1768725501956,130,2,1.864638011055329,5.702619559194555,4.945559029539803
1768725501960,131,3,2.6792960091970524,6.246181413739842,5.757396948804835
1768725501964,131,3,3.4110793130251924,6.677498745305747,6.486998733593025
1768725501968,133,5,3.898984880291255,7.980531311489236,6.972339804992503
1768725501972,132,4,4.1296317768081146,7.8591755817308515,7.199484165320481
1768725501976,132,4,4.218422012635873,7.23673491101546,7.284923814428694
1768725501980,132,4,4.296952175001668,7.733271828390706,7.361783584439571
1768725501984,133,5,4.418281377280073,8.1951498571412,7.48271335689201
1768725501988,133,5,4.575745366953623,8.39313507483985,7.638778387469702
1768725501992,133,5,4.791953915592907,8.537747942818005,7.851233114364704
1768725501996,133,5,5.141969372588637,8.40642048941406,8.19632543922705
1768725502000,133,5,5.65938484090448,8.713321282845932,8.709600226379685
1768725502004,135,7,6.236271899946658,10.036359102111252,9.283361084116034
1768725502008,135,7,6.6577658278884275,10.70733549508226,9.701650991920951
1768725502012,135,7,6.763481853837674,10.070541920540617,9.803931934976994
1768725502016,134,6,6.584844449870543,9.970737638336937,9.622692051395688
1768725502020,135,7,6.336900607256827,10.052677537724184,9.373274027096649
1768725502024,134,6,6.283225674756671,9.712927749326331,9.317979632291436
1768725502028,135,7,6.57967714242587,10.0514728772503,9.611364483201758
1768725502032,135,7,7.192442881251808,10.665197487899285,10.219629095889118
1768725502036,136,8,7.930927429758305,11.448480131417382,10.9530521120057
1768725502040,137,9,8.56808586239292,12.436582344988054,11.585412725072532
1768725502044,137,9,8.961211965762702,12.44246305055043,11.97463354779957
1768725502048,137,9,9.087113288009906,12.186909868630728,12.097836632425
1768725502052,137,9,8.986449406155813,12.64199250677764,11.995104777757104
1768725502056,137,9,8.694380072534443,12.35939841742784,11.700267796020972
1768725502060,136,8,8.225951041778977,11.560270439622464,11.227609196470423
1768725502064,136,8,7.608320204410749,11.294260477786969,10.604993611482769
1768725502068,135,7,6.9074341895216,10.311871298195436,9.899781854767674
1768725502072,134,6,6.218674479927835,9.539408064787384,9.207983157857196
1768725502076,134,6,5.631800252794548,9.41185050830022,8.618652394893992
1768725502080,133,5,5.195090192030637,8.513815648506217,8.178844100667998
1768725502084,133,5,4.892986583038461,8.316098057777152,7.872362289539632
1768725502088,133,5,4.642343587510016,8.28876582616563,7.616335425775919
1768725502092,132,4,4.313662487898123,7.551694055066803,7.282042286808355
1768725502096,132,4,3.7797224354286127,7.368519408781661,6.743037722511663
1768725502100,131,3,2.9773919870610124,6.560218944244637,5.936693365136116
1768725502104,130,2,1.952025629853506,5.223942153497701,4.908435433077048
1768725502108,129,1,0.8551854838254964,4.407438599036203,3.8092932349331567
1768725502112,128,0,-0.110247054270665,3.392435558752207,2.841109481632553
1768725502116,127,-1,-0.7749882228470293,2.5260073855078455,2.1722435232441173
1768725502120,127,-1,-1.0797591024485986,2.3841112837900154,1.8618610654603924
1768725502124,127,-1,-1.1045858172294487,2.3818101250757464,1.8307309964074527
1768725502128,127,-1,-1.03024979633394,2.2502832331951064,1.8991810015808743
1768725502132,127,-1,-1.0461096401677008,2.523074591606492,1.87854553031256
1768725502136,127,-1,-1.2540315723814213,2.389438404203456,1.6669743062157736
1768725502140,126,-2,-1.6279883657505092,1.4767116435294776,1.2899826468549591
1768725502144,126,-2,-2.054521282628363,1.3069841482481532,0.860168844320581
1768725502148,126,-2,-2.419870126638132,1.2748385370522377,0.4905060989276339
1768725502152,125,-3,-2.680893274386739,0.5335012238829879,0.2241079832891577
1768725502156,125,-3,-2.879752031761469,0.3122343972622823,0.0195061944527021
1768725502160,125,-3,-3.0995772252684115,0.5799114946874728,-0.2059227617364882
1768725502164,125,-3,-3.389070002748241,0.1500778361665449,-0.5008520086836472
1768725502168,124,-4,-3.7103253917391834,-0.5632546435128196,-0.8271309516392078
1768725502172,124,-4,-3.9545510569349216,-0.6284133061502173,-1.0753637884879572
1768725502176,124,-4,-4.009993875218015,-0.5906552158935408,-1.1337774818406148
1768725502180,124,-4,-3.820053882394462,-0.4659529427570215,-0.946914172788476
1768725502184,125,-3,-3.394318056035156,0.0931605746527717,-0.5258838104015353
1768725502188,125,-3,-2.7923448045778487,0.5816411663530778,0.0692566952640765
1768725502192,126,-2,-2.1167864675051513,1.1153058089340069,0.7370031401086898
1768725502196,126,-2,-1.51533403731661,1.7205616080956116,1.3315939568127455
1768725502200,127,-1,-1.1511279839062074,2.1488040044631944,1.6909829929842977
1768725502204,127,-1,-1.1177820485083665,2.4800994828531113,1.7210956112831923
1768725502208,127,-1,-1.3474183036323912,2.2081783938243342,1.4886094598625648
1768725502212,126,-2,-1.6080472949434472,1.4086893049341174,1.2246184695357063
1768725502216,126,-2,-1.6317990371013231,1.492948827313,1.1964155132942822
1768725502220,127,-1,-1.2944358012786388,2.2453700945022232,1.5277257326477125
1768725502224,127,-1,-0.7087434416213836,2.4952205196713715,2.105864317395793
1768725502228,128,0,-0.1608591627110709,3.066889782895288,2.6458773091833803
1768725502232,128,0,0.0654810752205173,3.641719132266182,2.8655364782000707
1768725502236,128,0,-0.1376501287750073,3.128513366674855,2.65761850767971
1768725502240,127,-1,-0.6400653283374742,2.651511995813397,2.152015340023302
1768725502244,127,-1,-1.1600764120734086,2.0486280542569744,1.62952302366785
1768725502248,126,-2,-1.4365839286696418,1.5001901588334414,1.3499101074485074
1768725502252,127,-1,-1.3647000828092102,2.233204826209721,1.416589349336495
1768725502256,127,-1,-1.0138128362302412,2.447938611386089,1.7596312722063985
1768725502260,127,-1,-0.5495970118220543,2.375650764950418,2.2146849973199947
1768725502264,128,0,-0.1403025524125769,3.2431012720169847,2.616001651824636
1768725502268,128,0,0.1024524045854151,3.359812925611778,2.8537441721621137
1768725502272,128,0,0.1513261732604954,3.283975166140804,2.900295622974215
1768725502276,128,0,0.0709625517167102,3.441888024530707,2.8181360289323143
1768725502280,128,0,-0.0046159177124457,3.2856134559714656,2.738753961374819
1768725502284,128,0,0.0576635808741579,3.3816866168381026,2.7942759274947035
1768725502288,128,0,0.2855416350231072,3.1648912726925538,3.013747387761488
1768725502292,128,0,0.5325976798557703,3.4827976981453648,3.2527984461794155
1768725502296,129,1,0.5317165621435537,4.215400296757122,3.2452395185097895
1768725502300,128,0,0.0739091762700158,3.466950810980262,2.7819271325774944
1768725502304,127,-1,-0.8147090430814081,2.219438619897428,1.888941911462128
1768725502308,126,-2,-1.8512916516297249,1.2619097018107568,0.8492032756330061
1768725502312,125,-3,-2.6551683109095245,0.4197024136863829,0.0424629570677879
1768725502316,125,-3,-2.962508838341752,0.1877757487621139,-0.269330439087706
1768725502320,125,-3,-2.7466328145241787,0.554565155005339,-0.06064192897716
1768725502324,126,-2,-2.1894113004250304,1.0481855252027783,0.4876362538498142
1768725502328,126,-2,-1.556560009951233,1.472751872096015,1.11218434021568
1768725502332,127,-1,-1.0665381596821135,2.136053282854388,1.5962237282612386
1768725502336,127,-1,-0.8139557764378375,2.4579212148212095,1.8448515480804073
1768725502340,127,-1,-0.7654162307010398,2.2747654241271107,1.8899232036585591
1768725502344,127,-1,-0.8149762741235699,2.286534269305252,1.8360778733299616
1768725502348,127,-1,-0.8620105226201671,2.2586284047315357,1.7835306900838757
1768725502352,127,-1,-0.8635610378937679,2.266028753686063,1.7754772446775131
1768725502356,127,-1,-0.8345502076090802,2.3573829193830687,1.7975407138934507
1768725502360,127,-1,-0.8103775648351325,2.3092285136749844,1.8150387329678803
1768725502364,127,-1,-0.8101009017267208,2.276257447095853,1.8095559297364965
1768725502368,127,-1,-0.8262127419315273,2.222056860704926,1.7886853456878349
1768725502372,127,-1,-0.8374425013449718,2.2785068573983684,1.7729820884304182
1768725502376,127,-1,-0.8258818334941717,2.324927502755219,1.7793534059297185
1768725502380,127,-1,-0.7888350254565928,2.3078090333006647,1.810162370568261
1768725502384,127,-1,-0.7479943930291245,2.2887603480518837,1.8443660673455864
1768725502388,127,-1,-0.7524713221626608,2.15563922870625,1.8336812654741097
1768725502392,127,-1,-0.860218684067939,2.3390577470110845,1.7202739450058782
1768725502396,127,-1,-1.0959422644048695,2.2161409458451526,1.4790877831697378
1768725502400,126,-2,-1.4179067635039375,1.4138119338368569,1.151813904664484
1768725502404,126,-2,-1.729897061486097,1.161398238291503,0.8347585195723568
1768725502408,126,-2,-1.928963579014952,1.2533570348332006,0.6303945189727982
1768725502412,126,-2,-1.9447400814331663,1.219037482556533,0.6085399380086223
1768725502416,126,-2,-1.7507724311396848,1.29555348663125,0.79625405982788
1768725502420,126,-2,-1.3650837349945075,1.3465643152949034,1.1767943552317794
1768725502424,127,-1,-0.846818978852675,2.1707350784443404,1.690865644204976
1768725502428,128,0,-0.274044833979803,3.2560783427190048,2.2584120187911845
1768725502432,128,0,0.2866723128518327,3.1483364506431872,2.8115956282661108
1768725502436,128,0,0.7786657482690806,3.365640662207332,3.2952721571621377
1768725502440,129,1,1.123908214721353,4.252005506056632,3.6342178880201623
1768725502444,129,1,1.2299650731127656,4.225926870333778,3.736854692916429
1768725502448,129,1,1.0737633208171329,4.19986890664871,3.5780696179200575
1768725502452,129,1,0.7889434184315897,4.1521146747592175,3.2888738814950074
1768725502456,128,0,0.6328657130590807,3.351678073393368,3.126203154869094
1768725502460,128,0,0.8076117686320907,3.2354492217685697,3.2939514036742774
1768725502464,129,1,1.2750092728438502,4.215993341269415,3.755394186350906
1768725502468,130,2,1.753736783145602,5.203843190880932,4.2286235084764625
1768725502472,130,2,1.9284555332233524,5.098600010381319,4.397055919588004
1768725502476,129,1,1.6879346657697012,4.410648858885067,4.149679257281482
1768725502480,129,1,1.1803411027504551,4.093359667935056,3.6362382415190018
1768725502484,128,0,0.6583940485288953,3.3795852289759085,3.1104787208157285
1768725502488,128,0,0.2787420228841864,2.9702493656430953,2.728186622872732
1768725502492,128,0,0.0341566525242801,3.3678531255105613,2.479953273302728
1768725502496,128,0,-0.1555133051892682,3.0812019172359255,2.2841482940256617
1768725502500,127,-1,-0.3272893547330374,2.3932626657597695,2.104474291591619
1768725502504,127,-1,-0.4728946876458066,2.062319163272619,1.9513001961443837
1768725502508,127,-1,-0.6372942924271774,2.216599542982681,1.7808799852074666
1768725502512,127,-1,-0.9743020079411648,2.178651989533433,1.438929268897542
1768725502516,126,-2,-1.6612212438187304,1.1688923208973008,0.7472702190515026
1768725502520,125,-3,-2.7344754674164076,0.3410373698249112,-0.3305812967364803
1768725502524,124,-4,-3.9999924725875022,-0.9858869503755608,-1.6001912395778377
1768725502528,122,-6,-5.111308426127896,-2.733085182973507,-2.7154774492535334
1768725502532,122,-6,-5.763866892923882,-2.882348234128228,-3.373223096371719
1768725502536,122,-6,-5.857297786211931,-2.8061050514915644,-3.4738425231563648
1768725502540,122,-6,-5.51326204284566,-2.684030459229928,-3.13739456084163
1768725502544,123,-5,-4.9631896997915055,-2.0403229597098513,-2.5920187450494594
1768725502548,123,-5,-4.410326080249847,-1.6770438305782798,-2.039735849523521
1768725502552,124,-4,-3.958343170828523,-0.987839508722948,-1.5879838386657794
1768725502556,124,-4,-3.630601013528481,-0.6976618584719931,-1.266650871370564
1768725502560,124,-4,-3.4394262276760363,-0.8384277912520952,-1.0909354234135749
1768725502564,124,-4,-3.4164128157247178,-0.928800165979299,-1.0871716818261898
1768725502568,124,-4,-3.504852368398444,-0.8099916956263482,-1.187740037861312
1768725502572,125,-3,-3.305722654030048,0.1033469881206339,-0.9852250972863694
1768725502576,126,-2,-1.8596716889773468,1.2319451227489688,0.4780554517994795
1768725502580,130,2,2.2177895563750427,5.160822173385669,4.574187245229841
1768725502584,138,10,10.055184475299225,13.079648355617527,12.416346872387846
1768725502588,148,20,21.504100517745375,23.115641640220403,23.84880677120552
1768725502592,161,33,34.40550001645629,36.194095445591635,36.71843157806328
1768725502596,173,45,44.84310282556713,48.118435279689145,47.123308018520426
1768725502600,177,49,48.59024055468544,52.20286307518536,50.84992566337082
1768725502604,172,44,43.11513021148535,46.974343523998584,45.37195777680484
1768725502608,157,29,28.958264521229395,32.11300492280845,31.227373277119938
1768725502612,136,8,9.576228043650788,11.168674227528085,11.86524874022279
1768725502616,116,-12,-10.259322596422695,-8.86846754927312,-7.952660696284372
1768725502620,101,-27,-26.46680920221343,-23.76711233128109,-24.15460605791756
1768725502624,92,-36,-36.87971135359721,-33.057622358142076,-34.579204985545296
1768725502628,87,-41,-41.248373615101265,-37.83487253011157,-38.97256497299553
1768725502632,87,-41,-40.49301301756484,-37.9448038274912,-38.24266657139067
1768725502636,91,-37,-35.985107737993495,-33.783718056009896,-33.74941037901884
1768725502640,98,-30,-29.22822073328258,-26.906688757512143,-26.99384921565559
1768725502644,106,-22,-21.76685556453864,-18.940450563234545,-19.5272958784942
1768725502648,113,-15,-15.008282709075988,-11.977626300010083,-12.765969924256648
1768725502652,118,-10,-9.900903496504313,-6.869903806090358,-7.662187563710412
1768725502656,121,-7,-6.696979423709349,-3.906948698519818,-4.465674846037574
1768725502660,122,-6,-5.029953200100941,-2.8527540298551486,-2.804930167741337
1768725502664,123,-5,-4.278575994334826,-1.9852524471430373,-2.0564143925335303
1768725502668,124,-4,-3.9457629621100474,-0.9675779192051706,-1.7250729389606647
1768725502672,124,-4,-3.794708253822285,-0.8715085817661081,-1.57776597842925
1768725502676,124,-4,-3.731840130377674,-1.0000310527745464,-1.522291468250185
1768725502680,124,-4,-3.644754527652527,-0.753268834809159,-1.4440195092526966
1768725502684,124,-4,-3.3870287249831597,-1.161894574953589,-1.1930227730797889
1768725502688,124,-4,-2.9003955655578197,-0.7637199286088681,-0.709833567926468
1768725502692,126,-2,-2.300572754831482,0.8778560457351303,-0.1124615945934923
1768725502696,126,-2,-1.796491830466335,1.2008717254736443,0.3871670705378702
1768725502700,126,-2,-1.510799590122591,1.0158265353556062,0.6663642635696128
1768725502704,126,-2,-1.3866049586661915,1.0108265135116932,0.7847506173974206
1768725502708,126,-2,-1.262674443173755,1.0675000509216512,0.9053065747880602
1768725502712,127,-1,-1.0176046225063735,1.989196815277564,1.1480225063987313
1768725502716,127,-1,-0.6432510397021731,2.0850792511767944,1.5184867175988082
1768725502720,127,-1,-0.2174066691627898,2.0534082186110956,1.9381706064338065
1768725502724,128,0,0.1605510258504627,2.970041233829897,2.309008391786766
1768725502728,128,0,0.4159458384476928,3.054420203924989,2.557960767170083
1768725502732,128,0,0.5183931913115052,2.9768681439131583,2.6555252755854877
1768725502736,128,0,0.4854723437426151,3.0802053864811247,2.619308999946946
1768725502740,128,0,0.3808409885926864,2.9758869984937815,2.512153292646012
1768725502744,128,0,0.30852028973543,3.0578089515197098,2.436692443811184
1768725502748,128,0,0.3886207830580181,2.887573705852385,2.511976764883454
1768725502752,128,0,0.7008750434848676,3.1600775965511456,2.8178804417646246
1768725502756,129,1,1.2181982677031038,3.825636100633492,3.328609021972909
1768725502760,129,1,1.7872366787807556,4.209787491494596,3.892155842885866
1768725502764,130,2,2.1969605748164054,4.771317984886835,4.297641186095403
1768725502768,130,2,2.3091230426100777,5.146228788150529,4.405732851944434
1768725502772,130,2,2.1576020723523115,4.876346034774665,4.249465703307809
1768725502776,129,1,1.9266350873691624,4.050050433182978,4.013570952551883
1768725502780,129,1,1.8176574105744012,3.968552598145549,3.900330533945568
1768725502784,130,2,1.927067929778683,4.936500649005605,4.0058587067646645
1768725502788,130,2,2.244609598442492,5.001628437329504,4.31898139780592
1768725502792,130,2,2.743748081956653,4.946591796790756,4.813066342367948
1768725502796,131,3,3.442445634487197,5.979669284541605,5.506628015366013
1768725502800,132,4,4.369762547069394,6.9497947992739135,6.428816254710471
1768725502804,133,5,5.483695691304799,7.932675752596356,7.537437108967374
1768725502808,134,6,6.624439919984646,8.987607438319277,8.673016816383159
1768725502812,135,7,7.554714834238668,9.916120441848395,9.598623133348353
1768725502816,136,8,8.079099094333976,10.98071101113927,10.118323866608575
1768725502820,136,8,8.165088942418084,10.876072910899804,10.199050507465303
1768725502824,135,7,7.959139782790036,9.968693889299209,9.9879850834643
1768725502828,135,7,7.668554823995515,9.936376641919331,9.693620093998426
1768725502832,135,7,7.416384831270462,9.927185042261854,9.438467655147292
1768725502836,135,7,7.209397971414463,9.933721832393616,9.22711220253062
1768725502840,135,7,7.028584678904975,9.873440891909707,9.039610610532929
1768725502844,134,6,6.9119805398161995,8.923317049075658,8.915992325631333
1768725502848,134,6,6.926837817938454,8.955855126117669,8.926084836590224
1768725502852,135,7,7.081275550608554,9.87358170570492,9.077763442911596
1768725502856,135,7,7.298510150197375,9.940594952134036,9.291472410008303
1768725502860,135,7,7.482025286851693,9.833000041284569,9.468943383142228
1768725502864,135,7,7.583336846256593,9.907332358405933,9.562976741142098
1768725502868,135,7,7.599833312907032,9.939805810566682,9.573539680389375
1768725502872,135,7,7.531548579002238,9.846105295917798,9.501652436624305
1768725502876,135,7,7.368048416386349,9.936431907833542,9.33551423178846
1768725502880,135,7,7.1197079924201025,9.793839957023316,9.083447833317988
1768725502884,134,6,6.837056098239974,8.89994568358103,8.795168995108146
1768725502888,134,6,6.569295297280019,8.90114718012769,8.520650919399575
1768725502892,134,6,6.290778393499425,8.851637419512251,8.235613773457716
1768725502896,133,5,5.876857337054502,7.888437438769803,7.816300102527274
1768725502900,133,5,5.1749479993271486,7.807060729210946,7.110034768357233
1768725502904,132,4,4.128338786857867,6.8447005181719724,6.059309642182353
1768725502908,130,2,2.849813188263711,4.882046206328175,4.7762457121796285
1768725502912,129,1,1.5701288952640475,3.8723833773617664,3.491536524610319
1768725502916,128,0,0.4943453837696934,2.7797779611183504,2.4104317158026007
1768725502920,127,-1,-0.3123833809782455,1.9347375662054016,1.5981456232173838
1768725502924,127,-1,-0.9145503224218609,1.6204664881668398,0.9902922785328956
1768725502928,126,-2,-1.3936802138463171,1.1095391329136262,0.5058216105671081
1768725502932,126,-2,-1.7480523189613206,0.5508635967883664,0.1470221310359285
1768725502936,125,-3,-1.901442992779618,0.1044315776114577,-0.0101361032089704
1768725502940,126,-2,-1.8081253581764816,0.5351558258986038,0.0786249025175891
1768725502944,126,-2,-1.55005737530988,0.9952598984944228,0.3299874100912063
1768725502948,126,-2,-1.335557736657178,0.6974182574610752,0.5361553971687991
1768725502952,126,-2,-1.394216450994699,0.8792880012176663,0.4698525914105826
1768725502956,126,-2,-1.8328064732892524,0.7975740323743925,0.0263788988119024
1768725502960,125,-3,-2.541449325188095,-0.2964289974013026,-0.684251038297004
1768725502964,124,-4,-3.22270103760195,-1.110029420082434,-1.3665239060760626
1768725502968,124,-4,-3.5473998547997576,-1.3436042873978886,-1.6942272506028742
1768725502972,124,-4,-3.349134990958802,-1.034966810956521,-1.5029864397158064
1768725502976,125,-3,-2.735531737447879,-0.3977928957487404,-0.8995960554140856
1768725502980,125,-3,-2.0474296475691345,-0.0924271326889574,-0.2214080856830778
1768725502984,126,-2,-1.680872880563559,0.6052166362713449,0.1386795243718506
1768725502988,126,-2,-1.856860062789842,0.908649120019418,-0.0402930431472174
1768725502992,125,-3,-2.471924935809773,-0.3415210754950508,-0.6573997717188269
1768725502996,124,-4,-3.146782121763732,-1.1539318243211447,-1.3357095681170108
1768725503000,124,-4,-3.4656851424599315,-1.331505877635625,-1.659928005612572
1768725503004,124,-4,-3.2409856614482084,-1.274537311380354,-1.4414921677370305
1768725503008,125,-3,-2.603811700427996,-0.1558667747481714,-0.810720259504679
1768725503012,126,-2,-1.8633428587379677,0.5730873111731691,-0.0768498667142929
1768725503016,126,-2,-1.2690747592948708,0.9856304727450772,0.5102538129610961
1768725503020,127,-1,-0.880618224899051,1.3863944484038924,0.8914055784920618
1768725503024,126,-2,-0.6359525903678238,1.02710946793191,1.1299273094644142
1768725503028,127,-1,-0.5141869256299992,1.441519912764305,1.247422053541489
1768725503032,127,-1,-0.5990414945443556,1.974619602878317,1.1590709895152944
1768725503036,127,-1,-0.9646725783384968,1.524782366416118,0.7888260572327637
1768725503040,126,-2,-1.5158047480977517,0.7849245584522202,0.2314342421133721
1768725503044,125,-3,-1.9835630484493645,-0.3838305164986777,-0.2431397717244103
1768725503048,125,-3,-2.1139383399700717,-0.280952717036727,-0.3800418455802359
1768725503052,126,-2,-1.871696740686728,0.7712143994753473,-0.1443074888635336
1768725503056,126,-2,-1.463802461419942,0.5714456839913091,0.2570099695214596
1768725503060,126,-2,-1.1671051760488762,0.8101803988944825,0.5478490486001244
1768725503064,127,-1,-1.114497925809311,1.4266305232176897,0.5955807894381671
1768725503068,126,-2,-1.209261119142329,0.9123022973831132,0.4957434012537889
1768725503072,126,-2,-1.2298791749823934,0.4999086381934949,0.4686217452911587
1768725503076,126,-2,-1.0411527397130511,0.8286274753747953,0.6497728696489353
1768725503080,127,-1,-0.7302602316125436,1.5089121988000298,0.9535603059616397
1768725503084,127,-1,-0.5338521865022173,1.6533321817474924,1.1443056029472367
1768725503088,127,-1,-0.60639271918539,1.6421346304345237,1.0669933795160225
1768725503092,127,-1,-0.8407717532982047,1.7059664350406285,0.8275354464606903
1768725503096,126,-2,-0.9285924258537748,0.603326875308908,0.7339301668313765
1768725503100,126,-2,-0.6371831256421396,0.6696787789416474,1.0191269928006912
1768725503104,128,0,-0.0593344929023908,2.443592592982427,1.5900070201125402
1768725503108,128,0,0.4115040694526048,2.8012027732382556,2.052437044487608
1768725503112,128,0,0.3753438964973471,2.48483205662413,2.007218114724182
1768725503116,127,-1,-0.2712301937956122,1.8226709735162072,1.3533448126591936
1768725503120,126,-2,-1.2740542246903672,0.3284913348578069,0.3464620838069847
1768725503124,125,-3,-2.2177044788443787,-0.2272006663082342,-0.5994607855255909
1768725503128,125,-3,-2.790826183060331,-0.6079230041398636,-1.1762298340288997
1768725503132,124,-4,-2.9270659655611375,-1.1245182384757868,-1.3194297726399808
1768725503136,125,-3,-2.766825077848607,-0.5902026707169217,-1.1688303191737206
1768725503140,125,-3,-2.517727063769015,-0.3626953760124052,-0.9298730128212518
1768725503144,125,-3,-2.33151699445954,-0.5650737415144675,-0.752250781560464
1768725503148,125,-3,-2.2656853305842373,-0.3664684965065032,-0.6925610312431156
1768725503152,125,-3,-2.3127055126317786,-0.3505886546781744,-0.7438233870292459
1768725503156,125,-3,-2.4322169177270028,-0.4530576969425857,-0.867287571358236
1768725503160,125,-3,-2.5507735772001388,-0.5212935905971343,-0.9912093233418556
1768725503164,125,-3,-2.557410514375544,-0.5162235528835586,-1.0052361470918745
1768725503168,125,-3,-2.3444619973405416,-0.4389053804950533,-0.8007024595967223
1768725503172,125,-3,-1.8934327334611056,-0.3223769566826115,-0.3574925780361448
1768725503176,126,-2,-1.3326168019074984,0.4747404307005447,0.196474675430333
1768725503180,127,-1,-0.8855745521651583,1.4980755711175804,0.636413282598314
1768725503184,127,-1,-0.7262831473380328,1.3740717370588054,0.7875859140990502
1768725503188,126,-2,-0.8644544151216479,0.6345633381331293,0.641622950485794
1768725503192,126,-2,-1.1625581253671735,0.5510199003166822,0.3379024057875837
1768725503196,126,-2,-1.4477168057188134,0.5630389490910437,0.0487797079689888
1768725503200,126,-2,-1.5992034920307314,0.345094127796631,-0.107897235899891
1768725503204,126,-2,-1.557155167259484,0.4635753926299006,-0.074293414612288
1768725503208,126,-2,-1.3026965903332486,0.4993586448897313,0.1697611492613624
1768725503212,126,-2,-0.8668653387828433,0.6236347844762204,0.5965421245715496
1768725503216,127,-1,-0.3471454321817475,1.469295504076348,1.1102740709658454
1768725503220,128,0,0.1304382139651102,2.33654818159234,1.5832985877497583
1768725503224,128,0,0.5001679795626268,2.463881556108042,1.9469931224788224
1768725503228,128,0,0.8043100088063158,2.37816610822047,2.2426351799549247
1768725503232,128,0,1.1299031262978927,2.7670086979857293,2.558818303786002
1768725503236,129,1,1.4915492908572805,3.195195234486088,2.9121853896277026
1768725503240,129,1,1.7928262660044376,3.6260669935468384,3.206890091268997
1768725503244,130,2,1.9223503802572133,4.058607602655055,3.330677298964517
1768725503248,129,1,1.8910652073769845,3.76621095735414,3.293413591613625
1768725503252,129,1,1.8593426427485813,3.305644766851575,3.2548748918553283
1768725503256,129,1,2.00539167888237,3.5884158130787585,3.3928878453449105
1768725503260,130,2,2.348206414537111,4.209713649964566,3.7262774426794447
1768725503264,130,2,2.691422880474075,4.372847546919935,4.059431648087483
1768725503268,130,2,2.75051495028516,4.460174816405283,4.109561172487096
1768725503272,130,2,2.3713913088165013,4.486249178766715,3.723990666458603
1768725503276,129,1,1.6709622610036463,3.3984469940165773,3.019329515682144
1768725503280,128,0,0.9801963106668368,2.290131435223378,2.324393253354346
1768725503284,128,0,0.6173587197585366,2.2811259350495225,1.954747375510736
1768725503288,128,0,0.6559715916451064,2.473780425758774,1.9828456076448888
1768725503292,128,0,0.8594062161323563,2.437322186434027,2.173961054934387
1768725503296,128,0,0.8303910144833903,2.3712511157539726,2.1342286180368317
1768725503300,128,0,0.2798465246880113,2.2581245204822036,1.5763063611011594
1768725503304,127,-1,-0.7584927806519488,1.2451134906507435,0.5328983361521051
1768725503308,125,-3,-1.9249297165836667,-0.5363368668578046,-0.6381446979845653
1768725503312,124,-4,-2.7696194782375243,-1.6186645523712797,-1.488026688431226
1768725503316,124,-4,-3.062458330448488,-1.6218545396393815,-1.7876378634003034
1768725503320,125,-3,-2.9300249050937355,-0.8227103488038434,-1.6650248931844498
1768725503324,125,-3,-2.720351723016961,-0.7102615253193623,-1.468349042409438
1768725503328,124,-4,-2.7387843192370815,-1.6457121725319397,-1.5001761368013329
1768725503332,124,-4,-3.0761833860233,-1.5805729148900682,-1.8473661621081785
1768725503336,124,-4,-3.612804566487638,-1.7209632254838527,-2.3881767009391752
1768725503340,123,-5,-4.125838218966113,-2.809369255864573,-2.901190468603118
1768725503344,123,-5,-4.406028471105237,-2.737289557213414,-3.1813947965145988
1768725503348,123,-5,-4.343628183337776,-2.685818902050648,-3.1248579941562045
1768725503352,123,-5,-3.9746608450011816,-2.6195323178705476,-2.7721098857923243
1768725503356,124,-4,-3.4708926831649576,-1.7259609377798877,-2.2934620942903736
1768725503360,124,-4,-3.039986359899479,-1.908920182122455,-1.886877799232635
1768725503364,124,-4,-2.7062823938269425,-1.6408650283636783,-1.5637968287076247
1768725503368,126,-2,-2.012925771832646,0.1316617931315908,-0.8617343654718077
1768725503372,128,0,0.1572096056966589,2.502105148165622,1.3283519851460537
1768725503376,133,5,5.318158249812263,7.094788835637106,6.503390654644549
1768725503380,141,13,14.50072487889549,15.19271820096938,15.68013663558702
1768725503384,153,25,27.085327900604756,27.25849022955601,28.23709841525725
1768725503388,167,39,40.17596747215304,41.128673417353376,41.28841505891161
1768725503392,177,49,49.26970418779606,51.48602924401142,50.34634456211109
1768725503396,179,51,50.173953006702945,52.96470390254713,51.23061393063125
1768725503400,169,41,41.14630822908417,43.24047171726496,42.203192172220746
1768725503404,151,23,23.911582956704777,25.09910596376577,24.984089736960776
1768725503408,129,1,2.889599454456816,3.1870108464590534,3.981580998746288
1768725503412,109,-19,-16.848828256601823,-16.54930193408167,-15.746469553091682
1768725503416,96,-32,-31.60313425944922,-30.055725736775702,-30.507565109486578
1768725503420,88,-40,-39.93933380630127,-37.676881439725655,-38.86664805752268
1768725503424,86,-42,-42.29025748977762,-40.09163510961519,-41.24696524351298
1768725503428,87,-41,-39.959869268006535,-38.670544825995634,-38.94057990121813
1768725503432,92,-36,-34.3831666880274,-33.799659641770994,-33.37626785216955
1768725503436,100,-28,-26.957558258440976,-25.877399411484447,-25.95420432383893
1768725503440,108,-20,-19.145852834928046,-17.873288724291484,-18.144759071349483
1768725503444,115,-13,-12.397401537091325,-11.009300574938075,-11.40245270509753
1768725503448,120,-8,-7.757437710129743,-5.80853930250756,-6.771942713049021
1768725503452,122,-6,-5.443474117512961,-3.795061133233939,-4.466733824308274
1768725503456,122,-6,-4.784888275707393,-3.944605035649075,-3.813381596433433
1768725503460,122,-6,-4.662467603672862,-3.82671997986223,-3.6940240547936183
1768725503464,123,-5,-4.180059991571133,-3.1353896755492383,-3.2173127456669497
1768725503468,124,-4,-3.1100532067934408,-1.7155517758996583,-2.15973114641863
1768725503472,126,-2,-1.8463171932124232,0.0080878090184546,-0.9141306056472254
1768725503476,126,-2,-0.9838194447418136,0.200495189439485,-0.0692029234570408
1768725503480,126,-2,-0.8756638898420261,-0.0313431932372925,0.0282444856395749
1768725503484,126,-2,-1.4406523420525013,-0.0052970765288318,-0.5400018546132974
1768725503488,125,-3,-2.2596676582905406,-0.916474173447834,-1.3600617164721054
1768725503492,124,-4,-2.8362822394187055,-1.8765460083775904,-1.9413528083889549
1768725503496,124,-4,-2.8610505162989845,-1.9547232246746984,-1.976436256341286
1768725503500,125,-3,-2.3440060801728597,-0.947829181966534,-1.47351300314461
1768725503504,126,-2,-1.552064155835453,-0.1349341401738177,-0.6962066224264707
1768725503508,126,-2,-0.8094376671203827,0.116367098078729,0.0341414297291102
1768725503512,127,-1,-0.3058929465555264,1.024237787807238,0.5291377460399622
1768725503516,127,-1,-0.0287691885997576,1.0717854499681712,0.8006716530152516
1768725503520,127,-1,0.1706410951526056,0.9578583788611192,0.9948243084956728
1768725503524,128,0,0.4490311192487557,1.913590217541512,1.2654152704030517
1768725503528,128,0,0.8659439209281763,1.9718060376129036,1.670975363581818
1768725503532,128,0,1.3468934874834733,2.1100752216823464,2.1386291202638876
1768725503536,129,1,1.7214844623158718,2.9078858867987254,2.5006968067981408
1768725503540,129,1,1.8229964078795269,3.0618809411433014,2.5920981597705195
1768725503544,129,1,1.60534375611131,2.741382665634165,2.3665960418916785
1768725503548,128,0,1.2010892165614429,2.0717282328426867,1.9554604206290571
1768725503552,128,0,0.8674111625015208,1.9238183501503856,1.6142946350519545
1768725503556,128,0,0.8454747903352025,2.0293558774936313,1.5832157849477282
1768725503560,128,0,1.2203545371038658,1.884335394138443,1.9473109630471628
1768725503564,129,1,1.869448279645559,2.843794175251906,2.584700823137064
1768725503568,130,2,2.5362396361995736,3.918162130213605,3.2396106849188073
1768725503572,130,2,2.984173872876806,3.960034324606101,3.6762888863898313
1768725503576,130,2,3.122808893159657,3.9501732667905776,3.805291568051284
1768725503580,130,2,3.0248497602920805,3.877922587773228,3.699579019217415
1768725503584,130,2,2.852165754806407,3.786063450805682,3.5195987898305687
1768725503588,130,2,2.77089458484402,3.916274821948303,3.429407547612546
1768725503592,130,2,2.9031602899148674,3.8596377031688025,3.550642751718947
1768725503596,130,2,3.3040633752932065,4.005750080562402,3.940063917254085
1768725503600,131,3,3.949203433784704,4.731279406034633,4.574972260939352
1768725503604,132,4,4.749361193763453,5.878906145533095,5.365893270242552
1768725503608,133,5,5.599223917269927,6.74332042095428,6.206062158858184
1768725503612,133,5,6.418870166967793,6.954422622172635,7.01507292405158
1768725503616,134,6,7.145674186710588,7.834630719207986,7.7312087134653265
1768725503620,135,7,7.700782339631059,8.8279968974512,8.276435128659292
1768725503624,135,7,7.993662180765884,8.712061766522002,8.559946847523408
1768725503628,135,7,7.979795384597496,8.840077386807323,8.536384117461598
1768725503632,135,7,7.71618619857044,8.782207336250767,8.262399250270093
1768725503636,134,6,7.351907579116215,7.914853177769863,7.887663302513128
1768725503640,134,6,7.048952203765274,7.686042718745988,7.575107832879462
1768725503644,134,6,6.895115731364164,7.777379446261604,7.412607002779181
1768725503648,134,6,6.880755333416061,7.713110655140725,7.389316566034296
1768725503652,134,6,6.947509409592305,7.827319005825383,7.445482768269881
1768725503656,134,6,7.044982564668845,7.791314445944392,7.530684854887614
1768725503660,134,6,7.133740382921765,7.719818982270083,7.607140589198881
1768725503664,134,6,7.147635634088925,7.68663996767339,7.610573039845805
1768725503668,134,6,6.988667646063959,7.721303660572719,7.443258682806098
1768725503672,134,6,6.59577908360089,7.749271528144938,7.04269015872768
1768725503676,133,5,6.028200073429227,6.788902482444623,6.466503201108971
1768725503680,132,4,5.454777053653853,5.624488177247354,5.882942197409156
1768725503684,132,4,5.025398593391215,5.730638223126155,5.441961873660212
1768725503688,132,4,4.734131908509143,5.584218162038937,5.138106470710827
1768725503692,131,3,4.406258029056433,4.834392236085721,4.798038148135868
1768725503696,131,3,3.83093063364623,4.610105747877018,4.212731138461265
1768725503700,130,2,2.940391224024263,3.724479289603741,3.314807520962481
1768725503704,129,1,1.899388694385773,2.5355057338404015,2.2670966936653523
1768725503708,128,0,1.0209803381157938,1.7245204734853894,1.380089458576549
1768725503712,127,-1,0.5433074098763848,0.6102811190273485,0.8909263998568417
1768725503716,127,-1,0.4271720715099505,0.7607667631112531,0.7613488941487254
1768725503720,128,0,0.3549552908910836,1.4983777806216083,0.6756139708028006
1768725503724,127,-1,-0.0367229708040643,0.6569182387004107,0.2723924092827321
1768725503728,126,-2,-0.8670930484870247,-0.4373822947793,-0.5661156551973341
1768725503732,125,-3,-1.9017921261247483,-1.3480987557811654,-1.606185615416932
1768725503736,124,-4,-2.7102221889205995,-2.3257310509604867,-2.420370345851451
1768725503740,124,-4,-2.966092774312496,-2.5477201643316585,-2.6858668996352835
1768725503744,124,-4,-2.6748822983523923,-2.301407269030077,-2.408873562542024
1768725503748,125,-3,-2.1745622077686595,-1.6258248473246524,-1.9244617644288855
1768725503752,125,-3,-1.9096370555211148,-1.1561964748417344,-1.6728519204679837
1768725503756,125,-3,-2.129157020695164,-1.6967214057324784,-1.9007390287518309
1768725503760,124,-4,-2.7136332281538804,-2.201987662537205,-2.4899230202685665
1768725503764,124,-4,-3.252577505472658,-2.7590732002221783,-3.0336848138865933
1768725503768,123,-5,-3.326613392575063,-3.2386762158481837,-3.1159798007910204
1768725503772,124,-4,-2.8056040596954332,-2.580544528329166,-2.607465380716743
1768725503776,125,-3,-1.952282169269889,-1.4263746523112195,-1.7691491771809704
1768725503780,126,-2,-1.2503570349991515,-0.4776390157038936,-1.081741996768975
1768725503784,126,-2,-1.0799261132802256,-0.6477763181362235,-0.9225639789186726
1768725503788,125,-3,-1.4769861524953174,-1.356503426743413,-1.3266854918093816
1768725503792,125,-3,-2.136522515800523,-1.6057595060419607,-1.99095210655638
1768725503796,124,-4,-2.6295755619740695,-2.4587133165435144,-2.4899220309117474
1768725503800,124,-4,-2.6689278122131173,-2.5364635679492973,-2.5388981428104875
1768725503804,125,-3,-2.254885643044023,-1.66521564192447,-2.1379222444344483
1768725503808,125,-3,-1.6302934264060134,-1.3920784754513185,-1.5273099712059892
1768725503812,126,-2,-1.0988227702037952,-0.6992428000908286,-1.0080278681083867
1768725503816,126,-2,-0.8369504979406681,-0.410711645811495,-0.7555239387330315
1768725503820,126,-2,-0.8153731293892528,-0.7289698914302822,-0.7414020460053532
1768725503824,126,-2,-0.86113157856417,-0.4995241151804865,-0.7943388767426232
1768725503828,126,-2,-0.799276293293568,-0.6632949693835721,-0.740509647029785
1768725503832,126,-2,-0.5691753516994091,-0.5110126461120563,-0.519753384022241
1768725503836,127,-1,-0.240023321826861,0.327247537024621,-0.2014931328257607
1768725503840,127,-1,0.0663898438279205,0.4146396678189883,0.0927720171535075
1768725503844,127,-1,0.2636528329317748,0.3100973793058958,0.2780742640254359
1768725503848,127,-1,0.3244324309115233,0.4253450694464078,0.3290325261224762
1768725503852,127,-1,0.2485461777877295,0.3152161679803233,0.2459843720180352
1768725503856,127,-1,0.0445166672270487,0.4104733307566883,0.0355913794241353
1768725503860,127,-1,-0.2449753939904021,0.2385862493130628,-0.2621307108924431
1768725503864,126,-2,-0.5257188743039732,-0.5787595582250034,-0.5538895616280319
1768725503868,126,-2,-0.7021490645065427,-0.7833527697678573,-0.742569898087095
1768725503872,126,-2,-0.765679698730658,-0.5590214070906336,-0.8172468109129052
1768725503876,126,-2,-0.8194207965946956,-0.8133070895350185,-0.8799710100766596
1768725503880,126,-2,-0.9845404536502848,-0.6281869252021353,-1.0526209632790806
1768725503884,126,-2,-1.260414493653608,-0.756439557484041,-1.335919689134495
1768725503888,125,-3,-1.48131115138863,-1.7550921549464302,-1.5648983717907208
1768725503892,125,-3,-1.4387863267489351,-1.6093857055115128,-1.531317226772814
1768725503896,126,-2,-1.077675401568035,-0.9407348393109264,-1.1803102115636752
1768725503900,126,-2,-0.5879535875548947,-0.4974635952046937,-0.7019567279620789
1768725503904,127,-1,-0.3010069507406718,-0.0274375865724731,-0.4266448913155651
1768725503908,126,-2,-0.467438738347131,-0.5242558340960297,-0.6031914559054599
1768725503912,126,-2,-1.081924694309572,-0.9914105010292028,-1.2253023566460222
1768725503916,125,-3,-1.8741142625126503,-1.6306133506562617,-2.0233604760181674
1768725503920,124,-4,-2.4669623771579725,-2.898872788147758,-2.6220505616057257
1768725503924,124,-4,-2.596474610884252,-2.6941380747906347,-2.7590316021058707
1768725503928,125,-3,-2.248313207191684,-1.9286941528742536,-2.420909422723476
1768725503932,125,-3,-1.6308507808236872,-1.7209528111047685,-1.815689942747559
1768725503936,126,-2,-1.029580015912393,-0.972288903356214,-1.2268998325526694
1768725503940,126,-2,-0.6613508321802134,-0.661691630210619,-0.8688453834338057
1768725503944,126,-2,-0.6092704803794708,-0.9984457809218306,-0.8235582021334198
1768725503948,126,-2,-0.8320565733146217,-0.7262816530164482,-1.0513036283217296
1768725503952,126,-2,-1.201380859849238,-1.009967244501662,-1.4266705773273505
1768725503956,125,-3,-1.54871020103041,-1.8208154196668636,-1.7827282847390178
1768725503960,125,-3,-1.733441400050214,-1.8313647749857287,-1.977891816046946
1768725503964,125,-3,-1.7177325287868572,-1.9852678537549195,-1.9722246859393215
1768725503968,125,-3,-1.5889177503409186,-1.752565485452596,-1.8521340720271735
1768725503972,126,-2,-1.4911335796107164,-1.1566595337809091,-1.7624231751286714
1768725503976,125,-3,-1.5134337481754443,-1.7201514961501196,-1.792949202195674
1768725503980,125,-3,-1.633516658240077,-2.053132259801582,-1.921320489843324
1768725503984,125,-3,-1.7623046650437957,-1.8323166963649156,-2.058049285559304
1768725503988,125,-3,-1.833040830380839,-2.0001652426612577,-2.1364544059603467
1768725503992,125,-3,-1.8464339278930435,-2.0238552654823807,-2.1575980184810444
1768725503996,125,-3,-1.8431379594038528,-1.9226245172600245,-2.162259325621528
1768725504000,125,-3,-1.7506098819133713,-4.438140569235268,-3.973831096359651
1768725504004,126,-2,-1.6433337787535005,-3.631071624866822,-3.8651230984270946
1768725504008,126,-2,-1.3578512033865406,-3.548785484752106,-3.579015039230716
1768725504012,126,-2,-0.9798742756037716,-3.60181615866888,-3.2005289043846807
1768725504016,127,-1,-0.6029499177772729,-2.4773279874691383,-2.822349342342007
1768725504020,127,-1,-0.27825884126751,-2.5644474288338364,-2.4949696191936503
1768725504024,127,-1,0.0146952847406484,-2.43743073263784,-2.197834934860588
1768725504028,128,0,0.3559572785831756,-1.7304406852637113,-1.85188636831304
1768725504032,128,0,0.8343802937858842,-1.3985022451616562,-1.3698852191044089
1768725504036,129,1,1.4795751024156911,-0.6360677766130007,-0.723082030378102
1768725504040,129,1,2.2055186235224404,-0.3835631493554086,0.0031404257925983
1768725504044,130,2,2.8074657124247886,0.4199266429967336,0.6052989875812449
1768725504048,131,3,3.0474413876224165,1.4438815762594597,0.8463194469130408
1768725504052,130,2,2.798916875875611,0.4385617297279457,0.600407655771822
1768725504056,129,1,2.1487479360625494,-0.4313239096224899,-0.0449779202875757
1768725504060,129,1,1.3738078029287388,-0.5669014858958621,-0.8135254122683464
1768725504064,128,0,0.8070409872023675,-1.3558823841873135,-1.374305093898635
1768725504068,128,0,0.6727505287725052,-1.758435253388665,-1.504985025589531
1768725504072,128,0,0.9700308150781504,-1.3090055714552806,-1.206939542752661
1768725504076,129,1,1.460926594377752,-0.6721404474959067,-0.7170442237376439
1768725504080,129,1,1.7799239070995214,-0.29058936106783,-0.3987670568614447
1768725504084,129,1,1.6133651077462297,-0.5878357683721109,-0.5634944770281671
1768725504088,128,0,0.8517253829968203,-1.5416155530535405,-1.3196584489098768
1768725504092,127,-1,-0.3589351291516857,-2.4334609714303297,-2.522545674419706
1768725504096,126,-2,-1.681239822087346,-3.604305196895025,-3.8377955352381887
1768725504100,124,-4,-2.7394801969315137,-5.234349162807698,-4.891844212778483
1768725504104,124,-4,-3.302262486417207,-5.688119840824794,-5.45299584192237
1768725504108,124,-4,-3.400602242944371,-5.350367584710788,-5.550416947025522
1768725504112,124,-4,-3.297238359581877,-5.6217525232971095,-5.445419806651871
1768725504116,124,-4,-3.31268017587121,-5.40742991151178,-5.458445411099937
1768725504120,124,-4,-3.620734479820979,-5.3325457045018325,-5.763762103427386
1768725504124,123,-5,-4.154828047910458,-6.673041745892023,-6.294305530218543
1768725504128,122,-6,-4.683467963078137,-7.207059989946344,-6.8170804816936625
1768725504132,123,-5,-4.978887012974185,-6.866708487673898,-7.10367790508448
1768725504136,122,-6,-4.9401562975440845,-7.020581925398835,-7.055180693018714
1768725504140,123,-5,-4.603439721915512,-6.751223104450235,-6.712144501060538
1768725504144,123,-5,-4.085144141397993,-6.197146080128242,-6.19511156007828
1768725504148,124,-4,-3.5280292049970883,-5.645969576712664,-5.646741170239514
1768725504152,124,-4,-3.0511626882385583,-5.462787825483909,-5.17937933888647
1768725504156,124,-4,-2.638108760915758,-5.295970413065578,-4.766254314286102
1768725504160,126,-2,-1.927474301866361,-3.56000285763357,-4.03989225055561
1768725504164,128,0,-0.0264931727854578,-1.2207734268216366,-2.1117373144131513
1768725504168,132,4,4.361418603754843,2.275400669389347,2.302102416299288
1768725504172,139,11,12.269744291922892,9.752863845863756,10.222187719515402
1768725504176,150,22,23.45180190218601,20.463500044549168,21.396784289270748
1768725504180,162,34,35.68071986976802,32.73864922285799,33.604537930477996
1768725504184,173,45,45.08056041054788,43.54080723378122,42.98209201585566
1768725504188,176,48,47.621550681174966,46.46779557738428,45.51238574875961
1768725504192,169,41,41.066884204413896,39.5916422286019,38.965172047964955
1768725504196,154,26,26.214349435658026,24.567555450913293,24.136166800615683
1768725504200,133,5,6.638750042395362,3.662119380364932,4.591362447897392
1768725504204,113,-15,-12.909897486570998,-16.31350777067494,-14.930576144785809
1768725504208,99,-29,-28.453865038497057,-30.61033374252029,-30.461377241936272
1768725504212,90,-38,-37.97377739379758,-39.21423429398954,-39.98492265722292
1768725504216,87,-41,-41.40389904141046,-42.62191128489634,-43.42982138738942
1768725504220,87,-41,-39.86561777276643,-42.07041848507782,-41.90553115770455
1768725504224,92,-36,-34.889684617510156,-37.62745858562518,-36.932908583543245
1768725504228,99,-29,-28.028549805542827,-30.223722875884953,-30.063527403591
1768725504232,107,-21,-20.74315947563995,-22.607008960467702,-22.76498604802086
1768725504236,113,-15,-14.278394148653724,-16.184722828104597,-16.288667261725347
1768725504240,118,-10,-9.43715428264836,-11.494356855153312,-11.438945598748994
1768725504244,121,-7,-6.3965306509570095,-8.230302793852772,-8.391263728214508
1768725504248,123,-5,-4.7482551158069155,-6.563175347402838,-6.736498781053923
1768725504252,123,-5,-3.806162781118615,-6.262616334617086,-5.789125018869408
1768725504256,124,-4,-3.0291938856402174,-5.438260299714362,-5.008517331495611
1768725504260,125,-3,-2.2922897528449018,-4.24162903559623,-4.268988395058196
1768725504264,126,-2,-1.816047344525015,-3.454328723451387,-3.789847073792418
1768725504268,126,-2,-1.8267751244034631,-3.315066955978007,-3.79593750265742
1768725504272,125,-3,-2.2475705215327983,-4.474957031821449,-4.209478805030751
1768725504276,124,-4,-2.6864545855886948,-5.178871342605381,-4.639464667966214
1768725504280,125,-3,-2.7132597048119926,-4.49599752820156,-4.658477855854459
1768725504284,125,-3,-2.17396974140439,-4.160076984935347,-4.114483565486802
1768725504288,126,-2,-1.2906235309088547,-3.596397674201243,-3.2284998367928432
1768725504292,127,-1,-0.4854180196461939,-2.116592426319743,-2.419888116107022
1768725504296,128,0,-0.0703517889585199,-1.538450800722871,-1.9989438811658955
1768725504300,127,-1,-0.0379932513597631,-2.110076391417929,-1.9587420698694835
1768725504304,127,-1,-0.1165928904367379,-2.5299194870913086,-2.0292852736898253
1768725504308,127,-1,-0.0352764390591846,-2.210502713654246,-1.941532241795623
1768725504312,128,0,0.2427724471910519,-1.420774361579033,-1.6594071998888988
1768725504316,128,0,0.5242515222396444,-1.2305223741016968,-1.374752622043321
1768725504320,128,0,0.6043944313283627,-1.36944321589498,-1.2894267584622154
1768725504324,128,0,0.4938724909840295,-1.285146689261877,-1.3913545769743432
1768725504328,128,0,0.459779407080207,-1.417652454695962,-1.4154310901725855
1768725504332,128,0,0.8415077845942811,-1.1700365500869312,-1.0257939711824346
1768725504336,129,1,1.768395228188421,-0.4330868449849827,-0.0946797085119599
1768725504340,130,2,2.9902423133123373,0.8494509775059682,1.1292180051163334
1768725504344,132,4,3.9770059778514697,2.5194041153884834,2.118619557944238
1768725504348,132,4,4.251618056512166,2.777592293404157,2.398407751687974
1768725504352,131,3,3.7183214675229377,1.713723715566224,1.873245146771271
1768725504356,130,2,2.7299486564166706,0.6655881700799033,0.8948524768157647
1768725504360,129,1,1.8450170859555068,-0.1680800299723994,0.0195318970233672
1768725504364,129,1,1.4723665740322218,-0.5211494647564622,-0.3458503986785851
1768725504368,129,1,1.666560813192176,-0.0650265385195758,-0.1469510130100486
1768725504372,130,2,2.1906927173549366,0.543875083447565,0.3808464813744672
1768725504376,130,2,2.7532530961990966,0.9135176069527764,0.9477055847314912
1768725504380,131,3,3.216881426976655,1.569007736885366,1.4168593092957202
1768725504384,131,3,3.629829513975455,1.7490441725696946,1.8364492888338424
1768725504388,131,3,4.089986418618226,1.7166635096938752,2.3042724865309188
1768725504392,132,4,4.594409914081468,2.7909421025596477,2.8169311426493917
1768725504396,133,5,5.033317312715838,3.731669771442736,3.263427286906625
1768725504400,133,5,5.332347078350595,3.735306231610452,3.568543913989232
1768725504404,133,5,5.576827459171669,3.6127569041890695,3.8183699247961584
1768725504408,133,5,5.962958164530788,3.868848584004896,4.2106363324067715
1768725504412,134,6,6.61169202779511,4.69507042106368,4.866608962884182
1768725504416,135,7,7.432394231678742,5.864245241753109,5.6944732190923935
1768725504420,136,8,8.16909978070999,6.63460676338916,6.437305752519221
1768725504424,136,8,8.580140333631928,6.699388435175993,6.853818867037232
1768725504428,136,8,8.59162063970874,6.837823014890439,6.871041210620946
1768725504432,136,8,8.31286545057498,6.723624492655872,6.5987292581541865
1768725504436,135,7,7.9273092587303635,5.923958266184352,6.220389340106159
1768725504440,135,7,7.562833137394508,5.558609574095563,5.863878977151926
1768725504444,135,7,7.249908795929515,5.820924636318881,5.559149097589217
1768725504448,135,7,6.990082559081686,5.720909349521673,5.3068192252819175
1768725504452,134,6,6.8400200686366155,4.888146629225062,5.16313909757672
1768725504456,134,6,6.893397803791152,4.808781094598743,5.222110797462593
1768725504460,135,7,7.162463752668097,5.674244219775984,5.496390374034386
1768725504464,135,7,7.488154657532621,5.74480312517901,5.827341755175551
1768725504468,135,7,7.5909575934748785,5.79510277613168,5.936315553009355
1768725504472,135,7,7.243517637968331,5.889181236036542,5.596693524127298
1768725504476,134,6,6.437286565109224,4.812328982354399,4.799434868981686
1768725504480,133,5,5.409061184591251,3.702201641366755,3.7797747214992463
1768725504484,132,4,4.488194052256896,2.7292637314456103,2.8658842099270645
1768725504488,131,3,3.8654173244588015,1.831190649081524,2.2486641897520228
1768725504492,131,3,3.463706776906922,1.921106865603444,1.852169359623837
1768725504496,131,3,3.023539971380139,1.8034368972203052,1.4178919595973722
1768725504500,130,2,2.3352757936290893,0.7321834464865904,0.7366218520778846
1768725504504,129,1,1.4195345663843728,-0.2854996787568593,-0.1713098493241982
1768725504508,128,0,0.5041755908612673,-1.1512379068515852,-1.07892220200126
1768725504512,127,-1,-0.1710743426415688,-2.0178191658325733,-1.7472564192995164
1768725504516,127,-1,-0.5466846639751604,-2.2578962015622435,-2.116629646110395
1768725504520,127,-1,-0.7694888242770666,-2.125605849626474,-2.332947387612571
1768725504524,127,-1,-1.038054522566148,-2.4830175018153624,-2.5941514432536352
1768725504528,126,-2,-1.410281105071243,-2.8674118540502915,-2.958555638752306
1768725504532,126,-2,-1.7522389300659842,-3.320042968379329,-3.2932167828575896
1768725504536,125,-3,-1.8835964897090591,-3.872376594889621,-3.418297935711527
1768725504540,126,-2,-1.791513739010689,-3.5124441098173733,-3.3205627878935604
1768725504544,126,-2,-1.7059836577381864,-3.0709289340035144,-3.2292481838895366
1768725504548,126,-2,-1.9418480054958764,-3.251562885610889,-3.458660259814752
1768725504552,125,-3,-2.6284619773538944,-3.910472687517754,-4.13790057926844
1768725504556,124,-4,-3.5659664189985305,-5.227294441801437,-5.067072896548129
1768725504560,123,-5,-4.346591183643103,-6.169362276853657,-5.8388351398519545
1768725504564,123,-5,-4.6475283110678625,-6.3635669033211375,-6.131506126513978
1768725504568,123,-5,-4.451984694795334,-5.959414599722727,-5.929585561947659
1768725504572,124,-4,-4.023708904117782,-5.120032146568351,-5.4969555886104144
1768725504576,124,-4,-3.6797347366307176,-5.013477306932167,-5.148873865498197
1768725504580,124,-4,-3.568242776570498,-5.344844373869409,-5.031140516663198
1768725504584,124,-4,-3.619527509870297,-5.215637889448612,-5.073559894945553
1768725504588,124,-4,-3.662809666551715,-5.036598249681358,-5.1074263492853635
1768725504592,124,-4,-3.5768811501484943,-5.04419284839708,-5.01386909925618
1768725504596,124,-4,-3.3594750383925502,-4.977916616432989,-4.7907374866731125
1768725504600,125,-3,-3.091008856265248,-4.445733038373752,-4.516640077550891
1768725504604,125,-3,-2.8420749569515524,-4.0366061814896455,-4.26072146092765
1768725504608,125,-3,-2.604150798230578,-4.2488232931783205,-4.014811354918416
1768725504612,125,-3,-2.303159868918869,-3.7452526392344874,-3.706373561439448
1768725504616,126,-2,-1.8873133838402267,-3.2331869626444596,-3.2846412559653126
1768725504620,126,-2,-1.4119185194778483,-3.219262383238932,-2.8042858722639465
1768725504624,127,-1,-1.0370133880169687,-2.1899636082572,-2.4235646164875044
1768725504628,127,-1,-0.9203867713559476,-2.145156026457292,-2.2990725272810257
1768725504632,126,-2,-1.0808934366759333,-2.7253139740191887,-2.450331312145825
1768725504636,127,-1,-1.34979833605083,-2.2739195691713516,-2.710607271323298
1768725504640,126,-2,-1.4739456653868666,-3.123454503496837,-2.8281980166998952
1768725504644,126,-2,-1.3117787495968154,-3.317218869158852,-2.661242347423833
1768725504648,127,-1,-0.9640853260055758,-1.9506452915537376,-2.3090785673494807
1768725504652,127,-1,-0.7081004222170648,-1.890832042799691,-2.04754858166639
1768725504656,127,-1,-0.7689232939871569,-2.0569462794495736,-2.1009342624284306
1768725504660,127,-1,-1.1212838844131945,-2.3313216364727025,-2.444061610168969
1768725504664,126,-2,-1.498403376019628,-3.125726769661575,-2.811601575670663
1768725504668,126,-2,-1.6047764616719853,-3.1021839439769656,-2.910309790343724
1768725504672,126,-2,-1.3588942872451195,-2.673909854687105,-2.659838181379122
1768725504676,127,-1,-0.9734118270475852,-2.2462932575956573,-2.271386888462669
1768725504680,127,-1,-0.811366613945222,-2.100383087830912,-2.104945711231708
1768725504684,127,-1,-1.121851267192552,-2.397183840271424,-2.4079436841592217
1768725504688,126,-2,-1.8418619899395372,-2.7895975509766435,-3.1186159843464165
1768725504692,125,-3,-2.612873463771314,-3.928233019390514,-3.880747490442338
1768725504696,124,-4,-3.019881885821132,-4.968676829972667,-4.280181254892144
1768725504700,125,-3,-2.8857913674996025,-4.319449325240751,-4.139342817024126
1768725504704,126,-2,-2.383742945426442,-3.2325217777003603,-3.631367567317038
1768725504708,126,-2,-1.87195265582648,-2.8734218014406223,-3.1150669217100413
1768725504712,126,-2,-1.6071403279462777,-2.828282013507356,-2.846670193999049
1768725504716,126,-2,-1.5963309645521806,-3.005602822217292,-2.8310065312274877
1768725504720,126,-2,-1.691959561208186,-3.292030544532186,-2.918488004807583
1768725504724,126,-2,-1.792290753011668,-3.266669424353085,-3.0080841985549984
1768725504728,126,-2,-1.9277614343848724,-2.7835034418729614,-3.133833219191277
1768725504732,126,-2,-2.1640344391597717,-2.8763172927435217,-3.3646604480930464
1768725504736,125,-3,-2.465837172783518,-3.8973286742178024,-3.6645637270885945
1768725504740,125,-3,-2.70299332859146,-4.420112731246199,-3.898961911396076
1768725504744,125,-3,-2.7957521502904346,-4.145859791329775,-3.984527722349221
1768725504748,125,-3,-2.8138389011422116,-3.845879689284547,-3.992038705547452
1768725504752,125,-3,-2.8919855615772976,-3.775595737405306,-4.060747139365418
1768725504756,125,-3,-3.0496889198142747,-3.904667289607683,-4.213257393670595
1768725504760,125,-3,-3.1347967461154864,-4.48861519045119,-4.295805087878881
1768725504764,124,-4,-2.984113282302679,-5.029147902710521,-4.140933913343541
1768725504768,125,-3,-2.636148766468416,-3.9784974192102576,-3.785422232161917
1768725504772,126,-2,-2.3397647796626737,-2.5205578668078203,-3.4806801591450145
1768725504776,126,-2,-2.3185041043802395,-3.1260198857933204,-3.45309745435604
1768725504780,125,-3,-2.541191205271621,-4.296427204315013,-3.670782669387099
1768725504784,125,-3,-2.7529552169374263,-4.206872497644932,-3.8763657065267134
1768725504788,125,-3,-2.7268668783960965,-3.8378767953447457,-3.842821066175738
1768725504792,125,-3,-2.4688046655544387,-3.4898725647939406,-3.5784631346937283
1768725504796,126,-2,-2.189972854024419,-3.166137375121674,-3.2957563933091985
1768725504800,126,-2,-2.1047842953679883,-3.210170474276192,-3.2072102790797934
1768725504804,126,-2,-2.2461080875804766,-3.3732989786741205,-3.342814470564396
1768725504808,125,-3,-2.4354215113851874,-3.635442659701893,-3.5234846884345443
1768725504812,125,-3,-2.4062195316362627,-3.5852122270589404,-3.4850500144374963
1768725504816,126,-2,-1.9792040539920213,-3.0381467041663477,-3.051000808363167
1768725504820,127,-1,-1.1766944719413026,-2.2891018605126856,-2.2443124756911565
1768725504824,128,0,-0.2170922043662899,-1.4043249424575277,-1.2818530577545064
1768725504828,128,0,0.6015821829712038,-0.5087348383670273,-0.4599503742080472
1768725504832,129,1,1.0647665128379629,0.3101833953335791,0.0074610275975438
1768725504836,129,1,1.1546580791737526,0.1830407776881543,0.1029999107564528
1768725504840,129,1,1.0383531245922664,-0.548429198965961,-0.0054006567495235
1768725504844,129,1,0.9475916190776236,-0.1915284057743156,-0.0863294870149999
1768725504848,129,1,1.056564429936449,0.3410300672185609,0.0315151389509451
1768725504852,129,1,1.440063113123187,0.4911691901679598,0.4196266192929307
1768725504856,130,2,2.0804495926909636,1.1591004496043034,1.060668571643172
1768725504860,131,3,2.848315026886048,1.3766739318940324,1.829583525161974
1768725504864,131,3,3.476345328632007,1.9030435252841824,2.462757141332326
1768725504868,132,4,3.636880288980322,3.222439092992798,2.6312133348637317
1768725504872,131,3,3.151625169509326,2.732114024481621,2.152314070868333
1768725504876,130,2,2.167788864545986,0.9855149152085538,1.1720530352543992
1768725504880,129,1,1.0932894260766082,-0.4775575563823886,0.102118020728489
1768725504884,128,0,0.3118499938829936,-1.2802246214030402,-0.6705316343586425
1768725504888,128,0,-0.0523605380477844,-0.5989124977635041,-1.024545330284194
1768725504892,128,0,-0.1060127060163406,-0.2775745825164519,-1.0728637233191018
1768725504896,128,0,0.0090604774416577,-0.9892181365593096,-0.958974797576322
1768725504900,128,0,0.2044034153185671,-1.4591806214791991,-0.7655100745100902
1768725504904,128,0,0.341693343852945,-1.4433361547987742,-0.6242525936055365
1768725504908,128,0,0.1567309944392749,-0.3594852013616862,-0.800015445210978
1768725504912,128,0,-0.5768965016555072,-0.4150137744276927,-1.525455001248416
1768725504916,126,-2,-1.7696612402023162,-2.764744728325371,-2.7141219482588688
1768725504920,125,-3,-2.970116839784972,-4.693678917171947,-3.910724645756512
1768725504924,124,-4,-3.6746473481331745,-5.344227755990792,-4.607476317082073
1768725504928,124,-4,-3.705038816396686,-4.376100385297898,-4.629136736849861
1768725504932,125,-3,-3.2853885763633164,-3.307212317079655,-4.207044276443133
1768725504936,125,-3,-2.794448667844453,-3.702428170184862,-3.721099296570325
1768725504940,126,-2,-2.49814926503582,-3.875933723524932,-3.428203356027773
1768725504944,125,-3,-2.495941964569514,-4.198119956262067,-3.417587592181434
1768725504948,125,-3,-2.7962083576013423,-3.585302132720114,-3.6987790492071384
1768725504952,125,-3,-3.3153217491201463,-2.8719215246235184,-4.202005159426529
1768725504956,124,-4,-3.8010740485751393,-5.042618297090197,-4.689242879333383
1768725504960,124,-4,-3.866603272406532,-5.629684305391093,-4.7741802926193415
1768725504964,125,-3,-3.172484792448356,-4.441361795958313,-4.101254788779526
1768725504968,126,-2,-1.5133607078915192,-2.522277971341015,-2.4421983961589184
1768725504972,129,1,1.399241900250627,1.4627886319222458,0.5039704663581803
1768725504976,135,7,6.262671920513852,5.602788104272786,5.421831575886111
1768725504980,143,15,14.094875167827018,13.649506731751824,13.29256638221176
1768725504984,154,26,25.375411708078488,24.440256479871433,24.561572451390077
1768725504988,167,39,38.693422382529704,37.9748532796244,37.82217583984231
1768725504992,172,44,49.895897300927246,46.13334198880834,48.96779718578059
1768725504996,177,49,52.99891744784584,44.815900761521824,52.05816227999251
1768725505000,178,50,43.32320912745867,52.61088985321186,42.41081655093855
1768725505004,168,40,21.274881995910512,33.19335972125596,20.399404688877784
1768725505008,102,-26,-6.488934327655038,-21.003618364776987,-7.330892973387806
1768725505012,92,-36,-30.39783040667092,-40.1306466902239,-31.200631400543937
1768725505016,88,-40,-43.55961750265308,-37.75238855054097,-44.3297180485326
1768725505020,88,-40,-45.030299732908375,-43.47090113666462,-45.8081517686972
1768725505024,91,-37,-38.64636970495863,-38.15174403271894,-39.47859923780416
1768725505028,97,-31,-29.440871848849625,-30.79828216056685,-30.3322039704767
1768725505032,105,-23,-20.890709312168976,-23.593333956319377,-21.797915461177652
1768725505036,113,-15,-14.345252658674468,-15.122745331894656,-15.218507229352737
1768725505040,119,-9,-9.862312619537535,-11.15846131533963,-10.685555828426152
1768725505044,122,-6,-7.12525746903674,-7.435067262259158,-7.919126205482568
1768725505048,122,-6,-5.784965450747912,-6.00123600821491,-6.580301271359492
1768725505052,122,-6,-5.380538699520915,-6.363487198884483,-6.192988755009658
1768725505056,122,-6,-5.287436810968217,-6.293307556244553,-6.112291668571993
1768725505060,124,-4,-4.916254655296196,-6.1024159692331335,-5.740167693318301
1768725505064,124,-4,-4.015834700417162,-5.070441192442274,-4.830695342437796
1768725505068,125,-3,-2.78850169718182,-3.5209978395127903,-3.596415508868102
1768725505072,126,-2,-1.6931733058963985,-1.874035489231645,-2.501385367798381
1768725505076,127,-1,-1.0971731409348888,-1.8432755239740235,-1.9093365001842852
1768725505080,127,-1,-1.0580853115381523,-2.509865520421852,-1.8702300111010384
1768725505084,127,-1,-1.3636816348005951,-2.410623770685903,-2.168646099306213
1768725505088,126,-2,-1.712208771164391,-2.252229423398468,-2.5076950849018793
1768725505092,126,-2,-1.8518315052808187,-2.170873563237401,-2.643039628764856
1768725505096,126,-2,-1.640862553625072,-2.648432506583892,-2.434769697881241
1768725505100,127,-1,-1.096403665086366,-2.5651672915927586,-1.8945929948820983
1768725505104,128,0,-0.4241337070074409,-1.2281562870667893,-1.222368400595657
1768725505108,128,0,0.0713323643361256,-0.3826078437185991,-0.7227322486941112
1768725505112,128,0,0.2048179056610211,-0.1865638334575636,-0.5852638099846924
1768725505116,128,0,0.0780693331673164,-0.6214858586060936,-0.7107245912607428
1768725505120,128,0,0.0035485649179161,-1.5675789687267263,-0.784595266686133
1768725505124,128,0,0.2281084580344667,-1.0152810548089206,-0.5572876340581459
1768725505128,129,1,0.728430472645454,0.3874584210317844,-0.053260442704731
1768725505132,129,1,1.2837385037765356,0.9769549824345416,0.5030490029892127
1768725505136,130,2,1.7248769333867149,1.1776199570366472,0.941755829755712
1768725505140,130,2,2.071348692521994,0.693631555179874,1.2862811316989506
1768725505144,130,2,2.4245135606022865,0.8882106643641268,1.6416381305583818
1768725505148,131,3,2.7859280841612675,2.469693574283376,2.007781719461813
1768725505152,131,3,3.0388299696428014,2.8647207149537013,2.2631444372968943
1768725505156,131,3,3.0985799352448957,2.208529262229475,2.321515467440487
1768725505160,131,3,3.024854944263775,1.793000834928837,2.2460970840952337
1768725505164,131,3,2.963478571552128,1.858156688339457,2.18623727793088
1768725505168,131,3,3.0122726202208705,2.56136486967511,2.2385885983812974
1768725505172,131,3,3.17121577446128,2.6861839222876136,2.3991925036493527
1768725505176,131,3,3.395637576583826,2.3763929153389647,2.6219653058515413
1768725505180,132,4,3.650839787906284,2.691273411319267,2.874811080117123
1768725505184,132,4,3.9120688569969406,3.0770390788583177,3.136011804257519
1768725505188,132,4,4.156616849730112,3.3490647754450977,3.38278824864616
1768725505192,132,4,4.397485846278284,3.865782242146815,3.62565464842923
1768725505196,133,5,4.721444068320527,4.14695873150733,3.9499542685841673
1768725505200,133,5,5.252910445669737,4.018557677649009,4.481281737666305
1768725505204,134,6,6.0426713984472995,4.830605995346867,5.2717997435632356
1768725505208,135,7,6.989514615368146,6.638320484621796,6.219209672309871
1768725505212,136,8,7.888656487112191,7.512319688689451,7.116643197616472
1768725505216,136,8,8.559022322228365,7.486909821782312,7.783638759337313
1768725505220,137,9,8.919197443979485,7.744571230995399,8.142185193075203
1768725505224,137,9,8.971465751394986,8.191760007284966,8.196582709071283
1768725505228,137,9,8.772380785315447,8.310069193490293,8.001323272697878
1768725505232,136,8,8.442248239343325,7.786554243438888,7.672974695695393
1768725505236,136,8,8.156098078800438,7.213762333840168,7.385292881169803
1768725505240,136,8,8.05065640856873,7.056110536231036,7.276962065308267
1768725505244,136,8,8.101125964880042,7.00581959025008,7.325445258344741
1768725505248,136,8,8.105320798522524,7.475351764235577,7.328623223879625
1768725505252,136,8,7.831989072948785,7.645635959879667,7.054134623128257
1768725505256,135,7,7.216576436955538,6.268715754771538,6.4377505037019285
1768725505260,134,6,6.421758448696858,5.1223154473927215,5.643807566590048
1768725505264,134,6,5.712481521293265,4.9649679855711994,4.937217086070251
1768725505268,133,5,5.275166855710857,4.590290700193667,4.501413897241097
1768725505272,133,5,5.131604923506554,4.475061150258853,4.355401454305275
1768725505276,133,5,5.168861935704033,4.4470378504439525,4.387396352415707
1768725505280,133,5,5.2111606345181505,3.988935765621744,4.42584775709676
1768725505284,133,5,5.0889392495743895,4.162200202618484,4.303711103913724
1768725505288,133,5,4.7163031005829446,4.447630939532965,3.933204227187789
1768725505292,132,4,4.158198113787016,3.5536556235759735,3.3758207398019606
1768725505296,131,3,3.60582141974093,2.4059757396677015,2.8220951302392088
1768725505300,131,3,3.227214176486395,2.0308858927200646,2.4421359970929375
1768725505304,131,3,3.0082093432177395,2.2315674761687543,2.222735913892636
1768725505308,131,3,2.748580690439259,2.3827281592111724,1.9618465863194756
1768725505312,130,2,2.2279272977502824,1.6255028815453565,1.4373540267262137
1768725505316,129,1,1.374913645587005,0.3058583325211728,0.5794913794440939
1768725505320,128,0,0.2845270844339693,-0.8262243165391245,-0.5130456291341732
1768725505324,127,-1,-0.8898567372551711,-1.8441922468439704,-1.685238375483248
1768725505328,126,-2,-2.019151467561523,-2.513025901280156,-2.810566290222458
1768725505332,125,-3,-2.980665542328327,-3.4598339318047557,-3.770713465135768
1768725505336,124,-4,-3.623866537494088,-4.650993850638084,-4.417178559420709
1768725505340,124,-4,-3.8357375037229247,-4.804407792513598,-4.635093837420312
1768725505344,124,-4,-3.680543633348421,-4.832671820507063,-4.485212535388079
1768725505348,124,-4,-3.4482476566283293,-4.463709724771881,-4.255533746639264
1768725505352,125,-3,-3.490861996347096,-3.520924089790268,-4.2984998501735125
1768725505356,124,-4,-3.938751011515942,-4.589580271451295,-4.745564330060332
1768725505360,123,-5,-4.549352853569042,-5.865647746653856,-5.354612683069432
1768725505364,123,-5,-4.854092023599426,-5.6805763417359225,-5.6578287419390065
1768725505368,123,-5,-4.502876139782847,-5.620322678732647,-5.307164849587869
1768725505372,124,-4,-3.5309386254544517,-4.309042407029673,-4.339613208414562
1768725505376,126,-2,-2.349922486906834,-2.828663254723737,-3.1657190637222716
1768725505380,126,-2,-1.4894941503922705,-2.5920720898576937,-2.311270546105766
1768725505384,127,-1,-1.281550204793219,-1.9133715304312564,-2.104811837138612
1768725505388,126,-2,-1.686191018358616,-2.359566645978142,-2.506713339495795
1768725505392,125,-3,-2.347831966146811,-3.564606308685424,-3.1649276151495447
1768725505396,125,-3,-2.8297395935268055,-3.5664275944012656,-3.646317330207259
1768725505400,125,-3,-2.875357410943603,-3.8181638644608062,-3.6951853004937782
1768725505404,125,-3,-2.5338177881826893,-3.6564833497187466,-3.3587692164871235
1768725505408,126,-2,-2.076761081633222,-2.5493958083575228,-2.9062543712165745
1768725505412,126,-2,-1.7751236721038994,-2.401437191656667,-2.6073976735804045
1768725505416,126,-2,-1.7059206913330558,-2.708622776624483,-2.5392997282074026
1768725505420,126,-2,-1.7341621036402808,-2.6604780790083353,-2.5675108397385857
1768725505424,126,-2,-1.6661275352557958,-2.776404779860459,-2.499119979161666
1768725505428,126,-2,-1.424683075705567,-2.3799952570728555,-2.258206571728725
1768725505432,127,-1,-1.0939205888664605,-1.5635826224026343,-1.929845718307108
1768725505436,127,-1,-0.8180122273534771,-1.545298790888748,-1.6578039791774146
1768725505440,127,-1,-0.6746928295943516,-1.7922646288030977,-1.5180315495895338
1768725505444,127,-1,-0.6419350113910777,-1.6248816486309752,-1.4871062152050385
1768725505448,127,-1,-0.6580339047262187,-1.4755382381114557,-1.5037812075373842
1768725505452,127,-1,-0.6869554998795353,-1.4760351696024303,-1.5334999783060606
1768725505456,127,-1,-0.7267271152485678,-1.5995630162749614,-1.5748892169885578
1768725505460,127,-1,-0.7747740339934764,-1.7373144448250668,-1.6247691810001228
1768725505464,127,-1,-0.7974929215592012,-1.6336240937367397,-1.6490229102682217
1768725505468,127,-1,-0.7352130514158473,-1.4337516077160732,-1.5882167460299552
1768725505472,127,-1,-0.547284020491884,-1.5120724931064542,-1.4019774815820183
1768725505476,127,-1,-0.2732297923569874,-1.5300391567244032,-1.1297498639472363
1768725505480,128,0,-0.0551525798562019,-0.818045215803952,-0.913800422942278
1768725505484,128,0,-0.0773861359238908,-0.4882679337260798,-0.9388592697445436
1768725505488,127,-1,-0.4545646456619719,-1.56830588275674,-1.319131785981945
1768725505492,126,-2,-1.1585938567617733,-2.3557841530418697,-2.0251922530185618
1768725505496,126,-2,-2.034219283416623,-2.663015786916019,-2.901039137193001
1768725505500,125,-3,-2.868537864046997,-3.711070283563115,-3.734476607196245
1768725505504,124,-4,-3.460861252262126,-4.490630082327275,-4.326239467179333
1768725505508,124,-4,-3.676150072547436,-4.596600721808757,-4.54251685907636
1768725505512,124,-4,-3.4828073761551495,-4.247213203921643,-4.352299973259257
1768725505516,125,-3,-2.9684901592426285,-3.817617784122608,-3.8425866390886942
1768725505520,125,-3,-2.3257325782136684,-3.5065634432288366,-3.20386889965428
1768725505524,126,-2,-1.7979688700750422,-2.6682683550855693,-2.677673776909865
1768725505528,126,-2,-1.5799796552634908,-2.387495264908079,-2.458999630037459
1768725505532,126,-2,-1.7054233715883855,-2.435739147041168,-2.5836433786509065
1768725505536,126,-2,-2.007788221323118,-2.632752266201772,-2.886616016789833
1768725505540,125,-3,-2.2246697352508686,-3.6689354845448503,-3.1048265478696724
1768725505544,125,-3,-2.1949854647318743,-3.4709294787339693,-3.0759720820175187
1768725505548,126,-2,-1.9831693467963696,-2.5374272838952963,-2.8651915926681717
1768725505552,126,-2,-1.8091254693222976,-2.2870818924534175,-2.6941745669638197
1768725505556,126,-2,-1.8543472966715495,-2.7358102511162916,-2.744013603643884
1768725505560,125,-3,-2.135465530285538,-3.609792618826016,-3.0281487934500326
1768725505564,125,-3,-2.5386701096693782,-3.43344347230852,-3.4303132115452324
1768725505568,125,-3,-2.927167745897832,-3.6176768038513023,-3.815086287778646
1768725505572,124,-4,-3.1965716552694343,-4.099759783668173,-4.082073144492304
1768725505576,125,-3,-3.268823050376154,-3.9741151046189658,-4.156031079832464
1768725505580,124,-4,-3.1016891028800138,-4.314789032496814,-3.994068094456389
1768725505584,125,-3,-2.744794824414736,-3.731417325426643,-3.6424809316036018
1768725505588,125,-3,-2.37524869780221,-3.284064626431441,-3.275105148675637
1768725505592,125,-3,-2.226691508472954,-3.375421204034441,-3.124914695608971
1768725505596,126,-2,-2.4196487375397693,-2.735144970836237,-3.3147759691814462
1768725505600,125,-3,-2.8254250238208485,-3.477530621725244,-3.719026424710156
1768725505604,124,-4,-3.1180353773452896,-4.631167184959355,-4.012666760270276
1768725505608,124,-4,-3.021275938436688,-4.276245054942496,-3.9183122514182545
1768725505612,125,-3,-2.551646356059977,-3.395950521640587,-3.451169990501195
1768725505616,126,-2,-2.021527360172395,-2.6816369337812738,-2.9232890952655675
1768725505620,126,-2,-1.7770785754559966,-2.4896935495760064,-2.680550055056442
1768725505624,126,-2,-1.896809672608934,-2.6636176701708765,-2.8003910170665307
1768725505628,125,-3,-2.115999331999729,-3.155584841853025,-3.017110477716029
1768725505632,125,-3,-2.039489568607471,-3.548221897085681,-2.9365587228449934
1768725505636,126,-2,-1.4548540206096308,-2.4611356381977103,-2.349763307397846
1768725505640,128,0,-0.4861888526445619,-0.7012225811274373,-1.383933994357219
1768725505644,128,0,0.5069469182590074,-0.4367305052291705,-0.397526494607932
1768725505648,128,0,1.1620632046676898,-0.3472357984541647,0.252202603617116
1768725505652,129,1,1.3025449981555544,0.6410339926324361,0.3930463462881532
1768725505656,129,1,1.0101106230129215,0.3818876828481941,0.1061472927264347
1768725505660,128,0,0.585980527523906,-0.5303502611071911,-0.3116986383122084
1768725505664,128,0,0.4108610910554562,-0.566615516725806,-0.483921938620186
1768725505668,128,0,0.7422778933283358,-0.2104833095635174,-0.1541541608418668
1768725505672,129,1,1.5516773863966271,0.5357705238100894,0.6508579272698181
1768725505676,130,2,2.512579376925116,1.500173335805988,1.607683397264645
1768725505680,131,3,3.1695406124757524,2.3900968738228476,2.263048072420939
1768725505684,131,3,3.1994617763784485,2.5233578476963694,2.2941055883824526
1768725505688,130,2,2.60039794656217,1.7209514986580867,1.6979576632637272
1768725505692,129,1,1.6744331706619542,0.6054859470709973,0.7756798692432612
1768725505696,128,0,0.8149626310246573,-0.5338410135054803,-0.0803822075621765
1768725505700,128,0,0.2610431398926375,-0.558308875396853,-0.6327242884453839
1768725505704,128,0,-0.0015818146794289,-0.4736913683463764,-0.8967867288567304
1768725505708,127,-1,-0.1537996511941701,-1.2910882219018276,-1.0525572622524266
1768725505712,127,-1,-0.3826893088550962,-1.3399378042691354,-1.284160575385887
1768725505716,127,-1,-0.7751279548704958,-1.6059708325133064,-1.6758564511398566
1768725505720,126,-2,-1.3013024801712598,-2.4320866587938763,-2.1978198502802058
1768725505724,126,-2,-1.851212410080226,-2.592214492524648,-2.7425673843230696
1768725505728,125,-3,-2.2873468393232357,-3.1239600855351237,-3.1755239178503825
1768725505732,125,-3,-2.50633608887433,-3.5230585158373855,-3.3944461228297222
1768725505736,125,-3,-2.5059202153735205,-3.3849668800064547,-3.3958640411948253
1768725505740,125,-3,-2.4221161731224994,-3.633934759735756,-3.3137684165421
1768725505744,125,-3,-2.481116554677967,-3.374490119323903,-3.3733547027155484
1768725505748,125,-3,-2.856151997969832,-3.273325274428231,-3.747817163987379
1768725505752,124,-4,-3.5169501384065054,-4.434948858026537,-4.406141119018942
1768725505756,123,-5,-4.205545976155525,-5.381871277640629,-5.0888133155378386
1768725505760,123,-5,-4.584158737714329,-5.685087251233154,-5.45859584575129
1768725505764,123,-5,-4.449012326029064,-5.237319865781998,-5.3166428622638
1768725505768,124,-4,-3.851640622582552,-4.403765387623265,-4.721101911497341
1768725505772,124,-4,-3.05749819510643,-4.285703287000782,-3.9392566898747736
1768725505776,125,-3,-2.3740566060084713,-3.5123593284322556,-3.2715596368589037
1768725505780,126,-2,-1.9044116411101,-2.554144259714266,-2.808210274006992
1768725505784,126,-2,-1.2900705034729258,-2.331794921881151,-2.1810484281657168
1768725505788,128,0,0.425216403681258,-0.2723660691620253,-0.4365544163671031
1768725505792,133,5,4.6061246901807875,4.591701330542044,3.773895267738487
1768725505796,140,12,12.36557059264468,11.652546155801938,11.544555028673836
1768725505800,150,22,23.56930620706813,21.27418906059673,22.734276943986806
1768725505804,162,34,36.06083794635961,33.91366341153882,35.19629857488125
1768725505808,174,46,45.86085431294403,45.47255822355686,44.96934649717627
1768725505812,177,49,48.66437415652463,48.87034322352007,47.762296352284565
1768725505816,171,43,42.00623010154679,42.33919385033493,41.11327205266291
1768725505820,155,27,26.756594326356517,26.5506734364753,25.886956673829378
1768725505824,133,5,6.874403621307671,4.649767802319888,6.033089112034197
1768725505828,113,-15,-12.491965078725825,-15.246095124866676,-13.309629461682634
1768725505832,100,-28,-27.30816969449063,-28.285825662180027,-28.11547015380226
1768725505836,93,-35,-35.92111078687958,-35.444444782349166,-36.73535962021034
1768725505840,90,-38,-38.77823591136222,-38.60060759313116,-39.611595297978525
1768725505844,90,-38,-37.27644346359085,-38.19654725860353,-38.127897457500495
1768725505848,94,-34,-32.82178214248614,-34.445653740575835,-33.678334751675976
1768725505852,100,-28,-26.610623830455665,-28.043951288076897,-27.457710557773197
1768725505856,108,-20,-19.83338286149689,-20.669138797919487,-20.665179092733208
1768725505860,114,-14,-13.72799766678209,-14.322679805860693,-14.549074524596044
1768725505864,119,-9,-9.263902269852672,-9.476003287041491,-10.082565166164365
1768725505868,121,-7,-6.7323721335760744,-7.228204728091202,-7.552735027010824
1768725505872,121,-7,-5.664616470105775,-7.210154226446223,-6.483935076665336
1768725505876,122,-6,-5.205850541075588,-6.5170968584307065,-6.018369645591109
1768725505880,123,-5,-4.660808306748944,-5.336642089184862,-5.463967120021291
1768725505884,124,-4,-3.798565322233829,-4.515577516923923,-4.595791721088842
1768725505888,125,-3,-2.759977488967901,-3.1365336879895542,-3.557742557263336
1768725505892,126,-2,-1.7643459857010173,-2.332142168097256,-2.5663587034763617
1768725505896,126,-2,-0.9218191446245168,-2.35608729064675,-1.725639131839233
1768725505900,127,-1,-0.2642096814842003,-1.4259248646539036,-1.0634006687367226
1768725505904,128,0,0.1518856010022433,-0.4464230790218675,-0.6379435965888605
1768725505908,128,0,0.2595916591765683,-0.1749080764267736,-0.5215109869667662
1768725505912,128,0,0.1069393817978092,-0.3113231312158762,-0.6696552442352437
1768725505916,127,-1,-0.0929574908314121,-1.326217231197123,-0.8682082867382355
1768725505920,127,-1,-0.1022242890086322,-1.426731536383543,-0.8760745299036161
1768725505924,128,0,0.1294326383578539,-0.4171665443525885,-0.6415667319316385
1768725505928,128,0,0.4057658458033688,-0.2151658308883943,-0.3618867112304533
1768725505932,128,0,0.4539125541999365,-0.2317698482241255,-0.3105839888033372
1768725505936,128,0,0.1699491431546689,-0.4063319531466918,-0.5905398703994691
1768725505940,127,-1,-0.2765849910833309,-1.276068335292529,-1.0310456181814345
1768725505944,127,-1,-0.5569647544600047,-1.614801172714714,-1.304270315471407
1768725505948,127,-1,-0.4101755709221382,-0.9399190884761296,-1.1518058697822755
1768725505952,128,0,0.1917111039410088,-0.5484212724054454,-0.5473318704082344
1768725505956,128,0,1.039913153175139,-0.0013946811382068,0.3015411495827533
1768725505960,130,2,1.827691059945511,1.322811879004885,1.090786546765861
1768725505964,130,2,2.335333288956749,1.7778962842655373,1.6025135866479605
1768725505968,130,2,2.5462717726373207,1.7144576256295587,1.8201239967151488
1768725505972,130,2,2.620215780090408,1.7546521235639203,1.9018980609751628
1768725505976,130,2,2.749068324789955,1.8083794793550696,2.0375446171338227
1768725505980,131,3,3.0115865989241644,2.45981393721205,2.3038749533188336
1768725505984,131,3,3.3332569600702326,2.729901951522383,2.6263628503092864
1768725505988,131,3,3.560609366459513,2.702933322346085,2.8542075256475408
1768725505992,131,3,3.5791129686492,2.840880731658346,2.876348190612365
1768725505996,131,3,3.402174697951467,2.7111375963229447,2.70722993794719
1768725506000,131,3,3.1947698742717345,2.610844810458607,2.50923957638994
1768725506004,131,3,3.2158674235741795,2.5715175349087094,2.5374646502277933
1768725506008,131,3,3.683280133240701,2.8923283239862076,3.008115095561905
1768725506012,132,4,4.616748007461936,3.6508445752222425,3.9427867369286185
1768725506016,133,5,5.770571049853802,4.956095677122952,5.098834644045467
1768725506020,135,7,6.744506778317257,6.371429406953636,6.077255474101914
1768725506024,135,7,7.231209230493373,6.836254256891991,6.569666998020917
1768725506028,135,7,7.218968426512839,6.63270234078234,6.563128233504326
1768725506032,134,6,6.97552846889581,5.9082530946348175,6.32548315961354
1768725506036,134,6,6.822902082794455,5.754728376431551,6.17928579861817
1768725506040,135,7,6.904146472285837,6.564375120030682,6.267063501595113
1768725506044,135,7,7.138066795012044,6.7176998240879975,6.506345723455145
1768725506048,135,7,7.3616908435088915,6.711093278591215,6.73371573108308
1768725506052,135,7,7.4885549974085235,6.890169391596318,6.863612435575797
1768725506056,135,7,7.5328880335295425,6.745781737907731,6.911536187952771
1768725506060,135,7,7.511459609853666,6.629263595616726,6.8948549455606205
1768725506064,135,7,7.35935077674318,6.6717304324814775,6.748428188120576
1768725506068,135,7,6.972019961701093,6.763601948239602,6.367289822698483
1768725506072,134,6,6.344863624584837,5.873935591795863,5.746795075188273
1768725506076,133,5,5.663647954126461,4.738589759821835,5.072704828882413
1768725506080,133,5,5.230351026724996,4.7018924290542925,4.646152902363281
1768725506084,133,5,5.259979388688847,4.591731476770461,4.680751814030428
1768725506088,133,5,5.70200413045943,4.888357776035617,5.125651451500194
1768725506092,134,6,6.227185310438694,5.7616412530811205,5.653117553417403
1768725506096,134,6,6.406393752440849,5.851444164586653,5.836011901493811
1768725506100,134,6,5.974502728895497,5.627178076550345,5.409994996571408
1768725506104,133,5,4.999134649516922,4.664199880743339,4.442234280704648
1768725506108,131,3,3.82386180397281,2.853326680832293,3.2754836304281367
1768725506112,130,2,2.821637689687659,1.7996933936810118,2.2814547979004107
1768725506116,130,2,2.153957055703424,1.8353200093145483,1.619656061422434
1768725506120,130,2,1.7229076011403346,1.6804993833899853,1.1910084496623023
1768725506124,129,1,1.3174175264447785,0.6166572393515766,0.7863587050609563
1768725506128,128,0,0.7908431845946808,-0.0489047388988198,0.2631505473869644
1768725506132,128,0,0.134194226325891,-0.3377724318363471,-0.3854959043692916
1768725506136,127,-1,-0.5526454762011559,-0.9735493467533742,-1.0619566095508337
1768725506140,127,-1,-1.1265087000058596,-1.5101964609184164,-1.6272980041444638
1768725506144,126,-2,-1.47477452476813,-2.1387670727095265,-1.9709433331872137
1768725506148,126,-2,-1.5904220455065547,-2.2853563711257108,-2.0844024844210605
