timestamp_ms,ecg_u8_raw,ecg_counts_raw_int,ecg_counts_filt_monitor,ecg_counts_filt_diagnostic,ecg_counts_filt_st
1769239056064,128,0,0.6156184496674739,-5.219311878864044,-5.041743187027741
1769239056068,128,0,0.8369575706192118,-4.8205462024081225,-4.803626500904791
1769239056072,129,1,1.223803739771511,-4.098498338674811,-4.399948670323221
1769239056076,129,1,1.7882282678082606,-3.954821381933315,-3.8191604389773457
1769239056080,130,2,2.4572891356192947,-3.1588467832866582,-3.134803503154617
1769239056084,131,3,3.112682769194672,-1.9848231145161137,-2.465049477091358
1769239056088,131,3,3.64292009067698,-1.9775384609177464,-1.9202260006271357
1769239056092,131,3,3.974441420804289,-1.985535935159112,-1.5727231857135062
1769239056096,132,4,4.080916338176733,-1.0192265563372866,-1.4492190355104424
1769239056100,132,4,3.991945614630072,-1.1293919608367036,-1.521680676296656
1769239056104,131,3,3.7926517356040272,-1.9737702056757636,-1.7057461903376223
1769239056108,131,3,3.5819355572461875,-1.965955384337802,-1.901806879327008
1769239056112,131,3,3.4056825989669033,-2.001347264742484,-2.0633878475603034
1769239056116,131,3,3.233937996933017,-1.9822701139529064,-2.2209098910312903
1769239056120,131,3,3.011371005954447,-2.1730950522789003,-2.4299733491052495
1769239056124,130,2,2.726119097830495,-2.8993603367651737,-2.7014303848992514
1769239056128,130,2,2.4303566093640265,-3.020631165462474,-2.981986948500222
1769239056132,130,2,2.2110271762910454,-2.9475269410305485,-3.1851965446614185
1769239056136,130,2,2.1510728982010994,-3.0174848834060692,-3.229812656392497
1769239056140,130,2,2.297246757542126,-3.1383184335443293,-3.0700201917375463
1769239056144,130,2,2.6262937560953956,-2.8932898454882174,-2.7285039288742876
1769239056148,131,3,3.024375900548126,-2.0268320619913966,-2.3180423779312385
1769239056152,131,3,3.313862675370105,-1.917501896719589,-2.0156814040668647
1769239056156,131,3,3.3273139572735775,-2.053354182566707,-1.9887622045424136
1769239056160,131,3,2.981061192658494,-2.0767300092253715,-2.3211063826648357
1769239056164,130,2,2.298530239528538,-2.942935774062036,-2.989626105648576
1769239056168,129,1,1.371879910618277,-3.956615570265227,-3.9026127963333304
1769239056172,128,0,0.2940994501638454,-4.975534074643562,-4.967543583840664
1769239056176,127,-1,-0.885604196948405,-5.983718979453355,-6.135431110118317
1769239056180,126,-2,-2.152437346502052,-7.1316272188075365,-7.390966575088943
1769239056184,124,-4,-3.48216131916838,-8.853593215043514,-8.70875396820426
1769239056188,123,-5,-4.806990631214572,-10.04756825851232,-10.020393108049074
1769239056192,122,-6,-6.014297766112806,-10.849935467879387,-11.214087571911996
1769239056196,121,-7,-6.975989932609151,-12.116702043790582,-12.163156425067498
1769239056200,120,-8,-7.601334474295692,-12.964644325503135,-12.777302479482188
1769239056204,120,-8,-7.891515371556014,-12.993222472417584,-13.05697384884518
1769239056208,120,-8,-7.950786674509032,-12.9072196432206,-13.10552511172956
1769239056212,120,-8,-7.928388209729984,-12.95323661715409,-13.071804437687351
1769239056216,120,-8,-7.928163189481169,-13.022126125331926,-13.05978072720348
1769239056220,120,-8,-7.95662486843989,-13.022737154248787,-13.076466705666228
1769239056224,120,-8,-7.946509140690746,-12.919427610544195,-13.05511796355583
1769239056228,120,-8,-7.831697003075318,-12.96988746626279,-12.929652829797933
1769239056232,120,-8,-7.611947275826881,-12.851827169526628,-12.699451521158505
1769239056236,121,-7,-7.352556200184243,-12.138394328094352,-12.429618589829232
1769239056240,121,-7,-7.117135411512563,-11.842212024049108,-12.183842831167826
1769239056244,121,-7,-6.898986811350919,-12.123615723498038,-11.95527500416553
1769239056248,121,-7,-6.6255941498410955,-11.705085299914067,-11.671119732687607
1769239056252,122,-6,-6.236289135573658,-11.130593870253918,-11.271037799960949
1769239056256,122,-6,-5.756308609286094,-10.827563084691745,-10.781211250961912
1769239056260,123,-5,-5.297585709895544,-10.11869356525255,-10.314058745960644
1769239056264,123,-5,-4.988733836592702,-9.841315424467796,-9.997365527034557
1769239056268,123,-5,-4.893345870106734,-9.94709760051363,-9.893114695619328
1769239056272,123,-5,-4.9729691500176045,-9.898865441290951,-9.96201507713574
1769239056276,123,-5,-5.108087599965822,-10.016603607798997,-10.085452901211664
1769239056280,123,-5,-5.1556386723903955,-9.9194251635375,-10.122235434127498
1769239056284,123,-5,-5.017505226511359,-9.988792428417836,-9.975374342255453
1769239056288,123,-5,-4.697393368334684,-9.805296403945368,-9.648195844248397
1769239056292,124,-4,-4.31494405759981,-8.997888403021744,-9.25913987655108
1769239056296,124,-4,-4.0522155743909405,-8.924773442791913,-8.98920214265619
1769239056300,124,-4,-4.0508966527997305,-8.950842123716953,-8.979498445358264
1769239056304,124,-4,-4.323788795334654,-8.95823229842959,-9.2427846235373
1769239056308,123,-5,-4.741246110212378,-9.787154125696548,-9.650013250584966
1769239056312,123,-5,-5.1017066198265635,-10.039567050819414,-10.000794683367396
1769239056316,123,-5,-5.239253593705978,-9.810990614552988,-10.1302584071794
1769239056320,123,-5,-5.103965398232427,-10.073262679147923,-9.988460620001016
1769239056324,123,-5,-4.7761861929336815,-9.765615776150389,-9.654650904065443
1769239056328,124,-4,-4.412516072235679,-8.981157640311398,-9.284369481749934
1769239056332,124,-4,-4.153528976548879,-8.834858153021159,-9.017956508350494
1769239056336,124,-4,-4.050156306046647,-8.96873024698559,-8.9066467806066
1769239056340,124,-4,-4.059131110337653,-8.91182270256894,-8.907552506445624
1769239056344,124,-4,-4.102133934670128,-8.86012585421406,-8.942781067723635
1769239056348,124,-4,-4.130465361267115,-8.898473976275923,-8.964009104463722
1769239056352,124,-4,-4.1439290056337015,-8.87563371317631,-8.971045485691405
1769239056356,124,-4,-4.162136600419537,-8.908047020639694,-8.983129397246774
1769239056360,124,-4,-4.183860237764345,-8.940079263861145,-8.998634600851545
1769239056364,124,-4,-4.171559651989594,-8.78705712504361,-8.979796619710665
1769239056368,124,-4,-4.073716808077874,-8.965464830389699,-8.875070269841345
1769239056372,124,-4,-3.864331979199741,-8.780592188127418,-8.658805320084648
1769239056376,125,-3,-3.5606555237292503,-7.962741587632166,-8.348938796180299
1769239056380,125,-3,-3.201541802911981,-7.876774757676703,-7.984599750180756
1769239056384,125,-3,-2.8130987240165837,-7.766463223097357,-7.59117098542036
1769239056388,126,-2,-2.3983178882995673,-7.0333304378568045,-7.1706178395834685
1769239056392,126,-2,-1.9505532904391645,-6.6125720835229576,-6.716182107613299
1769239056396,127,-1,-1.4650805700606515,-6.183668300770171,-6.224052089839312
1769239056400,127,-1,-0.940848942267114,-5.532921820711827,-5.694087404578213
1769239056404,128,0,-0.3875160280515777,-5.135582872246072,-5.136001029926828
1769239056408,128,0,0.1557062438712799,-4.6191446912381435,-4.588334246421835
1769239056412,129,1,0.6080896645057488,-3.9875027256143154,-4.131183176475858
1769239056416,129,1,0.8669353102632056,-3.834484177480917,-3.867217724002314
1769239056420,129,1,0.8578337820571686,-3.7456344055710726,-3.8712985014842287
1769239056424,129,1,0.5822357072601678,-3.995577392784287,-4.142269121826275
1769239056428,128,0,0.1232788405811473,-4.634972983670223,-4.596628811576438
1769239056432,128,0,-0.3985932588739764,-5.035698685395948,-5.1132267970993315
1769239056436,127,-1,-0.8862057609050764,-5.689399528745245,-5.594875621506832
1769239056440,127,-1,-1.2941622742534609,-5.869066369712629,-5.997367381707372
1769239056444,127,-1,-1.6121877008367822,-5.840272972197362,-6.311683633942987
1769239056448,126,-2,-1.8426951563441645,-6.728803190042839,-6.539871285562922
1769239056452,126,-2,-2.0134151644917515,-6.987942715154998,-6.707843154185731
1769239056456,126,-2,-2.202068358072932,-6.613136242509849,-6.892175941316998
1769239056460,126,-2,-2.509337963085291,-6.992252970388817,-7.194344331591575
1769239056464,125,-3,-2.9731218104859964,-7.585672696433327,-7.653751148694855
1769239056468,125,-3,-3.504417717958249,-8.029164500471033,-8.181634904269963
1769239056472,124,-4,-3.923979980682618,-8.624734583622663,-8.597427498353575
1769239056476,124,-4,-4.083235789250773,-8.960759508446287,-8.751470786542388
1769239056480,124,-4,-3.9654320576603688,-8.588058324555103,-8.628188423351626
1769239056484,125,-3,-3.6754815696035665,-7.928159363451503,-8.335436795368322
1769239056488,125,-3,-3.3365300438598977,-7.682991412645986,-7.997556689566876
1769239056492,125,-3,-3.0075280805381643,-7.923143331319287,-7.670100479526126
1769239056496,125,-3,-2.701480954441248,-7.666634529162636,-7.360185530136867
1769239056500,126,-2,-2.4527116630195596,-6.794179685568897,-7.099857474069543
1769239056504,126,-2,-2.3248049825922874,-6.701243601365201,-6.958118288911172
1769239056508,126,-2,-2.347616760506697,-6.850560380717841,-6.975090923166128
1769239056512,126,-2,-2.4871054068118608,-6.753455361010218,-7.123114530405032
1769239056516,125,-3,-2.7148702614533535,-7.79901935518657,-7.368656581183413
1769239056520,124,-4,-3.068497054038998,-8.621742696487068,-7.734284763885652
1769239056524,125,-3,-3.4848732167651155,-7.801514155070613,-8.143691557680595
1769239056528,126,-2,-3.362676065053344,-6.72642433259404,-7.995915028646253
1769239056532,128,0,-1.2209965503021087,-4.828953109953979,-5.824151889862597
1769239056536,133,5,4.954303499319755,0.2888252394839252,0.3692578592837838
1769239056540,143,15,16.477815196349525,10.367882717731671,11.891521739125636
1769239056544,159,31,32.5042310078159,26.248900499657346,27.9008683612216
1769239056548,178,50,49.53529217164478,45.314211608871034,44.907795117080646
1769239056552,193,65,62.61524308615919,60.13542187059797,57.96622379377601
1769239056556,197,69,67.6713419376944,64.33978409335799,63.01354858436221
1769239056560,191,63,63.486543100951806,58.279390989616445,58.84037356882868
1769239056564,179,51,52.03847643218215,46.32597059513097,47.42202835105512
1769239056568,165,37,37.17334089819961,32.29292342371416,32.58970477939073
1769239056572,151,23,22.674851161668062,18.25995032563531,18.10884890542135
1769239056576,139,11,10.91057181416275,6.330901649952933,6.3395424064125265
1769239056580,131,3,2.5623981526103545,-1.65142368838846,-2.0285368473745953
1769239056584,126,-2,-2.815464979522961,-6.75216531367011,-7.426110320494971
1769239056588,122,-6,-6.026688875617385,-10.566410900177289,-10.64541126119281
1769239056592,120,-8,-7.754631469784151,-12.8533754545267,-12.36748487557424
1769239056596,119,-9,-8.490756075483583,-13.428184414685964,-13.089895673586588
1769239056600,120,-8,-8.64101545354368,-12.92649426251773,-13.228300352227276
1769239056604,120,-8,-8.548572947864354,-12.425360675171062,-13.132312350498754
1769239056608,120,-8,-8.409105551521442,-12.889478614745048,-12.996197521390018
1769239056612,119,-9,-8.241524047561885,-13.457273379671657,-12.831960271264448
1769239056616,120,-8,-7.993918978655853,-12.722110486886454,-12.582895507452204
1769239056620,121,-7,-7.667594298286001,-11.667481161819405,-12.252069863662406
1769239056624,121,-7,-7.322825569852174,-11.576452925368512,-11.904534467267986
1769239056628,121,-7,-6.998213862106532,-11.795545177754748,-11.580415129364594
1769239056632,121,-7,-6.674821988548943,-11.379852346466825,-11.257960974333916
1769239056636,122,-6,-6.3234091439447235,-10.826943958319514,-10.905055484890696
1769239056640,122,-6,-5.949470299847292,-10.465124931449086,-10.527702512760763
1769239056644,123,-5,-5.567491156358038,-9.78138230162769,-10.143094674050296
1769239056648,123,-5,-5.147023592934522,-9.54306244158161,-9.72214699063989
1769239056652,123,-5,-4.619957338430393,-9.53881726758459,-9.19541202956584
1769239056656,124,-4,-3.959219980978108,-8.6556216100451,-8.533951892656757
1769239056660,125,-3,-3.2349620992813906,-7.542612250974095,-7.807976377376329
1769239056664,126,-2,-2.5668757387118095,-6.7263740025708305,-7.1384950012541655
1769239056668,126,-2,-2.017267599391113,-6.498028401698166,-6.58797206174526
1769239056672,126,-2,-1.5457721984692043,-6.549233836358912,-6.11491859780495
1769239056676,127,-1,-1.0696343948807183,-5.58818345819886,-5.6365132190899105
1769239056680,128,0,-0.5514494275365303,-4.55136405762795,-5.116991080145526
1769239056684,128,0,-0.0286031641191997,-4.707985175529342,-4.594611821235916
1769239056688,128,0,0.4168354669509555,-4.42365108467432,-4.149910541990161
1769239056692,129,1,0.7090290152714191,-3.584380789356463,-3.856690236723424
1769239056696,129,1,0.8329618047644491,-3.505313345009915,-3.729964558021021
1769239056700,129,1,0.8716510128990069,-3.567464792916681,-3.6884285402946073
1769239056704,129,1,0.9796910455030232,-3.679948122792837,-3.5787884116556756
1769239056708,129,1,1.2816688866962225,-3.355207537986421,-3.276347460411772
1769239056712,130,2,1.7662146794075366,-2.625995458803195,-2.7916824271657603
1769239056716,130,2,2.2729217534062585,-2.3838548861141673,-2.284756308348701
1769239056720,131,3,2.597324691294399,-1.6552036634442069,-1.9600774592939731
1769239056724,131,3,2.634673287520613,-1.5387192008296688,-1.9221709381869836
1769239056728,130,2,2.4430629648700997,-2.444000471148571,-2.1120648860507747
1769239056732,130,2,2.175357436867502,-2.4838761502733817,-2.3764921424880825
1769239056736,130,2,1.9516189540901785,-2.4577132772230272,-2.596849827129468
1769239056740,130,2,1.7918918814042823,-2.540404452073827,-2.7555037891261587
1769239056744,130,2,1.647844345592046,-2.588678259660429,-2.9012421813061744
1769239056748,129,1,1.4657727750419522,-3.334929433116566,-3.0851236185782356
1769239056752,129,1,1.2132573290473685,-3.561691314452262,-3.3365295277981555
1769239056756,129,1,0.8836062140889878,-3.2837647098552165,-3.6621991100780145
1769239056760,129,1,0.5203257896396245,-3.7064481578308386,-4.02156896981882
1769239056764,128,0,0.2376114671562075,-4.31476936094206,-4.302787706980494
1769239056768,128,0,0.1712923832624806,-4.583196578264502,-4.369498981591553
1769239056772,128,0,0.3676269218885168,-4.254249449910804,-4.173297739285318
1769239056776,129,1,0.7138671262788419,-3.5190669164014414,-3.8256381851899706
1769239056780,129,1,0.9938430462359114,-3.434768056894193,-3.543139794578132
1769239056784,129,1,1.0283904661870886,-3.4863361186454496,-3.5063323883244877
1769239056788,129,1,0.7751224141666044,-3.396647677337483,-3.758515276302039
1769239056792,128,0,0.2996458705397848,-4.362938484947887,-4.233645252498424
1769239056796,127,-1,-0.349018069903706,-5.37661826902394,-4.88144592239777
1769239056800,127,-1,-1.2262313061565029,-5.488613969439681,-5.7568004770330585
1769239056804,126,-2,-2.4330501106460742,-6.371457436582707,-6.961505702865502
1769239056808,124,-4,-3.9540652394536937,-8.457317920909407,-8.480660411817736
1769239056812,122,-6,-5.5638129079018235,-10.244790796564123,-10.088179384492266
1769239056816,121,-7,-6.917679180776072,-11.452014850281326,-11.438919605912648
1769239056820,120,-8,-7.758320930955149,-12.33339989468962,-12.276417196156675
1769239056824,120,-8,-8.062671605247822,-12.44861229054679,-12.579145501188838
1769239056828,120,-8,-8.021831763639565,-12.31645091717327,-12.53855044043434
1769239056832,120,-8,-7.891850201619986,-12.33411162421558,-12.409213578657862
1769239056836,120,-8,-7.839254788478907,-12.31822134678498,-12.355664488266775
1769239056840,120,-8,-7.879922709986854,-12.398351561352944,-12.392979356991797
1769239056844,120,-8,-7.922576802709869,-12.30881384750834,-12.430791556230286
1769239056848,120,-8,-7.859925621549928,-12.380763261870472,-12.36361302040476
1769239056852,120,-8,-7.639692494894056,-12.22691444314414,-12.140701947470376
1769239056856,121,-7,-7.281309380951365,-11.360093166159109,-11.781805862645513
1769239056860,121,-7,-6.8513002201535915,-11.301766693274768,-11.352075350040916
1769239056864,121,-7,-6.434218529995461,-11.30925911448118,-10.933845958220234
1769239056868,122,-6,-6.112572589714414,-10.331983878036269,-10.608633626466268
1769239056872,122,-6,-5.936553217245932,-10.194026472075215,-10.427942401740516
1769239056876,122,-6,-5.883868997321344,-10.381528298324882,-10.371620763501564
1769239056880,122,-6,-5.855661344325932,-10.15330356829394,-10.341432325817175
1769239056884,122,-6,-5.74086211853186,-10.431701267429592,-10.224980250585377
1769239056888,122,-6,-5.505138649376503,-10.104178034438068,-9.986460912382904
1769239056892,123,-5,-5.21615874878933,-9.367562872791154,-9.693666858029673
1769239056896,123,-5,-4.972109794071317,-9.185100421054823,-9.446091937700508
1769239056900,123,-5,-4.805725680972095,-9.199365330696352,-9.277143977817651
1769239056904,123,-5,-4.668285413630816,-9.412756951408214,-9.137439955031164
1769239056908,123,-5,-4.508474147332182,-8.94061365596318,-8.974758353433856
1769239056912,124,-4,-4.352412354737467,-8.583301179112073,-8.815130150583471
1769239056916,123,-5,-4.2920593154426285,-8.809678001123551,-8.751010933756323
1769239056920,124,-4,-4.390718986313462,-8.557999926515965,-8.84604624817515
1769239056924,123,-5,-4.5993286510532725,-8.952237307477988,-9.051089637426395
1769239056928,123,-5,-4.767627107503048,-9.328799890065898,-9.215557792720364
1769239056932,123,-5,-4.749166365437251,-9.173937442132356,-9.192848070010342
1769239056936,123,-5,-4.51327267811995,-9.078475145349127,-8.952686432772202
1769239056940,124,-4,-4.166345621641298,-8.294783843209665,-8.60222748708266
1769239056944,124,-4,-3.865783207149032,-8.036230798369317,-8.299054422637365
1769239056948,124,-4,-3.7078757409773417,-8.278834212954374,-8.138479803634786
1769239056952,124,-4,-3.6858241306461297,-8.084841562177647,-8.112355184722189
1769239056956,124,-4,-3.733956852104786,-8.149341987777925,-8.154758467270414
1769239056960,124,-4,-3.793452998010027,-8.122464397928148,-8.208133461388543
1769239056964,124,-4,-3.836023566748786,-8.103058037141478,-8.2458295463029
1769239056968,124,-4,-3.844017704247734,-8.189791398476494,-8.25065534763872
1769239056972,124,-4,-3.790908077980275,-8.055849102738389,-8.194819614094193
1769239056976,124,-4,-3.6535892824330145,-8.16812913683276,-8.053310105707517
1769239056980,124,-4,-3.439451685677656,-7.963938114591293,-7.832930820404026
1769239056984,125,-3,-3.1847353057000385,-7.213422784960594,-7.571463185767877
1769239056988,125,-3,-2.9159258497046707,-6.980101189621399,-7.297427109398493
1769239056992,125,-3,-2.6254545815125376,-7.223896577004258,-7.00347295723324
1769239056996,125,-3,-2.3062509066689794,-6.919124596162418,-6.680897443228343
1769239057000,126,-2,-2.0060567421008964,-6.1314176698156695,-6.376016094832395
1769239057004,126,-2,-1.8168992050852988,-5.956695320622381,-6.180890582880019
1769239057008,126,-2,-1.785364553970337,-6.151077343687803,-6.142920819431924
1769239057012,126,-2,-1.8300690237250272,-6.004396068167088,-6.181257641961997
1769239057016,126,-2,-1.7596398476365294,-6.054888079564972,-6.104561451751147
1769239057020,126,-2,-1.3950771933150694,-5.929193037759562,-5.733749114040487
1769239057024,127,-1,-0.7057673824919612,-5.040711348798395,-5.038476018409718
1769239057028,128,0,0.1510293197922805,-3.997591653057969,-4.176603975550414
1769239057032,129,1,0.9215404580306148,-3.091644155551567,-3.401986564614819
1769239057036,129,1,1.4014413650935282,-2.886831614744395,-2.917776083110042
1769239057040,129,1,1.5222696368442086,-3.045325050465798,-2.7908174753252446
1769239057044,129,1,1.3364282408956936,-2.7922125467855112,-2.9684178901473097
1769239057048,129,1,0.952247639756382,-3.1971663515696465,-3.343742191830576
1769239057052,128,0,0.4832766082288651,-3.79925666363629,-3.8049955907333546
1769239057056,128,0,0.023204613439075,-4.102484752683091,-4.258937749967611
1769239057060,127,-1,-0.3738788867833975,-4.777482865882468,-4.650700559528688
1769239057064,127,-1,-0.7102947083278623,-4.908020807385984,-4.981654868346069
1769239057068,127,-1,-1.039408011461899,-5.068731636249625,-5.3045704726605
1769239057072,126,-2,-1.4301829841920275,-5.766404598572596,-5.688058557225117
1769239057076,126,-2,-1.9201534256233432,-6.152022382343634,-6.169729419627269
1769239057080,125,-3,-2.483345894016149,-6.560925156822372,-6.7244849269845695
1769239057084,125,-3,-3.030942207665464,-7.099303465649179,-7.264588650990179
1769239057088,124,-4,-3.452318719669503,-7.738510253696488,-7.679372515156652
1769239057092,124,-4,-3.682370228901117,-8.037139317920095,-7.902353085977938
1769239057096,124,-4,-3.74745949312934,-7.817038030279459,-7.958787600788448
1769239057100,124,-4,-3.7418909907558096,-7.775665508260526,-7.94378654262292
1769239057104,124,-4,-3.7457196864823312,-7.833992406364358,-7.939729366211931
1769239057108,124,-4,-3.758031166656985,-7.862199645155193,-7.947078845013607
1769239057112,124,-4,-3.711973478591617,-7.876799288991003,-7.896984651802084
1769239057116,124,-4,-3.559038070712603,-7.8832416579166225,-7.736057498177173
1769239057120,124,-4,-3.336053815719287,-7.616389804098863,-7.497802558703761
1769239057124,125,-3,-3.137386172702747,-6.914380117110568,-7.279832307651839
1769239057128,125,-3,-3.0177356282587064,-6.646224342138019,-7.14630093365453
1769239057132,125,-3,-2.952091829661565,-7.062121277693574,-7.080247692613678
1769239057136,124,-4,-2.934268890394474,-7.582995143832214,-7.0734057202249385
1769239057140,124,-4,-3.089659260982988,-7.85976104300806,-7.238089952021335
1769239057144,124,-4,-3.532036132026814,-7.5544171261695965,-7.673340205334333
1769239057148,125,-3,-3.8708296614689472,-6.890885357106962,-7.984215467784208
1769239057152,126,-2,-2.7267718492203077,-5.75873551185574,-6.801548351369673
1769239057156,130,2,2.098470091293158,-1.7707792973966732,-1.9442279590931777
1769239057160,139,11,12.46974172227086,7.374521842333337,8.440259234850265
1769239057164,154,26,28.29483830218088,22.37830115508302,24.258740652592454
1769239057168,174,46,46.61876363741109,42.259264820194055,42.56431768084646
1769239057172,192,64,62.39658112396418,60.231903351609944,58.3237820961846
1769239057176,200,72,70.74939012325287,68.24777501367723,66.67022627040512
1769239057180,197,69,69.32700625678983,65.39210582449678,65.26235517907887
1769239057184,186,58,59.25981992233501,54.39328824187158,55.23038040290262
1769239057188,171,43,44.226038429254366,39.3107831101785,40.23995707516205
1769239057192,156,28,28.455314299061413,24.376502775552865,24.502166932637124
1769239057196,143,15,14.995164949835392,11.21550712468416,11.052835848976246
1769239057200,133,5,5.07666866466684,1.5883747623268292,1.1261203012072034
1769239057204,127,-1,-1.4743590656488017,-4.754836591743238,-5.438102286629032
1769239057208,122,-6,-5.419753950453305,-9.44625154619331,-9.387418297014053
1769239057212,120,-8,-7.516254457502667,-11.751720494674334,-11.47275725606398
1769239057216,119,-9,-8.361423101364956,-12.549231575001135,-12.295900912876558
1769239057220,119,-9,-8.476848185825721,-12.544127980637825,-12.38813469379694
1769239057224,120,-8,-8.331316920981267,-11.573698073352828,-12.22627003818886
1769239057228,120,-8,-8.225098841385913,-11.533393590810675,-12.11148559927751
1769239057232,119,-9,-8.199618554344164,-12.559339480711325,-12.079404648439548
1769239057236,119,-9,-8.126483922776899,-12.632094396865622,-11.995646152567044
1769239057240,120,-8,-7.903881298785539,-11.342919820070104,-11.75838246043228
1769239057244,121,-7,-7.557499196850389,-10.742860748565665,-11.397973838151543
1769239057248,120,-8,-7.176954033177981,-11.201067864281187,-11.006737848800867
1769239057252,121,-7,-6.812441334758098,-10.8491468517065,-10.63252565688347
1769239057256,121,-7,-6.452888188169959,-10.163129628857632,-10.260679394473216
1769239057260,122,-6,-6.064845355716351,-9.784514853637107,-9.857618942571053
1769239057264,122,-6,-5.614008791143157,-9.170667633102855,-9.392051448063883
1769239057268,123,-5,-5.060525718956047,-8.678173393203876,-8.826280168401999
1769239057272,123,-5,-4.376545995571286,-8.28148695429977,-8.131369666315956
1769239057276,124,-4,-3.594786418838364,-7.5689825339695,-7.337460042530581
1769239057280,125,-3,-2.825487076310387,-6.371055646267716,-6.553981746792237
1769239057284,126,-2,-2.1899802733911975,-5.388449219878907,-5.9038248067115395
1769239057288,126,-2,-1.7202549957959925,-5.457621378599244,-5.420487058651578
1769239057292,126,-2,-1.3363489829991049,-5.286680630317113,-5.023652141090461
1769239057296,127,-1,-0.9369051087358506,-4.554528301832023,-4.6107572188906785
1769239057300,127,-1,-0.5067643088777156,-4.212426349134508,-4.166434457616375
1769239057304,128,0,-0.1237496332515009,-3.513398084668794,-3.769287722656893
1769239057308,128,0,0.1399484331420297,-3.1515337310092004,-3.4917882189930487
1769239057312,128,0,0.3133606096108949,-3.5406737577601444,-3.3041252417841704
1769239057316,128,0,0.5204412811849715,-3.153008647964902,-3.081755821381023
1769239057320,129,1,0.8824545163980035,-2.553289820723107,-2.7041560738377477
1769239057324,129,1,1.4217296717184331,-2.052943496392836,-2.1502019179281406
1769239057328,130,2,2.039093627193357,-1.4728961667936016,-1.5190998985682809
1769239057332,130,2,2.567238138178673,-1.1431396033292738,-0.9771085609218852
1769239057336,131,3,2.86080239574897,-0.4015029750917547,-0.6689339231817595
1769239057340,131,3,2.873068821880038,-0.2777807916734618,-0.6414358718909492
1769239057344,130,2,2.669486559163863,-1.1444861945884923,-0.8292177901611852
1769239057348,130,2,2.365332757664203,-1.332400240932964,-1.1168920826767224
1769239057352,130,2,2.045460875903691,-1.0924855617134126,-1.4201776474270655
1769239057356,130,2,1.7420562462302351,-1.4233717522670668,-1.7078311581138732
1769239057360,129,1,1.4714305210288694,-2.0959999173284096,-1.9634923480926427
1769239057364,129,1,1.2631203358607714,-2.2519302293755605,-2.1565648605274506
1769239057368,129,1,1.1444994071615011,-2.0864874917932945,-2.259099503299759
1769239057372,129,1,1.1120373690087466,-2.217467471521479,-2.2751677293376953
1769239057376,129,1,1.1292109381870916,-2.216597739485896,-2.241924211647237
1769239057380,129,1,1.1514805319184525,-2.1608954970234935,-2.2036718039643106
1769239057384,129,1,1.1543496046744266,-2.120069052431139,-2.184110467946303
1769239057388,129,1,1.144408182719428,-2.0522385360928936,-2.176211407454792
1769239057392,129,1,1.1441231732258852,-2.167271503576846,-2.1579890178474725
1769239057396,129,1,1.154711235317616,-2.143367875713934,-2.129530687576546
1769239057400,129,1,1.1191877147894709,-2.115963767614552,-2.1490572999874655
1769239057404,129,1,0.9133028538522469,-2.0955915483207423,-2.3405627303833585
1769239057408,128,0,0.3756668827928249,-2.8746404883083123,-2.8632672778191592
1769239057412,127,-1,-0.6283073603304739,-4.3289572209095635,-3.849603675142738
1769239057416,126,-2,-2.1186723666293785,-4.760157232579521,-5.319930122599808
1769239057420,125,-3,-3.925023341709166,-6.498113816441663,-7.106142231740008
1769239057424,121,-7,-5.701402118650372,-9.513396816742263,-8.863754473820805
1769239057428,121,-7,-7.078201051857235,-10.37245255773107,-10.22274043634565
1769239057432,120,-8,-7.862964592190867,-10.70341769331528,-10.989932733914216
1769239057436,120,-8,-8.123781047651434,-11.2420896128796,-11.233474783034971
1769239057440,120,-8,-8.089140392019502,-10.957588397992062,-11.181861529946488
1769239057444,120,-8,-7.965204556752945,-10.846333416373124,-11.040503702860931
1769239057448,120,-8,-7.824444987669173,-11.027966422296291,-10.881064936897191
1769239057452,120,-8,-7.630396935247403,-10.82135415340278,-10.667243539351812
1769239057456,121,-7,-7.339447372697683,-10.104876368354088,-10.356410789146846
1769239057460,121,-7,-6.974018488982489,-9.901671627779317,-9.971636612305184
1769239057464,121,-7,-6.612895680978527,-9.80832281147,-9.59151876812436
1769239057468,122,-6,-6.323433672293663,-8.950964647211398,-9.283108843219006
1769239057472,122,-6,-6.101890178959892,-8.746392911503836,-9.042681237199112
1769239057476,122,-6,-5.880743315487778,-9.11707635447247,-8.802551122665383
1769239057480,122,-6,-5.605493070558686,-8.702784206498514,-8.507827409944069
1769239057484,123,-5,-5.306571552077199,-7.927196602228973,-8.189037120289292
1769239057488,123,-5,-5.082804512078867,-7.685621804567846,-7.945528661644436
1769239057492,123,-5,-5.0057257234691654,-7.8817800742617,-7.848856471652308
1769239057496,123,-5,-5.042462474210591,-7.898576481453616,-7.865553606971715
1769239057500,123,-5,-5.072348065466471,-7.742457852881126,-7.874678698956583
1769239057504,123,-5,-4.978167382796488,-7.823643508677879,-7.7595344011956255
1769239057508,123,-5,-4.732700458279094,-7.595390261613468,-7.493666027430402
1769239057512,124,-4,-4.4142953642833955,-6.895732616743386,-7.1556788548237105
1769239057516,124,-4,-4.145318800023052,-6.728397617654796,-6.867382423533055
1769239057520,124,-4,-4.007687739616641,-6.807669496230814,-6.709700026243483
1769239057524,124,-4,-4.00105862587929,-6.627536619525469,-6.681781667651487
1769239057528,124,-4,-4.063429400759126,-6.650673230542129,-6.722164817427932
1769239057532,124,-4,-4.123266649581567,-6.731582867107267,-6.760328079306672
1769239057536,124,-4,-4.1422382725753,-6.738182801709893,-6.758393420675522
1769239057540,124,-4,-4.127009966886098,-6.700371223239275,-6.722667758021789
1769239057544,124,-4,-4.109959534290425,-6.578828447684644,-6.684938509110681
1769239057548,124,-4,-4.115862081565091,-6.585279871554424,-6.669674937257463
1769239057552,124,-4,-4.141160210277027,-6.65598752638817,-6.673320961635872
1769239057556,124,-4,-4.16232998567449,-6.686852626005715,-6.6725374637493
1769239057560,124,-4,-4.162759256391187,-6.628678874740979,-6.651046310261849
1769239057564,124,-4,-4.150065352445003,-6.510438657263166,-6.616772483910266
1769239057568,124,-4,-4.147865326737648,-6.523655257017434,-6.593262726153538
1769239057572,124,-4,-4.1728923625668495,-6.5818237112097275,-6.596768993904116
1769239057576,124,-4,-4.218752515118709,-6.627049594371712,-6.620532460982277
1769239057580,124,-4,-4.255060119938931,-6.572436997548744,-6.634351355980221
1769239057584,124,-4,-4.2381472105841205,-6.410401891297985,-6.594948153513049
1769239057588,124,-4,-4.130387856837908,-6.511630413728971,-6.464724114117768
1769239057592,124,-4,-3.923295252908883,-6.424318708462405,-6.235081853510741
1769239057596,125,-3,-3.646739109721935,-5.690839781190993,-5.936215732640456
1769239057600,125,-3,-3.35037555149645,-5.338675896022737,-5.6181400226729465
1769239057604,125,-3,-3.074591570225948,-5.542203711316393,-5.320752204397657
1769239057608,125,-3,-2.839768918867152,-5.20987661930743,-5.063516110310765
1769239057612,126,-2,-2.6484128562813343,-4.605354753984389,-4.848874870347957
1769239057616,126,-2,-2.474564895560621,-4.383409549022012,-4.651581057174477
1769239057620,126,-2,-2.251459053527824,-4.479391097328035,-4.405068375882463
1769239057624,126,-2,-1.8957891424724151,-4.308682439256236,-4.025667404906106
1769239057628,127,-1,-1.3655627608524488,-3.242645158183737,-3.4717345083111883
1769239057632,128,0,-0.7004210799355479,-2.4982986444803426,-2.7840039521720032
1769239057636,128,0,-0.0146780766158114,-2.292542711865348,-2.0769683249666007
1769239057640,129,1,0.5381354508307923,-1.4774185506083688,-1.502740255781923
1769239057644,129,1,0.8095788690489334,-1.1394560226678667,-1.2082865890047805
1769239057648,129,1,0.7124632643185618,-1.2920336022347554,-1.280881387641557
1769239057652,129,1,0.2759264518502546,-1.3050614554765456,-1.692609084839913
1769239057656,128,0,-0.3488617904718403,-2.325797575593173,-2.2930951669549393
1769239057660,127,-1,-0.9642595762581714,-3.3385744261531505,-2.8846442507602457
1769239057664,127,-1,-1.4393546466930478,-3.089751898144901,-3.336296406680546
1769239057668,127,-1,-1.7705455272110566,-3.2448711861183304,-3.644594036631113
1769239057672,126,-2,-2.049727737557135,-4.165226247032075,-3.9010489489923583
1769239057676,126,-2,-2.384443394640545,-4.338248844451047,-4.212519911063347
1769239057680,126,-2,-2.831992221378303,-4.191197317720999,-4.636362321461467
1769239057684,125,-3,-3.375900052822564,-5.080232559678999,-5.156663502896251
1769239057688,124,-4,-3.949310761200845,-6.133731600994359,-5.70647107838841
1769239057692,124,-4,-4.484976138403349,-6.091385363890597,-6.217854451261523
1769239057696,124,-4,-4.942788804033456,-6.293376281588287,-6.650507136555842
1769239057700,123,-5,-5.289548033918497,-7.078772319665214,-6.971811425398643
1769239057704,123,-5,-5.471679770732791,-7.047709017725618,-7.129128226425126
1769239057708,123,-5,-5.435696833111892,-7.0290835910264935,-7.069964882870015
1769239057712,123,-5,-5.189120571632737,-7.0240370252341355,-6.802343752799536
1769239057716,124,-4,-4.83709193721697,-6.23577945026056,-6.4301954668851335
1769239057720,124,-4,-4.543174596173483,-5.961991809070614,-6.113623319517208
1769239057724,124,-4,-4.4310617305726305,-6.047497346768062,-5.972760822052107
1769239057728,124,-4,-4.50099078668193,-5.854908266700206,-6.008587704304402
1769239057732,124,-4,-4.631769956935636,-6.0639263801498675,-6.107228269751323
1769239057736,124,-4,-4.6845540767893254,-6.041533025235198,-6.139280648662947
1769239057740,124,-4,-4.651050347687407,-5.9931395392198725,-6.098651818001879
1769239057744,123,-5,-4.716647662499279,-6.879801543090381,-6.160498911981598
1769239057748,123,-5,-5.081151684895335,-6.866923581500222,-6.508392015759425
1769239057752,124,-4,-5.4972871452648455,-5.88658953519405,-6.886564815294527
1769239057756,125,-3,-4.792234311787726,-5.0944666447426235,-6.12928940008223
1769239057760,128,0,-0.9124372695467756,-1.7353205510782743,-2.199998279462976
1769239057764,136,8,8.12606677646075,5.981416154207254,6.871213662455478
1769239057768,149,21,22.70112322470302,19.459322964941585,21.458898059520372
1769239057772,169,41,40.50696582857337,38.953285536982136,39.26343572316456
1769239057776,187,59,56.95650489946622,57.22513806379187,55.70856151851105
1769239057780,197,69,67.11103208214905,67.12163779437533,65.8678068043109
1769239057784,197,69,68.01086584634132,67.16311894979502,66.79137625325293
1769239057788,188,60,59.9431720993501,58.42273981310485,58.76797930874652
1769239057792,174,46,45.96379129985199,44.02609009648189,44.843497047752024
1769239057796,158,30,30.179561740805728,28.45756822653929,29.108341032685573
1769239057800,145,17,15.961493606709496,15.047148403765627,14.921035052254055
1769239057804,134,6,5.035358692131297,4.503673820717439,4.006248596785177
1769239057808,127,-1,-2.37432303141866,-2.8314931213130192,-3.401772835340032
1769239057812,122,-6,-6.847014301502131,-7.559069897109289,-7.868833750616742
1769239057816,119,-9,-9.157433763985662,-10.785600453550396,-10.160335412657176
1769239057820,118,-10,-10.040662175680946,-11.521194431903035,-11.011485808615216
1769239057824,119,-9,-10.176624745822307,-10.742288470077709,-11.110709178814831
1769239057828,119,-9,-10.123643723079258,-10.499010520097334,-11.026122644056532
1769239057832,119,-9,-10.163055258889118,-10.729842340090364,-11.042363255424124
1769239057836,118,-10,-10.247391065495147,-11.46667170848696,-11.107361683067886
1769239057840,118,-10,-10.175228192495592,-11.629386976907233,-11.013366045381725
1769239057844,119,-9,-9.851581727115851,-10.474619591170526,-10.664097871727552
1769239057848,120,-8,-9.38323053404558,-9.61750016977372,-10.170005553903255
1769239057852,120,-8,-8.944992634460606,-9.478529047924894,-9.70872235350923
1769239057856,120,-8,-8.600633574840845,-9.51942986527918,-9.342394155793816
1769239057860,120,-8,-8.275096562108665,-9.419473746522764,-8.992880351762075
1769239057864,121,-7,-7.869743116517385,-8.492164039085583,-8.561709970342662
1769239057868,122,-6,-7.363817217213716,-7.474913614744208,-8.031144926394534
1769239057872,122,-6,-6.81058524991463,-7.442257126303265,-7.455657454837192
1769239057876,122,-6,-6.278310273635721,-7.3907805368027555,-6.901111663454763
1769239057880,123,-5,-5.808226827977829,-6.358631425408802,-6.406421361160467
1769239057884,124,-4,-5.390552784544813,-5.396878818314252,-5.9629315123479385
1769239057888,124,-4,-4.9507127223340905,-5.412147954120331,-5.498753037972761
1769239057892,124,-4,-4.387333074433094,-5.331651850689612,-4.9129703799250635
1769239057896,125,-3,-3.671911017248236,-4.338967298522077,-4.1752670988205
1769239057900,126,-2,-2.9154955604303243,-3.209115972808128,-3.395546543392136
1769239057904,127,-1,-2.302464226939503,-2.40970199127676,-2.758823619244939
1769239057908,127,-1,-1.933362512452863,-2.192274202014807,-2.3663226080047184
1769239057912,127,-1,-1.7335430051770504,-2.4329211409690643,-2.1428781595137125
1769239057916,127,-1,-1.5215449250862152,-2.024467646521655,-1.90644445436122
1769239057920,128,0,-1.1666628208966272,-1.3766025930525414,-1.527052062494154
1769239057924,128,0,-0.6879385356847578,-1.0440233627411608,-1.025168039466931
1769239057928,129,1,-0.2218073763406895,-0.38518835616365,-0.5375789093081318
1769239057932,129,1,0.0913447634849713,-0.0851943035813365,-0.2033683290007237
1769239057936,129,1,0.2005000743693249,-0.1853094851558863,-0.071799857732115
1769239057940,129,1,0.1572256283945548,-0.0650718318058931,-0.0907259658810133
1769239057944,129,1,0.0629046078282474,-0.1377515144984267,-0.1598593728768094
1769239057948,129,1,0.0042312280950714,-0.154469756799938,-0.1942998656908665
1769239057952,129,1,0.0171306383568033,-0.0962430815335206,-0.1591153226459152
1769239057956,129,1,0.0831292730474028,-0.055162003358772,-0.0722396705725589
1769239057960,129,1,0.1437809781661576,0.0354787445236031,0.0093835725574509
1769239057964,129,1,0.1252742926786123,-0.0981555799918014,0.013080511506077
1769239057968,129,1,-0.0254024701672269,0.0210054315361771,-0.1142474558990072
1769239057972,129,1,-0.3017964525200082,-0.1212262608363721,-0.3670367065818878
1769239057976,128,0,-0.6269080859611285,-0.8467275888634163,-0.6689511611649568
1769239057980,128,0,-0.8926834956443259,-0.9919285767495644,-0.912089858983153
1769239057984,128,0,-1.027716387404083,-0.888410141869616,-1.025139163218758
1769239057988,128,0,-1.038557309430172,-0.9962109664058474,-1.0147226421996005
1769239057992,128,0,-0.9939402184953522,-0.9338065926846536,-0.9491596338534304
1769239057996,128,0,-0.970534432918229,-0.8492502426977504,-0.9042854301859048
1769239058000,128,0,2.035402897147495,0.9492572737789802,0.8475621404898479
1769239058004,128,0,2.1187657474025863,0.5421269027290587,0.9312546928851544
1769239058008,128,0,2.2918028629390297,0.9400716188626506,1.1048574694495803
1769239058012,129,1,2.378336723141671,1.4635681084135563,1.1918383779179589
1769239058016,128,0,2.232361931962119,0.8097800409275223,1.04594894455875
1769239058020,128,0,1.8254303681378736,0.6238962976230227,0.639152151547493
1769239058024,127,-1,1.221962099438307,-0.1885831492277832,0.0367732269577667
1769239058028,126,-2,0.4800243057204501,-1.2933999002123753,-0.7028723874917819
1769239058032,126,-2,-0.4091517927558419,-1.3342935960367512,-1.589657330673513
1769239058036,125,-3,-1.4744183109739766,-2.388035665694085,-2.6536561382473347
1769239058040,123,-5,-2.668505271150219,-4.182099949192025,-3.847094852609982
1769239058044,122,-6,-3.840763232751425,-5.386904220054736,-5.017527585979535
1769239058048,121,-7,-4.81391858363945,-6.104217612161242,-5.987054937110254
1769239058052,121,-7,-5.48296125429034,-6.531937602284759,-6.652170453025389
1769239058056,120,-8,-5.849710093895035,-7.185450824722568,-7.016447849746239
1769239058060,120,-8,-5.991484577236704,-7.382952485840968,-7.157233375347864
1769239058064,120,-8,-6.012313427250293,-7.200286304882131,-7.1771000341752025
1769239058068,120,-8,-6.00560941226835,-7.295366383797568,-7.168066207242832
1769239058072,120,-8,-6.028205207549288,-7.362370353181392,-7.186639461131103
1769239058076,120,-8,-6.082669309110483,-7.337101390085173,-7.23613597448733
1769239058080,120,-8,-6.1141766795875085,-7.24087951362095,-7.262871076742659
1769239058084,120,-8,-6.033639119021552,-7.351363411838341,-7.178383006449183
1769239058088,120,-8,-5.769891618022564,-7.147208998311498,-6.911232018318701
1769239058092,121,-7,-5.32689200827692,-6.534801523417879,-6.464738884287542
1769239058096,121,-7,-4.801712479763614,-6.137304215511314,-5.935785708387487
1769239058100,122,-6,-4.3390946591775315,-5.461514154807387,-5.469430553207002
1769239058104,122,-6,-4.050441678981128,-5.125615066441943,-5.177122346903962
1769239058108,122,-6,-3.958801338102379,-5.390970216704169,-5.081168118824607
1769239058112,122,-6,-4.007568951338589,-5.3165098136861015,-5.124157888632932
1769239058116,122,-6,-4.1100366419259995,-5.313436804449684,-5.219767116243353
1769239058120,122,-6,-4.186965546302972,-5.339554550924881,-5.290314416532947
1769239058124,122,-6,-4.173862506586244,-5.183345727359201,-5.272403266631797
1769239058128,122,-6,-4.028012073189391,-5.416768040915644,-5.1226642715171185
1769239058132,122,-6,-3.757252851203988,-5.243209341522537,-4.847348779417542
1769239058136,123,-5,-3.4392649087470075,-4.423674678940101,-4.5234863067084845
1769239058140,123,-5,-3.186126381167476,-4.204672052505023,-4.263869865037995
1769239058144,123,-5,-3.0686872256727664,-4.326476487899666,-4.140128984771559
1769239058148,123,-5,-3.07132473088177,-4.296024373281756,-4.136556636648841
1769239058152,123,-5,-3.120121867009819,-4.366111699023383,-4.178809558838497
1769239058156,123,-5,-3.15146117615031,-4.317801968878905,-4.203292166705429
1769239058160,123,-5,-3.154965085563012,-4.276902604342046,-4.200014640685547
1769239058164,123,-5,-3.159986427622317,-4.283514969187406,-4.198530906511112
1769239058168,123,-5,-3.1889937096662484,-4.32347219508326,-4.221137573658189
1769239058172,123,-5,-3.2235423482047834,-4.3892021452416605,-4.24903767282075
1769239058176,123,-5,-3.2107851170187462,-4.261531826960118,-4.229003349027915
1769239058180,123,-5,-3.1030576472221303,-4.352553109189356,-4.113164690672537
1769239058184,123,-5,-2.8953662266870155,-4.182745678535172,-3.8969606886553287
1769239058188,124,-4,-2.625525613715243,-3.460437616677645,-3.619280628267021
1769239058192,124,-4,-2.338304405596352,-3.2506568144818924,-3.3254591570695036
1769239058196,124,-4,-2.0573897798404066,-3.418261980291671,-3.0382300035196232
1769239058200,124,-4,-1.7967975916951875,-3.164185422148438,-2.7701092508345355
1769239058204,125,-3,-1.5804538051692014,-2.4052714282193817,-2.544867796486802
1769239058208,125,-3,-1.4196101950859583,-2.2116980317824133,-2.3749419192105163
1769239058212,125,-3,-1.2641256884109278,-2.5605501976896496,-2.21088804355922
1769239058216,125,-3,-0.9986777449111236,-2.0545986570640986,-1.936801611002816
1769239058220,126,-2,-0.511613654872423,-1.5736022703273438,-1.440399233257888
1769239058224,126,-2,0.2190309280722115,-0.960409541663985,-0.7002567203963308
1769239058228,128,0,1.0953536610827124,0.3154558789333779,0.1845121557506455
1769239058232,128,0,1.9416869500275291,0.9023948126776586,1.0378945146812215
1769239058236,129,1,2.57677788438377,1.494774300459482,1.679853645959734
1769239058240,129,1,2.869120255122514,1.8491885990874009,1.9806160061471965
1769239058244,129,1,2.7660195167766375,1.6479884434935523,1.8880516543435997
1769239058248,129,1,2.3100795471845874,1.6527907294115731,1.443696736851079
1769239058252,128,0,1.6382276015276105,0.611469823837892,0.78289802133296
1769239058256,127,-1,0.938183956019628,-0.2752848398149813,0.0925743674835276
1769239058260,127,-1,0.3623331426876246,-0.3228906689902701,-0.4746161887515129
1769239058264,126,-2,-0.052024965762869,-1.225754712721884,-0.8805431527952504
1769239058268,126,-2,-0.3946984602343273,-1.4595749262415865,-1.2143283540062464
1769239058272,126,-2,-0.8088725468850135,-1.274120986446427,-1.6190079113732994
1769239058276,125,-3,-1.3793198381479963,-2.421498247120068,-2.179536948494506
1769239058280,124,-4,-2.0655411716885768,-3.148021551877178,-2.855493976677106
1769239058284,124,-4,-2.7289498736534163,-3.427704493674186,-3.5081483913755145
1769239058288,123,-5,-3.2258343303221233,-4.259708502260256,-3.993592861255326
1769239058292,123,-5,-3.491715312391602,-4.464630795133343,-4.247494525297449
1769239058296,123,-5,-3.56124582929856,-4.250864415385525,-4.3055231447788955
1769239058300,123,-5,-3.5231906294976985,-4.298152496028273,-4.25809601211111
1769239058304,123,-5,-3.4593709832146837,-4.3082274474875835,-4.1877016169465335
1769239058308,123,-5,-3.4200620145694662,-4.363151443450699,-4.142576432825921
1769239058312,123,-5,-3.437816112982283,-4.391410039501648,-4.150954447755597
1769239058316,123,-5,-3.531614492894176,-4.30138162245713,-4.228471345926307
1769239058320,123,-5,-3.6705919606141673,-4.268051124448626,-4.3458408733772655
1769239058324,123,-5,-3.7422857033437738,-4.327785343469895,-4.3979925894255345
1769239058328,123,-5,-3.612651460674447,-4.363533694357961,-4.2596381360135815
1769239058332,123,-5,-3.2916818485901733,-4.3854881545172635,-3.943301321670688
1769239058336,123,-5,-3.06023207169258,-4.324362060936624,-3.7217052488089952
1769239058340,123,-5,-3.3263934819249323,-4.221605125618652,-3.98818199698142
1769239058344,123,-5,-4.123382203641215,-4.4085090961526365,-4.765473606563884
1769239058348,123,-5,-4.517664060516176,-4.255091363766381,-5.122866557326856
1769239058352,125,-3,-2.493103779858304,-2.53880253448673,-3.0591116004390404
1769239058356,130,2,4.24646503308419,2.870394534940942,3.7057055186502934
1769239058360,142,14,16.751580768359418,14.5640705893317,16.21513044479152
1769239058364,159,31,33.51580785502012,31.856103034580507,32.96728111843283
1769239058368,178,50,50.469627089003694,50.46444112019675,49.903762433167415
1769239058372,191,63,62.60051976595552,63.74044549262044,62.02418094754289
1769239058376,194,66,66.3213643053065,66.53134991033917,65.7511564035411
1769239058380,187,59,61.08904422612285,59.818049936396726,60.54525088044525
1769239058384,175,47,49.311052024633426,47.58692276505995,48.80759478899637
1769239058388,161,33,34.81170726959382,33.698971703496134,34.34727179525134
1769239058392,148,20,21.010332575571496,20.642807467512093,20.56856107468598
1769239058396,137,9,9.870338885536707,9.603809543944596,9.430473657519762
1769239058400,129,1,1.8991212823323789,1.8242044968336837,1.4491075918272476
1769239058404,124,-4,-3.243637560029888,-3.525922172878057,-3.701196849466265
1769239058408,120,-8,-6.156160553455194,-7.147366626393528,-6.608198939358967
1769239058412,119,-9,-7.443252979867537,-8.506262073805566,-7.876400096090956
1769239058416,119,-9,-7.704857321401655,-8.234096438510392,-8.11427212662343
1769239058420,120,-8,-7.506685110584324,-7.32450871638889,-7.897461077252283
1769239058424,120,-8,-7.246421976010496,-7.48417342186342,-7.626948057590556
1769239058428,119,-9,-7.058098432952301,-8.128034932224184,-7.43182976689602
1769239058432,120,-8,-6.887801434748875,-7.592145134155679,-7.251385690613398
1769239058436,120,-8,-6.66670881493368,-7.0432160862541595,-7.015397294831022
1769239058440,121,-7,-6.399409494578735,-6.595900714804374,-6.732851130200014
1769239058444,121,-7,-6.112471954474954,-6.1931049007273336,-6.434488980197818
1769239058448,121,-7,-5.78430142444248,-6.45167909222407,-6.097814706964045
1769239058452,121,-7,-5.374125835541022,-6.275975062537118,-5.677762959181258
1769239058456,122,-6,-4.907764689413897,-5.287047581442481,-5.19797984604228
1769239058460,123,-5,-4.483596649630111,-4.434828804467142,-4.759143973674448
1769239058464,123,-5,-4.164188032196455,-4.287973753698319,-4.4272213691896525
1769239058468,123,-5,-3.882518239020496,-4.456697003756375,-4.13534713829652
1769239058472,123,-5,-3.4919765854455274,-4.198671450424179,-3.734046334215467
1769239058476,124,-4,-2.9159004376295554,-3.3967998542265043,-3.1448115859623753
1769239058480,125,-3,-2.226022289960577,-2.3005970132590265,-2.4409009411164084
1769239058484,126,-2,-1.561436336726269,-1.4370713307310896,-1.7640672400770088
1769239058488,126,-2,-0.989086885725309,-1.336750778941397,-1.181448740928142
1769239058492,126,-2,-0.4698510657351264,-1.2993001281492202,-0.6515695408299396
1769239058496,127,-1,0.0434846013110157,-0.315979043037961,-0.1256523067866976
1769239058500,128,0,0.5107243799184058,0.6443365984239217,0.3549339672400534
1769239058504,128,0,0.829672841101754,0.6008265925527436,0.6860200112196235
1769239058508,128,0,0.9468667096519388,0.6105814100353724,0.8140715419918683
1769239058512,128,0,0.9285926956029236,0.7674172439815397,0.8070706933656623
1769239058516,128,0,0.9271132375832936,0.5732317224092209,0.8185041130006978
1769239058520,128,0,1.0843468883166727,0.8195737277287369,0.9896652475351588
1769239058524,129,1,1.4560180765091613,1.3658004693979422,1.374489943164113
1769239058528,129,1,2.00114067857021,1.890866401714339,1.9307882354507069
1769239058532,130,2,2.6195367550820405,2.440168101182365,2.5589082516384565
1769239058536,130,2,3.1932564481783805,2.9118048361948614,3.142693754758711
1769239058540,131,3,3.611968539684453,3.49607166985159,3.5732566872550837
1769239058544,131,3,3.7961934600655782,3.652565239566468,3.770965140158386
1769239058548,131,3,3.7292469072289673,3.652742708569172,3.7176628723725784
1769239058552,131,3,3.4759928500087183,3.5959676910484504,3.476893908322336
1769239058556,130,2,3.1533647286042754,2.8351993544704888,3.1655304694259225
1769239058560,130,2,2.855976756359588,2.4915573272119556,2.878965691177515
1769239058564,130,2,2.597530856583511,2.74032362044871,2.631420587440656
1769239058568,130,2,2.329160365440151,2.487912400572491,2.374193648182241
1769239058572,129,1,2.0201242611249706,1.8103533890297667,2.076982568430397
1769239058576,129,1,1.7208068358300626,1.5791861487724832,1.7905856476556292
1769239058580,129,1,1.5498177462076668,1.763666771126798,1.6330294162016274
1769239058584,129,1,1.6169357939751323,1.4721320990981694,1.7126605146689915
1769239058588,129,1,1.935736036265295,1.731531557916965,2.0421486901733656
1769239058592,130,2,2.3818471044630085,2.6059002650952556,2.497716632480341
1769239058596,130,2,2.7293358900146107,2.7173223702285525,2.8551139110761237
1769239058600,130,2,2.7521138819797875,2.6928514426459604,2.889557036705151
1769239058604,130,2,2.3338817779603276,2.4708679452711753,2.4843966935160005
1769239058608,129,1,1.5204825916913682,1.7901884893709905,1.6838734578168555
1769239058612,128,0,0.4757854870251017,0.491849994178814,0.6508125826550339
1769239058616,126,-2,-0.6380696117137035,-1.1371673156791622,-0.4522716853006285
1769239058620,126,-2,-1.7647933605768422,-1.4742919131671304,-1.5683266152411035
1769239058624,125,-3,-2.946109886810349,-2.3483826877413447,-2.738822377385816
1769239058628,123,-5,-4.209402174478092,-4.39283412900302,-3.9909624007412576
1769239058632,122,-6,-5.468727847345863,-5.33828198980415,-5.2384547454392125
1769239058636,121,-7,-6.540234633503059,-6.296755917155961,-6.29764390185578
1769239058640,120,-8,-7.256192046079338,-7.35118454165275,-7.001760666361997
1769239058644,120,-8,-7.578298532372578,-7.421446925697644,-7.313294722538276
1769239058648,120,-8,-7.621184230959775,-7.357238456454349,-7.346625685542093
1769239058652,120,-8,-7.569915577058488,-7.345785385276277,-7.285679517577687
1769239058656,120,-8,-7.554686246350801,-7.32652870456532,-7.2595284690031106
1769239058660,120,-8,-7.576470816336533,-7.312950886171695,-7.268951125226325
1769239058664,120,-8,-7.535201134556771,-7.464730600763317,-7.214889180659948
1769239058668,120,-8,-7.331223346116597,-7.303555156903831,-6.999258938848165
1769239058672,121,-7,-6.957841583980112,-6.40713095496902,-6.616130495975957
1769239058676,121,-7,-6.519646496274907,-6.271932133496309,-6.169132185040005
1769239058680,121,-7,-6.172982581003592,-6.371766945992987,-5.8128443383315505
1769239058684,122,-6,-6.029681796951132,-5.410918062169132,-5.658504216345744
1769239058688,122,-6,-6.07951288853945,-5.340812836254082,-5.6967170496239925
1769239058692,121,-7,-6.190260984762152,-6.398704861645599,-5.795914363241511
1769239058696,121,-7,-6.2054254863468605,-6.257938812917779,-5.799561256918676
1769239058700,122,-6,-6.0659093775356645,-5.419029299425882,-5.649056349096334
1769239058704,122,-6,-5.84239172091388,-5.342041088794032,-5.416093941702965
1769239058708,122,-6,-5.657564355854953,-5.4070191301235,-5.223131497459969
1769239058712,122,-6,-5.589139354960976,-5.33764431790395,-5.14595020876952
1769239058716,122,-6,-5.636185574818169,-5.333206790554287,-5.182042949971094
1769239058720,122,-6,-5.743010601654408,-5.353299830325527,-5.2763674352129275
1769239058724,122,-6,-5.832033634477308,-5.403571848505922,-5.353525363088404
1769239058728,122,-6,-5.826890348530456,-5.324383353610977,-5.338530576199715
1769239058732,122,-6,-5.680538751351616,-5.435565995345954,-5.183649764189349
1769239058736,122,-6,-5.409422945757187,-5.241856325240727,-4.903658676741653
1769239058740,123,-5,-5.099760373927143,-4.462859789806338,-4.584048336147937
1769239058744,123,-5,-4.85935312763543,-4.278498390783962,-4.333252317291958
1769239058748,123,-5,-4.746076745597328,-4.437787293012299,-4.209969406502834
1769239058752,123,-5,-4.738697180115415,-4.333274357796288,-4.193086093440561
1769239058756,123,-5,-4.774283688002594,-4.355099881011222,-4.219300385163477
1769239058760,123,-5,-4.808739354405404,-4.37600160299489,-4.244142923298652
1769239058764,123,-5,-4.841261059186254,-4.3295575892115234,-4.266638408902319
1769239058768,123,-5,-4.886459151417476,-4.390491809187537,-4.301578503250482
1769239058772,123,-5,-4.928696174266758,-4.378079415017494,-4.333907538403857
1769239058776,123,-5,-4.909559268114163,-4.3290414488066284,-4.3057468526177045
1769239058780,123,-5,-4.770566177279545,-4.431323976032104,-4.158500300027828
1769239058784,123,-5,-4.517252242367569,-4.226215773022274,-3.897026893641084
1769239058788,124,-4,-4.235046452256796,-3.518455355621925,-3.6061603620219063
1769239058792,124,-4,-4.021155359967791,-3.21614476740224,-3.3828691085173075
1769239058796,124,-4,-3.883047498253992,-3.544967632892162,-3.234638950126444
1769239058800,124,-4,-3.700189825181776,-3.2122873091951103,-3.0413500502728676
1769239058804,125,-3,-3.2951462309919455,-2.4266787670138186,-2.626381518738745
1769239058808,125,-3,-2.568468793992204,-2.330772102072789,-1.8909174794803705
1769239058812,126,-2,-1.6001383619282337,-1.3552451588604708,-0.9150060462291428
1769239058816,128,0,-0.635306151457312,0.5109686513608102,0.0565602948559086
1769239058820,128,0,0.0482685314447226,0.789891514461851,0.7469415250991447
1769239058824,128,0,0.2943145685144872,0.5034920665063061,1.0012842435086775
1769239058828,128,0,0.129418040288529,0.8276969846521479,0.846765994448829
1769239058832,128,0,-0.2912208612426057,0.411765742147893,0.4371945254352181
1769239058836,127,-1,-0.7877739665338932,-0.2256728331146262,-0.0498235114820264
1769239058840,127,-1,-1.2415918251916205,-0.5003857226583192,-0.496366185138928
1769239058844,126,-2,-1.633416963305801,-1.1957908281504763,-0.8819015551476068
1769239058848,126,-2,-2.02434704186648,-1.4405573685602997,-1.2659299483380126
1769239058852,126,-2,-2.487065495248131,-1.3606888929262055,-1.7206167513882278
1769239058856,125,-3,-3.0328418879281567,-2.4255800538936474,-2.2575465732568225
1769239058860,124,-4,-3.596842803550662,-3.36352451874706,-2.8125059583219616
1769239058864,124,-4,-4.092461935435967,-3.254675583372125,-3.2998870218905156
1769239058868,124,-4,-4.4752882812773915,-3.449796811489665,-3.676001201266567
1769239058872,123,-5,-4.761052897886782,-4.272139438662867,-3.955654605142265
1769239058876,123,-5,-4.99949902188551,-4.602657590173148,-4.186513372683879
1769239058880,123,-5,-5.229511130266475,-4.136557842533467,-4.406903021888758
1769239058884,123,-5,-5.43460615250391,-4.513999906491327,-4.602585920111918
1769239058888,122,-6,-5.532100720693476,-5.166039424154793,-4.693737481146304
1769239058892,123,-5,-5.428306834584141,-4.5409863374809865,-4.5867312198817665
1769239058896,123,-5,-5.1128672015774566,-4.387155653637315,-4.267350631908137
1769239058900,123,-5,-4.70793510204027,-4.312526011938846,-3.852843640068021
1769239058904,124,-4,-4.409605039975758,-3.3822065340598466,-3.538732824232288
1769239058908,124,-4,-4.35298759056276,-3.2296408090601227,-3.466706005473433
1769239058912,124,-4,-4.524802699780272,-3.538266096079864,-3.632942935995426
1769239058916,123,-5,-4.834332659510618,-4.353827665667721,-3.950060317986548
1769239058920,122,-6,-5.283496338708314,-5.406462284876648,-4.411971271561811
1769239058924,122,-6,-5.98291728174898,-5.246186112111655,-5.114630727233093
1769239058928,122,-6,-6.80692181809891,-5.358122246625647,-5.922582900406511
1769239058932,122,-6,-6.851514531146655,-5.412326698775689,-5.935596828467341
1769239058936,125,-3,-4.255116134570555,-2.4780716794500157,-3.3072290961504835
1769239058940,131,3,3.0995829194399853,3.691860125328643,4.064814496247983
1769239058944,142,14,16.116263006974872,14.67511456274864,17.079421034968316
1769239058948,160,32,33.17328009889149,32.77126819737889,34.120409937269855
1769239058952,180,52,50.12435857657656,52.45690023173938,51.05094241403657
1769239058956,192,64,61.97138132387282,64.64736268084971,62.882884516063285
1769239058960,194,66,65.26542887767891,66.48363992291621,66.17717622103646
1769239058964,187,59,59.65930278100749,59.82215999942425,60.59177536814848
1769239058968,175,47,47.69111032025535,47.59157921862413,48.658514167132246
1769239058972,161,33,33.18673651170144,33.6542123448264,34.18667873303254
1769239058976,148,20,19.476036083567088,20.55707437955732,20.490663463071705
1769239058980,137,9,8.421789579806576,9.55775338593033,9.430357356737275
1769239058984,129,1,0.473189171831212,1.810237948475322,1.4653675946370797
1769239058988,124,-4,-4.71217162347301,-3.4955507929531784,-3.7321388234224298
1769239058992,120,-8,-7.68735300757133,-7.182818005128551,-6.706566382992386
1769239058996,119,-9,-8.98893976639037,-8.626622034188903,-7.995850597827177
1769239059000,119,-9,-9.168035689811,-8.220543777690008,-8.159529209067621
1769239059004,120,-8,-8.806554385201697,-7.448966241415423,-7.787920917087405
1769239059008,120,-8,-8.391480697142363,-7.286264066039337,-7.370086151034518
1769239059012,120,-8,-8.161369545522998,-7.353225594604356,-7.139803552196613
1769239059016,120,-8,-8.092258997621522,-7.482505337029251,-7.0671695025112085
1769239059020,120,-8,-8.031572869457413,-7.305886268920991,-6.9986807800883915
1769239059024,121,-7,-7.843008063657243,-6.430756430234092,-6.802335364567683
1769239059028,121,-7,-7.460424634424432,-6.28390892954318,-6.415904015682646
1769239059032,121,-7,-6.881165373752097,-6.3724036518571,-5.8357367472271156
1769239059036,122,-6,-6.167024908975673,-5.431844718678931,-5.11962534548069
1769239059040,123,-5,-5.438956016397558,-4.34968109261842,-4.386703801023923
1769239059044,124,-4,-4.812469184815582,-3.426391815134454,-3.754385511239345
1769239059048,124,-4,-4.306609467822671,-3.265270696021915,-3.2440336564546763
1769239059052,124,-4,-3.8331334960372407,-3.4274435969167025,-2.7673019641979395
1769239059056,125,-3,-3.2967634667158237,-2.3261092555413425,-2.2274916574250847
1769239059060,126,-2,-2.7004685546669016,-1.479239607854007,-1.627248457322244
1769239059064,126,-2,-2.138607253250516,-1.2952179940151425,-1.0618156621706252
1769239059068,127,-1,-1.689410844753332,-0.4044760783682957,-0.6097920922545523
1769239059072,127,-1,-1.3255036296312588,-0.2853878667898812,-0.2428649216855163
1769239059076,127,-1,-0.9337203820052632,-0.4735705516319367,0.1531101895652998
1769239059080,128,0,-0.4178758963310671,0.6933007934730169,0.6736650114276799
1769239059084,129,1,0.2213812424233195,1.4974496650906617,1.316261925108943
1769239059088,129,1,0.8966628733000843,1.828188408633329,1.9928071331495087
1769239059092,130,2,1.5014440967612082,2.4633690552986036,2.5984899409373075
1769239059096,130,2,1.9665666833363664,2.794739910103877,3.0663686198133853
1769239059100,131,3,2.2828563010693683,3.407065581570508,3.3873443147416817
1769239059104,131,3,2.5026038528285945,3.7962131677774513,3.611703989727061
1769239059108,131,3,2.716111281245803,3.51434263424036,3.82806226865081
1769239059112,131,3,2.992460109874991,3.790354746581211,4.10566017765393
1769239059116,132,4,3.316238053594468,4.469208126175962,4.430395507777085
1769239059120,132,4,3.582910363662925,4.712559354031272,4.698800137541932
1769239059124,132,4,3.672640784905155,4.527468897423893,4.7911903214617215
1769239059128,132,4,3.547538453752626,4.729061750724642,4.66905560158675
1769239059132,132,4,3.2908400680703194,4.641908012988905,4.414980503707643
1769239059136,131,3,3.0486503584717455,3.5396183541577244,4.174999123326137
1769239059140,131,3,2.916339989631735,3.716138880053319,4.044581918815408
1769239059144,132,4,2.8716345218759005,4.465503806423419,4.0011479407991395
1769239059148,131,3,2.819525128705167,3.835379720718476,3.949637830580051
1769239059152,131,3,2.699889549985061,3.5169886003708895,3.830878985184963
1769239059156,131,3,2.5511779120577156,3.660097838187032,3.6843157239846978
1769239059160,131,3,2.483141814681854,3.602503579168532,3.619341596091416
1769239059164,131,3,2.5949193391747625,3.557431940210256,3.733701835593025
1769239059168,131,3,2.8992330098551484,3.7876112086791,4.039148382260496
1769239059172,132,4,3.296291900409345,4.527427351571619,4.436089680852323
1769239059176,132,4,3.610988659989626,4.678760589926048,4.750422666872498
1769239059180,132,4,3.6694687119790066,4.55075588287065,4.809266775145264
1769239059184,132,4,3.3682250080947695,4.619395952822062,4.509372955515664
1769239059188,131,3,2.699787945155749,3.7445087341428103,3.8427458233753127
1769239059192,130,2,1.73002383240033,2.5365461127567173,2.874439662078085
1769239059196,129,1,0.5517047905414612,1.7144351141204996,1.6967074357917582
1769239059200,128,0,-0.7493484545143132,0.4548410927251449,0.39555160809641
1769239059204,126,-2,-2.097664031523226,-1.2310581670524106,-0.9527349979601544
1769239059208,125,-3,-3.4126480813046536,-2.4303411263523804,-2.266929140089856
1769239059212,124,-4,-4.595609717081827,-3.2729136333876756,-3.4486769989179713
1769239059216,123,-5,-5.536636866741123,-4.478930661247259,-4.388936200163672
1769239059220,122,-6,-6.152153472507284,-5.372012046475084,-5.00452919810343
1769239059224,122,-6,-6.437743897974038,-5.373205181683839,-5.290828783074336
1769239059228,122,-6,-6.487901570746545,-5.310079157593645,-5.341988225091371
1769239059232,122,-6,-6.449045350236759,-5.368390695449102,-5.304022339263202
1769239059236,122,-6,-6.433839279237464,-5.402496612345851,-5.2890477190326965
1769239059240,122,-6,-6.461852444549079,-5.4525947078733275,-5.316382812494762
1769239059244,122,-6,-6.466787704363658,-5.287427545372354,-5.32020485152946
1769239059248,122,-6,-6.360484704061346,-5.395977150783116,-5.213272952795786
1769239059252,122,-6,-6.109596871817971,-5.2722583263973695,-4.963004525832733
1769239059256,123,-5,-5.772857714032557,-4.5044317952803885,-4.628327744289915
1769239059260,123,-5,-5.4714483932310385,-4.355297348164495,-4.329731297807269
1769239059264,123,-5,-5.314580747671375,-4.388435630954777,-4.174935326548792
1769239059268,123,-5,-5.333408787865718,-4.278259717591112,-4.1938802426046955
1769239059272,123,-5,-5.459751309207999,-4.406628306950861,-4.3187468028996845
1769239059276,123,-5,-5.553156912880074,-4.353162762884771,-4.410898694011631
1769239059280,123,-5,-5.466008527332728,-4.527080933792043,-4.324365176618079
1769239059284,123,-5,-5.127093736676266,-4.203026677734824,-3.9880437115099783
1769239059288,124,-4,-4.601457600586001,-3.456822411381215,-3.465752497229725
1769239059292,124,-4,-4.075966726935601,-3.2364352908692795,-2.9430695858638782
1769239059296,125,-3,-3.759037823572539,-2.510046622256294,-2.6279604313968
1769239059300,125,-3,-3.752014970302651,-2.3947475797711575,-2.621904516411381
1769239059304,124,-4,-3.9874392503529417,-3.3145515821023928,-2.8575670049763775
1769239059308,124,-4,-4.285525980579253,-3.367459194997391,-3.155512698226863
1769239059312,124,-4,-4.480563971279755,-3.2917068842216892,-3.351117618122922
1769239059316,124,-4,-4.51420771723939,-3.4905821291168473,-3.387176333738718
1769239059320,124,-4,-4.438606747344469,-3.3752818827877475,-3.315625726700711
1769239059324,124,-4,-4.354089206174377,-3.36027147032843,-3.2351036650857345
1769239059328,124,-4,-4.337678220609728,-3.313504319703433,-3.2210253513095983
1769239059332,124,-4,-4.399258078134453,-3.3364822718060663,-3.2832390082634726
1769239059336,124,-4,-4.477544938236037,-3.4704691380371524,-3.361863085260312
1769239059340,124,-4,-4.475692315972831,-3.3583718047945257,-3.361444659195316
1769239059344,124,-4,-4.32357931160589,-3.4113704526172692,-3.2121017629543376
1769239059348,124,-4,-4.033076444220979,-3.2314015744059423,-2.925045306661828
1769239059352,125,-3,-3.702375734737762,-2.4447914789748486,-2.5978966276945443
1769239059356,125,-3,-3.45434165264591,-2.3349999989474433,-2.353335811436132
1769239059360,125,-3,-3.350762929705835,-2.5173264655855094,-2.2528951154588492
1769239059364,125,-3,-3.349298116903559,-2.2286526178549324,-2.253806428955179
1769239059368,125,-3,-3.330647343166103,-2.437076963767229,-2.23670888099947
1769239059372,125,-3,-3.1654893391953185,-2.2324203345222324,-2.072901591855969
1769239059376,126,-2,-2.7730027142526947,-1.526854568792987,-1.6824640171494676
1769239059380,126,-2,-2.1479196945436043,-1.3514958008806266,-1.0606487714944546
1769239059384,127,-1,-1.36236744060448,-0.3539024680190388,-0.2794406437680751
1769239059388,128,0,-0.5541575488855275,0.6391020813654804,0.5239682863961356
1769239059392,128,0,0.0987252442650115,0.7328259246004681,1.1722981337692453
1769239059396,129,1,0.4249532487040768,1.4725450569405534,1.4946752135909709
1769239059400,129,1,0.3244956773927248,1.6932174318154944,1.391273505490813
1769239059404,128,0,-0.1792788042223618,0.5562671597217084,0.8855167611134256
1769239059408,127,-1,-0.94111630774347,-0.2361831446115684,0.1221226897716429
1769239059412,127,-1,-1.7559852685660484,-0.4238979292590523,-0.6952762054840982
1769239059416,126,-2,-2.4465683786492693,-1.3428834144424937,-1.3903819096160517
1769239059420,125,-3,-2.937668826104585,-2.489106840736185,-1.887155067299767
1769239059424,125,-3,-3.2872367746670568,-2.266785069424863,-2.241692391434926
1769239059428,125,-3,-3.6414504015229103,-2.4004297343397893,-2.599643521675692
1769239059432,124,-4,-4.118187340689249,-3.295542377094194,-3.0801324230043337
1769239059436,124,-4,-4.700528084881105,-3.4189794001020952,-3.6671552421447977
1769239059440,123,-5,-5.2405323440160645,-4.451540425130921,-4.2116800508226095
1769239059444,122,-6,-5.5795737776128185,-5.2751336314436355,-4.553323596182857
1769239059448,123,-5,-5.671181574161139,-4.416368680520573,-4.64614998780637
1769239059452,123,-5,-5.584905732826117,-4.266853163769621,-4.5629498043549725
1769239059456,123,-5,-5.403476705516924,-4.437994456687341,-4.3889288080217055
1769239059460,123,-5,-5.14897321065326,-4.424868980312747,-4.144444686243025
1769239059464,123,-5,-4.82566393251739,-4.316406104219363,-3.828654705417948
1769239059468,124,-4,-4.506961781441699,-3.391439105194797,-3.5108906142972347
1769239059472,124,-4,-4.332988847670681,-3.261042573044368,-3.3323381056723465
1769239059476,124,-4,-4.400708797983543,-3.460358371339562,-3.3967289847681865
1769239059480,124,-4,-4.6736410194471185,-3.3581780888328647,-3.6758830851516784
1769239059484,123,-5,-5.036111690410843,-4.438910966983159,-4.056807943127125
1769239059488,122,-6,-5.449910711985402,-5.263166604669304,-4.4938411617338225
1769239059492,122,-6,-5.991401351145232,-5.366062952107394,-5.049589361161804
1769239059496,122,-6,-6.569976829885439,-5.366863786238731,-5.624161874711961
1769239059500,123,-5,-6.441610883280869,-4.393528298783673,-5.477176888350309
1769239059504,125,-3,-4.010426957157662,-2.4690602729980564,-3.0272447957411224
1769239059508,130,2,2.5787324538638643,2.797154575844258,3.5663713995413513
1769239059512,141,13,14.121577812232433,13.567144538942092,15.09473020628645
1769239059516,156,28,29.14820199028244,28.747715846127317,30.09383859485596
1769239059520,173,45,43.9034213221672,45.51265927557449,44.81901053154537
1769239059524,184,56,53.874535632694545,56.6043917914573,54.76735452998533
1769239059528,185,57,56.02866942477246,57.65857916579123,56.91327719045312
1769239059532,178,50,50.27715437120923,50.650380950362944,51.17080113418758
1769239059536,166,38,39.2255297396596,38.64173384413991,40.13986419132604
1769239059540,154,26,26.54176256756204,26.642642912032997,27.474559610358373
1769239059544,144,16,15.17198462837721,16.56045692683072,16.10691488652299
1769239059548,135,7,6.476101821197821,7.71512108283672,7.393208740397129
1769239059552,129,1,0.4689412182415866,1.628229005979383,1.358009327445099
1769239059556,125,-3,-3.411683734450519,-2.389636223045161,-2.5457875259171763
1769239059560,122,-6,-5.704159773001146,-5.306329581311577,-4.847375417349762
1769239059564,121,-7,-6.7780412851396665,-6.485621728666898,-5.918128944898321
1769239059568,121,-7,-6.972324681567594,-6.20393055461618,-6.106465360028816
1769239059572,122,-6,-6.6903713715829705,-5.476097443921716,-5.8248286882189975
1769239059576,122,-6,-6.310424960643445,-5.3112556207008,-5.453809767660052
1769239059580,122,-6,-6.035512288486114,-5.381390824122266,-5.191606975566915
1769239059584,122,-6,-5.867081996548739,-5.418337547952298,-5.032998632598125
1769239059588,122,-6,-5.722122184399635,-5.215898615204779,-4.892537091720253
1769239059592,123,-5,-5.551462036750131,-4.511461103341711,-4.7241187625962064
1769239059596,123,-5,-5.345368896077344,-4.250260980953413,-4.522441066207151
1769239059600,123,-5,-5.070241048498719,-4.474649729752983,-4.255104105749281
1769239059604,123,-5,-4.657555447993275,-4.298095365920795,-3.851355311917849
1769239059608,124,-4,-4.076442569868067,-3.3121731006074957,-3.2779966290059583
1769239059612,125,-3,-3.399709363564842,-2.4525371678712715,-2.6076407098429746
1769239059616,125,-3,-2.777182803137691,-2.261593424271936,-1.9912587047842565
1769239059620,126,-2,-2.334225094443952,-1.538276680209351,-1.5550299157246437
1769239059624,126,-2,-2.084180371984789,-1.1415644913296552,-1.312204838930152
1769239059628,126,-2,-1.9248460263509384,-1.5452591701131486,-1.159908783546486
1769239059632,126,-2,-1.7171024306892535,-1.1472032986281464,-0.958487691016378
1769239059636,127,-1,-1.3761602881727963,-0.6209741290693584,-0.6234155857265068
1769239059640,127,-1,-0.8994378057579777,-0.1635427207941256,-0.1530031831662337
1769239059644,128,0,-0.3237069915355492,0.5182196953630043,0.4154095558031507
1769239059648,128,0,0.324386702073002,0.752969169444367,1.0554584462563723
1769239059652,129,1,1.0275854847504222,1.617487998225858,1.750550987793119
1769239059656,130,2,1.739461405058009,2.531258680311183,2.4547202881735495
1769239059660,130,2,2.365480496630278,2.7607358490253113,3.073626935054504
1769239059664,131,3,2.7995565625394123,3.5378089321351123,3.5011283783635867
1769239059668,131,3,2.9965332361189225,3.807071636076233,3.6916260973751136
1769239059672,131,3,3.021404210505516,3.4960477213176233,3.709530213800722
1769239059676,131,3,3.0229404378944653,3.692395835819758,3.703518916017067
1769239059680,131,3,3.137026657761071,3.572906327304551,3.8100213179708713
1769239059684,131,3,3.3925125350107126,3.751904364064664,4.058320971780453
1769239059688,132,4,3.702446949244712,4.610272144824144,4.361079038709905
1769239059692,132,4,3.951395505074861,4.675858397525968,4.602121630733786
1769239059696,132,4,4.096116037211037,4.509119163138013,4.738294259096976
1769239059700,132,4,4.182473901897154,4.761288655199756,4.816566898630386
1769239059704,132,4,4.270814638831495,4.55875837948374,4.898108879227026
1769239059708,132,4,4.359458877714124,4.837079998746359,4.980571525518414
1769239059712,133,5,4.392357590567492,5.428157145094082,5.006320686708698
1769239059716,132,4,4.336933120346988,4.768699127985451,4.942163159226585
1769239059720,132,4,4.237248504869134,4.4795829884422,4.8333655111921745
1769239059724,132,4,4.180531095418598,4.87124595510544,4.7688446023264826
1769239059728,132,4,4.21734179467893,4.511625601048316,4.7994239786063195
1769239059732,132,4,4.322404927638068,4.776930024829446,4.898327710953523
1769239059736,133,5,4.428996727012667,5.407889245814439,4.997157358317426
1769239059740,132,4,4.484986887010045,4.835778696053676,5.043814217967072
1769239059744,132,4,4.458478759785302,4.526350142916483,5.008099918314127
1769239059748,132,4,4.29205063591133,4.85595943232868,4.8338607470595125
1769239059752,132,4,3.881521657120893,4.447388984182627,4.416323210535701
1769239059756,131,3,3.130362563330331,3.7181540184976063,3.657644911632241
1769239059760,130,2,2.0312477052273543,2.5579380662554065,2.5503549365769222
1769239059764,128,0,0.6858771535134616,0.7560698393702421,1.1970846018749777
1769239059768,127,-1,-0.7564089775778515,-0.3108704208171289,-0.2524643648674711
1769239059772,126,-2,-2.176441504210916,-1.4389504998957243,-1.6798992575537004
1769239059776,124,-4,-3.514715239877483,-3.332491503412945,-3.026455883611945
1769239059780,123,-5,-4.7492137993800805,-4.440017961690979,-4.269899110214527
1769239059784,122,-6,-5.856149435115052,-5.201091757972976,-5.385660975917532
1769239059788,121,-7,-6.78453274610721,-6.395576403125894,-6.322062250428239
1769239059792,120,-8,-7.462611398603227,-7.306326382981751,-7.00707464008032
1769239059796,120,-8,-7.833492270451776,-7.48991907009159,-7.384345932990999
1769239059800,120,-8,-7.890764564136782,-7.2611696149355085,-7.448787076703865
1769239059804,120,-8,-7.688527923897182,-7.389641224666079,-7.255482347360066
1769239059808,120,-8,-7.331092372177969,-7.2066597352770065,-6.908299073201782
1769239059812,121,-7,-6.954469528494211,-6.475699749440678,-6.541675708342306
1769239059816,121,-7,-6.691771175910338,-6.338317579054889,-6.2872876005363665
1769239059820,121,-7,-6.617043570918313,-6.388530627523865,-6.2189592456023695
1769239059824,121,-7,-6.693431272178972,-6.2857321404163855,-6.301069665566094
1769239059828,121,-7,-6.770565339480118,-6.28807669818871,-6.384983199697903
1769239059832,121,-7,-6.658773339357175,-6.405316830477085,-6.28166200648094
1769239059836,121,-7,-6.255296681054619,-6.386264955761199,-5.887476116454521
1769239059840,122,-6,-5.635196063663962,-5.353084741731027,-5.2764990126257105
1769239059844,123,-5,-5.016474216828175,-4.303831355533145,-4.666704595812785
1769239059848,123,-5,-4.609402654561855,-4.281668979498708,-4.268493214463296
1769239059852,123,-5,-4.476659374676309,-4.3942025365064685,-4.143882071061192
1769239059856,123,-5,-4.522226836747176,-4.406632272423987,-4.196255860392639
1769239059860,123,-5,-4.597212099280901,-4.3356626419184705,-4.277503895308719
1769239059864,123,-5,-4.612154208692639,-4.303067967736471,-4.299776331361192
1769239059868,123,-5,-4.571678698299747,-4.293409732035176,-4.268290801898398
1769239059872,123,-5,-4.53568543564566,-4.3412264224328565,-4.24193584595419
1769239059876,123,-5,-4.559022841653891,-4.507906688873479,-4.274299875794347
1769239059880,123,-5,-4.650155255325693,-4.191978110262679,-4.373577149308567
1769239059884,123,-5,-4.765205569830179,-4.481628625372408,-4.496203556070231
1769239059888,122,-6,-4.838738744807069,-5.073920323001591,-4.576852366701738
1769239059892,123,-5,-4.8287921173654365,-4.563391179198001,-4.573853140736919
1769239059896,123,-5,-4.73407442103356,-4.302161197782811,-4.486856021289673
1769239059900,123,-5,-4.570424270723429,-4.3712299913513935,-4.3322903900184055
1769239059904,123,-5,-4.347634568312625,-4.3334538453127855,-4.119064771523161
1769239059908,123,-5,-4.082766431518858,-4.165414473948237,-3.8627311497933743
1769239059912,124,-4,-3.821973914130708,-3.516144025207136,-3.609163283951795
1769239059916,124,-4,-3.619805465425113,-3.3141694247121465,-3.414072549155887
1769239059920,124,-4,-3.484232247227574,-3.379328957106217,-3.2864295541930795
1769239059924,124,-4,-3.352007435938864,-3.3198052540793404,-3.162725412702029
1769239059928,124,-4,-3.130533730119086,-3.1426118662382723,-2.949494174919997
1769239059932,125,-3,-2.7670537568221407,-2.593794595066047,-2.5936682568268363
1769239059936,125,-3,-2.278733546009239,-2.1568216743020763,-2.112847961427616
1769239059940,126,-2,-1.723329231442958,-1.6210642566424869,-1.5652984650475648
1769239059944,126,-2,-1.1499911138505692,-0.9835269136258592,-1.000193448451748
1769239059948,127,-1,-0.5827562781556188,-0.551157189274451,-0.4411494379957491
1769239059952,127,-1,-0.0504234305203823,-0.1307504653183918,0.0833576006291493
1769239059956,128,0,0.3748505932292814,0.3549575357441725,0.5008798516106429
1769239059960,128,0,0.5819688036281412,0.8698116767406054,0.6996774517731155
1769239059964,128,0,0.477523337108181,0.5641379667960345,0.5863265926611687
1769239059968,127,-1,0.0477995044335968,-0.1523913935598068,0.1481102681784732
1769239059972,127,-1,-0.6252765349159692,-0.4554952710948314,-0.53203487601834
1769239059976,126,-2,-1.398888087674241,-1.4070434735004058,-1.3115481141312704
1769239059980,125,-3,-2.122595492660712,-2.2684543002819484,-2.0414999672773995
1769239059984,125,-3,-2.683229167761519,-2.375903135530634,-2.6100754107602815
1769239059988,124,-4,-3.036725778965652,-3.1192542506748957,-2.973003078515679
1769239059992,124,-4,-3.22709604285097,-3.576307696198567,-3.1727254125266144
1769239059996,124,-4,-3.375518302372518,-3.2061177970054437,-3.3292500314847295
1769239060000,124,-4,-3.618848015287616,-3.529441656143407,-3.579847457989092
1769239060004,123,-5,-4.019320239253137,-4.059428158015769,-3.98784172616112
1769239060008,123,-5,-4.516097021116364,-4.448997369394261,-4.492431870709175
1769239060012,122,-6,-4.969752729921618,-5.260494028239759,-4.953034510908943
1769239060016,122,-6,-5.265960178301747,-5.497560692994771,-5.254814376446135
1769239060020,122,-6,-5.384320100232233,-5.25875579401327,-5.3790778710572065
1769239060024,122,-6,-5.374318496743207,-5.283240979857249,-5.3780148866179385
1769239060028,122,-6,-5.280509961777945,-5.245923449378823,-5.296480189672601
1769239060032,122,-6,-5.109758090279905,-5.450387509251741,-5.137494137082771
1769239060036,122,-6,-4.869506214288599,-5.329923108823835,-4.903298832103054
1769239060040,123,-5,-4.606826556854299,-4.407528612586816,-4.639721686254064
1769239060044,123,-5,-4.380408346802894,-4.115189059942187,-4.410826452880311
1769239060048,123,-5,-4.2075397348298305,-4.412718936784958,-4.242859528069595
1769239060052,123,-5,-4.089287583459515,-4.281901393092962,-4.14241600960425
1769239060056,123,-5,-4.1158988286903435,-4.520437135969584,-4.195819741891859
1769239060060,122,-6,-4.488645698237501,-5.206964173253166,-4.591353716965961
1769239060064,122,-6,-5.274396756920169,-5.28281460201021,-5.38249411258162
1769239060068,122,-6,-5.935551282272142,-5.248652809400905,-6.029224825937671
1769239060072,123,-5,-5.0175645501496255,-4.434122556899158,-5.0893792462367236
1769239060076,127,-1,-0.5034910689960652,-0.3986376273146954,-0.5645438352381211
1769239060080,135,7,9.01529557834976,7.7152815953013185,8.943170005648398
1769239060084,148,20,22.933042757844344,20.801559946532205,22.831536709500913
1769239060088,165,37,38.07931752362584,37.73068262525699,37.94248572021354
1769239060092,179,51,49.7797478924385,51.54066993638764,49.6138461732608
1769239060096,183,55,54.13064592036769,55.620710638163935,53.95026783390639
1769239060100,177,49,50.03155401033054,49.606341519736624,49.855351469466726
1769239060104,165,37,39.58472957811664,37.91127008691176,39.42813779887697
1769239060108,153,25,26.689704468981574,25.579637731285583,26.55517810776039
1769239060112,142,14,14.94533637339266,14.806002535342596,14.818498590313876
1769239060116,134,6,6.244311889248735,6.369421319262606,6.102501318601853
1769239060120,128,0,0.6735748393504233,0.95025262951464,0.5011625112164038
1769239060124,125,-3,-2.65447250235263,-2.507565452440799,-2.8567002623598583
1769239060128,122,-6,-4.663116105857733,-4.998063378055769,-4.881051351456479
1769239060132,121,-7,-5.860564171860723,-6.620675766162871,-6.078016881707825
1769239060136,120,-8,-6.428647028551538,-7.171374014476493,-6.6377473470394595
1769239060140,121,-7,-6.504437720830009,-6.475672973026363,-6.708854705584098
1769239060144,121,-7,-6.3083037161443345,-6.132867243706203,-6.518381781102306
1769239060148,121,-7,-6.061424083219879,-6.371474935931584,-6.285492648941009
1769239060152,121,-7,-5.875042036236731,-6.258968943003857,-6.113627808602788
1769239060156,121,-7,-5.761777972617121,-6.483088090898602,-6.008953695257743
1769239060160,121,-7,-5.7234419848528715,-6.160928758088457,-5.973333093019193
1769239060164,122,-6,-5.775271024208914,-5.45569028697337,-6.027209379130836
1769239060168,121,-7,-5.875115131744694,-6.066724433371927,-6.13274651585092
1769239060172,121,-7,-5.8763165315023125,-6.559078633415618,-6.142629193594775
1769239060176,121,-7,-5.606341368458022,-6.144389018256176,-5.880715390616922
1769239060180,122,-6,-5.008023775981249,-5.492255072716464,-5.288153648489796
1769239060184,123,-5,-4.18822034781963,-4.144946003012574,-4.473556103972463
1769239060188,124,-4,-3.32225745237517,-3.3477859929008877,-3.6144087652520223
1769239060192,124,-4,-2.5250371086161856,-3.3343802539146803,-2.8252405032022505
1769239060196,125,-3,-1.8181293355072796,-2.2712098831518115,-2.1255937990829334
1769239060200,126,-2,-1.1918960675658608,-1.4352263292890155,-1.5049494624726556
1769239060204,126,-2,-0.6602579454695751,-1.1520832328371695,-0.978254373765348
1769239060208,127,-1,-0.2438385783035652,-0.3666212106052008,-0.5673604733201146
1769239060212,127,-1,0.0819323734745851,-0.313789131051727,-0.2477106792139672
1769239060216,127,-1,0.3999171636166008,-0.2439666021025628,0.0642136794376559
1769239060220,128,0,0.8023865828092291,0.4923629041513311,0.4607152498404914
1769239060224,128,0,1.3237590223337763,0.9780473377999308,0.975603369115556
1769239060228,129,1,1.911109918814304,1.4435124814140543,1.55589490836124
1769239060232,129,1,2.4515321207397847,1.9387546177004376,2.0895772037138025
1769239060236,130,2,2.8389184480457725,2.4832192578005596,2.471274552281262
1769239060240,130,2,3.044094511318728,2.7715647883051906,2.6714621787109296
1769239060244,130,2,3.1414635282669936,2.7234595207468897,2.763722789852801
1769239060248,130,2,3.2599135466819233,2.6450084682940886,2.8766747421997847
1769239060252,130,2,3.4841898639737305,2.819917047085216,3.095225986308299
1769239060256,131,3,3.789151067403263,3.5374324055738593,3.394130465852611
1769239060260,131,3,4.068309071063309,3.796192140253112,3.66671333981176
1769239060264,131,3,4.227237976780959,3.641545485672227,3.8190284642852785
1769239060268,131,3,4.252833293397689,3.76056037116622,3.8389110299363103
1769239060272,131,3,4.205644898770643,3.6977297893861585,3.787176263285917
1769239060276,131,3,4.160926048104352,3.661540287257538,3.7381958757399585
1769239060280,131,3,4.157440091519008,3.7102037512929744,3.729559016339388
1769239060284,131,3,4.187088281785092,3.694804304440276,3.7528443511782057
1769239060288,131,3,4.217955794114706,3.7391587148540544,3.776920263287756
1769239060292,131,3,4.224723493425007,3.6977218366493454,3.7776200369804975
1769239060296,131,3,4.20646374638204,3.686718114530266,3.7545661597911177
1769239060300,131,3,4.186418038992909,3.694751569388677,3.730552198723633
1769239060304,131,3,4.196526538910657,3.703574768320848,3.736510879591125
1769239060308,131,3,4.250497040664522,3.744386600945132,3.785401855921625
1769239060312,131,3,4.313404240044496,3.678950597911739,3.842282691179832
1769239060316,131,3,4.286302584606489,3.734043473754945,3.808789052857237
1769239060320,131,3,4.02611028354115,3.644918139900976,3.5426025116230866
1769239060324,130,2,3.4009545601966154,2.7624067393438914,2.912337321193097
1769239060328,129,1,2.354246057140207,1.6838143189598835,1.8612198153006176
1769239060332,128,0,0.9419771613674954,0.7290194531915579,0.4445560791854366
1769239060336,126,-2,-0.6813212335111651,-1.2765212055594684,-1.1834724635099017
1769239060340,124,-4,-2.326993766026588,-3.376652289361976,-2.8338862364908968
1769239060344,123,-5,-3.846768759482887,-4.152703616777032,-4.3581813383403505
1769239060348,122,-6,-5.160628216362978,-5.464475771355979,-5.676676267332019
1769239060352,120,-8,-6.228236196344623,-7.060037244360258,-6.749286840789335
1769239060356,120,-8,-7.015756436170019,-7.515303752653908,-7.541885279157084
1769239060360,119,-9,-7.502818413407767,-8.105136806770512,-8.033825152270476
1769239060364,119,-9,-7.715127973632809,-8.431886527981307,-8.251012514694027
1769239060368,119,-9,-7.737880655493788,-8.188616199276186,-8.278865422916434
1769239060372,119,-9,-7.687862976408074,-8.309248395828286,-8.23382923911985
1769239060376,119,-9,-7.660685355198624,-8.292047364633667,-8.210899826363324
1769239060380,119,-9,-7.6878128072644705,-8.269140502049902,-8.241571372830041
1769239060384,119,-9,-7.729246967379691,-8.333211820961433,-8.286759156029596
1769239060388,119,-9,-7.707363084757368,-8.215325547606549,-8.26960110642954
1769239060392,119,-9,-7.566547547299448,-8.340208808130793,-8.134063332354742
1769239060396,119,-9,-7.320922669844819,-8.190250474426481,-7.8931967246346275
1769239060400,120,-8,-7.04501717638281,-7.414212610180675,-7.621222761211855
1769239060404,120,-8,-6.802511094925246,-7.143017849442133,-7.382484207166952
1769239060408,120,-8,-6.577957579752703,-7.441926023882155,-7.162021992115284
1769239060412,120,-8,-6.289279894801105,-7.0732764174220595,-6.87753220018495
1769239060416,121,-7,-5.877085652278089,-6.4729383669031115,-6.4693978209637955
1769239060420,121,-7,-5.380954856385602,-6.112806810137816,-5.977484595935956
1769239060424,122,-6,-4.925737804945189,-5.433367717124492,-5.526900804547176
1769239060428,122,-6,-4.6318240936655055,-5.164225446401864,-5.237631615011371
1769239060432,122,-6,-4.531421887446578,-5.322192677931839,-5.141126694841277
1769239060436,122,-6,-4.558682986880089,-5.25217968273797,-5.171388856954334
1769239060440,122,-6,-4.610921741748361,-5.288037147597738,-5.226582130178452
1769239060444,122,-6,-4.62245629937507,-5.290933543953291,-5.2420374231546445
1769239060448,122,-6,-4.595675740552784,-5.253983843875516,-5.2201527796019125
1769239060452,122,-6,-4.576685358702708,-5.271903118647217,-5.205962394016266
1769239060456,122,-6,-4.601201269629657,-5.259004650589965,-5.234168445309251
1769239060460,122,-6,-4.650299417031462,-5.308761970858756,-5.285896297538421
1769239060464,122,-6,-4.648904626675402,-5.234515079006658,-5.286967643125681
1769239060468,122,-6,-4.515846321368729,-5.323010859066544,-5.157030091558229
1769239060472,122,-6,-4.235273569744209,-5.1810983020766335,-4.880549072102178
1769239060476,123,-5,-3.8895526659700064,-4.362309970554818,-4.539830047742616
1769239060480,123,-5,-3.6140548935494943,-4.178256268171415,-4.269648422109498
1769239060484,123,-5,-3.5017554655256116,-4.379111953431054,-4.1616807617769025
1769239060488,123,-5,-3.5315002259744115,-4.148977314764309,-4.193664022835997
1769239060492,123,-5,-3.5685973346430604,-4.371069209166089,-4.231425227592324
1769239060496,123,-5,-3.4284932838159303,-4.167064802240852,-4.09252991246249
1769239060500,124,-4,-2.966471493424824,-3.3420028179627077,-3.633959753158466
1769239060504,124,-4,-2.160347361281319,-3.2389850926752444,-2.833073360984228
1769239060508,125,-3,-1.1505175381139443,-2.2339867580351926,-1.828443286004452
1769239060512,127,-1,-0.1954866408220117,-0.3424005711134363,-0.8774775841728256
1769239060516,127,-1,0.4562766877671158,-0.1323129224870159,-0.2287962045892103
1769239060520,127,-1,0.694185724669715,-0.4316734760924715,0.0066186576139098
1769239060524,127,-1,0.5728513629155596,-0.0717656049573811,-0.1169095207509988
1769239060528,127,-1,0.2310308257740336,-0.4661269319847565,-0.4611176822522562
1769239060532,126,-2,-0.214338494222112,-1.0582936045515192,-0.9093958354490592
1769239060536,126,-2,-0.7187824919941412,-1.430525290220603,-1.4169429402582616
1769239060540,125,-3,-1.286655293613118,-2.11560663177771,-1.9876854446377252
1769239060544,125,-3,-1.908845238925012,-2.3707570519627312,-2.6126869675540494
1769239060548,124,-4,-2.5249116038052986,-3.179919574956379,-3.2318918891223167
1769239060552,123,-5,-3.0549562818947873,-4.333758563767879,-3.7653318761422288
1769239060556,123,-5,-3.4754071061473337,-4.148179378651426,-4.189169426985029
1769239060560,123,-5,-3.852247826405093,-4.3798023482312605,-4.569340012187397
1769239060564,122,-6,-4.280116309415135,-5.109303394466579,-5.000224936017421
1769239060568,122,-6,-4.778637617586277,-5.4158566905029835,-5.5007118398904264
1769239060572,121,-7,-5.246705463567207,-6.132105292220511,-5.969416936959474
1769239060576,121,-7,-5.520501454508933,-6.307740740775946,-6.243761718846366
1769239060580,121,-7,-5.490808958576696,-6.240106097166991,-6.2167588634713775
1769239060584,121,-7,-5.190898972505645,-6.19830935194283,-5.922854552769419
1769239060588,122,-6,-4.7890177402580605,-5.362085761412497,-5.5285426440107805
1769239060592,122,-6,-4.486732359836505,-5.143179566670173,-5.230883947346039
1769239060596,122,-6,-4.392886040718874,-5.343819315063799,-5.134642522344725
1769239060600,122,-6,-4.462808455158962,-5.143269346651471,-5.196235861951693
1769239060604,122,-6,-4.548266366474902,-5.320182744008113,-5.275486677756452
1769239060608,122,-6,-4.534196769720661,-5.218147780161992,-5.267259676106779
1769239060612,122,-6,-4.481798141327568,-5.281087456259652,-5.2349717455952
1769239060616,121,-7,-4.654825956729831,-6.21676326647617,-5.43178198343811
1769239060620,121,-7,-5.3010628647321845,-6.244902298451442,-6.088410199351482
1769239060624,121,-7,-6.182848048666948,-6.2093048348824365,-6.957694502186055
1769239060628,121,-7,-6.128379779177652,-6.339449185163291,-6.875113589269732
1769239060632,124,-4,-3.105499388192463,-3.1229503173827915,-3.827802952823178
1769239060636,131,3,4.839916420516365,3.611062601424995,4.121945183249547
1769239060640,142,14,18.08036880834636,14.964782464384845,17.34429468153563
1769239060644,160,32,34.33726088458869,32.60955296899071,33.57068752357107
1769239060648,177,49,49.08876839621776,49.846884921844094,48.29254659230058
1769239060652,186,58,57.5654011511506,58.69114365303051,56.75119712510568
1769239060656,184,56,57.165395803073054,56.73981607752291,56.35211945501847
1769239060660,174,46,48.67403065090572,46.77606929337888,47.88118008057669
1769239060664,161,33,35.54398130265191,33.77248537013084,34.78091753984632
1769239060668,148,20,21.902476377008313,20.725833095904672,21.16102494859052
1769239060672,137,9,10.682041332315602,9.928310367336447,9.94084116453247
1769239060676,130,2,2.887764853760695,2.538160329484165,2.1263146835863864
1769239060680,125,-3,-1.946926064804147,-2.0148986373745523,-2.735634420673379
1769239060684,122,-6,-4.7955369112013635,-5.4913683723076,-5.60270408309267
1769239060688,119,-9,-6.424871359760619,-8.008319009529329,-7.233913027842588
1769239060692,119,-9,-7.241828553706395,-8.261153466431844,-8.040007812373778
1769239060696,119,-9,-7.490203055594266,-8.289408160424056,-8.275931796759892
1769239060700,119,-9,-7.416301903380533,-8.15983267326422,-8.197844470356351
1769239060704,120,-8,-7.236928331098451,-7.432839621151592,-8.02435276988803
1769239060708,119,-9,-7.0326088700240215,-8.021674488111513,-7.829546075413447
1769239060712,119,-9,-6.751419110082683,-8.224276871084243,-7.553287013203786
1769239060716,120,-8,-6.333373230376487,-7.29171573922596,-7.1333059945430035
1769239060720,121,-7,-5.800081459867894,-6.160420119027039,-6.596339273302304
1769239060724,122,-6,-5.2130050320010355,-5.4918278616696545,-6.0099420605241995
1769239060728,121,-7,-4.594767063470072,-5.900745302535783,-5.396912357317561
1769239060732,122,-6,-3.9509863786965496,-5.36337210536816,-4.757940144743179
1769239060736,123,-5,-3.359556664401584,-4.080560866683371,-4.167571207613414
1769239060740,124,-4,-2.9670433167788297,-3.4171656980095095,-3.774073254963488
1769239060744,124,-4,-2.847992213135422,-3.250320963516381,-3.655255154518225
1769239060748,123,-5,-2.885190147166744,-4.0899663920868505,-3.6941746561902606
1769239060752,123,-5,-2.830582554334364,-4.224163552576235,-3.6406812220402074
1769239060756,124,-4,-2.498587198064824,-3.0972996246793834,-3.3085886464146683
1769239060760,125,-3,-1.896243197160897,-2.5222888931138767,-2.706814752084119
1769239060764,125,-3,-1.1804001139983653,-2.038773313516283,-1.993675013741224
1769239060768,126,-2,-0.5168209236812988,-1.3742453943539592,-1.333769473599033
1769239060772,126,-2,0.0197302062938228,-0.8682793173859951,-0.7993760161032406
1769239060776,127,-1,0.4477936781629146,-0.4670375816871925,-0.3709168610162319
1769239060780,127,-1,0.8264578296399786,-0.1582561327954283,0.0092727569965244
1769239060784,128,0,1.212358088991448,0.6195989867020399,0.3955239889820288
1769239060788,128,0,1.6460380831156582,0.9499608692744848,0.8275864408029574
1769239060792,128,0,2.1425367375337956,0.861705489799223,1.3217491406815831
1769239060796,129,1,2.6733779145487895,1.7753713300880096,1.850918162435346
1769239060800,130,2,3.1697923173224223,2.6303924612135243,2.346214829031796
1769239060804,130,2,3.56796947305923,2.8022839030867264,2.7431915481511906
1769239060808,130,2,3.856944604955944,2.809196711972063,3.0313707558554053
1769239060812,130,2,4.076606562795096,3.000639688825884,3.2515848176051954
1769239060816,131,3,4.275370651273261,3.646036827537595,3.451672978198984
1769239060820,131,3,4.478113812603485,3.7644133059010816,3.654486796229875
1769239060824,131,3,4.679326730802359,3.664766483665155,3.853388269930627
1769239060828,131,3,4.836586175313886,3.9738967562569623,4.007216682412844
1769239060832,131,3,4.862894413600138,3.8455601778526054,4.03139052691964
1769239060836,131,3,4.656301939789439,3.7880388670559935,3.8251079815302544
1769239060840,131,3,4.182949868856008,3.6607993915210257,3.353470212289057
1769239060844,130,2,3.555353954254337,2.7228524360147466,2.7271164553460148
1769239060848,129,1,3.0131908549060946,1.994386148564892,2.184876558232548
1769239060852,129,1,2.7834343102574324,1.7704240556448985,1.95423386109587
1769239060856,129,1,2.917557661869655,1.9255279151837472,2.0873453991076008
1769239060860,130,2,3.246873568185885,2.4866327390137304,2.4154730846972776
1769239060864,130,2,3.5026734200956886,2.938460397712113,2.6696786957945746
1769239060868,130,2,3.499559443739207,2.778469732830808,2.6652595996829596
1769239060872,129,1,3.225433239794487,1.9842676350901625,2.391429664746986
1769239060876,129,1,2.7789569506378355,1.7266481236677231,1.9469485478248971
1769239060880,129,1,2.241942192059394,1.6681966470147604,1.4117208360510662
1769239060884,128,0,1.6120803715577106,0.8036729059841049,0.7814428934313928
1769239060888,127,-1,0.8295266709823432,-0.0947355305370898,-0.0034415763190365
1769239060892,126,-2,-0.1598878636519694,-1.117952557204874,-0.994868122808763
1769239060896,125,-3,-1.3599203500278616,-2.1969714387385837,-2.1949269053692744
1769239060900,124,-4,-2.7074722941497473,-3.388795086582592,-3.5409153204736814
1769239060904,122,-6,-4.079921641211782,-5.120480004978765,-4.911808859545429
1769239060908,121,-7,-5.3292865753776955,-6.156520930355693,-6.160722718963703
1769239060912,120,-8,-6.336442086438462,-7.0428205681434655,-7.1683770517261305
1769239060916,119,-9,-7.056597653470101,-8.290982977939194,-7.889154615500164
1769239060920,119,-9,-7.522572816486218,-8.280247082112698,-8.355381574729149
1769239060924,119,-9,-7.799295505945145,-8.195259200874352,-8.631989677446338
1769239060928,118,-10,-7.928262585488169,-9.09119570852489,-8.76040604242046
1769239060932,118,-10,-7.914709763764785,-9.069823274182946,-8.745856498802219
1769239060936,119,-9,-7.760994760562892,-8.316557476311338,-8.591412491841172
1769239060940,119,-9,-7.498506553679889,-8.205474048928565,-8.329256694863691
1769239060944,119,-9,-7.1876583921629065,-8.28052180164308,-8.019242155945168
1769239060948,119,-9,-6.897054799647372,-7.948670515571377,-7.728467008572813
1769239060952,120,-8,-6.6724815059248,-7.258959699413805,-7.502266301935586
1769239060956,120,-8,-6.50078172927499,-7.094085431395333,-7.328622104222938
1769239060960,120,-8,-6.302096035322183,-7.457858332592652,-7.128877632562498
1769239060964,120,-8,-5.9849854426644775,-6.966199868945248,-6.811756439311278
1769239060968,121,-7,-5.532538048685931,-6.265550650795335,-6.3598501769271945
1769239060972,121,-7,-5.036037528561545,-5.946976370037245,-5.863823931283124
1769239060976,122,-6,-4.634719595063282,-5.389440863651125,-5.462218393774561
1769239060980,122,-6,-4.408923157024704,-5.189392875328366,-5.234861264242782
1769239060984,122,-6,-4.315565445538841,-5.1621039500797545,-5.13894206764277
1769239060988,122,-6,-4.220064247348894,-5.112756031036826,-5.041085752104305
1769239060992,122,-6,-4.003137003784456,-5.040967950016135,-4.823372539713109
1769239060996,123,-5,-3.661911495217699,-4.362447765009458,-4.483166783351048
1769239061000,123,-5,-3.327742829791749,-4.133574528774599,-4.1503548094448695
1769239061004,123,-5,-3.183839609715735,-4.262052949224701,-4.006134456129342
1769239061008,123,-5,-3.3337514178867194,-3.9383361483273864,-4.153554791240776
1769239061012,123,-5,-3.7069643378565935,-4.273694259424888,-4.523578965504476
1769239061016,122,-6,-4.078985034104692,-5.0980215780419025,-4.8933841809392735
1769239061020,122,-6,-4.2158213602355055,-5.398261491289908,-5.029279477093514
1769239061024,122,-6,-4.0439260288866485,-4.972115830586939,-4.8571128605206315
1769239061028,123,-5,-3.698964822700114,-4.199193254518335,-4.512051823024195
1769239061032,123,-5,-3.404561492232888,-4.038125272508791,-4.217234156093142
1769239061036,123,-5,-3.2918952275548237,-4.30244471774809,-4.103168096457512
1769239061040,123,-5,-3.318068858913893,-4.231400564511363,-4.126930122385776
1769239061044,123,-5,-3.3343271732182127,-4.066081490479315,-4.140873111884794
1769239061048,123,-5,-3.2239472362793715,-4.150166241505181,-4.029331561113359
1769239061052,123,-5,-2.9914224659923816,-4.015099492305742,-3.7964510580699113
1769239061056,124,-4,-2.736796447126676,-3.3879316744574406,-3.540964082170126
1769239061060,124,-4,-2.538522368278479,-3.087583413550617,-3.340555027363896
1769239061064,124,-4,-2.3462795416357354,-3.228969568379724,-3.145330767610778
1769239061068,124,-4,-1.9903155934960173,-2.9557094685740606,-2.786632558056718
1769239061072,125,-3,-1.3184261942940472,-2.1969010315923754,-2.113118109509598
1769239061076,126,-2,-0.3522103826091245,-1.2395007668480724,-1.146361115721667
1769239061080,127,-1,0.6732700925453421,-0.1667931868110019,-0.1205520050559255
1769239061084,128,0,1.431678235874404,0.7933956338214907,0.6388750425234543
1769239061088,128,0,1.704476551538055,1.1216563499372758,0.9135940306976258
1769239061092,128,0,1.505195679349949,0.6332280716660019,0.7168289538550213
1769239061096,127,-1,1.0314996158697929,0.0084801973206324,0.2459807090194684
1769239061100,127,-1,0.4897329626685636,-0.4668065467050589,-0.2928136752266551
1769239061104,126,-2,-0.053927155873696,-0.84637224353974,-0.8338810554896328
1769239061108,126,-2,-0.6719104210417532,-1.219834344899973,-1.4502443543911938
1769239061112,125,-3,-1.4453998852412129,-2.057245522162331,-2.222960950034222
1769239061116,124,-4,-2.3466134505799197,-3.2404869806329835,-3.123157237388214
1769239061120,123,-5,-3.247109208427722,-4.305257197192562,-4.02139083222808
1769239061124,122,-6,-4.027740979626783,-4.878773505137878,-4.798855093243713
1769239061128,122,-6,-4.665864369215676,-5.272381127532279,-5.434232791540825
1769239061132,121,-7,-5.2150511560727875,-5.900648118097295,-5.981641741284008
1769239061136,121,-7,-5.713804837458066,-6.474140013928336,-6.47850671866188
1769239061140,120,-8,-6.124273974044394,-7.030567867526412,-6.88572591507384
1769239061144,120,-8,-6.35575491795175,-7.1404873931243085,-7.1132015347687965
1769239061148,120,-8,-6.341857991836295,-7.017684955872062,-7.0968599266625905
1769239061152,120,-8,-6.102487778297503,-7.078824552007981,-6.858025012922641
1769239061156,121,-7,-5.745609938492673,-6.393516029186396,-6.502717703823962
1769239061160,121,-7,-5.410989910974193,-5.995519193341389,-6.165987445472241
1769239061164,121,-7,-5.195280689870069,-6.285918121417283,-5.9412662142112795
1769239061168,121,-7,-5.107563571700357,-5.731556450269084,-5.840708531930416
1769239061172,122,-6,-5.088273738922341,-5.447964168098821,-5.813913859329697
1769239061176,121,-7,-5.096527310549865,-5.973249202357688,-5.8278892801036655
1769239061180,121,-7,-5.218076522738191,-6.422100600350842,-5.966252029800141
1769239061184,120,-8,-5.6612255883477065,-6.879626490809656,-6.424140009388835
1769239061188,120,-8,-6.491498422665187,-7.047073607335718,-7.252294585892536
1769239061192,120,-8,-7.14608883067808,-7.213896541723175,-7.883975077745692
1769239061196,121,-7,-6.099738598609945,-6.093785795089193,-6.805242168904972
1769239061200,126,-2,-1.1980192170326722,-1.412949940038187,-1.8799750022720083
1769239061204,134,6,9.164462383145995,7.2516615150526205,8.485606622575283
1769239061208,149,21,24.56885798133692,21.74881742678049,23.874195469690115
1769239061212,168,40,41.89395152541376,41.11206983008326,41.17459069308617
1769239061216,185,57,56.250119732660096,57.51942447308576,55.50844390264552
1769239061220,191,63,63.21396560353324,63.97560044532109,62.4624843635336
1769239061224,187,59,60.97144379136844,59.8178304546988,60.229989406489906
1769239061228,176,48,50.980504664303766,49.09918755501498,50.26768504610568
1769239061232,163,35,36.88156368648911,35.81146221612246,36.20282350482055
1769239061236,149,21,22.576783018089458,21.830705075053135,21.91981573521133
1769239061240,137,9,10.71164745231532,9.803676528543,10.054921981057682
1769239061244,129,1,2.2225688921035855,1.986415721455252,1.5496616325294656
1769239061248,124,-4,-3.1902722254415243,-3.0570416309206383,-3.8819851436043926
1769239061252,120,-8,-6.281757959635264,-7.069376458012762,-6.982340855684875
1769239061256,118,-10,-7.747185172455274,-9.246460405743344,-8.442297867765447
1769239061260,118,-10,-8.13338511098841,-9.080700535720668,-8.813797066125794
1769239061264,119,-9,-7.935068844480368,-8.126454350764385,-8.601607413656833
1769239061268,119,-9,-7.594662011283504,-7.964713906516696,-8.255160848499731
1769239061272,119,-9,-7.382829060049603,-8.18625320055805,-8.044089393542038
1769239061276,119,-9,-7.330855684423184,-8.098921509951879,-7.99319822932962
1769239061280,119,-9,-7.314223736368867,-8.195409517228047,-7.973111337861461
1769239061284,119,-9,-7.204009513925782,-7.997477654571961,-7.855877749119269
1769239061288,120,-8,-6.9472396117788815,-7.104921669347398,-7.593052367858908
1769239061292,120,-8,-6.5452144941763635,-7.051131361810409,-7.188533033466788
1769239061296,120,-8,-6.014034282215127,-7.217909901209196,-6.656630532460479
1769239061300,121,-7,-5.393775523824411,-6.031339374933754,-6.034084158671743
1769239061304,122,-6,-4.76851410633339,-5.163529242159253,-5.404096477287363
1769239061308,122,-6,-4.230195204146625,-4.941337118405264,-4.860529789184806
1769239061312,123,-5,-3.804315986400365,-4.2145545352690945,-4.430639970346924
1769239061316,123,-5,-3.4245424177873423,-4.047528972249074,-4.047608668208608
1769239061320,123,-5,-2.9975689511644608,-4.153566353536039,-3.6165765623077246
1769239061324,124,-4,-2.4940790432827113,-3.0586324190911256,-3.1081655726411115
1769239061328,125,-3,-1.966436830472464,-2.0109408155237727,-2.5763969953728703
1769239061332,125,-3,-1.4805287184265128,-2.1925222602904424,-2.087945398692863
1769239061336,125,-3,-1.0520711770804716,-1.9959430214266216,-1.6569609920553254
1769239061340,126,-2,-0.6572189584510455,-1.2365695213714274,-1.2577726764741008
1769239061344,126,-2,-0.2780914314455345,-0.9214136116877144,-0.8730404676095007
1769239061348,127,-1,0.0920434732107093,-0.1872772209069569,-0.498160976433317
1769239061352,127,-1,0.4808707411934283,0.0267267935316902,-0.106125041936233
1769239061356,127,-1,0.939840018206588,-0.2280592346062874,0.3561689666816495
1769239061360,128,0,1.496661855325899,1.0290700318581945,0.9178967477137522
1769239061364,129,1,2.1170339720447835,1.82795493762813,1.5438158955722296
1769239061368,129,1,2.7263638321178334,2.0305832174207112,2.157219807547283
1769239061372,130,2,3.2585851505367023,2.8878736248711387,2.6916474271804156
1769239061376,130,2,3.667392860729699,2.8340324739581058,3.102782385638416
1769239061380,130,2,3.8992968992691472,3.071718468985331,3.33915649256463
1769239061384,131,3,3.892435553063645,3.709975227309173,3.338580676451078
1769239061388,130,2,3.634734666273747,3.226311181600063,3.086788196308098
1769239061392,130,2,3.2217426520077845,2.6542698814635477,2.677878669983465
1769239061396,129,1,2.824652625004783,2.107142850598333,2.2837788948961752
1769239061400,129,1,2.570063367133086,1.8013602561280664,2.0327460970831215
1769239061404,129,1,2.443469450499401,1.971979176016368,1.91080711823649
1769239061408,129,1,2.3199584075871043,2.027650232721,1.792148818956227
1769239061412,129,1,2.0972027594081597,1.7971124475651572,1.5735848803652668
1769239061416,128,0,1.797829484372489,1.0524396708757933,1.2780037278278504
1769239061420,128,0,1.5416648766423768,0.7782245376964745,1.0259857645863804
1769239061424,128,0,1.424920288803181,1.0669095549348435,0.9139156007028912
1769239061428,128,0,1.4302227703204524,0.9227676047229108,0.9240958284852115
1769239061432,128,0,1.4450903572614755,0.9111704472618968,0.9438735775518308
1769239061436,128,0,1.3570758268874183,0.99982758565047,0.8606986929298037
1769239061440,128,0,1.1323170635815634,0.7342266283474626,0.6403217517524753
1769239061444,127,-1,0.8063293078887358,0.236610078944825,0.3180150073259136
1769239061448,127,-1,0.3943466813424232,-0.3528115462838272,-0.0905035692639105
1769239061452,126,-2,-0.1905327525229965,-0.6779748660709073,-0.6713880505732126
1769239061456,126,-2,-1.1117876008130247,-1.4886430364167236,-1.5880937737359635
1769239061460,124,-4,-2.468810624730331,-2.7337091601713643,-2.9406323643811487
1769239061464,123,-5,-4.1573889954357535,-4.288498209653055,-4.6248317747592464
1769239061468,120,-8,-5.872882494919466,-6.850638391405486,-6.3351342184309765
1769239061472,119,-9,-7.274705326344868,-8.09428897862147,-7.730606305525324
1769239061476,119,-9,-8.17365253211237,-8.140147247312152,-8.623533269411876
1769239061480,118,-10,-8.587446879570946,-8.992929747545821,-9.033521205838694
1769239061484,118,-10,-8.653424693845697,-9.090852827221786,-9.097647393458372
1769239061488,118,-10,-8.514789674529176,-8.969870960814495,-8.95676326703587
1769239061492,118,-10,-8.273367323213446,-9.016675113830466,-8.710965475909944
1769239061496,119,-9,-7.997463423145862,-8.184713486112882,-8.429182757681428
1769239061500,119,-9,-7.730438403928745,-7.933609464849067,-8.156420967603257
1769239061504,119,-9,-7.486643810000205,-8.168576800638828,-7.907597771747954
1769239061508,119,-9,-7.2567867922331155,-7.826059805675711,-7.673029304672475
1769239061512,120,-8,-7.02451168611843,-7.215518528440804,-7.436461744230501
1769239061516,120,-8,-6.775450711515048,-6.925668232088982,-7.183961324051548
1769239061520,120,-8,-6.502465195007466,-7.206014346734457,-6.9077573873502365
1769239061524,120,-8,-6.221693766676908,-6.879516041862633,-6.62262080162236
1769239061528,121,-7,-5.97775226531909,-6.080957650928755,-6.373045421705496
1769239061532,121,-7,-5.805987279863223,-6.002977357568562,-6.195872560164008
1769239061536,121,-7,-5.6812381309015345,-6.063351176254446,-6.0670414647147615
1769239061540,121,-7,-5.525546072460616,-6.11758540555938,-5.907954472646492
1769239061544,121,-7,-5.285656786182287,-5.898243188207863,-5.664143487146108
1769239061548,122,-6,-4.9973410843106425,-5.1041331754481964,-5.3712222235303715
1769239061552,122,-6,-4.759333855790197,-4.92938488837162,-5.12858836462781
1769239061556,122,-6,-4.643006531939139,-5.146927124939787,-5.0078716759739805
1769239061560,122,-6,-4.633288567057103,-5.0104360935668355,-4.9937589285206565
1769239061564,122,-6,-4.654439022580316,-4.997467523880181,-5.010562535953493
1769239061568,122,-6,-4.6466508480098225,-5.015344257315606,-4.998820004688462
1769239061572,122,-6,-4.622210972908821,-4.971060750101312,-4.970716081689779
1769239061576,122,-6,-4.655664175788642,-5.12103075504669,-5.00026909483366
1769239061580,122,-6,-4.812409718127075,-4.996348884775002,-5.152713345801031
1769239061584,122,-6,-5.068774053804954,-5.028891314261967,-5.404664530415947
1769239061588,121,-7,-5.297479493360726,-5.963862307236848,-5.6289220332585845
1769239061592,121,-7,-5.347124688080913,-6.014500854752284,-5.673945739204118
1769239061596,122,-6,-5.152573956387612,-5.050195792943019,-5.4748654723627
1769239061600,122,-6,-4.777113732427981,-5.066868347226059,-5.095494115186298
1769239061604,122,-6,-4.357033276837346,-4.93491037446322,-4.672234825373291
1769239061608,123,-5,-4.007094085529637,-4.0650966614801725,-4.319536318616887
1769239061612,123,-5,-3.760408513276338,-3.8917911315872455,-4.07001207506118
1769239061616,123,-5,-3.575227219098683,-4.169626763085287,-3.8811552141352927
1769239061620,123,-5,-3.3883832055934064,-3.919058854658911,-3.689245652057903
1769239061624,124,-4,-3.156635015143443,-3.0870364629192304,-3.4516143033807283
1769239061628,124,-4,-2.846421600462735,-2.894376491078229,-3.1362004083279325
1769239061632,124,-4,-2.4061154104131943,-3.0526307823646546,-2.6924600797857643
1769239061636,125,-3,-1.7860366259172875,-1.9996119217331527,-2.0705109817220273
1769239061640,126,-2,-1.0093879830577095,-1.0601764375191882,-1.2922431815336977
1769239061644,126,-2,-0.22324856689991,-0.9650132991166926,-0.5032298634062174
1769239061648,127,-1,0.3419482160504659,0.0311517465486343,0.0664174266086102
1769239061652,128,0,0.5054132701774532,0.9944281853683096,0.2346318397481026
1769239061656,127,-1,0.266979149119658,0.0046055781371135,-7.445383154447427e-07
1769239061660,126,-2,-0.192423205305505,-1.096446967385752,-0.4562339017307277
1769239061664,126,-2,-0.6629832508642306,-0.8767927222208858,-0.9232969443601508
1769239061668,126,-2,-1.0721798053963818,-1.0904539285588983,-1.3287145518440835
1769239061672,125,-3,-1.507888796851257,-1.8239611087173992,-1.7611781629088328
1769239061676,125,-3,-2.0926445545002332,-2.182813088833035,-2.34349990641943
1769239061680,124,-4,-2.8429564329847845,-2.8955920070959293,-3.091571023551175
1769239061684,123,-5,-3.641982964423291,-4.069914215773375,-3.887745777523503
1769239061688,122,-6,-4.336805850726125,-4.911861156677631,-4.578980403120716
1769239061692,122,-6,-4.856462700597481,-4.9397761607063275,-5.0950366596651255
1769239061696,122,-6,-5.236114953316456,-5.092518077363358,-5.471693222828294
1769239061700,121,-7,-5.537722728821729,-5.922030789958218,-5.770454876203568
1769239061704,121,-7,-5.762946841996889,-6.1022127679522065,-5.992173454024815
1769239061708,121,-7,-5.846265471372919,-5.821535076261771,-6.071775661825794
1769239061712,121,-7,-5.726814503908416,-6.054327606381957,-5.950071516277229
1769239061716,121,-7,-5.430201353808432,-5.915828560983089,-5.653614605067859
1769239061720,122,-6,-5.085839186833974,-5.11072895556926,-5.31038618576461
1769239061724,122,-6,-4.850556565828112,-4.903352457591077,-5.073706143925862
1769239061728,122,-6,-4.787849858538024,-5.026152842413498,-5.003888556155257
1769239061732,122,-6,-4.808089421833207,-4.821932566589352,-5.012023539983898
1769239061736,122,-6,-4.7422352889729265,-5.126951243188592,-4.9357095634879915
1769239061740,122,-6,-4.5133093385794965,-4.894991257320417,-4.7073316205749665
1769239061744,123,-5,-4.274546245257403,-4.099723096823902,-4.483669628421792
1769239061748,122,-6,-4.372890035701678,-4.8517195731214215,-4.602463921005532
1769239061752,121,-7,-5.068811352699085,-5.942383352369157,-5.306392763332983
1769239061756,121,-7,-6.067324106932258,-6.019905241216485,-6.2891664618529495
1769239061760,122,-6,-6.100646294221777,-4.969480741747395,-6.289897625997058
1769239061764,125,-3,-2.997634830072078,-2.0324826560857905,-3.157399867926977
1769239061768,131,3,5.394790714519862,4.115711689702832,5.2452016535873875
1769239061772,144,16,19.65749843980661,17.119191784054156,19.496682362263513
1769239061776,164,36,37.610858005409426,36.94485391825444,37.42559730753486
1769239061780,183,55,54.616233158241805,56.09586463584171,54.40381663560368
1769239061784,194,66,65.53343770042997,66.8830392520541,65.30173100659192
1769239061788,194,66,67.18309866316638,67.17837187173456,66.95006751579155
1769239061792,186,58,59.72271879609311,58.97320079487652,59.5102277931536
1769239061796,172,44,46.18185268182508,45.06606122595222,46.00310741177052
1769239061800,157,29,30.70404908996041,30.03190841554677,30.55400165930749
1769239061804,144,16,16.728058216343193,17.035858207514295,16.586271078020975
1769239061808,133,5,6.05336421517991,6.117016308813232,5.89777873217567
1769239061812,126,-2,-1.0609815375163896,-1.012126488636511,-1.2404866846953455
1769239061816,122,-6,-5.2366873707189185,-4.927538955146807,-5.434509139932899
1769239061820,119,-9,-7.336653507229851,-8.003011608034218,-7.538058300037006
1769239061824,118,-10,-8.13675369845748,-8.830509845151568,-8.328668947915776
1769239061828,119,-9,-8.247701551915561,-8.007880825636454,-8.426397852790377
1769239061832,119,-9,-8.094043089617658,-7.924667354240474,-8.265163125011973
1769239061836,119,-9,-7.87918822463644,-8.026673869634426,-8.051034720645406
1769239061840,119,-9,-7.613494480143298,-7.9211124306467475,-7.7898741899580335
1769239061844,119,-9,-7.248584667326029,-7.814161869536331,-7.427488256005645
1769239061848,120,-8,-6.814498377374007,-7.032484092912111,-6.992598172976674
1769239061852,121,-7,-6.422981626560183,-5.88109094627066,-6.599921532729559
1769239061856,121,-7,-6.147521387693127,-6.12045486401572,-6.325186350617666
1769239061860,120,-8,-5.935750556291673,-6.805485632943372,-6.114654209861679
1769239061864,121,-7,-5.659976782590766,-5.858696074867128,-5.838363174138935
1769239061868,122,-6,-5.235780797907372,-5.002832511931955,-5.412413626709705
1769239061872,122,-6,-4.675074656614028,-4.8574205678459155,-4.851328809824639
1769239061876,123,-5,-4.047779734154606,-4.233349281817343,-4.226233438902518
1769239061880,123,-5,-3.428109677121901,-3.603084830359047,-3.60977486050684
1769239061884,124,-4,-2.8783267727029056,-3.0917211202883643,-3.0617860969541173
1769239061888,124,-4,-2.449453223798491,-2.6786694112272045,-2.6324889295497744
1769239061892,125,-3,-2.160028586581965,-2.23007381300488,-2.3418639470335982
1769239061896,125,-3,-1.958162394262042,-1.85888600166115,-2.140067577447864
1769239061900,125,-3,-1.7183132005557815,-1.956769793209683,-1.902003980075382
1769239061904,125,-3,-1.3097795278102993,-1.7275104132740506,-1.4955061645362937
1769239061908,126,-2,-0.6959896899368219,-0.9645972518067274,-0.8827102056141243
1769239061912,127,-1,0.032522305670666,-0.0036403098587292,-0.1548504365427661
1769239061916,128,0,0.7360788735178676,0.957069362120011,0.5467586721372393
1769239061920,128,0,1.3389348599809816,1.1933357408573022,1.1464101296416225
1769239061924,128,0,1.8590444690790455,1.1961144567424995,1.6641116764449353
1769239061928,129,1,2.3362720303675903,2.106232225149329,2.141062725619028
1769239061932,130,2,2.761803861294364,2.94716092643429,2.5670368139491107
1769239061936,130,2,3.0954962824006724,2.977714776640569,2.899381686245795
1769239061940,130,2,3.3320492410293476,3.209872716029442,3.132331355782654
1769239061944,130,2,3.515454253050042,3.200307954926186,3.311924667072131
1769239061948,130,2,3.6794823849563274,3.1212513511798754,3.4738478522968124
1769239061952,131,3,3.7959985073733034,3.938658294701831,3.5895351481397055
1769239061956,131,3,3.8041591561173815,3.9752749487146657,3.5963136517091066
1769239061960,130,2,3.6863613216432736,3.2389563976404987,3.4758284640395742
1769239061964,130,2,3.4954102489231667,3.2023256746565365,3.2817304163640157
1769239061968,130,2,3.3018977715997506,3.1201950455177507,3.08539972533347
1769239061972,130,2,3.1280466886713376,2.960568823857477,2.908857520036893
1769239061976,130,2,2.9394960863826807,2.9271762736376847,2.717452844069681
1769239061980,129,1,2.693892104996686,2.3543978476475877,2.469156476199347
1769239061984,129,1,2.3952264273332795,2.0558204682587085,2.1681277729925057
1769239061988,129,1,2.112148395434125,2.3368093485167285,1.8824301145747004
1769239061992,129,1,1.945800771614663,1.6937118693110087,1.7128087134007943
1769239061996,128,0,1.957666354313902,1.229517133188046,1.7213232245244074
1769239062000,129,1,2.1062030205941458,2.080230885412063,1.8669619275789011
1769239062004,129,1,2.2582753562216977,2.3176026348395427,2.016019858169508
1769239062008,129,1,2.2781035960665323,2.144478848750486,2.0320094127200257
1769239062012,129,1,2.1056148508645207,1.8229347317887925,1.8553797560447531
1769239062016,128,0,1.744849217313911,1.163150192633902,1.4912115121014111
1769239062020,128,0,1.1924923065997015,1.112911037403303,0.9359889570317782
1769239062024,127,-1,0.4045197490280281,0.3528795465729545,0.1443391095148957
1769239062028,126,-2,-0.6574029946310538,-0.9011810422440992,-0.92253279728049
1769239062032,125,-3,-1.9559491692935795,-2.11349116229393,-2.225867030344963
1769239062036,123,-5,-3.3588388395549726,-3.903784350688607,-3.631745837287904
1769239062040,122,-6,-4.680115647968442,-4.818040655898241,-4.954616728555598
1769239062044,121,-7,-5.7405916544945885,-5.656355207070884,-6.017476740328113
1769239062048,120,-8,-6.420179574082032,-6.902014540109575,-6.701716780707173
1769239062052,120,-8,-6.702631436979641,-7.0803135946223765,-6.990397090244205
1769239062056,120,-8,-6.696449638146694,-6.954524394637557,-6.990318376739407
1769239062060,120,-8,-6.59229480593443,-6.761706241994682,-6.891229265843571
1769239062064,120,-8,-6.555270710699773,-6.650170053353868,-6.858330555931758
1769239062068,120,-8,-6.622899046449349,-6.930795478843332,-6.929357305841701
1769239062072,120,-8,-6.6935153473877484,-7.0042987251867865,-7.002726235979112
1769239062076,120,-8,-6.616979985094873,-7.083629521876111,-6.928951538385984
1769239062080,120,-8,-6.312349713479518,-6.5787021230519285,-6.6285271226341935
1769239062084,121,-7,-5.822616341948805,-5.820479446484719,-6.145351123675746
1769239062088,121,-7,-5.282051732901788,-5.717695911175293,-5.612526712503081
1769239062092,122,-6,-4.840101514830787,-5.233761755610711,-5.176850518451448
1769239062096,122,-6,-4.59154790594513,-4.853681436790518,-4.931678550445352
1769239062100,122,-6,-4.5316328278140565,-4.807460948194893,-4.873744601925516
1769239062104,122,-6,-4.5493977462759,-4.542709996196095,-4.894887409071434
1769239062108,122,-6,-4.484665918935827,-4.9674876606897795,-4.835956049746942
1769239062112,122,-6,-4.241542494276969,-5.002037565395097,-4.599572315833628
1769239062116,123,-5,-3.8766777987152903,-4.0671271039640375,-4.2406670722556665
1769239062120,123,-5,-3.5644909722585543,-3.61736342113544,-3.9336806167265506
1769239062124,123,-5,-3.4468070619756026,-3.645256919638565,-3.821403671326748
1769239062128,123,-5,-3.50198670234082,-3.880823326957328,-3.8821667585340713
1769239062132,123,-5,-3.562547775075377,-4.0632598074518675,-3.947333191552739
1769239062136,123,-5,-3.4646149313911336,-4.052525869909344,-3.852663869702016
1769239062140,123,-5,-3.1833028641190415,-3.58224554680671,-3.5750469505437157
1769239062144,124,-4,-2.8308632522847184,-2.6568720019611733,-3.2291149892606974
1769239062148,124,-4,-2.542067482408772,-2.8083548006912737,-2.9494225631822077
1769239062152,124,-4,-2.3808425906307207,-3.1900584917006003,-2.796405792527905
1769239062156,124,-4,-2.348571990327858,-2.90144123394496,-2.768392953681263
1769239062160,124,-4,-2.432854124260142,-2.7645521969103855,-2.854270642304064
1769239062164,124,-4,-2.6011283586841696,-2.377968099355187,-3.025807315687038
1769239062168,124,-4,-2.760672436057777,-3.0706193319195085,-3.192386191197165
1769239062172,123,-5,-2.7909829289777983,-3.953706997959469,-3.2310865948877048
1769239062176,124,-4,-2.659913885453319,-3.1269856989370175,-3.1064744691772295
1769239062180,124,-4,-2.4871810056273067,-2.5837911003359104,-2.938355820344977
1769239062184,124,-4,-2.4489763434903633,-2.4209915553381554,-2.9054373150123625
1769239062188,124,-4,-2.610144301053781,-3.0588125359170824,-3.073443664549082
1769239062192,123,-5,-2.8667129012578743,-3.927254661454868,-3.3366270401434672
1769239062196,124,-4,-3.051357413679229,-3.244857952370082,-3.5261262562045377
1769239062200,123,-5,-3.0744325593797113,-3.40322895849699,-3.5531364543235737
1769239062204,123,-5,-2.9619044197596347,-3.5601593167254664,-3.445597275548401
1769239062208,124,-4,-2.785969957948275,-2.8482605612302336,-3.2764832564180484
1769239062212,124,-4,-2.5867480258115223,-3.179241882255159,-3.084914398439999
1769239062216,124,-4,-2.363576761875177,-3.0450749563144823,-2.868759406781026
