timestamp_ms,ecg_u8_raw,ecg_counts_raw_int,ecg_counts_filt_monitor,ecg_counts_filt_diagnostic,ecg_counts_filt_st
1768728948316,130,2,1.9817562241359488,4.149072046898036,4.419514415401522
1768728948320,130,2,1.8960271489232428,4.425473603821181,4.329838301655997
1768728948324,130,2,1.6232063998070196,4.154266000781822,4.053634999637499
1768728948328,129,1,1.262627463736505,3.181065497249412,3.6900843638112786
1768728948332,129,1,0.8887429693018138,3.252069080799054,3.3131335836645337
1768728948336,129,1,0.5116915912651452,3.1474947451715427,2.9320297015397303
1768728948340,128,0,0.1076928758504929,2.4375231218409916,2.5227107375077864
1768728948344,128,0,-0.3274167737622369,2.0641890254568667,2.0821767583948825
1768728948348,127,-1,-0.7654976661362052,1.2566512164741326,1.6400513937888097
1768728948352,127,-1,-1.1744287831966431,1.14012849692716,1.2282415271270195
1768728948356,127,-1,-1.5357406897215071,1.2298673503001916,0.8633742142987839
1768728948360,126,-2,-1.8313212320040717,0.328328154738033,0.5625487343884017
1768728948364,126,-2,-2.035656199726248,0.1115825088644402,0.3526258155467561
1768728948368,126,-2,-2.1390945776170307,0.2028710928480768,0.2453018157371262
1768728948372,126,-2,-2.169647784151817,0.1220075311014006,0.2124849076171764
1768728948376,126,-2,-2.1720857153439503,0.2669476489176059,0.2067483933153164
1768728948380,126,-2,-2.1605541724363606,0.2174090227349423,0.2114739478269385
1768728948384,126,-2,-2.103887428141465,0.2079320406520191,0.2588991556499858
1768728948388,126,-2,-1.9701152688193095,0.0468864837408204,0.3858045523986533
1768728948392,126,-2,-1.779237124529816,0.255652719597367,0.5764650780419713
1768728948396,127,-1,-1.5849694432430024,1.1075316900350165,0.7756674114917033
1768728948400,127,-1,-1.3862745193206898,1.344975477033807,0.9766350112791092
1768728948404,127,-1,-1.0826289922035952,1.0400069462926576,1.2715548316847438
1768728948408,127,-1,-0.5678017371618335,1.1633530518339246,1.7654639488725974
1768728948412,128,0,0.1295453589716823,2.115800174655777,2.438834504102757
1768728948416,129,1,0.8964104745002254,3.2053965317967155,3.193412165346354
1768728948420,130,2,1.8923261438614416,4.253532333686114,4.198221128076648
1768728948424,133,5,3.978176758851587,7.0559126999570685,6.30906133635443
1768728948428,138,10,8.71190088332836,12.13913901491464,11.065802293362436
1768728948432,145,17,17.534152232182084,19.071044371300367,19.891007129142075
1768728948436,156,28,30.37347640439894,30.26740485247788,32.70775024370357
1768728948440,172,44,44.62370569473955,46.15675654502423,46.918703666634066
1768728948444,185,57,55.56868420891994,59.13074886915242,57.82394649504546
1768728948448,188,60,58.446131837763886,61.98402035462308,60.67737459197048
1768728948452,180,52,51.02954828986528,54.15038397061417,53.26260979797938
1768728948456,163,35,35.032446756649314,37.08865970735765,37.29162083482612
1768728948460,142,14,15.369464128734824,16.27124727362189,17.664117342732684
1768728948464,125,-3,-2.2476004220913115,-0.9532250601790492,0.0703480947775698
1768728948468,114,-14,-13.869938150412043,-11.90688782331873,-11.556219607326875
1768728948472,110,-18,-18.591536955753256,-15.894142370547724,-16.308803406494384
1768728948476,111,-17,-18.097726212359785,-14.927929829617288,-15.85648627020109
1768728948480,113,-15,-15.129432144487255,-12.755145728160484,-12.919299102926146
1768728948484,116,-12,-11.973769580091089,-10.03281939528193,-9.772008691279591
1768728948488,118,-10,-9.754308007091415,-7.823420728454536,-7.54093368728733
1768728948492,119,-9,-8.57827946740057,-7.040578078020992,-6.347430063414584
1768728948496,120,-8,-8.081886895037727,-5.800562699898714,-5.842703055699457
1768728948500,121,-7,-7.881595342507683,-4.942241783783876,-5.649185425335902
1768728948504,120,-8,-7.745842775366971,-5.903492592100781,-5.529688351146416
1768728948508,120,-8,-7.585873609814655,-5.943344833071592,-5.384835667068924
1768728948512,121,-7,-7.403324623760167,-4.960694525877778,-5.210307879970513
1768728948516,121,-7,-7.230990696089542,-4.907396532290958,-5.040983699997784
1768728948520,121,-7,-7.073248243007057,-4.888016305564033,-4.886381620515158
1768728948524,121,-7,-6.892649973171508,-4.99901423336211,-4.71120422887774
1768728948528,121,-7,-6.661822991307892,-4.878360794842564,-4.486737611759767
1768728948532,122,-6,-6.412667545256603,-4.037477079337451,-4.243473770144734
1768728948536,122,-6,-6.207506687644809,-3.8797218394502986,-4.0440376597484775
1768728948540,122,-6,-6.059595381651467,-3.945704957850754,-3.902329175173411
1768728948544,122,-6,-5.905784823664321,-3.999361980470524,-3.754859394070742
1768728948548,122,-6,-5.674705113906547,-3.896810146702992,-3.529749670377201
1768728948552,123,-5,-5.374978676733443,-3.058266995088544,-3.2360770221236477
1768728948556,123,-5,-5.102740417966915,-2.864906854891886,-2.9706658746833545
1768728948560,123,-5,-4.961181934983531,-3.0313742461130992,-2.8362205997138714
1768728948564,123,-5,-4.973900924861975,-2.9282646571468556,-2.8550512682281552
1768728948568,123,-5,-5.063700504735796,-3.0366444800239067,-2.949636758713716
1768728948572,123,-5,-5.100783388916821,-2.9208870646559237,-2.9913713224446536
1768728948576,123,-5,-4.981904083646397,-3.0337759890036606,-2.8783844877907305
1768728948580,123,-5,-4.696009274726771,-2.906877592081882,-2.5998914682186327
1768728948584,124,-4,-4.336748348404767,-2.086166872165988,-2.2487360156105103
1768728948588,124,-4,-4.046148024259283,-1.9330556294901824,-1.9657396971578995
1768728948592,124,-4,-3.923303197213645,-2.0375192164915927,-1.8490590789953076
1768728948596,124,-4,-3.962627056499219,-1.945532155623348,-1.893174690523081
1768728948600,124,-4,-4.060637833380996,-2.043387680543192,-1.995884177480043
1768728948604,124,-4,-4.08046449270534,-1.9886043859810825,-2.0216818907028085
1768728948608,124,-4,-3.935396404263042,-2.074098347071386,-1.883875685797249
1768728948612,124,-4,-3.6451407972139136,-1.909513128554416,-1.6010334317831223
1768728948616,125,-3,-3.322813933900019,-1.1072006541392092,-1.2855410526139712
1768728948620,125,-3,-3.0896296329199355,-0.916323890532305,-1.0589665931240182
1768728948624,125,-3,-2.9808736232070463,-1.171151216251805,-0.9570074892775616
1768728948628,125,-3,-2.9284644330254617,-0.928108716992941,-0.911098807440634
1768728948632,125,-3,-2.8366703677775043,-1.06674667094157,-0.8248161121388788
1768728948636,125,-3,-2.673188075650704,-1.0102393957648,-0.6663668696673493
1768728948640,126,-2,-2.4838108655416677,0.0026209850257425,-0.4831608774870997
1768728948644,126,-2,-2.3265840105400857,-0.1982866014395021,-0.3339628085472128
1768728948648,125,-3,-2.212660955513378,-0.8784928410997135,-0.2285077612850998
1768728948652,126,-2,-2.1209216793091263,-0.1933530566993582,-0.1437274713993228
1768728948656,126,-2,-2.0478207087352875,0.1156750702910693,-0.0759369631077864
1768728948660,126,-2,-2.012450934864158,-0.167671402571536,-0.0457695024665114
1768728948664,126,-2,-2.0107621556621655,-0.0755917921221227,-0.0503743776014782
1768728948668,126,-2,-1.986047227510883,-0.0140969847284244,-0.032793055466934
1768728948672,126,-2,-1.8622625651714428,-0.1363460358447796,0.0840021146608487
1768728948676,126,-2,-1.6130031300121923,0.0844423090425845,0.3268120928906439
1768728948680,127,-1,-1.297180826139244,0.7771349283923659,0.6361093210487296
1768728948684,127,-1,-1.0225143997638235,0.9890144518923418,0.9034878048643966
1768728948688,127,-1,-0.8697607429234737,0.8491102266734458,1.0485612436019025
1768728948692,127,-1,-0.8463605330973478,0.9755149031352244,1.0650655986568975
1768728948696,127,-1,-0.8998557680435308,0.9459868142266172,1.006052263310642
1768728948700,127,-1,-0.9625691653739508,0.8639912907767449,0.938420622520864
1768728948704,127,-1,-0.9862377076305456,0.8972418080707469,0.90895392671022
1768728948708,127,-1,-0.9542124944743168,0.8741610104718869,0.9334666629913322
1768728948712,127,-1,-0.8831530107240115,0.9321086402145968,0.9959103864539882
1768728948716,127,-1,-0.8226801448616454,0.9501833907180356,1.04828606485549
1768728948720,127,-1,-0.8433282879740573,0.8205571890836443,1.021258146757407
1768728948724,127,-1,-0.9990069929692886,0.9250484065263525,0.8605323248502117
1768728948728,127,-1,-1.2770931531890697,0.782719592224475,0.5771853478256368
1768728948732,126,-2,-1.5839781202300067,0.0121942765315603,0.2637318846194891
1768728948736,126,-2,-1.8021740360462497,-0.1906867021699714,0.0379518059389361
1768728948740,126,-2,-1.8854629784626344,-0.0446127080388394,-0.0529094244893264
1768728948744,126,-2,-1.9043684455133991,-0.2639780334830988,-0.0787810416429635
1768728948748,126,-2,-1.9890297046710388,-0.0496935334589112,-0.1699848368161447
1768728948752,126,-2,-2.2136787209717905,-0.1941981494055449,-0.4011215904569751
1768728948756,125,-3,-2.5280185430002495,-1.0348475510289106,-0.7218825162676241
1768728948760,125,-3,-2.800611937084581,-1.214769276935579,-1.0006957885006802
1768728948764,125,-3,-2.932240553044086,-1.1492749805004383,-1.1386556884620056
1768728948768,125,-3,-2.9317855703669125,-1.1791481634594665,-1.145180206387205
1768728948772,125,-3,-2.890225714697677,-1.1048931382389813,-1.1111974361172647
1768728948776,125,-3,-2.886206714971382,-1.1626105764926589,-1.1145702630277503
1768728948780,125,-3,-2.909546329926927,-1.1208629682399538,-1.1444019166999122
1768728948784,125,-3,-2.8627489745423293,-1.2869567959818895,-1.103300731766497
1768728948788,125,-3,-2.6330036715448935,-1.0658918605351273,-0.8792645699872215
1768728948792,126,-2,-2.174995326839704,-0.2548137838289768,-0.4276982053267799
1768728948796,126,-2,-1.5442249324130617,-0.0403358085804761,0.1958588450307106
1768728948800,127,-1,-0.8631212105541908,0.7073883323266239,0.869411880005801
1768728948804,128,0,-0.2492489840373866,1.8608900067274368,1.4758322431816873
1768728948808,128,0,0.2410731956089384,1.7401392129495137,1.9592124548952028
1768728948812,128,0,0.6133395830382342,1.910289181064479,2.3253403075974672
1768728948816,129,1,0.8910208743186727,2.76749768798556,2.597335025828482
1768728948820,129,1,1.08170265788817,2.8395153503872614,2.7818792038931
1768728948824,129,1,1.184276300698296,2.7212616323335146,2.8774579176096764
1768728948828,129,1,1.212098347841156,2.823638925071418,2.897994235153707
1768728948832,129,1,1.1969728717756345,2.811678996039413,2.8760034582224407
1768728948836,129,1,1.1734031721379807,2.8123566916913885,2.8460200329201
1768728948840,129,1,1.1629942367512665,2.77263364472634,2.8292160538756104
1768728948844,129,1,1.1697117433433162,2.741601654759681,2.8293028988286824
1768728948848,129,1,1.1845400730538242,2.7848951207819597,2.837350898138654
1768728948852,129,1,1.1953324041294642,2.802259675671335,2.841368382072678
1768728948856,129,1,1.1966774494624983,2.7927393375026464,2.836000082085266
1768728948860,129,1,1.193046030266862,2.7511521561498773,2.825740432146434
1768728948864,129,1,1.1925829590236137,2.731607813335606,2.8187621025834897
1768728948868,129,1,1.1980729418359453,2.7631905200492506,2.8177901805315813
1768728948872,129,1,1.2049650312951832,2.7861907666497316,2.818114945165932
1768728948876,129,1,1.2080503005578374,2.773527713427837,2.8144454320364645
1768728948880,129,1,1.2079713482505434,2.7328716934540136,2.807556513832691
1768728948884,129,1,1.2095383121572756,2.71694908969767,2.8024708392449145
1768728948888,129,1,1.2147946241240262,2.7449973993460346,2.8012604593775277
1768728948892,129,1,1.2203873759895625,2.7685301083751335,2.8003783987932183
1768728948896,129,1,1.2224933681524046,2.7548527166651287,2.795839246987707
1768728948900,129,1,1.2222162595179826,2.7152302175977536,2.788825064861279
1768728948904,129,1,1.2240376331501803,2.700527008475906,2.7840121948713543
1768728948908,129,1,1.2296506735073909,2.7283624940565905,2.7831201313035754
1768728948912,129,1,1.235715000633587,2.7499030048962916,2.782626681149973
1768728948916,129,1,1.2384016892289458,2.737132115379413,2.778589863853137
1768728948920,129,1,1.238266365803537,2.697382493079415,2.7717286061644666
1768728948924,129,1,1.2389818087969482,2.682910444272985,2.76596777546049
1768728948928,129,1,1.2423705024957876,2.713515717574753,2.763093980394609
1768728948932,129,1,1.2470504812788576,2.7292286124828853,2.7613454155474844
1768728948936,129,1,1.251923274150455,2.721864601064292,2.7593151607648343
1768728948940,129,1,1.2578908602735612,2.678228777732464,2.758100697915709
1768728948944,129,1,1.2639123523008626,2.6637972469361393,2.7572625636844923
1768728948948,129,1,1.2638862654732654,2.702924460575375,2.75110017020116
1768728948952,129,1,1.2531398267119265,2.7019346362193004,2.734647880041966
1768728948956,129,1,1.240585592398978,2.714430778803722,2.716025507855929
1768728948960,129,1,1.2491075235956863,2.6543713044677584,2.717595891539115
1768728948964,129,1,1.2928782283582976,2.6403748346942053,2.753863697617452
1768728948968,129,1,1.3464866401181146,2.710783212450143,2.800298084478158
1768728948972,129,1,1.3410149343782862,2.637009377829325,2.7884401443739604
1768728948976,129,1,1.207551740358165,2.7680262145908303,2.6489215666112904
1768728948980,129,1,0.9409812075700256,2.544962040293541,2.375947329811637
1768728948984,128,0,0.6222048612361234,1.7268316797881549,2.0504630097803154
1768728948988,128,0,0.3663424731662223,1.580930916717449,1.7881470674644993
1768728948992,128,0,0.2403387167876451,1.7360923102721897,1.6560472832800652
1768728948996,128,0,0.227477184416823,1.636420969265437,1.636937589358285
1768728949000,128,0,0.2637430750243907,1.6426637939388424,1.6664383315834153
1768728949004,128,0,0.298357126173937,1.5997687433876555,1.6939125344440118
1768728949008,128,0,0.3205263009284992,1.6517913391419743,1.7088516488206276
1768728949012,128,0,0.3406100641756693,1.6540636112391365,1.7218493223927949
1768728949016,128,0,0.3564317672344656,1.6521900678290296,1.7311220563540854
1768728949020,128,0,0.3417240443988073,1.6421708212585493,1.7107544466009452
1768728949024,128,0,0.2708760093937207,1.5101438585982123,1.6347238063013183
1768728949028,128,0,0.1593159744535833,1.7570954878537086,1.517275705664308
1768728949032,128,0,0.0725733200625979,1.4576790612477797,1.423238545544253
1768728949036,127,-1,0.0726599785177289,0.8665164498231883,1.415292496836826
1768728949040,128,0,0.1391255777763137,1.357701461136764,1.474142691427228
1768728949044,128,0,0.1561719567995674,1.7870316434667086,1.4843892970954542
1768728949048,128,0,0.0062037705020574,1.4222312532710055,1.328297191263581
1768728949052,127,-1,-0.3093576889567633,0.7690044864858314,1.0072845417816
1768728949056,127,-1,-0.6418216400000114,0.5174651441638409,0.6697382810771555
1768728949060,127,-1,-0.7907780135208029,0.6646064997681296,0.5150388306366418
1768728949064,127,-1,-0.6473737167326699,0.459478798937309,0.6512802204964574
1768728949068,127,-1,-0.2815985745559948,0.7029637074980695,1.0089717465649497
1768728949072,128,0,0.0894499938780407,1.4731432123695123,1.3720822125047158
1768728949076,128,0,0.2415310469122719,1.7568091108219357,1.5168878044690768
1768728949080,128,0,0.0964429502804206,1.4026914942972546,1.365319162778948
1768728949084,127,-1,-0.2344501151436518,0.6709164348133165,1.0289845746379371
1768728949088,127,-1,-0.5518564289643071,0.4704755001052301,0.7069385764998453
1768728949092,127,-1,-0.7184861903416775,0.6561799903000045,0.5351543872194005
1768728949096,127,-1,-0.7280870793144764,0.5637824391396711,0.5185227551659337
1768728949100,127,-1,-0.6613870345287677,0.5372695387806852,0.5765647357257073
1768728949104,127,-1,-0.6008000335748717,0.5315321134928861,0.6286908907508977
1768728949108,127,-1,-0.5821833742773902,0.5329087474346283,0.6406160001120709
1768728949112,127,-1,-0.5986038473799515,0.5925030552102117,0.6191308083487721
1768728949116,127,-1,-0.6251381735941531,0.5679564791465892,0.5876799339564811
1768728949120,127,-1,-0.6381404521162791,0.5254659309821492,0.5685947837915126
1768728949124,127,-1,-0.6258653661719746,0.4919776158821549,0.5734829245152335
1768728949128,127,-1,-0.5950712812990588,0.5363115736959232,0.5964550211812951
1768728949132,127,-1,-0.5702138886420305,0.5555555240943377,0.6140773512146551
1768728949136,127,-1,-0.5784612160394169,0.5665304313731649,0.5996033975457555
1768728949140,127,-1,-0.6242736221718342,0.5136057807637826,0.5481640802044798
1768728949144,127,-1,-0.6713517333185022,0.4430976204029893,0.4952167678187003
1768728949148,127,-1,-0.6522344160384047,0.5690740092172231,0.5077444208997148
1768728949152,127,-1,-0.5097689686624274,0.4619114648733387,0.6432423786331505
1768728949156,127,-1,-0.2455529755417264,0.6525727408034854,0.900763354515104
1768728949160,128,0,0.0678270397784931,1.3860280882856817,1.2077912103742614
1768728949164,128,0,0.330560522027689,1.5369075624027468,1.4639928661747037
1768728949168,128,0,0.4802710873646607,1.4365041037187725,1.6066897223816603
1768728949172,128,0,0.5191648858451814,1.549035141772852,1.6383927656216617
1768728949176,128,0,0.4877150471470821,1.5431672814204034,1.600074395436022
1768728949180,128,0,0.4250170058616201,1.4582475754810449,1.531103536711461
1768728949184,128,0,0.3601417051208791,1.4345325125827375,1.4605568088591734
1768728949188,128,0,0.3354535673810687,1.5040596420536692,1.430541101053029
1768728949192,128,0,0.4234768587512132,1.4265422049967875,1.5130003825572516
1768728949196,128,0,0.7007669215785395,1.6624197117346284,1.7837796677544593
1768728949200,129,1,1.1831795943139938,2.2712084459287536,2.258465300220669
1768728949204,129,1,1.7713399243971872,2.6345307531593787,2.838303714433309
1768728949208,130,2,2.2632825121037703,3.2161588832713885,3.3225069062020256
1768728949212,130,2,2.450464589790525,3.7209575813407394,3.503332481892822
1768728949216,130,2,2.2456523740421086,3.2952878835123207,3.293394100965846
1768728949220,129,1,1.748405710292116,2.6322430240400174,2.791382175390738
1768728949224,129,1,1.1863192839556864,2.2267148624964244,2.223953025471844
1768728949228,128,0,0.7650025901188493,1.5862977485712486,1.7962353803361282
1768728949232,128,0,0.5367370970997569,1.3215746003450677,1.560605605608214
1768728949236,128,0,0.3877776332509467,1.6590303885883153,1.4038037085475483
1768728949240,128,0,0.1508639086122317,1.2477553609675045,1.15929896475133
1768728949244,127,-1,-0.2529065236651089,0.560098797900944,0.7489421809996855
1768728949248,127,-1,-0.7577315525513024,0.2299768266436688,0.2387192818067696
1768728949252,126,-2,-1.21459020699831,-0.38926966738777,-0.2231388179310203
1768728949256,126,-2,-1.5034336858109862,-0.6249277043365393,-0.5177385280594962
1768728949260,126,-2,-1.6032599022340344,-0.5269727410555589,-0.6243920071084017
1768728949264,126,-2,-1.5801126510817758,-0.6645261799881839,-0.6082265538708977
1768728949268,126,-2,-1.5227586433415716,-0.6250463164786462,-0.5569747198098809
1768728949272,126,-2,-1.484605817508172,-0.5394060340901006,-0.5243939698781763
1768728949276,126,-2,-1.4696179020681577,-0.541658143290193,-0.5161178414864813
1768728949280,126,-2,-1.4605929584280797,-0.6003267875217091,-0.5158916424459425
1768728949284,126,-2,-1.458262800890398,-0.6566058532030716,-0.5227478841371545
1768728949288,126,-2,-1.4900982946868062,-0.6479965365353895,-0.5605284687642293
1768728949292,126,-2,-1.568853875898264,-0.5851475427143176,-0.6398273545524131
1768728949296,126,-2,-1.6330623191906424,-0.4961938932619105,-0.7017210632369713
1768728949300,126,-2,-1.5443819472408302,-0.7018010279738398,-0.6148704813146098
1768728949304,126,-2,-1.1864571770271033,-0.5545840268616096,-0.26964237554103
1768728949308,127,-1,-0.5997594459115823,0.1680387774362648,0.293697367622848
1768728949312,127,-1,0.0098503550437845,0.5982286179197982,0.8794485492570856
1768728949316,128,0,0.5148852349554118,1.2550471793942215,1.3748492533759622
1768728949320,129,1,1.2923130326387424,2.556311685339971,2.164273509826315
1768728949324,132,4,3.5110053496017772,5.129764993072714,4.4083533310198275
1768728949328,137,9,8.854792182909762,10.44261238531436,9.77142687841054
1768728949332,145,17,18.50322396332417,18.3223096186051,19.416459713629756
1768728949336,157,29,31.797150515333296,30.458141706687428,32.681701362024455
1768728949340,173,45,45.56950755490566,46.41270126597702,46.41147294366904
1768728949344,184,56,54.99000794762493,57.155472455323306,55.79348349393548
1768728949348,184,56,55.78681033735349,57.41088684504928,56.572099317560784
1768728949352,175,47,46.58502448139202,48.21752860324953,47.37935456263713
1768728949356,157,29,29.84127378081458,30.49626524625971,30.66500301951649
1768728949360,137,9,10.72511524362247,10.319064597165791,11.580620412892848
1768728949364,121,-7,-5.3706667894547415,-5.704321000690442,-4.500260976091846
1768728949368,112,-16,-15.18035027620848,-14.703898101146004,-14.32167402367989
1768728949372,110,-18,-18.47936773836434,-16.63143268476714,-17.65415309686501
1768728949376,111,-17,-17.309681153660577,-15.711948219194362,-16.523170968602614
1768728949380,113,-15,-14.33599132831831,-13.53442132523529,-13.575153395634452
1768728949384,116,-12,-11.486232435149397,-10.90700168736374,-10.729089582711149
1768728949388,117,-11,-9.52128156554792,-9.549804161096112,-8.75120613282945
1768728949392,119,-9,-8.389175917213262,-7.813362486594739,-7.604140500775866
1768728949396,120,-8,-7.790687670002371,-6.56766593183137,-7.001354943150827
1768728949400,120,-8,-7.506849682740248,-6.730581354372288,-6.726362915483444
1768728949404,120,-8,-7.424091998785634,-6.739113775905688,-6.658733165058728
1768728949408,120,-8,-7.443044203155471,-6.746734101400719,-6.690652784250279
1768728949412,120,-8,-7.441242361130531,-6.653921926518709,-6.696130689800398
1768728949416,120,-8,-7.320939709902922,-6.738101953206977,-6.579071479403364
1768728949420,120,-8,-7.074382896966341,-6.627562046293317,-6.33498926974938
1768728949424,121,-7,-6.7870188120992925,-5.849782166457525,-6.051472383458801
1768728949428,121,-7,-6.558795217604831,-5.694851976462455,-5.8288684646073685
1768728949432,121,-7,-6.410074553949247,-5.712157732384205,-5.6866250278248955
1768728949436,121,-7,-6.267227944014539,-5.731886026275889,-5.549829872981924
1768728949440,121,-7,-6.04682803731604,-5.661955434871751,-5.334590051040818
1768728949444,122,-6,-5.751793620773334,-4.869869819572024,-5.044481377929138
1768728949448,122,-6,-5.480081773659537,-4.678021668191989,-4.778147805826993
1768728949452,122,-6,-5.339980485365156,-4.78469651206529,-4.6435812160825005
1768728949456,122,-6,-5.355356808170167,-4.6613574878578365,-4.663942242717825
1768728949460,122,-6,-5.441068355323435,-4.815033844729624,-4.754155930507152
1768728949464,122,-6,-5.461410467857728,-4.729907850162108,-4.779219205520625
1768728949468,122,-6,-5.3257914249327545,-4.8510090290524674,-4.648758997077103
1768728949472,122,-6,-5.053246674779071,-4.640538056979302,-4.381401807894935
1768728949476,123,-5,-4.7526940613240365,-3.820796151139875,-4.085960740915111
1768728949480,123,-5,-4.526946792788903,-3.735083921708687,-3.865605733893311
1768728949484,123,-5,-4.383773916867543,-3.813671527049448,-3.7279373222382777
1768728949488,123,-5,-4.24223089625986,-3.826748863748318,-3.591088581903149
1768728949492,123,-5,-4.027405478977073,-3.6601641908485503,-3.3797981845998497
1768728949496,124,-4,-3.75124677026265,-2.866049634504796,-3.1071617362224364
1768728949500,124,-4,-3.497679146514842,-2.703585656083413,-2.8585825484858827
1768728949504,124,-4,-3.3413298550546147,-2.9074808537782317,-2.708653954693011
1768728949508,124,-4,-3.2932593996663617,-2.742128323763939,-2.6668328980708114
1768728949512,124,-4,-3.316992949356376,-2.784755453367629,-2.695174561855195
1768728949516,124,-4,-3.3737082943751644,-2.7859258031259793,-2.754866228425916
1768728949520,124,-4,-3.438429538351913,-2.7947041867100504,-2.822234591806451
1768728949524,124,-4,-3.479737401377884,-2.889580722144671,-2.86731399781179
1768728949528,124,-4,-3.443987529316801,-2.746175280253595,-2.8369437714993575
1768728949532,124,-4,-3.2815034382969506,-2.854515558021257,-2.6805932473464233
1768728949536,124,-4,-3.0013942203742756,-2.7189835640063444,-2.4059470050502085
1768728949540,125,-3,-2.69406538316993,-1.9227795067653473,-2.1027016492835835
1768728949544,125,-3,-2.4764261499446123,-1.7745534719777396,-1.888242544419936
1768728949548,125,-3,-2.394155399857594,-1.911512837874965,-1.8091987434706
1768728949552,125,-3,-2.3738406140077233,-1.7024657374259655,-1.7926995951926736
1768728949556,125,-3,-2.2811404667847484,-1.9299061660533616,-1.7043534129854638
1768728949560,125,-3,-2.040745824612401,-1.738480168481848,-1.468589123807429
1768728949564,126,-2,-1.710025573227434,-0.9818790512154774,-1.1425978518816011
1768728949568,126,-2,-1.4355096597273025,-0.7541007462807054,-0.8726772383372978
1768728949572,126,-2,-1.328282670581253,-0.8550564255204569,-0.7694992015138835
1768728949576,126,-2,-1.367812921767196,-0.8698453524386878,-0.8123196541566258
1768728949580,126,-2,-1.4149140638126527,-0.7880896055706437,-0.8622992462188823
1768728949584,126,-2,-1.3208564517199672,-1.006696359189632,-0.7713150908028452
1768728949588,126,-2,-1.0455136228969428,-0.7227033880236653,-0.4996548443199851
1768728949592,127,-1,-0.6915256986233065,0.0788200420260394,-0.1501269275572085
1768728949596,127,-1,-0.4272754103324163,0.1305834260700265,0.1090627142476692
1768728949600,127,-1,-0.365195748937932,0.2168201719919436,0.1662848662427647
1768728949604,127,-1,-0.4986226676467697,-0.1069573222270925,0.0292475272492138
1768728949608,126,-2,-0.7372834514251556,-0.5821988984457716,-0.2116436637712304
1768728949612,127,-1,-0.9862457441184298,-0.1566054239107317,-0.4626401547151264
1768728949616,126,-2,-1.190776079224818,-0.6164277029969107,-0.6702596265218617
1768728949620,126,-2,-1.3303968894197489,-1.1142577582216329,-0.813980963152666
1768728949624,126,-2,-1.3995643211649322,-0.788472816050084,-0.887293249466897
1768728949628,126,-2,-1.4028075347611646,-0.9237687505899213,-0.8941688123557672
1768728949632,126,-2,-1.3603689712317548,-0.8854443377618146,-0.8550538376163406
1768728949636,126,-2,-1.313004455137435,-0.8521874959424718,-0.8110181502364946
1768728949640,126,-2,-1.3183192464286069,-1.01008042813325,-0.8197473683302472
1768728949644,126,-2,-1.4304865495115675,-0.8263436178831798,-0.9353936595052654
1768728949648,126,-2,-1.6670598871237654,-1.0130307016759668,-1.1752920743450963
1768728949652,125,-3,-1.9892775180424525,-1.7437838426991443,-1.500227544983309
1768728949656,125,-3,-2.3184293401757734,-2.093321798647334,-1.8314841791845793
1768728949660,125,-3,-2.574225349935956,-1.7641689654315351,-2.089656783584011
1768728949664,125,-3,-2.7045742962544423,-2.1310233241923884,-2.223413531682159
1768728949668,124,-4,-2.701072328540296,-2.725456933778984,-2.223852367211035
1768728949672,125,-3,-2.605885950251709,-2.0591844000648503,-2.1321169634427166
1768728949676,125,-3,-2.4940427738879674,-1.8235565075827456,-2.0231529523554297
1768728949680,125,-3,-2.421881435475925,-2.070376361441553,-1.9539703830763715
1768728949684,125,-3,-2.3797577990953607,-1.851508635550439,-1.9149964296954884
1768728949688,125,-3,-2.298088988523368,-2.043041478000428,-1.8358866612781368
1768728949692,125,-3,-2.1011543207073475,-1.7682462940958477,-1.6405619772857478
1768728949696,126,-2,-1.753386277931234,-1.1506308739885034,-1.294335446956906
1768728949700,126,-2,-1.2609273425340073,-0.7884292763282601,-0.8045877854925627
1768728949704,127,-1,-0.6499938639799063,-0.1446751233997534,-0.1975794764504765
1768728949708,127,-1,0.0344026192677007,0.195795465452528,0.4829451037570429
1768728949712,128,0,0.7093112600513123,0.9816768956951069,1.1550494618954184
1768728949716,129,1,1.2606014267089225,2.033831763113755,1.7042649021856016
1768728949720,129,1,1.598205223517435,2.026928354188886,2.0396530281871597
1768728949724,129,1,1.7147530007895495,1.971174412524979,2.1537456763523637
1768728949728,129,1,1.686844192216364,2.090816626108522,2.123657192983883
1768728949732,129,1,1.6180523181629092,2.001393025368422,2.05302892822241
1768728949736,129,1,1.5777768386401545,2.019340209712337,2.0106920915611246
1768728949740,129,1,1.5802713139253786,1.9876835368365715,2.0104953530553136
1768728949744,129,1,1.6034667282706767,1.9929636121263952,2.0306378378651213
1768728949748,129,1,1.6205532922112809,2.035721837538563,2.0448995593155215
1768728949752,129,1,1.6204929423900531,2.0049341442689745,2.042555523212739
1768728949756,129,1,1.6095773072248938,1.9945114640972808,2.0297593037715775
1768728949760,129,1,1.600062809154429,1.9738832814733325,2.0184221717475572
1768728949764,129,1,1.5982067530771251,1.9847488646376088,2.0145396672758884
1768728949768,129,1,1.6011690629398254,2.0063835031759796,2.0152179365071845
1768728949772,129,1,1.6028598318547689,1.9924882955122136,2.014500262464577
1768728949776,129,1,1.6009005836512304,1.9757533003404155,2.0102199643092953
1768728949780,129,1,1.59764440825276,1.961545780758212,2.004865931160513
1768728949784,129,1,1.5959072221350716,1.9707576207915205,2.0012091083618073
1768728949788,129,1,1.59554627262821,1.983707080243661,1.9989324250507292
1768728949792,129,1,1.594573292173712,1.9754201841564496,1.995918235784764
1768728949796,129,1,1.5922972675067728,1.9591219472681036,1.9915094660977513
1768728949800,129,1,1.5900578065282216,1.9493041033544325,1.9871822094013512
1768728949804,129,1,1.5890391767108654,1.9550600168041212,1.9842035602239705
1768728949808,129,1,1.5885528332946743,1.9633269751389768,1.9818445538842575
1768728949812,129,1,1.5870882022855002,1.95682607832324,1.978503336485476
1768728949816,129,1,1.5844762197388504,1.943176908879992,1.973967221599179
1768728949820,129,1,1.5821775763102153,1.937271396784526,1.9697131040225144
1768728949824,129,1,1.581378418571422,1.938364069889322,1.966957575904316
1768728949828,129,1,1.5813730152560208,1.944308819768696,1.9650277730358432
1768728949832,129,1,1.580191727417492,1.9374848135917713,1.9620104096509037
1768728949836,129,1,1.5767425489863525,1.927200558420347,1.9568609174074147
1768728949840,129,1,1.5722627850554078,1.9263366698684337,1.950757975302996
1768728949844,129,1,1.569731679928038,1.9195898736105723,1.9464866522859283
1768728949848,129,1,1.5714832502808846,1.9277992899599792,1.946207245905656
1768728949852,129,1,1.5763510502529134,1.9166120617615796,1.9488407077615095
1768728949856,129,1,1.5785741910324556,1.9107679094153325,1.949017026002617
1768728949860,129,1,1.5710274215520217,1.918868101722473,1.9399903059061665
1768728949864,129,1,1.5529643164228448,1.8944307202263424,1.9209391894799437
1768728949868,129,1,1.5367235501381349,1.919040413176949,1.9035925090003083
1768728949872,129,1,1.543491149488723,1.890477515918854,1.9085073094684184
1768728949876,129,1,1.5831973497874694,1.8919437476894083,1.9456450357000588
1768728949880,129,1,1.6298260872418648,1.9277924632093084,1.9897264066717115
1768728949884,129,1,1.6184666160394483,1.833166647622064,1.9765054050264044
1768728949888,129,1,1.4827810384360929,1.970630619350994,1.8395532205645893
1768728949892,129,1,1.2140256301740475,1.7773340956463608,1.5696096674013953
1768728949896,128,0,0.887388825860364,0.9876524312466,1.2416904509829796
1768728949900,128,0,0.6191657084671531,0.7927347551862929,0.972198035623386
1768728949904,128,0,0.4862174044067487,0.941906519484152,0.8377408752371904
1768728949908,128,0,0.4800434746810325,0.833829997741701,0.8293652664441762
1768728949912,128,0,0.5301108397926809,0.8677948718779231,0.8767616180445019
1768728949916,128,0,0.5645546293512002,0.882761710286903,0.9090377830028268
1768728949920,128,0,0.5555682918637852,0.8382764926072932,0.8990091694932523
1768728949924,128,0,0.5246118477664219,0.8906614754840767,0.8675704408753737
1768728949928,128,0,0.5144185458655228,0.8338489395156521,0.856274595803038
1768728949932,128,0,0.5480941466822831,0.8423724840268862,0.887747497705357
1768728949936,128,0,0.5988642433760336,0.8812262652142469,0.9358999087003506
1768728949940,128,0,0.5938496404011864,0.7868690607912052,0.9287865394507664
1768728949944,128,0,0.4608437799864092,0.9367225138863772,0.7943297550834005
1768728949948,128,0,0.1913761768381791,0.729995087838522,0.5235671670327404
1768728949952,127,-1,-0.1358855149070169,-0.0662477557200307,0.1949725236655517
1768728949956,127,-1,-0.4035406705311539,-0.258354441312639,-0.0738577172987291
1768728949960,127,-1,-0.5377674153656662,-0.1031052633701063,-0.2092415070747404
1768728949964,127,-1,-0.5496445978226281,-0.1984388715215344,-0.222810796069456
1768728949968,127,-1,-0.5056490566510017,-0.1734859517957261,-0.1812016996327581
1768728949972,127,-1,-0.4677896932085698,-0.1766438676630595,-0.1458323413682647
1768728949976,127,-1,-0.4590752097671081,-0.2129885750112792,-0.1390303251588802
1768728949980,127,-1,-0.4702350093657774,-0.1586272595427584,-0.1514587707120069
1768728949984,127,-1,-0.4849174673690837,-0.1929098568461063,-0.1672023970398304
1768728949988,127,-1,-0.4959976658844348,-0.1909898342236209,-0.1794961542723281
1768728949992,127,-1,-0.5044098277309266,-0.1954146485264378,-0.1893329642194365
1768728949996,127,-1,-0.5095378305811994,-0.2383958326037496,-0.1961189606493509
1768728950000,127,-1,-0.5045885805622743,-0.1636657247504707,-0.1932057620877185
1768728950004,127,-1,-0.4838046091376676,-0.2160663139834793,-0.1747920403330143
1768728950008,127,-1,-0.4568979968653097,-0.2043139499892836,-0.1500693206038938
1768728950012,127,-1,-0.4553645125829716,-0.188473672928219,-0.1499605464900204
1768728950016,127,-1,-0.5148351902251361,-0.3258207948241538,-0.2102817453623355
1768728950020,127,-1,-0.6373933207636672,-0.0647296243619872,-0.3340237499163807
1768728950024,127,-1,-0.7686511218998549,-0.3891397814110311,-0.4672875110200909
1768728950028,126,-2,-0.8271582460418271,-1.0184808138087864,-0.5280274964096932
1768728950032,127,-1,-0.7725908560800306,-0.4336037540037676,-0.4751463437393504
1768728950036,127,-1,-0.6445633609038146,-0.1075440493635522,-0.3483840833377583
1768728950040,127,-1,-0.5268579838401986,-0.3178392446909202,-0.2321940680215068
1768728950044,127,-1,-0.4747138221024926,-0.1703743866906828,-0.1820655407039173
1768728950048,127,-1,-0.4796728813139391,-0.2447675035151073,-0.1892615219344935
1768728950052,127,-1,-0.4981306705874664,-0.281325148113615,-0.2098514450736517
1768728950056,127,-1,-0.5043536704153064,-0.2507289023818302,-0.2178933594855316
1768728950060,127,-1,-0.5127515830398769,-0.2580309458206415,-0.2276506786471781
1768728950064,127,-1,-0.5490424630165741,-0.2012650105343665,-0.264923914535824
1768728950068,127,-1,-0.5997538025414945,-0.2894526746224075,-0.3166854401620385
1768728950072,127,-1,-0.5948492835733082,-0.2409972881177888,-0.3133792491959655
1768728950076,127,-1,-0.4545491393598437,-0.3523348474276444,-0.1753071344662622
1768728950080,127,-1,-0.169158815409534,-0.1735294852137201,0.1074468758636442
1768728950084,128,0,0.1657264340045867,0.6838953020907654,0.4394961960500083
1768728950088,128,0,0.4080175823254811,0.8061180761708302,0.6791447895762914
1768728950092,128,0,0.4818199357074492,0.6092791964070221,0.7513144822061815
1768728950096,128,0,0.4468875990873615,0.7800842632295999,0.7162776734426588
1768728950100,128,0,0.4654873765749376,0.6287112119885707,0.735451654025006
1768728950104,128,0,0.6929867316663233,0.8925480944260347,0.9622720721673595
1768728950108,129,1,1.16859729712129,1.5437196089812375,1.4347379683371613
1768728950112,129,1,1.772793815328804,1.8652913221793903,2.034218262590354
1768728950116,130,2,2.2764531085439037,2.455325724138888,2.533879760891302
1768728950120,130,2,2.460800674718252,2.9426218116019074,2.716517313227299
1768728950124,130,2,2.245250953844981,2.52962400460176,2.50110893356496
1768728950128,129,1,1.7402687827951857,1.898328966168772,1.9963460168121396
1768728950132,129,1,1.1778364632468885,1.4668413855232525,1.4327935641418534
1768728950136,128,0,0.7582665125017889,0.8112425669090815,1.0107703235130074
1768728950140,128,0,0.5231728142577512,0.5616530171125635,0.7728995127431593
1768728950144,128,0,0.3533038858420041,0.8832283751958299,0.6006882161708083
1768728950148,128,0,0.0923656822024667,0.5278676918161969,0.3377570889674519
1768728950152,127,-1,-0.3119092785207242,-0.2054481144024134,-0.0685578786763163
1768728950156,127,-1,-0.7749065304473328,-0.5598353050957767,-0.533686246885579
1768728950160,126,-2,-1.172000469536472,-1.106960084019235,-0.9327238983566396
1768728950164,126,-2,-1.4618455799629473,-1.4616881680361065,-1.2241774213403516
1768728950168,126,-2,-1.7115723176640518,-1.156936684883882,-1.475321173575702
1768728950172,126,-2,-2.001815862295704,-1.5287658918749658,-1.7668983709502744
1768728950176,125,-3,-2.314232345179412,-2.3297957743121356,-2.08051137661012
1768728950180,125,-3,-2.523027221503517,-2.3141841226388964,-2.290708054246263
1768728950184,125,-3,-2.5041916975004734,-2.3493166313184286,-2.2744904378394857
1768728950188,125,-3,-2.25751820792435,-2.215759002606434,-2.0322259231452984
1768728950192,126,-2,-1.924670645734477,-1.55038408183455,-1.704152190700376
1768728950196,126,-2,-1.6809511795964298,-1.3285679157313377,-1.4622998050966656
1768728950200,126,-2,-1.5891769388319317,-1.3557402615134038,-1.367145861922782
1768728950204,126,-2,-1.5403313106406389,-1.3666982179493457,-1.3118262217270489
1768728950208,126,-2,-1.3384900828584128,-1.1598305488938112,-1.1075735482433862
1768728950212,127,-1,-0.8708741296127502,-0.7040900379891122,-0.648756190384125
1768728950216,127,-1,-0.2246679127707301,-0.1453570936125059,-0.0219657361193785
1768728950220,128,0,0.3818965218159796,0.3654530936799851,0.5658468407631765
1768728950224,128,0,0.8943098202456463,0.9105150206838152,1.0751125036061553
1768728950228,130,2,1.8171321578871995,2.5540223414820717,2.0162176118677024
1768728950232,133,5,4.398629027153492,5.506581996480934,4.627232031746479
1768728950236,138,10,10.240546399999534,10.686701707207924,10.490056856979908
1768728950240,147,19,20.24490340309173,19.40976595984511,20.49154479448455
1768728950244,159,31,33.39130357019705,31.942547847975217,33.61069300042314
1768728950248,174,46,46.28954722977387,46.424085008127754,46.47033098561757
1768728950252,183,55,54.20910200955282,55.666555531598,54.358460224123434
1768728950256,182,54,53.30584553668754,54.418811338394406,53.44572624819531
1768728950260,171,43,42.77199226050351,43.594492120958925,42.92830704028489
1768728950264,153,25,25.5023381861722,25.682310548328296,25.692035537463187
1768728950268,133,5,6.776370196103898,5.641575131816227,6.99910215453562
1768728950272,118,-10,-8.259734167579627,-9.492969235719888,-8.02112595539851
1768728950276,111,-17,-16.787610569096373,-16.381113648006597,-16.5585073157179
1768728950280,110,-18,-18.9839609541592,-17.610052862888985,-18.7850627910801
1768728950284,111,-17,-17.070657814322473,-16.132879535992526,-16.906536290981784
1768728950288,114,-14,-13.681485144066794,-13.632167231594508,-13.537925637754688
1768728950292,116,-12,-10.651724954833416,-11.250599434362131,-10.505502337969183
1768728950296,119,-9,-8.705674524040884,-8.677106432668651,-8.540508518672015
1768728950300,120,-8,-7.788148656460145,-7.338940579589763,-7.60415698872658
1768728950304,120,-8,-7.535989514089719,-7.434092302454619,-7.345732399499445
1768728950308,120,-8,-7.585389847007254,-7.385540817341772,-7.402001516117243
1768728950312,120,-8,-7.684899633189991,-7.509135697476632,-7.513305703726459
1768728950316,120,-8,-7.700162728156504,-7.478501571198652,-7.536862757489992
1768728950320,120,-8,-7.583989127799244,-7.506473317785234,-7.422653283290114
1768728950324,120,-8,-7.343116997463552,-7.344845057012464,-7.180154842298675
1768728950328,121,-7,-7.0084089661514035,-6.46689641572267,-6.844623294734382
1768728950332,121,-7,-6.616444470286559,-6.511074357284896,-6.454645871579119
1768728950336,121,-7,-6.213905410686774,-6.474280512227591,-6.055565756330363
1768728950340,122,-6,-5.870805899309317,-5.543275810515443,-5.715068251897487
1768728950344,122,-6,-5.662882232628255,-5.334899030916048,-5.50814840972726
1768728950348,122,-6,-5.615218596646114,-5.51178613487395,-5.4609061624267214
1768728950352,122,-6,-5.660865526695927,-5.5161557596524675,-5.507628804220361
1768728950356,122,-6,-5.671101427379515,-5.483861465310054,-5.519858638434458
1768728950360,122,-6,-5.5459681236946885,-5.571216943688552,-5.39695032532037
1768728950364,122,-6,-5.2900029442459875,-5.3129074948657085,-5.142746029762558
1768728950368,123,-5,-5.0019742859281,-4.58640373476222,-4.856142272226217
1768728950372,123,-5,-4.7812869741883715,-4.472696368859831,-4.637140881655048
1768728950376,123,-5,-4.637487803480644,-4.555041235339596,-4.495283348650622
1768728950380,123,-5,-4.493301644018923,-4.537068564950414,-4.352610193254294
1768728950384,123,-5,-4.276002427131104,-4.352158822922438,-4.136197749554439
1768728950388,124,-4,-3.9981943313542554,-3.612977968979855,-3.8594692556806702
1768728950392,124,-4,-3.7468010338234374,-3.446010134575209,-3.610043502684996
1768728950396,124,-4,-3.6029138299651287,-3.640956071019686,-3.4684582380582674
1768728950400,124,-4,-3.5789101503282086,-3.4555500875797547,-3.446014536457407
1768728950404,124,-4,-3.6223019928577185,-3.474925493914349,-3.4901728144692363
1768728950408,124,-4,-3.6647713462663942,-3.5342836232749386,-3.5336389407465867
1768728950412,124,-4,-3.669571237420073,-3.531151182255312,-3.5402863267936473
1768728950416,124,-4,-3.648665152595064,-3.6100526152774166,-3.5214420416995713
1768728950420,124,-4,-3.643397720365206,-3.4911300645142953,-3.517476527488228
1768728950424,124,-4,-3.679860092229832,-3.482416725835875,-3.554553026068348
1768728950428,124,-4,-3.72974185521466,-3.5695731628717957,-3.605436085998537
1768728950432,124,-4,-3.71556807586242,-3.502881996554497,-3.593256726991482
1768728950436,124,-4,-3.5709305383631977,-3.693547553326226,-3.4508221385871773
1768728950440,124,-4,-3.3093389236357407,-3.4115659942243393,-3.1904880736123125
1768728950444,125,-3,-3.0269567478461976,-2.6054701645864244,-2.908527337976837
1768728950448,125,-3,-2.818538492361981,-2.484795817940554,-2.700918112662692
1768728950452,125,-3,-2.6851768727933085,-2.5954671560710603,-2.569331049665882
1768728950456,125,-3,-2.537923044229575,-2.6630666846054476,-2.4240077064341516
1768728950460,125,-3,-2.3013268110735696,-2.437871952811874,-2.1886170980120703
1768728950464,126,-2,-2.0051272456012175,-1.6462993524857912,-1.893205814734337
1768728950468,126,-2,-1.7632008473165313,-1.439797249296455,-1.6524990427876602
1768728950472,126,-2,-1.6637563902942376,-1.6851462479742847,-1.554763018687865
1768728950476,126,-2,-1.6841474944945587,-1.6050707716370178,-1.5766499461980166
1768728950480,126,-2,-1.7069524147272177,-1.5179214983471343,-1.6003052788687135
1768728950484,126,-2,-1.6139579062718006,-1.6313497935557209,-1.5077365808661098
1768728950488,126,-2,-1.3754521368810182,-1.4296298466643549,-1.2697430350444736
1768728950492,127,-1,-1.0655510991451655,-0.7652131352369427,-0.9609529359719522
1768728950496,127,-1,-0.7970863467713294,-0.5216141053688181,-0.6944545261317021
1768728950500,127,-1,-0.6378195792437502,-0.6607386775421111,-0.5376010059182961
1768728950504,127,-1,-0.5832491688486008,-0.5246492393024651,-0.4848722170819797
1768728950508,127,-1,-0.5996403601900901,-0.5343230212408487,-0.5017638550652683
1768728950512,127,-1,-0.6782894971020135,-0.7277577066550198,-0.5799477072604282
1768728950516,127,-1,-0.8376132158293259,-0.5373013200120607,-0.739220778248951
1768728950520,127,-1,-1.075593397965509,-0.7301332712504482,-0.9786107937433628
1768728950524,126,-2,-1.338280384805265,-1.4563088860014073,-1.243666827662684
1768728950528,126,-2,-1.555627820478071,-1.6400505971639254,-1.4628399359788515
1768728950532,126,-2,-1.711773862435974,-1.6547010231832568,-1.619613628574526
1768728950536,126,-2,-1.864221071931229,-1.615546619306118,-1.7724083102621289
1768728950540,126,-2,-2.080357819810341,-1.7175296806140952,-1.9896820649572808
1768728950544,125,-3,-2.358740158077988,-2.4655203349395625,-2.2696790015442305
1768728950548,125,-3,-2.6215633984981204,-2.6986691401359972,-2.5334244832319563
1768728950552,125,-3,-2.782346788843608,-2.5894318872472017,-2.6941494147604175
1768728950556,125,-3,-2.815007344511633,-2.7333446218414448,-2.726849001551799
1768728950560,125,-3,-2.763531215065915,-2.6142240066464977,-2.676662720491242
1768728950564,125,-3,-2.700005535851009,-2.596726128222621,-2.6156041742126055
1768728950568,125,-3,-2.677867671472841,-2.6241767414207233,-2.5958957103659785
1768728950572,125,-3,-2.711278516969256,-2.6559222606748127,-2.630478846106751
1768728950576,125,-3,-2.776756592224239,-2.740492306517861,-2.6956732785669577
1768728950580,125,-3,-2.8194030125048233,-2.584685346232947,-2.7375070674841555
1768728950584,125,-3,-2.7604484103966564,-2.7013413168726848,-2.678482140106678
1768728950588,125,-3,-2.5197840596764154,-2.51786960888647,-2.4391247998297816
1768728950592,126,-2,-2.058968749353986,-1.816200079493035,-1.980553366007071
1768728950596,126,-2,-1.4218161956849058,-1.5898690594449576,-1.3455188026571792
1768728950600,127,-1,-0.7326199050943347,-0.7714601999215529,-0.6576216309857732
1768728950604,128,0,-0.1331756580800949,0.4587759577995167,-0.0587931455348762
1768728950608,128,0,0.3047877491707029,0.2923626679940345,0.3788240223068766
1768728950612,128,0,0.6179847133555785,0.322887137702625,0.6917488765779551
1768728950616,129,1,0.9048945559490488,1.2770569520830386,0.9782200832687438
1768728950620,129,1,1.238078166348273,1.290523226172482,1.3104279918717157
1768728950624,129,1,1.6094983824822355,1.4147225249835746,1.6803480339931212
1768728950628,130,2,1.9444210549686356,2.2714016122663563,2.01375848380095
1768728950632,130,2,2.165753423248552,2.3347004787939327,2.234033793489121
1768728950636,130,2,2.256181144944894,2.2177998521406175,2.323877052429286
1768728950640,130,2,2.266869350472698,2.337981848538388,2.3340782094841894
1768728950644,130,2,2.266730922067942,2.323051429405679,2.3331230386324937
1768728950648,130,2,2.2785963592077696,2.3501626548366636,2.3437672114652264
1768728950652,130,2,2.258084972629992,2.2117753826699476,2.3219295778085924
1768728950656,130,2,2.1347063342819705,2.320731558137182,2.1973660762118112
1768728950660,130,2,1.8835983947899495,2.203637135338252,1.9452283427202444
1768728950664,129,1,1.5651497921916249,1.427534334188901,1.6259665556002734
1768728950668,129,1,1.291395127570817,1.2180085569716956,1.3517250241094754
1768728950672,129,1,1.1460827632035913,1.3101591975143485,1.206001699449483
1768728950676,129,1,1.1310146159459828,1.1987191685058711,1.190033228565844
1768728950680,129,1,1.1813740813726317,1.2955219309291817,1.2387697757249652
1768728950684,129,1,1.2252281771846567,1.319632546935388,1.2807087708966596
1768728950688,129,1,1.2311534712851824,1.272496689242478,1.2851066863543728
1768728950692,129,1,1.2116839947060378,1.2465621890837002,1.2648268736163937
1768728950696,129,1,1.193394648095739,1.2101437428523392,1.2462168931391453
1768728950700,129,1,1.1880376468403808,1.2824262245701217,1.2404736397633953
1768728950704,129,1,1.1890260898971563,1.29249918121562,1.2405378098534388
1768728950708,129,1,1.1880130993176024,1.2701099020258182,1.2379847316045018
1768728950712,129,1,1.1873902568879604,1.2202689764974115,1.235534596440147
1768728950716,129,1,1.1939923079512396,1.1978976458479074,1.2404878259499983
1768728950720,129,1,1.2041457423317992,1.2842874997626184,1.2494646429751026
1768728950724,129,1,1.2014731028211407,1.2557039724358532,1.2460658729822025
1768728950728,129,1,1.1744460615522103,1.2735492959669212,1.2184460177871053
1768728950732,129,1,1.1372915552291776,1.197847863197671,1.1803742276099922
1768728950736,129,1,1.1302011965624614,1.1616654086747804,1.171789266530988
1768728950740,129,1,1.1904352925588615,1.3412196531667178,1.2302340254811814
1768728950744,129,1,1.3130769958319852,1.1226532567408265,1.351370958650986
1768728950748,129,1,1.4384285975219095,1.4235724472360136,1.4756072134531446
1768728950752,130,2,1.4894297163349042,1.9753524252827184,1.5253241673505509
1768728950756,129,1,1.4338085201951574,1.3810524363507088,1.467923532256398
1768728950760,129,1,1.3101790773644482,1.0879761296712251,1.3425373699216694
1768728950764,129,1,1.19076318095553,1.3442427815076687,1.222023160231508
1768728950768,129,1,1.123099062649347,1.1856177169756767,1.1537660816481727
1768728950772,129,1,1.1087345319649158,1.1551469907290826,1.1385891881837829
1768728950776,129,1,1.1260499454709307,1.2160123742267346,1.1543555707724051
1768728950780,129,1,1.1594910382055084,1.184987012212931,1.1855430462190886
1768728950784,129,1,1.2024861619856824,1.2536405070998655,1.2260701520704531
1768728950788,129,1,1.2357828191588462,1.2199282556153523,1.2573444179413071
1768728950792,129,1,1.2117589017729842,1.0981679294975342,1.2320377017043094
1768728950796,129,1,1.0751944283574328,1.258311248975236,1.0944901708186787
1768728950800,129,1,0.8147457262425575,1.0985514833241337,0.8326757597113801
1768728950804,128,0,0.4954126057888829,0.3302798488740741,0.511551639862573
1768728950808,128,0,0.2270465319653687,0.0925935896952583,0.2415107249956296
1768728950812,128,0,0.0883249040721442,0.2063917811787678,0.1014011582659644
1768728950816,128,0,0.0765144987709903,0.1258797401232985,0.0879544051112435
1768728950820,128,0,0.1257868330439012,0.2030379960991433,0.1348862735199407
1768728950824,128,0,0.167237795353962,0.2125302506983359,0.1736136658947615
1768728950828,128,0,0.1730348406212821,0.1487668290646997,0.1770897332402956
1768728950832,128,0,0.155732542358441,0.1454539541689037,0.1582852031247998
1768728950836,128,0,0.1389139933593156,0.1385300792904016,0.140423856085694
1768728950840,128,0,0.13328300245559,0.1918809701809727,0.1334288963354657
1768728950844,128,0,0.1355568631619516,0.1825404684111338,0.1335232255759573
1768728950848,128,0,0.1402882892711727,0.1457520410863706,0.135454167507667
1768728950852,128,0,0.1458000091544829,0.1188408514911345,0.1381961237806646
1768728950856,128,0,0.1496563525377815,0.1347577925062455,0.1398228406657193
1768728950860,128,0,0.1453717394366483,0.1867830595373218,0.1338260857722137
1768728950864,128,0,0.1297305088052718,0.1509546042074596,0.1165623270432423
1768728950868,128,0,0.1132737219982498,0.1447599033647741,0.0981716077990224
1768728950872,128,0,0.1174038358169108,0.0904186061945115,0.0999891195825495
1768728950876,128,0,0.1530021394397238,0.126801455907668,0.1331056741892764
1768728950880,128,0,0.1966609309899915,0.199771108423258,0.1742582119971438
1768728950884,128,0,0.1898761499257374,0.0804003063184719,0.1647561344464314
1768728950888,128,0,0.0718339211957388,0.210140660110341,0.043534733445802
1768728950892,128,0,-0.174203472632982,-0.0333020567865154,-0.2057669527352019
1768728950896,127,-1,-0.4994579942237409,-0.7610464942983892,-0.5333213128222556
1768728950900,127,-1,-0.8111633607821072,-0.9274662341205682,-0.8458808746090147
1768728950904,127,-1,-1.0128493151627105,-0.8397647304873579,-1.048136299322315
1768728950908,127,-1,-1.031923272144387,-0.8705952645582,-1.069331875086844
1768728950912,127,-1,-0.839736583353489,-1.0213399790890805,-0.8812597079814153
1768728950916,127,-1,-0.4821438566504386,-0.7586185511412178,-0.5283979489304294
1768728950920,128,0,-0.0961727854843232,0.0187263112354028,-0.1462527881743711
1768728950924,128,0,0.136921483437444,0.1970744263925228,0.0841710642917616
1768728950928,128,0,0.0986978432076686,0.0737624141697343,0.0437800302923174
1768728950932,128,0,-0.1787892598460885,-0.0378358337698219,-0.235771040823586
1768728950936,127,-1,-0.5261458981371001,-0.703243921321671,-0.5849441596837712
1768728950940,127,-1,-0.748710160573223,-1.1477141272988225,-0.8092155577745905
1768728950944,127,-1,-0.7474822074647453,-0.5644830761918334,-0.8105388041773804
1768728950948,128,0,-0.5558070852645971,-0.2778516632419121,-0.6230284436658753
1768728950952,127,-1,-0.2845805939321344,-0.649472969072677,-0.3568185899027121
1768728950956,128,0,-0.0438696029199863,-0.1544379436508802,-0.1202261799413411
1768728950960,128,0,0.1036339860556458,0.2740625158591148,0.0248463178273903
1768728950964,128,0,0.1532610446087691,0.0146824422816576,0.0728546526024711
1768728950968,128,0,0.1446331871947493,0.0701329512326123,0.0620666446258377
1768728950972,128,0,0.1290653221171025,0.041802785275482,0.0432255025470436
1768728950976,128,0,0.1338526193984759,0.0461314481853487,0.0439957150230529
1768728950980,128,0,0.1489246715347996,0.1252192836926187,0.0550905198711841
1768728950984,128,0,0.1458151737950865,0.0645679149944755,0.0486379264373248
1768728950988,128,0,0.1123836382612023,0.060725860416162,0.0124592880319038
1768728950992,128,0,0.0752258066740884,-0.0240380465191636,-0.0275120222539566
1768728950996,128,0,0.0912765787951407,0.1081409953851153,-0.0149896436181409
1768728951000,128,0,0.2117615562717217,0.0254774955066845,0.1013375209192579
1768728951004,128,0,0.4447905382578779,0.1357799878464449,0.3303451972386275
1768728951008,129,1,0.7511378605008183,0.9832282325940236,0.6334841543129928
1768728951012,129,1,1.082269083264137,1.006700086402946,0.9621835709190788
1768728951016,129,1,1.424996094331357,1.061143927805555,1.3024753022993476
1768728951020,130,2,1.803931642027913,2.0349978481037567,1.6779931847585772
1768728951024,130,2,2.230145131314345,2.101782041428919,2.0995364119730855
1768728951028,130,2,2.6361184180988184,2.0013861678298186,2.50034819427014
1768728951032,131,3,2.8643888506416975,2.9500591198202457,2.7239172355056733
1768728951036,131,3,2.750378364239721,3.1075007070569542,2.6060597800338368
1768728951040,130,2,2.2526964268283125,1.9267261845118304,2.1055061439582543
1768728951044,129,1,1.5163231301244018,1.2220018418756973,1.367192062648598
1768728951048,129,1,0.801485479099367,0.8240498925889645,0.6505194017487756
1768728951052,128,0,0.3296553950551866,0.1155835950762735,0.1755352359470845
1768728951056,128,0,0.1584208989486761,-0.0709132345416323,-0.0008247784309634
1768728951060,128,0,0.1628649981969839,0.0460492683735651,-0.0025790742588238
1768728951064,128,0,0.1280203276788584,0.131580737438286,-0.0430251172525144
1768728951068,128,0,-0.1097223061775078,-0.1825325880386952,-0.2846691662082699
1768728951072,127,-1,-0.564960030586926,-0.8367833727582816,-0.742310261077296
1768728951076,127,-1,-1.1100234042597033,-1.2108806569921955,-1.2895472070242566
1768728951080,126,-2,-1.5706708942526413,-1.7871675034003085,-1.753401235437318
1768728951084,126,-2,-1.836997398142509,-2.092483880258749,-2.02410430066741
1768728951088,126,-2,-1.9157555731639269,-1.968590998177392,-2.1073905951008247
1768728951092,126,-2,-1.8981689712195364,-2.071802856453032,-2.0936018231303297
1768728951096,126,-2,-1.8762610694367496,-2.026263748134308,-2.075327186604944
1768728951100,126,-2,-1.8731937002466632,-1.9660448285645349,-2.0773101652200765
1768728951104,126,-2,-1.839663477174776,-1.9745031374852244,-2.0505467511320288
1768728951108,126,-2,-1.7168948973195062,-2.084521553600692,-1.93365553672496
1768728951112,126,-2,-1.5070261331631898,-1.993386825784067,-1.725142495518022
1768728951116,127,-1,-1.2735261347818083,-1.14194732073087,-1.4882337347758685
1768728951120,127,-1,-1.0593303825215683,-0.840466621142828,-1.2712374510580604
1768728951124,127,-1,-0.8144157943929292,-1.1804322276297057,-1.031840162391911
1768728951128,127,-1,-0.4356959260401678,-0.8367761007876799,-0.6700970367638064
1768728951132,128,0,0.1160292244057609,-0.3443441105689326,-0.1404364307343315
1768728951136,128,0,0.8060387081785076,0.2479610892776333,0.5360136108646718
1768728951140,130,2,1.7667347823803647,1.702232708261738,1.5024827711886362
1768728951144,132,4,3.671307704663337,4.286659521326232,3.4298490920453735
1768728951148,137,9,7.830222697244635,8.662878154450189,7.612693320317931
1768728951152,143,15,15.596153751082586,15.109685836994055,15.385574337586062
1768728951156,153,25,27.13996453225524,24.82397182323949,26.91177647819639
1768728951160,167,39,40.37875177940408,39.02714287376449,40.11488094671556
1768728951164,180,52,51.1115487971306,52.067408581719086,50.80923988475187
1768728951168,184,56,54.742247107818216,55.69404304478432,54.41546571886744
1768728951172,177,49,48.73301783000025,49.16798702670627,48.40674863471767
1768728951176,163,35,34.20718337901434,34.51277561787651,33.905528864471414
1768728951180,142,14,15.58650055710897,14.415654027090138,15.319587889773624
1768728951184,125,-3,-1.5545868454065117,-3.4164989112529955,-1.7967849378855263
1768728951188,114,-14,-13.087579236930736,-13.67337994983287,-13.329980411974477
1768728951192,111,-17,-17.85222927564725,-17.46577274953228,-18.120633167118957
1768728951196,111,-17,-17.40725582624253,-16.87121905195676,-17.71376184797712
1768728951200,114,-14,-14.508988309038244,-14.228813548425324,-14.84591471944157
1768728951204,116,-12,-11.482044868593087,-11.895237891603784,-11.828285252017391
1768728951208,118,-10,-9.40991953436358,-10.144686626131104,-9.745040955141867
1768728951212,119,-9,-8.300821876118416,-9.08600443823526,-8.617073737882023
1768728951216,120,-8,-7.735983576510333,-8.22803056512976,-8.04073678242982
1768728951220,121,-7,-7.390748149938318,-6.955553549942339,-7.698883925575184
1768728951224,121,-7,-7.1622601737654925,-7.167387841785172,-7.484694334619823
1768728951228,120,-8,-7.0431062250506375,-7.906644428204398,-7.380204058175035
1768728951232,121,-7,-7.000234163232887,-7.306691149129909,-7.344692856541074
1768728951236,121,-7,-6.962908162758674,-7.077552737983659,-7.3079815453927965
1768728951240,121,-7,-6.8646000395227,-7.108382216658532,-7.209126112400705
1768728951244,121,-7,-6.676380969417204,-7.070567576540081,-7.023103532277583
1768728951248,121,-7,-6.420529410107265,-6.983678280695229,-6.771869207854199
1768728951252,122,-6,-6.1588377502131815,-6.278000803660375,-6.515223073009126
1768728951256,122,-6,-5.947473707166995,-6.11444546465455,-6.308421029764385
1768728951260,122,-6,-5.787650361388886,-6.130913938072659,-6.152727118350095
1768728951264,122,-6,-5.626497724130463,-6.053708354661674,-5.995084884806647
1768728951268,122,-6,-5.415960808534573,-6.019800396498192,-5.787202305462493
1768728951272,123,-5,-5.166932289439454,-5.275856419781393,-5.5406508295589685
1768728951276,123,-5,-4.937442281975033,-5.111904197351579,-5.314743803232225
1768728951280,123,-5,-4.772351643142776,-5.221210935229731,-5.1546641534464435
1768728951284,123,-5,-4.668064444226113,-4.92030968328459,-5.055487779116665
1768728951288,123,-5,-4.598691855305072,-5.241849845250171,-4.989708119691091
1768728951292,123,-5,-4.5595390254862584,-5.014821261395312,-4.952636659410407
1768728951296,124,-4,-4.562857124741654,-4.442516258900029,-4.95815104994267
1768728951300,123,-5,-4.588975935971906,-4.896349982007961,-4.987731859434865
1768728951304,123,-5,-4.566583898059396,-5.278001503941993,-4.969387734089893
1768728951308,123,-5,-4.426610140289759,-4.9112129876213615,-4.832859216627172
1768728951312,124,-4,-4.175509919192296,-4.351678154396538,-4.58478172215684
1768728951316,124,-4,-3.9025917677370936,-4.156535282796156,-4.315545104161169
1768728951320,124,-4,-3.713960684442524,-4.168349927806739,-4.131331269218373
1768728951324,124,-4,-3.661764225992741,-4.079938019613421,-4.083005557920421
1768728951328,124,-4,-3.723701447099556,-4.091880398539869,-4.147254655159241
1768728951332,124,-4,-3.827782006864041,-4.232924716153032,-4.252685074450777
1768728951336,124,-4,-3.889577021474276,-4.268025700256636,-4.316514393126339
1768728951340,124,-4,-3.84371219023599,-4.0915626334112565,-4.274313002264822
1768728951344,124,-4,-3.66954802475587,-4.182700989326309,-4.104685353223683
1768728951348,124,-4,-3.4060130119902507,-4.014745016535907,-3.8450038530510926
1768728951352,125,-3,-3.1350682335414812,-3.3333194083968833,-3.576626978050186
1768728951356,125,-3,-2.9259566889940034,-3.1937817931709995,-3.369579016960385
1768728951360,125,-3,-2.778958307614647,-3.1725807172717295,-3.2250234910330966
1768728951364,125,-3,-2.628218621597311,-3.1532645373875465,-3.0770531774765058
1768728951368,125,-3,-2.41086998424377,-3.04805419113764,-2.8623441853423213
1768728951372,126,-2,-2.1354563808231366,-2.353016386142629,-2.589524174330682
1768728951376,126,-2,-1.8800573968348355,-2.1574749046236628,-2.3370867387073804
1768728951380,126,-2,-1.7258280900290894,-2.257196922516377,-2.18607583414307
1768728951384,126,-2,-1.6940756010161848,-2.0779154361524905,-2.1571568964918697
1768728951388,126,-2,-1.739417680146364,-2.1694693313129756,-2.2045921433026714
1768728951392,126,-2,-1.7924750103204177,-2.258674522791222,-2.2593283775439508
1768728951396,126,-2,-1.8094655678280225,-2.245942943050177,-2.278188461308309
1768728951400,126,-2,-1.7919363935692416,-2.2116224427880797,-2.2630833392477054
1768728951404,126,-2,-1.7688909038232754,-2.1270743843602986,-2.2429464867024493
1768728951408,126,-2,-1.7631280612103517,-2.1789232553988365,-2.2401231587537302
1768728951412,126,-2,-1.7732091044490088,-2.2576216765731294,-2.25259464890661
1768728951416,126,-2,-1.7833442901542726,-2.266490330497075,-2.26433664759238
1768728951420,126,-2,-1.7842112645334405,-2.208259896171127,-2.266463558503245
1768728951424,126,-2,-1.7799265216231617,-2.156718832984927,-2.26389867650306
1768728951428,126,-2,-1.7774158852495878,-2.189258724526401,-2.263951442561841
1768728951432,126,-2,-1.77657077984882,-2.2647631680093747,-2.266004673034122
1768728951436,126,-2,-1.7748935925914682,-2.2787303990632566,-2.2666027649609792
1768728951440,126,-2,-1.7769441394755183,-2.2090545139727684,-2.269853900477574
1768728951444,126,-2,-1.790116306330752,-2.187812535975315,-2.283685247417191
1768728951448,126,-2,-1.8080404450792176,-2.1923878257664766,-2.302747644054992
1768728951452,126,-2,-1.8059784758371755,-2.278509217220245,-2.302836352169015
1768728951456,126,-2,-1.7656913714626778,-2.293032050750439,-2.2652663069886554
1768728951460,126,-2,-1.7120314015734734,-2.1929483601279864,-2.213938568537455
1768728951464,126,-2,-1.7184770739608957,-2.25581520873231,-2.221834339081802
1768728951468,126,-2,-1.85873638488943,-2.1336916832234123,-2.3630019523739523
1768728951472,126,-2,-2.1370091240596105,-2.3784976086927463,-2.6421914548894105
1768728951476,125,-3,-2.465175912458329,-3.198354959586302,-2.971353815081034
1768728951480,125,-3,-2.72031378271789,-3.311571296290912,-3.2274566096721053
1768728951484,125,-3,-2.835052817892203,-3.1639978450587245,-3.343472751926764
1768728951488,125,-3,-2.837712977663746,-3.256030135869956,-3.348153915023655
1768728951492,125,-3,-2.81154490455227,-3.2709919877223887,-3.3243688717558686
1768728951496,125,-3,-2.816880456199046,-3.3281974089288378,-3.331378030434681
1768728951500,125,-3,-2.839170141717741,-3.2003818126635095,-3.3540286994463453
1768728951504,125,-3,-2.7934183991564625,-3.309252581780898,-3.307865222334412
1768728951508,125,-3,-2.576374405637476,-3.1362421104535945,-3.090751447546474
1768728951512,126,-2,-2.133780988903644,-2.4082417450900575,-2.6490914313244938
1768728951516,126,-2,-1.50313455110067,-2.204079050706043,-2.0202361741153276
1768728951520,127,-1,-0.8036660319896176,-1.3551821247224212,-1.3229191504965243
1768728951524,128,0,-0.1745333496742889,-0.1714073576748072,-0.6957593885705609
1768728951528,128,0,0.2989252389732018,-0.3192911598456405,-0.2233391116290677
1768728951532,128,0,0.616554270584027,-0.2297912035888942,0.0947495682761896
1768728951536,129,1,0.8382773737080469,0.5913959870761114,0.3177380402691412
1768728951540,129,1,1.0397044335414245,0.8268288511322859,0.5195191701900599
1768728951544,129,1,1.279055242563134,0.623064329798098,0.7574536470731517
1768728951548,129,1,1.5710761664606545,0.8597411182459356,1.047233363634955
1768728951552,130,2,1.8720055308911696,1.570983526272322,1.346603218648346
1768728951556,130,2,2.102860265978418,1.7689630634709552,1.5771987589745466
1768728951560,130,2,2.2093894031296006,1.6354060492150295,1.6844045901309306
1768728951564,130,2,2.20820968215546,1.7741755758436464,1.6840034289314445
1768728951568,130,2,2.174231300613102,1.7055178703880691,1.6500159682181086
1768728951572,130,2,2.1777281013155183,1.6644178634462852,1.6523676120512072
1768728951576,130,2,2.2210244683637477,1.7090878457668066,1.6940478792778184
1768728951580,130,2,2.2271389623178917,1.6216844901176866,1.6992481541000677
1768728951584,130,2,2.0994113312119627,1.8160590061584505,1.5718513150871734
1768728951588,130,2,1.8139620418988944,1.5898111710488116,1.2874826406396975
1768728951592,129,1,1.4641699628080216,0.7858057909429352,0.938609066974986
1768728951596,129,1,1.2033558713316517,0.558986753309274,0.6778852509694231
1768728951600,129,1,1.1238940678272356,0.7459361223166181,0.597528395073784
1768728951604,129,1,1.1770040222744051,0.6935961468230118,0.6492741813084288
1768728951608,129,1,1.2054771007243523,0.6472353141653389,0.676879897801395
1768728951612,129,1,1.067621309713037,0.7596359104225576,0.5392150589495164
1768728951616,129,1,0.7584420251233698,0.4997967883995839,0.2309667322487221
1768728951620,128,0,0.4296672720322994,-0.1531496205301745,-0.0967292316453525
1768728951624,128,0,0.281039223641768,-0.4865405622427823,-0.2444084857991462
1768728951628,128,0,0.4047913646430796,-0.1537623924500644,-0.120143603342137
1768728951632,129,1,0.7169592647683327,0.5180027664839242,0.1915462720297089
1768728951636,129,1,1.032986076878027,0.7282349866340974,0.5061245826398477
1768728951640,129,1,1.2096915931464685,0.6109703097460257,0.6816035929675768
1768728951644,129,1,1.2267752771766716,0.6915642283000623,0.6990268095606498
1768728951648,129,1,1.159480165156604,0.6761496432075942,0.6335853163161498
1768728951652,129,1,1.0961474862036324,0.6275770598487223,0.5721612905519409
1768728951656,129,1,1.078558072669388,0.6486981138907835,0.5551991700158008
1768728951660,129,1,1.0966444186567843,0.6360876259998922,0.5726351400654839
1768728951664,129,1,1.1188730061145082,0.6637409232521514,0.5940142258652092
1768728951668,129,1,1.1239039006581275,0.6565123958004686,0.5989919946295785
1768728951672,129,1,1.1123919778199007,0.6360202563822999,0.5883275545079554
1768728951676,129,1,1.098646371052113,0.6284719796208946,0.5756613288135211
1768728951680,129,1,1.094814607306841,0.6336321527118849,0.5724212059513716
1768728951684,129,1,1.100853728098044,0.6429935935499382,0.5784334379128022
1768728951688,129,1,1.1059454403633713,0.6403466381763154,0.5834038854128749
1768728951692,129,1,1.098601293006603,0.6397185973257487,0.5764943765073229
1768728951696,129,1,1.078178424193475,0.6094278565452356,0.5571698590009537
1768728951700,129,1,1.05973480094692,0.6342720497322392,0.5398805128332731
1768728951704,129,1,1.0658698925320054,0.6184145056096524,0.5464805011071898
1768728951708,129,1,1.1053151926960525,0.6229381530681171,0.5856276504606248
1768728951712,129,1,1.1503576467435683,0.6579389460354159,0.6303242738032087
1768728951716,129,1,1.1363557985683392,0.556050109659818,0.6166181668099573
1768728951720,129,1,0.9990749878622214,0.6939561869894273,0.4801807636629904
1768728951724,129,1,0.7312274651403464,0.5078285789586074,0.2131810273244241
1768728951728,128,0,0.4067114969902029,-0.2808199701410605,-0.1106173612099601
1768728951732,128,0,0.1383570979668074,-0.4663786988789256,-0.3781281129776062
1768728951736,128,0,0.0004939521976146,-0.3288591284296265,-0.5151312195072566
1768728951740,128,0,-0.0136675063666654,-0.433848535245529,-0.528944260103331
1768728951744,128,0,0.0317736190658924,-0.3982267074239398,-0.483795142853213
1768728951748,128,0,0.0718784851437479,-0.3887724414424744,-0.4440107420175965
1768728951752,128,0,0.0785622814211186,-0.4034814803643152,-0.4369961680259042
1768728951756,128,0,0.0603708710099796,-0.3814642174377383,-0.4541817258031306
1768728951760,128,0,0.0396421414462278,-0.4194965151476753,-0.4737789412514832
1768728951764,128,0,0.0309196797665709,-0.4176007885031554,-0.4817573975418057
1768728951768,128,0,0.0337258986276656,-0.4101570248652693,-0.4786852612309222
1768728951772,128,0,0.0388174003029327,-0.4004054579340836,-0.4735709213625054
1768728951776,128,0,0.0388165006079473,-0.3981206270565087,-0.4735104929957316
1768728951780,128,0,0.033736167116588,-0.4209497165038114,-0.4783124700492531
1768728951784,128,0,0.0281455435967268,-0.4350434072879479,-0.4833544649906516
1768728951788,128,0,0.0248033579338362,-0.4264538996862614,-0.4859731713675879
1768728951792,128,0,0.0223658709662185,-0.4032307670263921,-0.4877606163590346
1768728951796,128,0,0.019159968367958,-0.4111666116655663,-0.4906573135855629
1768728951800,128,0,0.0170376504442946,-0.4218826222153566,-0.4928594766552678
1768728951804,128,0,0.018869481655543,-0.4555696344761701,-0.4912149871369544
1768728951808,128,0,0.0219786461164189,-0.4403324440669856,-0.4879805481021815
1768728951812,128,0,0.0173712652592312,-0.4043349723790084,-0.4919612192317335
1768728951816,128,0,-8.676519857955811e-05,-0.4312400164368068,-0.5085426006486455
1768728951820,128,0,-0.0196084997090921,-0.4105534201357796,-0.5274450203791285
1768728951824,128,0,-0.0173636375996248,-0.4886612821009017,-0.5251462579675841
1768728951828,128,0,0.0197606095248158,-0.4499974724672926,-0.4883474911454579
1768728951832,128,0,0.0665138452020736,-0.3907962855979614,-0.4418481650326114
1768728951836,128,0,0.0577640698907531,-0.4938230878367826,-0.4506229859666115
1768728951840,128,0,-0.0723527172545402,-0.3217995309519503,-0.5808082261414584
1768728951844,128,0,-0.3347944675115083,-0.633499084311689,-0.8434534960471076
1768728951848,127,-1,-0.6635264630210607,-1.3221785248069633,-1.1720110590105592
1768728951852,127,-1,-0.9519875649917312,-1.5280321335297171,-1.4595041519735852
1768728951856,127,-1,-1.1149014924844796,-1.41288869694577,-1.6212473689500626
1768728951860,127,-1,-1.1218600792299054,-1.3442804982803436,-1.6279670831874649
1768728951864,127,-1,-0.9914044101436068,-1.712175456302698,-1.4985544959777015
1768728951868,127,-1,-0.7743611500065579,-1.1979830253512318,-1.2830445406025115
1768728951872,128,0,-0.5430092253117418,-0.7312855714436266,-1.0526553706037742
1768728951876,127,-1,-0.3749820291799587,-1.2094100190232513,-0.8845870129802327
1768728951880,128,0,-0.3226881483734511,-0.5292969929131448,-0.8316486585543239
1768728951884,128,0,-0.3810235401128917,-0.6100313566520406,-0.8894912117823801
1768728951888,127,-1,-0.4814789805558034,-1.2478254407115108,-0.989965424244722
1768728951892,128,0,-0.5304319894788208,-0.8023329667868504,-1.0392145499751413
1768728951896,127,-1,-0.4710675854155803,-1.0553885871548685,-0.980155456266112
1768728951900,128,0,-0.3193702879960542,-0.7794868369008623,-0.8289190035407872
1768728951904,128,0,-0.1448533711849706,-0.3053062361713285,-0.6552734567591294
1768728951908,128,0,-0.0176726808111468,-0.6285357030213898,-0.5292050338374648
1768728951912,128,0,0.0305197333974548,-0.4429311572781635,-0.4818811649552819
1768728951916,128,0,0.0088063772551382,-0.398893538967437,-0.5040403622984377
1768728951920,128,0,-0.0510683007012915,-0.5063748979553933,-0.5642178125607222
1768728951924,128,0,-0.1076545272456621,-0.515979875453251,-0.6211420698597019
1768728951928,128,0,-0.1134945413811338,-0.5234314974435308,-0.6271075052482611
1768728951932,128,0,-0.021211261237346,-0.5173677044384422,-0.5346359162209364
1768728951936,128,0,0.2022339604234596,-0.3747285810688707,-0.3113867804981474
1768728951940,129,1,0.558067179669864,0.4707974296653416,0.0429634444694417
1768728951944,129,1,0.998622214371779,0.5081676768645111,0.4810403589983922
1768728951948,129,1,1.4155941776308243,0.3898066737907066,0.8960247151410461
1768728951952,130,2,1.6586991355562293,1.5767696066701478,1.1384908804694729
1768728951956,130,2,1.6083629213346318,1.4829050623303095,1.0881270269051442
1768728951960,129,1,1.2640394749080823,0.6199955552801968,0.7433916837550181
1768728951964,129,1,0.7585652957774713,0.3527828301775781,0.2372019152079798
1768728951968,128,0,0.2654583018514851,-0.5089816219018748,-0.2564733332868727
1768728951972,128,0,-0.120708030198929,-0.5350882213427681,-0.6434546104006784
1768728951976,128,0,-0.4229873377673616,-0.424991561894908,-0.9475523332989098
1768728951980,127,-1,-0.7210547653536912,-1.472649285502605,-1.248166662524473
1768728951984,127,-1,-1.0647794855218833,-1.5662503377336257,-1.5938992700746255
1768728951988,127,-1,-1.436184178406198,-1.6290389020228335,-1.9660329299547703
1768728951992,126,-2,-1.770816796890457,-2.4577943622612906,-2.300764726333891
1768728951996,126,-2,-2.005825154200108,-2.493724009754937,-2.5365378587769594
1768728952000,126,-2,-2.1177670155978014,-2.41582077522428,-2.65052449026231
1768728952004,126,-2,-2.129690469589885,-2.631673092723129,-2.6650214228491995
1768728952008,126,-2,-2.0917079235982667,-2.6046728928691483,-2.6286598974297495
1768728952012,126,-2,-2.0536702310320725,-2.5146257677674786,-2.5907725133472352
1768728952016,126,-2,-2.0434154041852293,-2.448102527604393,-2.580716360080176
1768728952020,126,-2,-2.0577994194725013,-2.4550832755055234,-2.5977191374419175
1768728952024,126,-2,-2.0738498197520387,-2.6115757006125877,-2.61924763717207
1768728952028,126,-2,-2.075356961819137,-2.666338268317965,-2.6259997832445503
1768728952032,126,-2,-2.0666421599220013,-2.4750861003091664,-2.617563580301119
1768728952036,126,-2,-2.0450887116729373,-2.514748991380655,-2.589727873659347
1768728952040,126,-2,-1.94594540943828,-2.358286211904894,-2.4830038568137356
1768728952044,127,-1,-1.6218837391115817,-1.7548306716915167,-2.159971519202137
1768728952048,127,-1,-0.9151063871845468,-1.52757796630312,-1.4686133404213473
1768728952052,128,0,0.209018722656654,-0.6852634956895236,-0.3676565098262399
1768728952056,129,1,1.6220133659641518,0.7275910911650616,1.0313326277267654
1768728952060,131,3,3.2597377009647888,2.372017021885424,2.677427357726134
1768728952064,135,7,5.570527920513234,6.515950362488355,5.015140019634206
1768728952068,140,12,9.76128457813726,11.17960171980974,9.232378906098988
1768728952072,144,16,17.284803457369307,15.538012116683875,16.763420355444953
1768728952076,154,26,28.517712997485084,25.55317015772641,27.97968578175232
1768728952080,169,41,41.49822996495917,40.49216780143939,40.92727066012934
1768728952084,181,53,51.98435663514508,52.44531941113276,51.37813930160101
1768728952088,185,57,55.284548710860946,56.17745993155518,54.65546503244912
1768728952092,178,50,48.86849921918814,49.49340255544887,48.239842038296494
1768728952096,162,34,34.00180683804594,33.48785123461485,33.39781346593926
1768728952100,142,14,15.25948647197773,13.50834607149424,14.692075626920214
1768728952104,125,-3,-1.7641582706214418,-3.5146866401001375,-2.303621053187733
1768728952108,115,-13,-13.066717767448988,-13.820097573104078,-13.603704667348897
1768728952112,111,-17,-17.634953255385405,-17.422755196242047,-18.19710232025188
1768728952116,112,-16,-17.07184936917362,-16.655634939642844,-17.672490813134324
1768728952120,114,-14,-14.076757929857347,-14.384504825392622,-14.707824859998528
1768728952124,117,-11,-10.924911159776354,-11.670732479595786,-11.5639915057448
1768728952128,119,-9,-8.746064640462972,-9.68555339536388,-9.371964681099044
1768728952132,120,-8,-7.656971377995775,-8.550900067430982,-8.262357423106241
1768728952136,121,-7,-7.286818137468219,-7.5857938075436255,-7.879811115681083
1768728952140,121,-7,-7.218010473676175,-7.471683973160814,-7.813458964369104
1768728952144,121,-7,-7.167056617163883,-7.6202545156113874,-7.775309183894788
1768728952148,121,-7,-6.998208874819344,-7.715524432145582,-7.619760794329812
1768728952152,121,-7,-6.702055308092906,-7.528073589439989,-7.330694423921375
1768728952156,122,-6,-6.366128981600942,-6.641837936313647,-6.996014402181668
1768728952160,122,-6,-6.108005969261561,-6.439535967283513,-6.7377903149933
1768728952164,122,-6,-5.991284844427797,-6.6890341429838855,-6.622791387591458
1768728952168,122,-6,-5.991600046308551,-6.627191390638089,-6.626406627821156
1768728952172,122,-6,-6.036380813337233,-6.638703373912971,-6.674514244707356
1768728952176,122,-6,-6.067464379587547,-6.557971909970101,-6.708596379609501
1768728952180,122,-6,-6.067782106308382,-6.543933649570634,-6.712413608019488
1768728952184,122,-6,-6.047688332695327,-6.620212501227868,-6.696729017201449
1768728952188,122,-6,-6.025061304180744,-6.669349134093884,-6.678670534951777
1768728952192,122,-6,-6.01854056999055,-6.638307808369246,-6.675864266623638
1768728952196,122,-6,-6.0413003648316055,-6.557182028601332,-6.70139026377998
1768728952200,122,-6,-6.082251582102255,-6.6018673786783735,-6.74497838360231
1768728952204,122,-6,-6.091053404917779,-6.553978069798462,-6.756992180448054
1768728952208,122,-6,-5.99670171958146,-6.750749912926105,-6.666404089262772
1768728952212,122,-6,-5.7578628373784335,-6.567168600762497,-6.431602136993617
1768728952216,123,-5,-5.400382345459332,-5.645558923383177,-6.078407336130391
1768728952220,123,-5,-5.003282355810252,-5.562670507280861,-5.685711190202743
1768728952224,123,-5,-4.646676159163161,-5.575592934165788,-5.33310021595059
1768728952228,124,-4,-4.365792874019152,-4.76897631302826,-5.055524170282779
1768728952232,124,-4,-4.138244326985051,-4.525090948961118,-4.831024067437811
1768728952236,124,-4,-3.908318926114544,-4.757383135706775,-4.604453644594766
1768728952240,124,-4,-3.6370476918264742,-4.433831587489189,-4.337064664794104
1768728952244,125,-3,-3.342695082694298,-3.7513047882213657,-4.047211950842284
1768728952248,125,-3,-3.092419599941197,-3.5772999947730115,-3.801915900402747
1768728952252,125,-3,-2.951131673321855,-3.731431571224483,-3.665316906921811
1768728952256,125,-3,-2.93536446036276,-3.5957035134495454,-3.653125999080448
1768728952260,125,-3,-3.003564688184778,-3.5897039441409713,-3.724119075438405
1768728952264,125,-3,-3.0754140031086954,-3.657473297184405,-3.7993232480769192
1768728952268,125,-3,-3.065689431719114,-3.6133779835532662,-3.794208482833768
1768728952272,125,-3,-2.9264938739277415,-3.7672949649310943,-3.660015117094726
1768728952276,125,-3,-2.677623463240033,-3.529655182925081,-3.4153866281514005
1768728952280,126,-2,-2.389944279896321,-2.735805110760573,-3.1313441294075557
1768728952284,126,-2,-2.121560470571488,-2.4812224390099744,-2.866970368500195
1768728952288,126,-2,-1.869506663871717,-2.8201520963523548,-2.619461951845945
1768728952292,126,-2,-1.596411960787412,-2.556057998749253,-2.350772678344665
1768728952296,127,-1,-1.3019018383943848,-1.7771275201191423,-2.0604294688988385
1768728952300,127,-1,-1.0493019369662977,-1.5269421082060717,-1.8123743460403567
1768728952304,127,-1,-0.915010956425962,-1.6692417151343266,-1.682970288351723
1768728952308,127,-1,-0.9190302682067047,-1.669122935025953,-1.6912704618214518
1768728952312,127,-1,-1.003336306941333,-1.6827251715800997,-1.7789046063613598
1768728952316,127,-1,-1.0653822619684408,-1.729330581328068,-1.844367943822576
1768728952320,127,-1,-1.0156885916911502,-1.5576145381914352,-1.799225163851861
1768728952324,127,-1,-0.8318897690634508,-1.6688633042462682,-1.6206700073209916
1768728952328,127,-1,-0.5839452071436799,-1.6539733659933704,-1.3775336016365272
1768728952332,128,0,-0.4004301722004186,-0.7236197876600334,-1.1984056148937647
1768728952336,128,0,-0.379888612408352,-0.7213350081185026,-1.1827645633966577
1768728952340,127,-1,-0.5188176302450508,-1.5911624323380873,-1.3270004496905965
1768728952344,127,-1,-0.7324546002110395,-1.6301692069732645,-1.5449586382978862
1768728952348,127,-1,-0.9455238724539504,-1.7095823208583898,-1.7608696816435243
1768728952352,127,-1,-1.1475272112730566,-1.6779511648072427,-1.9658169919954815
1768728952356,127,-1,-1.359095213049025,-1.793090357499811,-2.18222820145984
1768728952360,126,-2,-1.5729015013965648,-2.546976555669687,-2.4024409269494647
1768728952364,126,-2,-1.7560617901122966,-2.669796611831934,-2.591528699202668
1768728952368,126,-2,-1.906512863861431,-2.6935325295179227,-2.746239885839636
1768728952372,126,-2,-2.076887641427686,-2.698958719455286,-2.920132250579495
1768728952376,126,-2,-2.3201187662232226,-2.7995340932522748,-3.167673562807217
1768728952380,125,-3,-2.613702420143352,-3.556049588647088,-3.4664530129330897
1768728952384,125,-3,-2.851131118302342,-3.6761738818649814,-3.708676666899019
1768728952388,125,-3,-2.914159599719235,-3.6977838425691454,-3.7753479594350217
1768728952392,125,-3,-2.753093636040777,-3.707881994320744,-3.617770574168687
1768728952396,126,-2,-2.4018928324545525,-2.810088313552034,-3.271529971632065
1768728952400,126,-2,-1.9317053127076216,-2.5527789141406076,-2.8078377891364745
1768728952404,126,-2,-1.4063697177130416,-2.706882182555275,-2.2886808276197783
1768728952408,127,-1,-0.8768761151232578,-1.6778474483644126,-1.763513832467304
1768728952412,128,0,-0.3849254708960214,-0.7335551940499971,-1.274652244913893
1768728952416,128,0,0.0564838956113542,-0.8279230654138416,-0.8367990440506923
1768728952420,128,0,0.477458824926146,-0.5007051625830208,-0.4205339458074706
1768728952424,129,1,0.9199933323298152,0.1685251310020428,0.0166849097197951
1768728952428,129,1,1.3822543007330412,0.4757322063765745,0.4735710960485753
1768728952432,130,2,1.7995251807503578,1.0664250512017912,0.8854628227798134
1768728952436,130,2,2.0858413281110044,1.3805769595466786,1.1665325962040545
1768728952440,130,2,2.199051641691786,1.2763075963973916,1.2751392027522237
1768728952444,130,2,2.174171224554025,1.3540081600128273,1.2465590302935812
1768728952448,130,2,2.102099314370837,1.2974181510594067,1.1710660376835471
1768728952452,130,2,2.072806116322395,1.199803986552456,1.1375020833709897
1768728952456,130,2,2.1201608238408407,1.2755891875671637,1.179207642178296
1768728952460,130,2,2.1998226418667968,1.3421675165677052,1.2524739527966149
1768728952464,130,2,2.215242739257744,1.2801326266363466,1.261958181336169
1768728952468,130,2,2.0828776098960446,1.3491092860404694,1.124893794209834
1768728952472,130,2,1.7987393233192115,1.127579962226299,0.8372312016655281
1768728952476,129,1,1.455315090694556,0.3559529878515729,0.4907377788144973
1768728952480,129,1,1.187408702557917,0.2304102840740609,0.219096098324991
1768728952484,129,1,1.0838229734697806,0.3882707650414542,0.1101567216207908
1768728952488,129,1,1.1300337783714896,0.2079560919866112,0.1496521254425782
1768728952492,129,1,1.217809582946362,0.2694172701762473,0.2310074962071318
1768728952496,129,1,1.2129368006513863,0.2096693302217305,0.2214299192884861
1768728952500,129,1,1.0470897791728044,0.3421762630904224,0.0521425580452696
1768728952504,129,1,0.7803002091387286,0.2820679361189242,-0.2183598169452085
1768728952508,128,0,0.5736565989427812,-0.737374490721312,-0.4295178793487386
1768728952512,128,0,0.5682459985511172,-0.7610494916149777,-0.4395864431453207
1768728952516,129,1,0.76716494990688,0.2080118937919344,-0.2453190924747101
1768728952520,129,1,1.0366951971984686,0.34600624896942,0.0188167208106899
1768728952524,129,1,1.224727233723452,0.2514115411232929,0.2006341485388313
1768728952528,129,1,1.274366663819498,0.2823572048551125,0.2445127038322143
1768728952532,129,1,1.2337788358476094,0.1935558041121523,0.1997560119632317
1768728952536,129,1,1.182807296510038,0.2486745560852008,0.1457392906701979
1768728952540,129,1,1.164556758524329,0.296240320073183,0.1239956475753769
1768728952544,129,1,1.17499447238467,0.2844221595502031,0.1294854018289508
1768728952548,129,1,1.1935245113778727,0.2403585937922022,0.142021034753113
1768728952552,129,1,1.2090003673859382,0.2036386931857889,0.1516231418164795
1768728952556,129,1,1.2200657635261942,0.2394060834588939,0.1576865406314425
1768728952560,129,1,1.2240775022638135,0.2872173701921093,0.1574573603679177
1768728952564,129,1,1.215915156874627,0.2907504098222283,0.1452941075268836
1768728952568,129,1,1.1982305120398582,0.2110200755863619,0.1234655323152071
1768728952572,129,1,1.1875676467619625,0.2125771613427637,0.1083274804375409
1768728952576,129,1,1.2046055711036043,0.2253670211046777,0.1204184741293494
1768728952580,129,1,1.252808860405461,0.2794695822458914,0.1632495205011148
1768728952584,129,1,1.3012610184236282,0.3110885763107359,0.2063327574681492
1768728952588,129,1,1.2888563440509548,0.1453543576099689,0.1890548709389856
1768728952592,129,1,1.1578459527907927,0.2846723717879442,0.0536594630394795
1768728952596,129,1,0.9015779224432828,0.1197880547274761,-0.2069236060007189
1768728952600,128,0,0.5866402430875284,-0.61107097063769,-0.5262779280815704
1768728952604,128,0,0.319235948020187,-0.8080357166734522,-0.7980076170163501
1768728952608,128,0,0.1770012945148587,-0.7629202974839431,-0.9444978895349
1768728952612,128,0,0.164669045042776,-0.813188301096724,-0.961425618988768
1768728952616,128,0,0.2264943953131559,-0.8006390300929316,-0.9047556016893266
1768728952620,128,0,0.2930026141702463,-0.6956217808415128,-0.8436053813570759
1768728952624,128,0,0.3180289334481414,-0.7241969288795165,-0.823581797693226
1768728952628,128,0,0.2852850704907727,-0.8970197559589292,-0.8607863212548525
1768728952632,128,0,0.1955172349323659,-0.653690275548422,-0.9546968288780364
1768728952636,128,0,0.0547872949345342,-1.019166150265798,-1.0995163184091532
1768728952640,127,-1,-0.1268644250812145,-1.4328093155261856,-1.2853908770045033
1768728952644,128,0,-0.3292185513512009,-1.039921838831273,-1.4923336656181094
1768728952648,127,-1,-0.5177633933626984,-1.576241712099152,-1.685880951437417
1768728952652,127,-1,-0.6543765037031467,-2.0027828352366663,-1.8274651236159636
1768728952656,127,-1,-0.7218040571212428,-1.6801206053756896,-1.899312644245488
1768728952660,127,-1,-0.7367132923235269,-1.7594269897786985,-1.9181807199541112
1768728952664,127,-1,-0.7316767528744853,-1.7609338017302998,-1.9172251047603128
1768728952668,127,-1,-0.7243665675695161,-1.8222072299259255,-1.9145081459215143
1768728952672,127,-1,-0.7091751196625982,-1.8405126555810665,-1.9043116696086608
1768728952676,127,-1,-0.6786949932289728,-1.7794524665739129,-1.8788061026583895
1768728952680,127,-1,-0.6482659189580247,-1.739654996645958,-1.852870493040771
1768728952684,127,-1,-0.6545227560994877,-1.719086326880466,-1.862961099980661
1768728952688,127,-1,-0.7246592103352397,-1.9476810886194,-1.936703852212951
1768728952692,127,-1,-0.8415215112761675,-1.681667306593765,-2.057733429592168
1768728952696,127,-1,-0.9412677905802026,-1.982031135557185,-2.1623922104095814
1768728952700,126,-2,-0.960495076459158,-2.532120415347139,-2.186481417088156
1768728952704,127,-1,-0.8984816272315849,-1.920719833598848,-2.1286028815518008
1768728952708,127,-1,-0.826396564025476,-1.801006878573166,-2.0604211208212724
1768728952712,127,-1,-0.820087810849903,-1.7951875247837208,-2.0586487701873617
1768728952716,127,-1,-0.8827161005685054,-1.9319445304850889,-2.126156340943735
1768728952720,126,-2,-0.9429545204999292,-2.535693050717307,-2.19044136473281
1768728952724,127,-1,-0.9286102105447388,-1.9840415215231395,-2.1790971783186865
1768728952728,127,-1,-0.8316856048566262,-1.7040223459069217,-2.0854790118177378
1768728952732,127,-1,-0.7031306880441008,-1.946891246439816,-1.9617578085864429
1768728952736,127,-1,-0.6025624664328715,-1.7522768300363445,-1.8669892400820316
1768728952740,127,-1,-0.5636561732215057,-1.7488457077526032,-1.833098897746111
1768728952744,127,-1,-0.5942066244099531,-1.781891289200586,-1.866929694475284
1768728952748,127,-1,-0.6849829058825189,-1.916827125357336,-1.9601377490726912
1768728952752,127,-1,-0.8062417659338351,-1.7507532712627167,-2.0847091325574647
1768728952756,127,-1,-0.9054763289219478,-1.9471440811071477,-2.188759724433911
1768728952760,126,-2,-0.9322361298630572,-2.5678861514625746,-2.220722323114216
1768728952764,127,-1,-0.8796415675844972,-1.9886526570422427,-2.1723609516548694
1768728952768,127,-1,-0.7923403712620811,-1.7071209802172418,-2.088340762230279
1768728952772,127,-1,-0.7171060625191097,-1.989374174341996,-2.0164517741263146
1768728952776,127,-1,-0.6452925207887819,-1.6903782436331456,-1.9485417003187648
1768728952780,127,-1,-0.5163875751469226,-1.8526199584006544,-1.8236285131376708
1768728952784,127,-1,-0.2853188674512713,-1.7312612353789232,-1.5962043510712278
1768728952788,128,0,0.0169902992159941,-0.9522816719776276,-1.297569537081212
1768728952792,128,0,0.2941834187552501,-0.7834414302647352,-1.0246501090773563
1768728952796,128,0,0.4546832816189135,-0.8561908655103023,-0.8687404712403298
1768728952800,128,0,0.473775736737504,-0.7478237129779384,-0.8536263972087637
1768728952804,128,0,0.4008529508258777,-0.8215478872132131,-0.9295652611087806
1768728952808,128,0,0.3228090635889045,-0.912926105573042,-1.0103397908851257
1768728952812,128,0,0.3199828149577736,-0.7840431961858676,-1.016410114491348
1768728952816,128,0,0.4371000354582249,-0.8873114491594982,-0.9030868673751908
1768728952820,128,0,0.6750046952986761,-0.7125300168710529,-0.6690650463013523
1768728952824,129,1,1.0032181252720933,0.1072643952119879,-0.3445703986918785
1768728952828,129,1,1.3826268021148236,0.1441253213878227,0.03127889886412
1768728952832,129,1,1.775836091790937,0.1742313723080368,0.4210726834644374
1768728952836,130,2,2.137537453059302,1.129300215228794,0.7793524759970804
1768728952840,130,2,2.4064811163600983,1.2852661376925854,1.044629593526589
1768728952844,130,2,2.5184352639288603,1.0365210415626274,1.152831968678519
1768728952848,130,2,2.4315383602188723,1.2653140219747545,1.0626460274652936
1768728952852,130,2,2.145801232872802,0.9853987911793968,0.7742884097320928
1768728952856,129,1,1.707255159063723,0.382680346154011,0.3332853463037138
1768728952860,129,1,1.1915943880565236,-0.0473130478499268,-0.1853874551224497
1768728952864,128,0,0.6693923089416147,-0.6007959263350235,-0.711365162720818
1768728952868,128,0,0.171727796924241,-1.1519119781429517,-1.2130255251215
1768728952872,127,-1,-0.3175718063458037,-1.5610441284707877,-1.705704116602936
1768728952876,127,-1,-0.832405628484896,-2.0933155444051748,-2.2229952650892564
1768728952880,126,-2,-1.3760995919989392,-2.5868522014597337,-2.7688440227216877
1768728952884,126,-2,-1.8939628651560216,-3.0670391909382193,-3.2895200611756032
1768728952888,125,-3,-2.297397880588704,-3.734710759452702,-3.6966849173912895
1768728952892,125,-3,-2.5277243616547924,-3.92368987716252,-3.93083497421412
1768728952896,125,-3,-2.604801896583796,-3.790878501730285,-4.010637930887122
1768728952900,125,-3,-2.6108699023866384,-3.8470535540974025,-4.0179699477622455
1768728952904,125,-3,-2.618977829354576,-3.880621160050084,-4.0270824508576695
1768728952908,125,-3,-2.630462708027498,-3.89353184274872,-4.041500328597982
1768728952912,125,-3,-2.5812882598599667,-3.794782034047663,-3.998237786577069
1768728952916,125,-3,-2.416894364704432,-3.9031240994634495,-3.840583073021856
1768728952920,125,-3,-2.167687398230057,-3.759630799101065,-3.594383861310542
1768728952924,126,-2,-1.939765197029669,-2.983217109054656,-3.3629437522587016
1768728952928,126,-2,-1.80572221380312,-2.805072957427005,-3.221810415635224
1768728952932,126,-2,-1.69828559482139,-2.8818758494920313,-3.111790787967648
1768728952936,126,-2,-1.4452769357037003,-2.8226581145953906,-2.8679862118984354
1768728952940,126,-2,-0.9509260149547984,-2.8508593594577833,-2.393939691223778
1768728952944,127,-1,-0.3253126651218659,-1.927061950574796,-1.7887938398340957
1768728952948,128,0,0.2823782157481473,-0.8452607401936185,-1.1867729201711763
1768728952952,129,1,1.155023544620772,0.141566699144113,-0.2977656462355091
1768728952956,132,4,3.414027654052413,3.162524453113619,1.9912694097630692
1768728952960,137,9,8.811957650612346,8.154376240901769,7.413190241304884
1768728952964,145,17,18.66107912053343,16.016841255856736,17.26311515994774
1768728952968,158,30,32.36853039260764,29.27381253312177,30.945142472075375
1768728952972,174,46,46.67309712821418,44.973005590908194,45.209767817065575
1768728952976,185,57,56.52144665497367,56.39061814482366,55.0225009794016
1768728952980,187,59,57.43975599977131,57.828048220925254,55.92642600649235
1768728952984,176,48,48.02939569916707,47.288666259255784,46.53025416574923
1768728952988,158,30,30.92879657177338,28.9254972111573,29.465408703158324
1768728952992,138,10,11.560910755993127,9.28966169915796,10.135499224300728
1768728952996,122,-6,-4.537487939819716,-6.805485926355354,-5.943807157805049
1768728953000,113,-15,-14.154183820131369,-15.982883116270068,-15.570286044060191
1768728953004,111,-17,-17.266276816022447,-17.761244392594662,-18.714318336747787
1768728953008,113,-15,-16.12479246057337,-16.165740320140802,-17.60851677459309
1768728953012,114,-14,-13.466137426635248,-14.5583926911277,-14.970428687039645
1768728953016,116,-12,-11.101334347219112,-13.061242931237995,-12.60262297995361
1768728953020,117,-11,-9.571330991904333,-11.688219869633912,-11.052639604490173
1768728953024,119,-9,-8.65540423442809,-10.091793857453904,-10.11622682210429
1768728953028,120,-8,-8.035660043553058,-8.865998371582782,-9.48945349223377
1768728953032,120,-8,-7.60830138365074,-8.83295700848228,-9.07002960511346
1768728953036,120,-8,-7.416509476837799,-8.842762396003893,-8.89133440665763
1768728953040,120,-8,-7.464329624652329,-8.842385749325047,-8.946707075961921
1768728953044,120,-8,-7.626153248440281,-9.025309815418158,-9.1078795654161
1768728953048,120,-8,-7.69486460089904,-8.880362335346986,-9.172706421126817
1768728953052,120,-8,-7.506164893571991,-8.87286452716603,-8.982391603543132
1768728953056,120,-8,-7.05230327658519,-8.77234357293619,-8.530175206545103
1768728953060,121,-7,-6.50289545543264,-7.931007364118989,-7.983466366399445
1768728953064,122,-6,-6.093198252811111,-6.955855686590699,-7.575870075623944
1768728953068,122,-6,-5.946593949016142,-6.952217982550018,-7.430541069489969
1768728953072,121,-7,-5.985895916037026,-7.821827115560128,-7.47007504242257
1768728953076,121,-7,-6.023328574130169,-7.812964533214221,-7.506532996842126
1768728953080,122,-6,-5.936150561394966,-6.922160933139234,-7.4183100654457315
1768728953084,122,-6,-5.750296463204097,-6.943217636210589,-7.233051725405114
1768728953088,122,-6,-5.572071741046656,-7.011886640134133,-7.057054390726976
1768728953092,122,-6,-5.468501808707269,-6.707144983672628,-6.9553462448076
1768728953096,122,-6,-5.416322551850202,-7.016578189156072,-6.903106831099465
1768728953100,122,-6,-5.3407288306423295,-6.659210838915253,-6.826241612673446
1768728953104,123,-5,-5.18573331043543,-6.271566587619844,-6.670659934007356
1768728953108,122,-6,-4.95870484124489,-6.642802425201386,-6.444501674219116
1768728953112,123,-5,-4.728281529177351,-6.0971685947699115,-6.215473426673436
1768728953116,123,-5,-4.579567119891481,-5.652649441160257,-6.067440108186235
1768728953120,123,-5,-4.550217124668167,-6.008031863748276,-6.037741506751554
1768728953124,123,-5,-4.5927938980621015,-5.977264391512691,-6.07946251576223
1768728953128,123,-5,-4.599834378780576,-5.865890993979682,-6.085772201849043
1768728953132,123,-5,-4.478845446054423,-5.966931481009576,-5.964432970390275
1768728953136,123,-5,-4.220327941179104,-5.708158466362883,-5.705892867836116
1768728953140,124,-4,-3.904530801664414,-5.04588971272061,-5.3903543520105135
1768728953144,124,-4,-3.641753530534108,-4.878300776615172,-5.1280494660933815
1768728953148,124,-4,-3.498161776704726,-5.005949794586136,-4.984796893904622
1768728953152,124,-4,-3.468335583377707,-4.82167799039705,-4.954716142016342
1768728953156,124,-4,-3.5049301556665253,-4.863059291252836,-4.990367329850856
1768728953160,124,-4,-3.5632407993919677,-4.930796711723866,-5.047418305768665
1768728953164,124,-4,-3.6178979699852714,-4.947707809555006,-5.101024825947485
1768728953168,124,-4,-3.647268556110389,-4.988494910197309,-5.129895371357131
1768728953172,124,-4,-3.614655735084826,-4.79703344767428,-5.097216981431925
1768728953176,124,-4,-3.4781322968970336,-4.94950796161524,-4.960464533935299
1768728953180,124,-4,-3.229603482862326,-4.825280584152862,-4.7110749820503015
1768728953184,125,-3,-2.923445580118505,-4.0663730491028165,-4.403810232299403
1768728953188,125,-3,-2.654745734711364,-3.866948709563551,-4.13463237502118
1768728953192,125,-3,-2.499490778506824,-3.9217021389976714,-3.979639974955125
1768728953196,125,-3,-2.472161016225093,-3.852957385003388,-3.95226224266912
1768728953200,125,-3,-2.533143328093579,-3.927980099934953,-4.011824674976939
1768728953204,125,-3,-2.6227508382251363,-3.9696360838671185,-4.098875691085133
1768728953208,125,-3,-2.6822516601387427,-3.9545598674017777,-4.156099426861014
1768728953212,125,-3,-2.6563707770551614,-3.840957192040379,-4.129377436241316
1768728953216,125,-3,-2.504343809376438,-3.955458465515466,-3.9776775428630353
1768728953220,125,-3,-2.2322123721065985,-3.8346307621222016,-3.705776977966355
1768728953224,126,-2,-1.9140751330634744,-3.071154503149655,-3.3869054433289247
1768728953228,126,-2,-1.6602658989576766,-2.8382056936520415,-3.131513996187628
1768728953232,126,-2,-1.5436296970007477,-2.969358340064272,-3.012966146226812
1768728953236,126,-2,-1.548568899975192,-2.8464398811140685,-3.0160406141354996
1768728953240,126,-2,-1.591442397180115,-2.9533430531248097,-3.0573682391958776
1768728953244,126,-2,-1.5952284418358256,-2.976518789299844,-3.0600888652889044
1768728953248,126,-2,-1.5565059554155,-2.884994869771641,-3.020633328227784
1768728953252,126,-2,-1.5507972527459626,-2.971337283791527,-3.014189496514038
1768728953256,126,-2,-1.6690237003428634,-2.8171605067778573,-3.1314747129687603
1768728953260,126,-2,-1.933631656414508,-3.043302824757939,-3.394769212339635
1768728953264,125,-3,-2.267178688322408,-3.859346193783825,-3.726321567423884
1768728953268,125,-3,-2.545007714969304,-4.01055078597318,-4.001517317165582
1768728953272,125,-3,-2.6843410860856425,-3.840876044896043,-4.138509507602628
1768728953276,125,-3,-2.690186032926885,-3.9635044033937894,-4.143391646514893
1768728953280,125,-3,-2.6305817129119644,-3.9221546822621702,-4.084014092056095
1768728953284,125,-3,-2.5808697548193207,-3.9616687352100826,-4.034145818466515
1768728953288,125,-3,-2.583906216724288,-3.9372305750339263,-4.035315019283584
1768728953292,125,-3,-2.636689649779435,-3.875486825337633,-4.084900108177408
1768728953296,125,-3,-2.693512251128528,-3.991495257551403,-4.138849979386356
1768728953300,125,-3,-2.685253721659123,-3.8663705133826016,-4.129180596249316
1768728953304,125,-3,-2.558726465184675,-4.045759248934073,-4.002250973241004
1768728953308,125,-3,-2.3163476025747984,-3.844663082812451,-3.7592284600277823
1768728953312,126,-2,-2.014634302581092,-2.952083358359153,-3.456011158151904
1768728953316,126,-2,-1.7075293000635976,-2.966910367167724,-3.146812406561358
1768728953320,126,-2,-1.382803897253441,-2.8563675353935425,-2.819805011823348
1768728953324,127,-1,-0.9590454275938292,-2.106636556532284,-2.393714486660991
1768728953328,127,-1,-0.3549289399207083,-1.7451482598256245,-1.7873766178517676
1768728953332,128,0,0.426965666438198,-1.0758567992096242,-1.0038059709091984
1768728953336,129,1,1.273904457972014,0.1506270189926452,-0.1561389285853776
1768728953340,130,2,2.0173992014274935,1.0321185640278894,0.5874983941815612
1768728953344,130,2,2.522553945797619,0.9595711765352488,1.0934687475114273
1768728953348,130,2,2.744709759428099,1.2422487491973324,1.318010710488858
1768728953352,131,3,2.7303110998416313,1.868867113513463,1.3068703968793276
1768728953356,130,2,2.5841272820879206,1.2559995860438815,1.1632957998062556
1768728953360,130,2,2.421989820671408,0.8711764254637167,1.0025816120684266
1768728953364,130,2,2.3200524392200133,1.149253165199447,0.9016349995536944
1768728953368,130,2,2.2884532895559686,1.038126793404353,0.8714087910131108
1768728953372,130,2,2.29279541540051,1.0596180900584828,0.8775549231568939
1768728953376,130,2,2.3027260093501245,1.0888167593336882,0.8892834994604077
1768728953380,130,2,2.3187450385147916,0.987907644862286,0.90678579379819
1768728953384,130,2,2.353327358899409,1.0659656873378236,0.9426482263681778
1768728953388,130,2,2.3906683731632707,1.0899635221171584,0.981427646074878
1768728953392,130,2,2.3724532819291024,1.016663477029989,0.9649560462337434
1768728953396,130,2,2.234645644230649,1.1333701813771595,0.828919298587639
1768728953400,130,2,1.968949870790096,0.9151161905583872,0.5647704952960606
1768728953404,129,1,1.6484744725969964,0.1541925382415032,0.2458772805722762
1768728953408,129,1,1.3838546480539404,-0.023165878316906,-0.0167583014821608
1768728953412,129,1,1.2463962297247029,0.1425921974666935,-0.1521161889509361
1768728953416,129,1,1.2288611466948445,0.0005077853844599,-0.1681557897676781
1768728953420,129,1,1.2708161308210284,0.0349314158267305,-0.1254754288539585
1768728953424,129,1,1.311955099487339,0.0479591589628327,-0.0837086792694354
1768728953428,129,1,1.325028773217736,0.0423136553776947,-0.0693811344105622
1768728953432,129,1,1.314124001158722,0.1113060156056261,-0.0783599014583247
1768728953436,129,1,1.294785528168867,-0.003061774235739,-0.0956292261233141
1768728953440,129,1,1.2775336869032796,0.0537240544844263,-0.1112275153417247
1768728953444,129,1,1.265547058982788,0.0247439594628342,-0.1221899748195879
1768728953448,129,1,1.2635980865399787,0.0289771119303088,-0.1234956002442466
1768728953452,129,1,1.285733843950769,0.1738985762940021,-0.1004805496186045
1768728953456,129,1,1.3510599027043375,-0.1339874553417505,-0.0335359218750136
1768728953460,129,1,1.471717785502527,0.2518101418182004,0.0892401167809942
1768728953464,130,2,1.6468738677235748,0.7548651878867327,0.266127456758228
1768728953468,129,1,1.8638859772542729,0.3438158431305746,0.4839040318272526
1768728953472,130,2,2.093295574570056,0.8192015469321762,0.7134472472181514
1768728953476,130,2,2.2785151376031685,1.2432856730884874,0.8989439935153809
1768728953480,130,2,2.3436259692541457,0.8564548457892741,0.9648744687369604
1768728953484,130,2,2.2325404735972896,1.1415213554867705,0.8549695424423182
1768728953488,130,2,1.9568836875321856,0.9735414037927034,0.5805815351170405
1768728953492,129,1,1.6088050235282405,0.1430089005440811,0.2339619926597479
1768728953496,129,1,1.3159966769163447,-0.0259238745398492,-0.0570684080875805
1768728953500,129,1,1.1682983232946895,0.0594330292960496,-0.2032245192235119
1768728953504,129,1,1.1734986921439474,-0.0053259945616237,-0.1976521854265788
1768728953508,129,1,1.2676407081778576,0.0646382516774097,-0.1043696702735277
1768728953512,129,1,1.355131293741075,0.0966824059447648,-0.0177487976331025
1768728953516,129,1,1.347296379193109,-0.0308835469867875,-0.025207572705218
1768728953520,129,1,1.1944667503359043,0.0984781089923855,-0.1764809662534767
1768728953524,129,1,0.9129690807855172,-0.0818916935718623,-0.4563403881313144
1768728953528,128,0,0.5869869263157205,-0.8342832696853358,-0.781351304401191
1768728953532,128,0,0.3251267466576245,-1.0237300136173546,-1.0427845573854513
1768728953536,128,0,0.1941561714430984,-0.9108388697350656,-1.173580192958935
1768728953540,128,0,0.184226504640632,-1.023911578470736,-1.1836176316004356
1768728953544,128,0,0.2318313782077204,-0.96817214834376,-1.1364071533026412
1768728953548,128,0,0.2727593344867506,-0.931308415724096,-1.0958237746621609
1768728953552,128,0,0.2794467022438502,-0.9574308338209034,-1.089047222438987
1768728953556,128,0,0.2620222454521151,-0.9604232174297722,-1.1059310966494802
1768728953560,128,0,0.2443846156636947,-1.00183045284064,-1.1229444075867538
1768728953564,128,0,0.2402380327034591,-0.9699714907930465,-1.1268349707933871
1768728953568,128,0,0.2464473902097016,-0.9398761072706988,-1.1209548686764543
1768728953572,128,0,0.2527804968577055,-0.9520082263492532,-1.1153637851994445
1768728953576,128,0,0.2538351896935489,-0.9731770094153102,-1.1150036121894678
1768728953580,128,0,0.2513812288807358,-0.9966629534012555,-1.1177060144448203
1768728953584,128,0,0.2486783345706301,-0.969411391645281,-1.120241121920058
1768728953588,128,0,0.2465991507333615,-0.9421255184291912,-1.122227701876226
1768728953592,128,0,0.2458398947780784,-0.9551449423743372,-1.1235166849462397
1768728953596,128,0,0.2491667864415726,-0.9779901225289284,-1.121426550458165
1768728953600,128,0,0.2573908745816778,-0.9965303353333652,-1.1146161726375718
1768728953604,128,0,0.2634433145309941,-0.9678599977483688,-1.1094016318826694
1768728953608,128,0,0.2556194353817437,-0.9411378989781836,-1.1171715933137805
1768728953612,128,0,0.2322552786953655,-0.9637671725869356,-1.1401149448860166
1768728953616,128,0,0.2134858793899257,-0.9758058335738292,-1.159188292982534
1768728953620,128,0,0.2309653328496118,-1.00224311480188,-1.1434710486828563
1768728953624,128,0,0.2937173617903807,-0.9658249227268416,-1.0834446230911428
1768728953628,128,0,0.3563309128771317,-0.9294437263569976,-1.023006940132436
1768728953632,128,0,0.3286644859028017,-1.0000177409006905,-1.0512406582186646
1768728953636,128,0,0.1420295166146601,-0.919926363139418,-1.2374975430349524
1768728953640,128,0,-0.1698695671242108,-1.0978243762771387,-1.54976787418189
1768728953644,127,-1,-0.4577671559551936,-1.8263420178821732,-1.839444423489056
1768728953648,127,-1,-0.5546060377576378,-2.117721573223891,-1.9383924187357784
1768728953652,127,-1,-0.4151344811718988,-1.7617969081208331,-1.8002946924420735
1768728953656,128,0,-0.1602678790337021,-1.2183265085191275,-1.5466585687852088
1768728953660,128,0,0.0306769860552889,-0.7495136311255426,-1.3580177849594557
1768728953664,128,0,0.0761474175928319,-1.2063589589534127,-1.31555991346193
1768728953668,127,-1,0.0395696210971702,-1.7314772152507811,-1.3540801021654425
1768728953672,128,0,0.0349155402470848,-1.1504039636595262,-1.3589790315623635
1768728953676,128,0,0.109377592036197,-0.861712226088168,-1.28472489096616
1768728953680,128,0,0.2207509150229994,-1.0546660051332393,-1.175418438802028
1768728953684,128,0,0.3015926179779988,-0.9424293963647624,-1.0983325030667377
1768728953688,128,0,0.3222832896089239,-0.9546187028745624,-1.0812539915875627
1768728953692,128,0,0.2997384530732094,-0.9976299084901964,-1.1059003797140907
1768728953696,128,0,0.2680503805741939,-0.9657518841231656,-1.138456203826815
1768728953700,128,0,0.2512986718968349,-0.9819395813197146,-1.1561594978131766
1768728953704,128,0,0.2571316369030406,-0.9714116749730316,-1.1524327329797068
1768728953708,128,0,0.2820575630386792,-0.9628568706352316,-1.1308375974270937
1768728953712,128,0,0.3133167292526625,-0.989802475189944,-1.1033631705171576
1768728953716,128,0,0.3273445672153006,-0.9872239801174808,-1.0927043087260926
1768728953720,128,0,0.2996383628046921,-0.9388394591935012,-1.1230579997242565
1768728953724,128,0,0.2338232476798982,-1.0100565642643118,-1.1910690472206815
1768728953728,128,0,0.1908172892290582,-0.9384675862547984,-1.236083625972134
1768728953732,128,0,0.2817452320326872,-1.0181911688596772,-1.1469152881352478
1768728953736,128,0,0.6103052882706248,-0.9864725361411366,-0.8200439139235203
1768728953740,129,1,1.1994383064464986,0.1103423655331132,-0.2335012568711629
1768728953744,130,2,1.957588850278732,0.9121417821047152,0.5202375055869959
1768728953748,130,2,2.7034660229617375,1.1657382645791556,1.2604955836821157
1768728953752,131,3,3.225578256154587,1.8331441748520472,1.777707351348441
1768728953756,131,3,3.3547049654026315,2.1663752973510917,1.903912164468016
1768728953760,131,3,3.038588029172673,1.9718018218920923,1.5863198628800532
1768728953764,130,2,2.3843598921960645,1.043475234783136,0.930650832532706
1768728953768,129,1,1.6204948326995732,0.0641086615360297,0.1644153901323294
1768728953772,129,1,0.9807905838652374,-0.1412681716953856,-0.4787410241643545
1768728953776,128,0,0.5831537306212159,-0.7884835027390051,-0.8805139357562679
1768728953780,128,0,0.3850977220110009,-1.1416668030243198,-1.0828734971021767
1768728953784,128,0,0.2406701392979313,-0.7396951944729009,-1.231605692951037
1768728953788,128,0,0.0122106619338785,-1.2365893688591094,-1.4645093697493623
1768728953792,127,-1,-0.3472999900759448,-1.821288410644081,-1.82843387929814
1768728953796,127,-1,-0.7975110533515022,-2.1188003558155537,-2.282423270789063
1768728953800,126,-2,-1.27490916161493,-2.831910413439456,-2.762729015901978
1768728953804,126,-2,-1.7379289552826318,-2.9658478407972413,-3.2284569971240673
1768728953808,126,-2,-2.1484485144694325,-3.100513693633159,-3.64225318788922
1768728953812,125,-3,-2.433493373972584,-3.888047078807078,-3.930907757009159
1768728953816,125,-3,-2.503086145129571,-4.147029843380121,-4.003819553270945
1768728953820,125,-3,-2.328207317260177,-3.714066115934636,-3.832754120749189
1768728953824,126,-2,-1.9960054409527996,-3.124731647226226,-3.5068507055023175
1768728953828,126,-2,-1.6742857683938066,-2.910173261234997,-3.1940066905282425
1768728953832,126,-2,-1.5115981979217463,-3.0995245046760016,-3.0388754010788346
1768728953836,126,-2,-1.5496416313099457,-2.9810384868621167,-3.078034902009219
1768728953840,126,-2,-1.6926873754976983,-2.813416725047174,-3.2152005861550736
1768728953844,126,-2,-1.7403790106881911,-3.0814445074080017,-3.2569121619908272
1768728953848,126,-2,-1.485871986118938,-2.8718704579081704,-3.0067222065031216
1768728953852,127,-1,-0.8585089929100576,-2.220227495113621,-2.398867519949281
1768728953856,127,-1,-0.0179980419584232,-1.8298314348806104,-1.5854390033777
1768728953860,128,0,0.7467498245974444,-0.9771531099125936,-0.8380469406959552
1768728953864,129,1,1.3880998831029534,0.1027509123186183,-0.1907071815967849
1768728953868,131,3,2.573793703124458,1.9616782557565968,1.0210616656613625
1768728953872,135,7,5.820092029091603,5.902706787823709,4.294010101503355
1768728953876,140,12,12.829777797988193,11.0773816900889,11.310441693477657
1768728953880,149,21,24.095188012441447,20.08880212000692,22.55623290148092
1768728953884,164,36,37.64086620316932,35.10350813564412,36.064916847165165
1768728953888,178,50,49.11092344261123,48.95052311067532,47.49637367255245
1768728953892,183,55,53.635379477622955,53.88674423737336,51.995614787629975
1768728953896,177,49,48.487172488314116,48.070049930614346,46.84574004633504
1768728953900,162,34,34.74987287957167,32.98171229156836,33.13095167496153
1768728953904,143,15,16.83885474483287,14.22403493265598,15.2542422156523
1768728953908,127,-1,0.2259857726396639,-2.1606578967248113,-1.3333325604470976
1768728953912,116,-12,-11.13071629757714,-12.895178382995232,-12.690312875987608
1768728953916,112,-16,-16.153186799813163,-17.07326565721485,-17.73976879804417
1768728953920,112,-16,-16.284769359085793,-16.89627072937779,-17.91037433078584
1768728953924,114,-14,-14.018091468645844,-14.908335586874207,-15.674522782032676
1768728953928,116,-12,-11.4305726917192,-13.097839984872005,-13.096642424441342
1768728953932,117,-11,-9.52500451645622,-11.906889431682414,-11.180790787873418
1768728953936,119,-9,-8.41654432278155,-10.090761430611083,-10.055148216372135
1768728953940,120,-8,-7.859419692309165,-8.858390474615257,-9.48877384448316
1768728953944,120,-8,-7.614016867071388,-8.99052219029686,-9.248467604678291
1768728953948,120,-8,-7.525253436015213,-9.018049706326291,-9.174411262556138
1768728953952,120,-8,-7.47370058073672,-8.943987489939813,-9.13735348115836
1768728953956,120,-8,-7.362908269126529,-9.080561725734336,-9.034414346658814
1768728953960,120,-8,-7.155888076354307,-8.81458838915871,-8.82929363790793
1768728953964,121,-7,-6.885083948169626,-8.114456658833571,-8.559465275712354
1768728953968,121,-7,-6.602715258850098,-7.840792927024958,-8.280938811244905
1768728953972,121,-7,-6.326542205056617,-8.145320936794725,-8.011049594830023
1768728953976,121,-7,-6.045459631752014,-7.846069903770169,-7.736036489644229
1768728953980,122,-6,-5.766919768052244,-7.057830195030336,-7.462237255863553
1768728953984,122,-6,-5.534231944256489,-6.904721700741569,-7.234159286430886
1768728953988,122,-6,-5.392159868712527,-7.017638460394377,-7.097655730586494
1768728953992,122,-6,-5.350296446028629,-6.986130567251131,-7.061633477893969
1768728953996,122,-6,-5.38373294547244,-6.967045508107965,-7.099864533241311
1768728954000,122,-6,-5.452531731733059,-6.969853916878007,-7.172347598094425
1768728954004,122,-6,-5.507241500091418,-6.990252432379593,-7.23089528616034
1768728954008,122,-6,-5.486331297801599,-6.9296273562756765,-7.214986489168564
1768728954012,122,-6,-5.336632691993055,-7.063268879796218,-7.071120493377692
1768728954016,122,-6,-5.058313577991878,-6.874466150249884,-6.798473151956043
1768728954020,123,-5,-4.728157524259213,-6.082503946524054,-6.4734729116842615
1768728954024,123,-5,-4.460108071116713,-5.877760746579889,-6.210397688670283
1768728954028,123,-5,-4.32792256752617,-6.040345754199748,-6.083081273401522
1768728954032,123,-5,-4.320516702517716,-5.9408879056921275,-6.0800811144413744
1768728954036,123,-5,-4.366254046219458,-5.985362658439272,-6.129805379208942
1768728954040,123,-5,-4.394657540156787,-5.9998318024854385,-6.162534025312079
1768728954044,123,-5,-4.381048506108929,-5.939079501316324,-6.154194867364739
1768728954048,123,-5,-4.348656439813707,-5.995776648540929,-6.127634993256269
1768728954052,123,-5,-4.338173447844061,-5.953268897017875,-6.122530011364288
1768728954056,123,-5,-4.368687097546218,-5.979188371449378,-6.157439051812799
1768728954060,123,-5,-4.412551680863595,-6.02403438305441,-6.205172168837718
1768728954064,123,-5,-4.401582429107451,-5.898377654328196,-6.198286749836831
1768728954068,123,-5,-4.269228172996254,-6.0525911721640195,-6.070401247728688
1768728954072,123,-5,-4.005792168958283,-5.859570549748453,-5.8116054924854
1768728954076,124,-4,-3.680076309661515,-5.087935284941853,-5.490833319528476
1768728954080,124,-4,-3.399895196502347,-4.916848105656302,-5.21618968623218
1768728954084,124,-4,-3.24247148021257,-5.008297899250146,-5.064432857320489
1768728954088,124,-4,-3.216232676906734,-4.939060485561464,-5.042830658902151
1768728954092,124,-4,-3.27632602423791,-4.959641796747778,-5.106025314678292
1768728954096,124,-4,-3.3600735764090346,-4.989422084715633,-5.192379683183773
1768728954100,124,-4,-3.405650294166044,-5.0191961949615695,-5.2417649623411675
1768728954104,124,-4,-3.3580878581512112,-4.904376693133892,-5.1997497014134915
1768728954108,124,-4,-3.188328756931563,-5.037711634942336,-5.0359964487505025
1768728954112,124,-4,-2.9228916328826804,-4.853431883594464,-4.775361183233461
1768728954116,125,-3,-2.6427651941121897,-4.087828265112583,-4.498690783487002
1768728954120,125,-3,-2.425868760326801,-3.937161871499162,-4.285218696905126
1768728954124,125,-3,-2.277480981035363,-3.966585534022153,-4.141090800873277
1768728954128,125,-3,-2.1271310730747945,-3.9935705995245305,-3.995224941762675
1768728954132,125,-3,-1.905675526639263,-3.867497760877327,-3.7775856709876305
1768728954136,126,-2,-1.6227119448204743,-3.099141660828674,-3.4980775894622154
1768728954140,126,-2,-1.361883176009216,-2.8949041612697948,-3.2413969982417252
1768728954144,126,-2,-1.2049301916795296,-3.0325660851162692,-3.089491189613787
1768728954148,126,-2,-1.1677329916005077,-2.902002853206224,-3.057217360161628
1768728954152,126,-2,-1.2035928023285418,-2.973740308312909,-3.0968336752874572
1768728954156,126,-2,-1.2521170210836168,-2.990407895661138,-3.1479813107417756
1768728954160,126,-2,-1.2783952542926402,-2.984040933140073,-3.176736735683338
1768728954164,126,-2,-1.2752717612440494,-2.961115319261441,-3.1769945536358963
1768728954168,126,-2,-1.2452393149201475,-2.939401664819042,-3.151548670921823
1768728954172,126,-2,-1.1940548772007886,-2.9725864668150583,-3.1054588233853075
1768728954176,126,-2,-1.1462406668481016,-2.956216688819393,-3.0620978441986577
1768728954180,126,-2,-1.1571997792528674,-3.0426323722098543,-3.0763277262875386
1768728954184,126,-2,-1.2883939895419343,-2.8706965448486175,-3.210193336559729
1768728954188,126,-2,-1.5509861537468663,-3.0440555310638424,-3.475775845125253
1768728954192,125,-3,-1.872949728177709,-3.86072952196815,-3.801163549578495
1768728954196,125,-3,-2.1368259609673013,-4.069497547725959,-4.06833783608418
1768728954200,125,-3,-2.2628006855019307,-3.927723095341329,-4.197350704250745
1768728954204,125,-3,-2.259846768070563,-3.968912928182751,-4.197721050398366
1768728954208,125,-3,-2.202648593525508,-3.946660996612983,-4.144438370746117
1768728954212,125,-3,-2.1662473838295053,-3.949596138274384,-4.112068491553508
1768728954216,125,-3,-2.177218267000664,-3.993610561288469,-4.126533800570755
1768728954220,125,-3,-2.208487244227778,-3.996047539520601,-4.160631646754715
1768728954224,125,-3,-2.2057825735165153,-3.890032368145127,-4.160351535761961
1768728954228,125,-3,-2.120456280154915,-4.019712010920644,-4.077287075111029
1768728954232,125,-3,-1.9282040103800453,-3.87113610753556,-3.88745927428054
1768728954236,126,-2,-1.624854212715663,-3.079498080512616,-3.587173024403675
1768728954240,126,-2,-1.2121619729421504,-2.9078951893927205,-3.1781780990143633
1768728954244,126,-2,-0.7013120085682643,-2.959152181326623,-2.670886444285591
1768728954248,127,-1,-0.1352658585426449,-1.9558498800041704,-2.107702377094004
1768728954252,128,0,0.4102262745397711,-0.9186082751012484,-1.5647598251108596
1768728954256,128,0,0.869036942092523,-1.0540519149484542,-1.1086373450899638
1768728954260,128,0,1.230309322918084,-0.9122389423982846,-0.7498608382504343
1768728954264,129,1,1.5382197840766318,0.0471854767515212,-0.4438394314576815
1768728954268,129,1,1.8506001842003212,0.0400721427356986,-0.1331320890853926
1768728954272,129,1,2.194524615252865,0.0944552290860039,0.2084832573707659
1768728954276,130,2,2.545428066116872,0.9304237616175984,0.5560394764999876
1768728954280,130,2,2.8374084947299836,1.1059400751200348,0.8441938508911961
1768728954284,130,2,2.996413996224236,1.0442750631589306,1.0001473226924436
1768728954288,130,2,2.976710376724391,1.0370707807889952,0.9789351913537498
1768728954292,130,2,2.786915018791825,1.1105041142576426,0.7884306306654678
1768728954296,130,2,2.497797829068441,0.9033874122744476,0.4978745100102404
1768728954300,129,1,2.215312435197864,0.1492298578254492,0.2127404369325222
1768728954304,129,1,2.015345445606524,0.0049551096921945,0.0098739675809969
1768728954308,129,1,1.8865924312961628,0.0799212416816217,-0.121170124666407
1768728954312,129,1,1.7460855283229997,0.0783736865305202,-0.2636475377929933
1768728954316,129,1,1.5253237058795603,-0.0762327245099545,-0.4866083977236111
1768728954320,128,0,1.2426458821113493,-0.841220205275689,-0.7713977149749398
1768728954324,128,0,0.988096912662512,-1.0300554282679355,-1.0273183869127287
1768728954328,128,0,0.842773686526278,-0.852852202365118,-1.1735226056216146
1768728954332,128,0,0.8178100819096962,-1.007913063284299,-1.1998897256282754
1768728954336,128,0,0.8617488823656653,-0.9664688419913352,-1.1583266033811008
1768728954340,128,0,0.9106610859926644,-0.9423862743148638,-1.1120930596076517
1768728954344,128,0,0.9293957667638726,-0.9460236463713052,-1.095406411059281
1768728954348,128,0,0.9194590436246752,-0.9104202766016196,-1.1065421992641655
1768728954352,128,0,0.9018015209166662,-0.9720281377082636,-1.1250578097670112
1768728954356,128,0,0.8945171439416943,-0.9672046098815048,-1.1334374333267483
1768728954360,128,0,0.9007576818399862,-0.950055388293725,-1.1287104541901598
1768728954364,128,0,0.9115103359649968,-0.9321594562151768,-1.119707753115132
1768728954368,128,0,0.9171267360804708,-0.92241367854525,-1.115791346490114
1768728954372,128,0,0.9161053267632658,-0.9580265062339554,-1.1182623723618863
1768728954376,128,0,0.9139509553355358,-0.964110004096674,-1.1215815485265304
1768728954380,128,0,0.915426878521774,-0.9510465576056502,-1.1211219467100422
1768728954384,128,0,0.9195838469706976,-0.9283112345331695,-1.1180414702394974
1768728954388,128,0,0.9223638833757972,-0.9249845895147186,-1.1164993737360194
1768728954392,128,0,0.922296792990978,-0.949499619341658,-1.117860430758907
1768728954396,128,0,0.9219550938958848,-0.9594766237851244,-1.119356300791389
1768728954400,128,0,0.9240659000221454,-0.9509789163085752,-1.1182008537146086
1768728954404,128,0,0.9279255827892422,-0.9263574959699328,-1.1152478232336045
1768728954408,128,0,0.9306307195086926,-0.9250561054608474,-1.1135725404502732
1768728954412,128,0,0.9309221108831616,-0.9427204982668822,-1.1143940761291202
1768728954416,128,0,0.9303539857470624,-0.953374417970096,-1.115920571616796
1768728954420,128,0,0.9307436639206096,-0.952620674461638,-1.116179048450905
1768728954424,128,0,0.932082560999092,-0.9221102417850184,-1.1153406677969155
1768728954428,128,0,0.9339113701597248,-0.9267094125878098,-1.1142415361576228
1768728954432,128,0,0.937360110974565,-0.9352965242081956,-1.1119542405228766
1768728954436,128,0,0.943296922086578,-0.945204605767014,-1.1073478562046837
1768728954440,128,0,0.9479407493838758,-0.9600162730933468,-1.1036201190643844
1768728954444,128,0,0.943473906102596,-0.9087172507272632,-1.1082120048561388
1768728954448,128,0,0.9276695822316304,-0.9376518239770072,-1.1236338313764187
1768728954452,128,0,0.9141545796392552,-0.92216493808595,-1.1370916749116289
