timestamp_ms,ecg_u8_raw,ecg_counts_raw_int,ecg_counts_filt_monitor,ecg_counts_filt_diagnostic,ecg_counts_filt_st
1768646870956,119,-9,-8.462853670183087,-9.100937451974469,-9.172510994249189
1768646870960,119,-9,-8.181944535773255,-8.882319029678897,-8.900113328434163
1768646870964,120,-8,-7.829057151864189,-8.162887323036092,-8.556133429801342
1768646870968,120,-8,-7.549562743832956,-7.967124471981416,-8.28520339172966
1768646870972,120,-8,-7.434793231170208,-8.10519062585809,-8.177902406277362
1768646870976,120,-8,-7.459634501460405,-7.990091816253991,-8.208850016330151
1768646870980,120,-8,-7.504244719624148,-7.976869096744832,-8.258762838116242
1768646870984,120,-8,-7.437533807633224,-8.116519359207544,-8.197640203913299
1768646870988,120,-8,-7.202246761538952,-7.960299301880984,-7.969216804669292
1768646870992,121,-7,-6.845738842890387,-7.191709315039552,-7.621087731867046
1768646870996,121,-7,-6.482004796020714,-6.837418689945013,-7.266190910017027
1768646871000,121,-7,-6.222573161175186,-7.212143540068433,-7.014175733700979
1768646871004,121,-7,-6.124058683537149,-6.8241744368612425,-6.920843078085737
1768646871008,122,-6,-6.164589938041767,-6.311809093047282,-6.965673668965447
1768646871012,121,-7,-6.246617396009446,-6.820117414456155,-7.052972436468789
1768646871016,121,-7,-6.242914468985234,-7.223812601299391,-7.055621240465606
1768646871020,121,-7,-6.081694245778282,-6.841936137680224,-6.900632064344018
1768646871024,122,-6,-5.803840746530533,-6.182786309067279,-6.6284564237252015
1768646871028,122,-6,-5.528164494314985,-5.991390048205766,-6.358610781342876
1768646871032,122,-6,-5.355164705943562,-6.10457527348168,-6.191968200378642
1768646871036,122,-6,-5.304258560421111,-5.996662970115542,-6.147247793437904
1768646871040,122,-6,-5.331711512958568,-6.032183380338933,-6.179796871371904
1768646871044,122,-6,-5.387642490375422,-6.058840230768649,-6.239596372870183
1768646871048,122,-6,-5.445079105293641,-6.058276202071764,-6.300398434828521
1768646871052,122,-6,-5.481673509411161,-6.097510224050836,-6.3408364711524845
1768646871056,122,-6,-5.45227270925049,-5.960539433904315,-6.316259722934995
1768646871060,122,-6,-5.301496811057277,-6.128999173247369,-6.170960473123184
1768646871064,122,-6,-5.019149648878171,-5.941968558980341,-5.893975095522398
1768646871068,123,-5,-4.68170371181345,-5.189983568017849,-5.561255713368254
1768646871072,123,-5,-4.420379805741222,-4.970042279949107,-5.3038774616302575
1768646871076,123,-5,-4.326441490720266,-5.079080244317717,-5.213049832383764
1768646871080,123,-5,-4.372721101673001,-5.058878722030338,-5.261731667316396
1768646871084,123,-5,-4.4221002690467355,-4.990480912913855,-5.313351222262079
1768646871088,123,-5,-4.323562811353879,-5.1793466748466095,-5.2175522318828245
1768646871092,123,-5,-4.0290277863480926,-4.947755903432826,-4.9265317888934295
1768646871096,124,-4,-3.6431994749485614,-4.124466018001726,-4.544854110524151
1768646871100,124,-4,-3.361586531024663,-4.028550536502139,-4.267594123385651
1768646871104,124,-4,-3.338546442483642,-4.026864566423111,-4.2483050931865085
1768646871108,124,-4,-3.5860132549566193,-4.1628670534194265,-4.497930143588272
1768646871112,123,-5,-3.975586415669312,-4.950698030935394,-4.8877417917457855
1768646871116,123,-5,-4.328119697281682,-5.140327288000236,-5.239769334947456
1768646871120,123,-5,-4.510712991739369,-5.0206555467286496,-5.4232502030820235
1768646871124,123,-5,-4.4783324473317005,-5.04286224182542,-5.394172484184269
1768646871128,123,-5,-4.264963720718157,-5.1569475707803365,-5.185048662123641
1768646871132,123,-5,-3.959778101702271,-4.94560986017078,-4.882540902514421
1768646871136,124,-4,-3.6724999695273928,-4.172508007290014,-4.595619626778662
1768646871140,124,-4,-3.4751920585150384,-3.991018683084703,-4.397866737499731
1768646871144,124,-4,-3.351301588505268,-4.0853794689102365,-4.2742656754293495
1768646871148,124,-4,-3.21295621439511,-4.122415134955398,-4.136781454324865
1768646871152,124,-4,-2.9889441218863024,-3.971726381640588,-3.913293057616991
1768646871156,125,-3,-2.699494370040614,-3.1817551237677413,-3.624062211533315
1768646871160,125,-3,-2.439749450080873,-2.960325715220542,-3.3649886182155537
1768646871164,125,-3,-2.2936519511338753,-3.151569703890897,-3.2200003034991345
1768646871168,125,-3,-2.2699641361265512,-3.037741564844896,-3.1968003065024932
1768646871172,125,-3,-2.313615166778292,-3.0820338065786363,-3.2395443496565464
1768646871176,125,-3,-2.3614866495111695,-3.0849636159853233,-3.2856015603043653
1768646871180,125,-3,-2.3822574916534713,-3.04556886971823,-3.3048544211791695
1768646871184,125,-3,-2.376459081593414,-3.0919382323364655,-3.2985683093120577
1768646871188,125,-3,-2.3565290805863826,-3.0797084054335127,-3.278899516758062
1768646871192,125,-3,-2.3346592195620253,-3.0747214192055576,-3.25709958476432
1768646871196,125,-3,-2.3245103335476807,-3.089505056991165,-3.245982513792323
1768646871200,125,-3,-2.3417636433710087,-3.055383625706334,-3.2610914988504547
1768646871204,125,-3,-2.389934936500334,-3.0739923781989105,-3.306634185001887
1768646871208,125,-3,-2.439444312291006,-3.117377001291637,-3.353982662556595
1768646871212,125,-3,-2.426794864909549,-3.0348920159727752,-3.339909380493012
1768646871216,125,-3,-2.2918396878989364,-3.1598506784816007,-3.203533032465283
1768646871220,125,-3,-2.03225472623238,-2.970439041796989,-2.941710253739866
1768646871224,126,-2,-1.7223605177696069,-2.175685514263044,-2.628991300111789
1768646871228,126,-2,-1.4668446695425603,-2.0092046959000656,-2.371074353602436
1768646871232,126,-2,-1.3280649468498291,-2.165532950761934,-2.230710866100565
1768646871236,126,-2,-1.297185907580121,-2.039507146128945,-2.198224357096404
1768646871240,126,-2,-1.3288302994081185,-2.0953398831350816,-2.227057844213601
1768646871244,126,-2,-1.3890405626623776,-2.0665304180751236,-2.2829633293022966
1768646871248,126,-2,-1.4614321754805784,-2.0904836136114757,-2.35049664100287
1768646871252,126,-2,-1.5140648798727891,-2.138356505453505,-2.3991487232608018
1768646871256,126,-2,-1.4806771562781167,-2.0292933755646327,-2.3632972290935914
1768646871260,126,-2,-1.3005199775533471,-2.170811446233405,-2.1813269746395907
1768646871264,126,-2,-0.994849598813921,-1.939032203893288,-1.8729601675376573
1768646871268,127,-1,-0.6975593467198546,-1.2627926278085653,-1.5715669903743903
1768646871272,127,-1,-0.5801765220660533,-0.9445122437111728,-1.449585440027598
1768646871276,127,-1,-0.7185308134174679,-1.2556307156492643,-1.583787491986567
1768646871280,126,-2,-1.02671790890071,-1.952309508166778,-1.888063504637565
1768646871284,126,-2,-1.3282230733090654,-2.1563104723669824,-2.1851846693924397
1768646871288,126,-2,-1.4960542109624415,-2.0630149046560717,-2.348156656439317
1768646871292,126,-2,-1.5300390332495295,-2.1264643022871055,-2.3774685346665945
1768646871296,126,-2,-1.5132985316719845,-2.103378464641256,-2.35660891670055
1768646871300,126,-2,-1.5072485332819312,-2.0976149072166663,-2.3466695626558964
1768646871304,126,-2,-1.4885267584224158,-2.0376931143415633,-2.3236620314281717
1768646871308,126,-2,-1.3806657354440968,-2.1760851409352835,-2.2107192816586254
1768646871312,126,-2,-1.1440955376609918,-2.021296603987052,-1.9684988841852356
1768646871316,127,-1,-0.8339805905265743,-1.2132035750034214,-1.6530082608558825
1768646871320,127,-1,-0.566907993611343,-0.9974844485859122,-1.3814750493923509
1768646871324,127,-1,-0.4303104821191508,-1.1501133877695295,-1.240865981122742
1768646871328,127,-1,-0.4240109540269898,-1.0703265666236146,-1.2298015190262248
1768646871332,127,-1,-0.4807636591148574,-1.1298845360232108,-1.280494523750639
1768646871336,127,-1,-0.5305649646643877,-1.1226587446563272,-1.323713938711574
1768646871340,127,-1,-0.5450126123453498,-1.0754067578118311,-1.3322833650128971
1768646871344,127,-1,-0.5353254357357595,-1.1024096816419364,-1.317838344309933
1768646871348,127,-1,-0.5243532857391162,-1.1027986553815876,-1.3025202282527226
1768646871352,127,-1,-0.5248537921163916,-1.124742313058975,-1.2980223588733388
1768646871356,127,-1,-0.5366291821438482,-1.1223627808792316,-1.3037088980368283
1768646871360,127,-1,-0.553342892136423,-1.0888051562050072,-1.3137529866080295
1768646871364,127,-1,-0.5670320362119878,-1.0925178847296635,-1.3211355194221874
1768646871368,127,-1,-0.5699388783918671,-1.121191185563375,-1.3186434102165736
1768646871372,127,-1,-0.5600517619574306,-1.1156648230165915,-1.3039658005147967
1768646871376,127,-1,-0.5490383559063163,-1.1358415618821809,-1.2879206182854337
1768646871380,127,-1,-0.560088936130519,-1.088787027430511,-1.293067968313108
1768646871384,127,-1,-0.6067370913683858,-1.0851946909240842,-1.3330867114711595
1768646871388,127,-1,-0.6647048959317938,-1.1554235979551213,-1.384401822460527
1768646871392,127,-1,-0.6672012055462369,-1.0671837554882844,-1.3806986831977528
1768646871396,127,-1,-0.5438826342008554,-1.214299794265049,-1.2514917673458072
1768646871400,127,-1,-0.2822797768534977,-0.9994773678109838,-0.9840886940697826
1768646871404,128,0,0.0441296108701916,-0.1885305352824444,-0.6522278538486339
1768646871408,128,0,0.3161815385338251,-0.055790007109961,-0.3753014442541642
1768646871412,128,0,0.4465865178950439,-0.1748839196894678,-0.2399553118121744
1768646871416,128,0,0.4294322713084009,-0.1149117333899991,-0.2510362999711606
1768646871420,128,0,0.3337309563702095,-0.1179980057273408,-0.3393925962211921
1768646871424,128,0,0.2651312463249062,-0.0574640613699235,-0.4004672892421053
1768646871428,128,0,0.3248217278850982,-0.2137678535220319,-0.3342826656226232
1768646871432,128,0,0.5734803904455936,0.0102751359436188,-0.0804944458062917
1768646871436,129,1,1.006466116373277,0.6507893277434809,0.3568102172133933
1768646871440,129,1,1.555244224490481,1.1452448235231674,0.910130097854194
1768646871444,130,2,2.118982432869557,1.6409236328420105,1.479647620668077
1768646871448,130,2,2.6089500845886664,2.1097526306173453,1.9768094897418669
1768646871452,131,3,2.982090121611185,2.6701873813914823,2.357387258080246
1768646871456,131,3,3.245198838198824,2.9638737203616596,2.6265494169673245
1768646871460,131,3,3.4195853002422556,2.859504494614349,2.8052157364464425
1768646871464,131,3,3.483046874788194,2.867269882114607,2.8724410779680385
1768646871468,131,3,3.345065471708435,2.9502203899957964,2.739165542051163
1768646871472,131,3,2.9056270597371983,2.747898814239632,2.3056733399604106
1768646871476,130,2,2.1689440876150803,1.9447670754128112,1.5756083416133204
1768646871480,129,1,1.305073317308647,0.8108610939892924,0.7185564643001521
1768646871484,128,0,0.5789375773618358,-0.045799252795835,-0.0009135762164276
1768646871488,128,0,0.1874774906724299,-0.1724066507561226,-0.3866134191406334
1768646871492,128,0,0.134143930848784,-0.1063534876997946,-0.4358394751938912
1768646871496,128,0,0.2355402331255108,-0.2272928051151939,-0.3316596666861391
1768646871500,128,0,0.2455053808837418,-0.0050899153885206,-0.3187334575534248
1768646871504,128,0,0.0041328961088689,-0.2624655628239636,-0.5555231184056999
1768646871508,127,-1,-0.481114915624645,-0.9498866259026246,-1.0343469939638714
1768646871512,127,-1,-1.060990236110137,-1.3422106108461,-1.6069912215312163
1768646871516,126,-2,-1.5477832393178073,-1.9924586288823156,-2.0872152392430134
1768646871520,126,-2,-1.8240814289781264,-2.2415238209235886,-2.358653573979591
1768646871524,126,-2,-1.8909524501734432,-2.045762604687145,-2.42247828546219
1768646871528,126,-2,-1.8390252869003016,-2.15351835704587,-2.36836334364197
1768646871532,126,-2,-1.7789136436734043,-2.171140876902341,-2.30544222520486
1768646871536,126,-2,-1.7809333020729623,-2.134745829979753,-2.3031620581076906
1768646871540,126,-2,-1.847357499817526,-2.146281568108071,-2.364215660317331
1768646871544,126,-2,-1.9159179116913736,-2.117428473030298,-2.427234561560178
1768646871548,126,-2,-1.8949921479946377,-2.108984295800002,-2.400600730881467
1768646871552,126,-2,-1.730154293659684,-2.2103865791807884,-2.2293565885226316
1768646871556,126,-2,-1.4682898701267968,-2.096055576215279,-1.9616483794507755
1768646871560,127,-1,-1.252944859450711,-1.211878421162535,-1.7448247984305032
1768646871564,127,-1,-1.2195675626657476,-1.0339577819570844,-1.7168900057096352
1768646871568,126,-2,-1.345517344991459,-2.223287030538675,-1.8515324221554028
1768646871572,126,-2,-1.3360727972236306,-2.082762074500708,-1.844728041226149
1768646871576,128,0,-0.567992677824178,-0.2436704855790674,-1.0654585859231402
1768646871580,130,2,1.898435057045118,1.92962535438856,1.4249674417481586
1768646871584,135,7,7.131028112559336,6.844865529756575,6.683450260053036
1768646871588,144,16,15.826255608482748,15.886897562127915,15.391827862275465
1768646871592,155,27,27.57312134551279,26.822872481683223,27.1305685960253
1768646871596,167,39,40.290375471987026,38.81027022213157,39.82245414100072
1768646871600,178,50,50.40421221014447,49.902891642532275,49.90792807476564
1768646871604,183,55,54.05393021152389,54.80813303538328,53.541802730601106
1768646871608,178,50,48.92497077788876,49.92910666995098,48.41822466475793
1768646871612,164,36,35.67457111110036,35.69953526518954,35.19315556693124
1768646871616,145,17,17.951930376425082,16.910827320269735,17.505260212527013
1768646871620,128,0,0.8509977428998106,-0.1935408942021501,0.4327382622028861
1768646871624,116,-12,-11.338261132490564,-12.047364530827194,-11.747694609442556
1768646871628,111,-17,-16.794784553454548,-17.12512672623399,-17.21782894076737
1768646871632,112,-16,-16.417285520147573,-16.238803671181145,-16.86706360133706
1768646871636,116,-12,-12.75394365660864,-12.163758087361956,-13.22820853900227
1768646871640,120,-8,-8.441706747818701,-8.1844206593955,-8.925781138302044
1768646871644,122,-6,-5.103358637988794,-6.071390685770039,-5.57920762923227
1768646871648,124,-4,-3.1534725861768154,-4.107264134936758,-3.609763954357991
1768646871652,126,-2,-2.2793479937284,-2.259950478669815,-2.7171741035573955
1768646871656,126,-2,-2.0228270857283737,-2.16462240434211,-2.4534883238652956
1768646871660,126,-2,-2.0684994228943903,-2.199090742432295,-2.504761216510584
1768646871664,126,-2,-2.2391522621923703,-2.0561311311087462,-2.6865089181811888
1768646871668,125,-3,-2.413278847237061,-3.10320572556,-2.867770738926272
1768646871672,125,-3,-2.5082005978571984,-3.2923180493535584,-2.9619053226473753
1768646871676,126,-2,-2.4999758744438245,-2.104545246536389,-2.948729967126783
1768646871680,126,-2,-2.401091134631856,-2.3275831863160557,-2.8470967878105413
1768646871684,125,-3,-2.213983397309802,-2.8707173913341677,-2.6616519367262645
1768646871688,126,-2,-1.9393677012567032,-2.325224134003549,-2.390247983603479
1768646871692,126,-2,-1.6322656329345957,-2.0599568397202037,-2.0848153493496335
1768646871696,127,-1,-1.4053355546348705,-1.361847278920715,-1.858239259294839
1768646871700,127,-1,-1.3394088328088405,-1.074344247745914,-1.793152937264143
1768646871704,126,-2,-1.3967319689217104,-2.1168034774304423,-1.8519437255769464
1768646871708,126,-2,-1.4452772498453863,-2.0912388123424117,-1.9013703000490707
1768646871712,127,-1,-1.3689530303263178,-1.2950099818497776,-1.8254008254186391
1768646871716,127,-1,-1.143722655980345,-1.1589618644887678,-1.6015389701865894
1768646871720,127,-1,-0.8229997924671602,-1.2505558471685168,-1.283799692675911
1768646871724,127,-1,-0.4836284712821439,-0.9535125078940752,-0.9477987311886116
1768646871728,128,0,-0.1908799990831662,-0.2566333703172487,-0.6575626848692402
1768646871732,128,0,0.0154458078520081,-0.152432622416585,-0.4530212543208229
1768646871736,128,0,0.1272330407851174,-0.3079147652050087,-0.3430846299222509
1768646871740,128,0,0.1621950071264599,-0.099417281117474,-0.3104127131066176
1768646871744,128,0,0.1467192564587427,-0.0927943696030406,-0.3285394418206118
1768646871748,128,0,0.104295847531981,-0.1506335862146237,-0.373863758898886
1768646871752,128,0,0.0583673646587272,-0.2412755096963834,-0.4229121915209712
1768646871756,128,0,0.0393372844881341,-0.2680829576438785,-0.4452204252410809
1768646871760,128,0,0.0822190048363387,-0.0857802154396691,-0.4055856501311132
1768646871764,128,0,0.2121462680791399,-0.1556831230709969,-0.2786683769894205
1768646871768,128,0,0.4280229125881782,-0.0502844410266225,-0.0657688966792364
1768646871772,129,1,0.7017573902213925,0.5985999996926232,0.204303185345436
1768646871776,129,1,0.9978181462146328,0.9223236639811228,0.4956876057914985
1768646871780,129,1,1.2910390695058067,0.703152897081041,0.7841318687166734
1768646871784,129,1,1.56201866903748,1.065050686560604,1.0514802165249952
1768646871788,130,2,1.7884048920163111,1.7267138982870187,1.2751804220415417
1768646871792,130,2,1.9621651491125929,1.7727065338101555,1.4456289369572632
1768646871796,130,2,2.1150540346524545,1.796368090994155,1.5936801779101084
1768646871800,130,2,2.302625942047883,1.7760787136412404,1.7757431465629434
1768646871804,130,2,2.5465657889681643,2.0413782705553087,2.014785848203278
1768646871808,131,3,2.802432547960074,2.700171323515874,2.2664214156244378
1768646871812,131,3,3.002467858862242,2.803291236670425,2.462016652578856
1768646871816,131,3,3.133840480773845,2.7731986603121466,2.58842659720281
1768646871820,131,3,3.266050594754746,2.7731269960420395,2.715756945224564
1768646871824,131,3,3.4966369004956777,3.07631649517263,2.941949645792899
1768646871828,132,4,3.870971308374561,3.611050460624395,3.3118030443346456
1768646871832,132,4,4.350371702047754,3.921075163947709,3.785776094974404
1768646871836,133,5,4.8464144709039925,4.637845956979648,4.275469977211285
1768646871840,133,5,5.279976927793649,4.907393298897995,4.70276138492606
1768646871844,133,5,5.616928514379431,4.952073743040577,5.034336344606022
1768646871848,134,6,5.869125085545637,5.682321041293944,5.281749793136409
1768646871852,134,6,6.078390960070898,5.895758514320407,5.485988303583804
1768646871856,134,6,6.295058363333818,5.611977748746738,5.697182507462525
1768646871860,134,6,6.5530654345379995,5.981984200834785,5.949607793220212
1768646871864,135,7,6.856590806399976,6.832639691545787,6.2473706207814335
1768646871868,135,7,7.192452636258447,6.803163367566816,6.576888914285932
1768646871872,135,7,7.550089665004463,6.773755334549171,6.927769176157927
1768646871876,136,8,7.921233169788224,7.726124380375324,7.292504286540263
1768646871880,136,8,8.286155206734936,7.87791559364943,7.651833566923704
1768646871884,136,8,8.615159110779516,7.914081671469093,7.97565164718395
1768646871888,137,9,8.892225885915094,8.717387087359866,8.246979843429129
1768646871892,137,9,9.136361256729815,8.859327271115978,8.484344472733692
1768646871896,137,9,9.389549799191684,8.626891113326904,8.730410969513276
1768646871900,137,9,9.671796204058662,8.999111683365804,9.00620640793749
1768646871904,138,10,9.950943627834608,9.75350893633756,9.27956045703503
1768646871908,138,10,10.170296161899389,9.893163213417733,9.492932381045758
1768646871912,138,10,10.305346951829828,9.668546998490452,9.621575959238678
1768646871916,138,10,10.377048350964245,9.818940752953926,9.687036144757537
1768646871920,138,10,10.401440960777794,9.811935105184736,9.705474444576014
1768646871924,138,10,10.333252518523746,9.903269541166718,9.630756581758613
1768646871928,138,10,10.063275462869033,9.776963172179087,9.353137374963454
1768646871932,137,9,9.467102631512583,8.740817744926893,8.749108377527799
1768646871936,136,8,8.463150382953842,7.788748911328054,7.7384481052889855
1768646871940,135,7,7.052859010527886,6.788774777476107,6.322704688912711
1768646871944,133,5,5.334637000097969,4.951662739740934,4.599198485222737
1768646871948,131,3,3.4761137039115577,2.6980099306219176,2.734740370016233
1768646871952,129,1,1.6415494816166332,0.8470669820825913,0.8935680977120515
1768646871956,128,0,-0.0803697809013197,-0.3418445468363575,-0.8354562988754637
1768646871960,126,-2,-1.689425239956969,-2.074132007768511,-2.4518635152391823
1768646871964,124,-4,-3.224933284487821,-4.196298713152678,-3.994438397702619
1768646871968,123,-5,-4.704683081369315,-5.16465497419936,-5.480683114366771
1768646871972,122,-6,-6.093310796402093,-6.269289746266561,-6.875593712150171
1768646871976,120,-8,-7.31288585235708,-8.270204015798198,-8.101559109613511
1768646871980,119,-9,-8.28811142524931,-9.101201522174197,-9.083056739283109
1768646871984,119,-9,-8.99081791575617,-9.227876370451693,-9.791741244861914
1768646871988,118,-10,-9.441158666887173,-10.087562645630271,-10.248086366687993
1768646871992,118,-10,-9.66960710945778,-10.389671074148357,-10.482933183650571
1768646871996,118,-10,-9.690183139740606,-10.115817020506762,-10.510274550063183
1768646872000,118,-10,-9.517852851410067,-10.29784096378202,-10.34477863243766
1768646872004,118,-10,-9.208412375482991,-10.017720147626624,-10.042004301292446
1768646872008,119,-9,-8.870479811232865,-9.30354501818304,-9.710532220507634
1768646872012,119,-9,-8.622854884649037,-9.187575353574312,-9.469157639002866
1768646872016,119,-9,-8.525076742283822,-9.292354433615834,-9.377308049434706
1768646872020,119,-9,-8.539513094547553,-9.175822898452031,-9.39734032541546
1768646872024,119,-9,-8.557770740115943,-9.09868523182366,-9.421091167745615
1768646872028,119,-9,-8.473489457645925,-9.277084205618031,-9.34243460803006
1768646872032,119,-9,-8.251012883203012,-9.15392980094144,-9.125884736004496
1768646872036,120,-8,-7.939646257539265,-8.383800069963268,-8.82099165248804
1768646872040,120,-8,-7.622742069255009,-8.04396585552917,-8.511008664548282
1768646872044,120,-8,-7.350556820214845,-8.285503846703534,-8.245279191647617
1768646872048,120,-8,-7.118939166447949,-8.054383812225392,-8.018793357516083
1768646872052,121,-7,-6.897009596926671,-7.40427382746311,-7.801209839218449
1768646872056,121,-7,-6.65708944791558,-7.121267896223213,-7.566252017720564
1768646872060,121,-7,-6.384851467437882,-7.314247087070384,-7.29996401296218
1768646872064,121,-7,-6.087275965416313,-7.033527259403929,-7.0083590242540295
1768646872068,122,-6,-5.800636308431197,-6.292039297565814,-6.727032183188662
1768646872072,122,-6,-5.575653111761374,-6.193567301903439,-6.507159663832057
1768646872076,122,-6,-5.44301421820992,-6.302524970215956,-6.380019093429636
1768646872080,122,-6,-5.396160067870614,-6.166466737783331,-6.338809003257605
1768646872084,122,-6,-5.40783371786159,-6.16802470131782,-6.355574982951059
1768646872088,122,-6,-5.453683521039271,-6.188694964129378,-6.405699046884789
1768646872092,122,-6,-5.512803817025722,-6.266210672320206,-6.468741956574419
1768646872096,122,-6,-5.549527440339362,-6.260725060183814,-6.509791455560695
1768646872100,122,-6,-5.507860160756273,-6.173073254098238,-6.473116302015173
1768646872104,122,-6,-5.341783114586166,-6.226384004129444,-6.312132015325756
1768646872108,122,-6,-5.065464912506483,-6.072563106144052,-6.040330215493851
1768646872112,123,-5,-4.771776591186729,-5.452375540114857,-5.750785186934624
1768646872116,123,-5,-4.584187356940588,-4.992668344729828,-5.567750981252345
1768646872120,123,-5,-4.575913460315235,-5.523234058992548,-5.564484750972958
1768646872124,122,-6,-4.730740642417055,-5.829397916970883,-5.723797754528373
1768646872128,123,-5,-4.972946376543103,-5.516703893035724,-5.969228487680795
1768646872132,122,-6,-5.221155726532773,-5.999343137230576,-6.219797106829134
1768646872136,122,-6,-5.415170682902037,-6.409801054634058,-6.416406272824327
1768646872140,122,-6,-5.512230819944056,-6.1648871506693546,-6.5172088101499455
1768646872144,122,-6,-5.480119879083022,-6.126163103704512,-6.4899882566122296
1768646872148,122,-6,-5.309415069946233,-6.321393991385108,-6.324167237298575
1768646872152,122,-6,-5.038738437215958,-6.098802608988634,-6.057002282329059
1768646872156,123,-5,-4.754616638290319,-5.3817590874419245,-5.774991537464587
1768646872160,123,-5,-4.537773410326379,-5.140240884287602,-5.5602197627210845
1768646872164,123,-5,-4.394128764478285,-5.194765293431967,-5.419569731445215
1768646872168,123,-5,-4.249939143650378,-5.262964951863672,-5.278722463636002
1768646872172,123,-5,-4.030860654438717,-5.136778128464904,-5.062332514590836
1768646872176,124,-4,-3.74531663144293,-4.370181581133927,-4.778961506449502
1768646872180,124,-4,-3.482358239000599,-4.10985081633166,-4.518593321604347
1768646872184,124,-4,-3.330239287609697,-4.274613568018708,-4.369638078913339
1768646872188,124,-4,-3.3042728642430905,-4.169352153197908,-4.346461520487163
1768646872192,124,-4,-3.348578530446456,-4.248471991539488,-4.392448782544003
1768646872196,124,-4,-3.39277637307286,-4.256771638405022,-4.4376851118281095
1768646872200,124,-4,-3.4020958331416,-4.196451405669871,-4.44847059632751
1768646872204,124,-4,-3.3846988462343397,-4.226029557095556,-4.433384084511088
1768646872208,124,-4,-3.366290014126541,-4.202096256767514,-4.4174808640867465
1768646872212,124,-4,-3.3629386865513187,-4.246548237689833,-4.41589269888871
1768646872216,124,-4,-3.3719234148366857,-4.23886079091745,-4.425716842598268
1768646872220,124,-4,-3.3793040085898856,-4.211274992462689,-4.4337914087290065
1768646872224,124,-4,-3.3730758097786087,-4.224189609799648,-4.428992761173161
1768646872228,124,-4,-3.353774790449349,-4.209465154568985,-4.411800353848385
1768646872232,124,-4,-3.3381268868411667,-4.253308702357629,-4.397870535247611
1768646872236,124,-4,-3.3501886296525427,-4.224287336941327,-4.4102967024177975
1768646872240,124,-4,-3.3976048132641963,-4.213322562358321,-4.457071824970102
1768646872244,124,-4,-3.446465259322614,-4.2450850194944465,-4.505780101347543
1768646872248,124,-4,-3.4242730107125157,-4.179657202673065,-4.484938102549297
1768646872252,124,-4,-3.2686923317226872,-4.316984727574248,-4.3314407676505695
1768646872256,124,-4,-2.99244386732698,-4.127110435164193,-4.056223168464678
1768646872260,125,-3,-2.695942399083575,-3.3288842122161046,-3.758977618552821
1768646872264,125,-3,-2.4921618781182606,-3.1148490356096423,-3.553840911138077
1768646872268,125,-3,-2.402939966122868,-3.3370896600571367,-3.464278458989337
1768646872272,125,-3,-2.3366592246187237,-3.164092221661248,-3.3989204654824965
1768646872276,125,-3,-2.1862774202043136,-3.27159374474202,-3.249481242962335
1768646872280,125,-3,-1.957046777764475,-3.196879576767425,-3.0201087477079587
1768646872284,126,-2,-1.7858574359816235,-2.2199939984259336,-2.848021475860426
1768646872288,126,-2,-1.814526285614773,-2.2679304075052245,-2.876053773413925
1768646872292,125,-3,-2.0364376922960497,-3.225047435334555,-3.0976539885851215
1768646872296,125,-3,-2.2761250694660866,-3.221061577874498,-3.3364430424815064
1768646872300,125,-3,-2.328035709439099,-3.248143123712259,-3.386559966414308
1768646872304,125,-3,-2.1215514252156265,-3.1608683076274584,-3.1784197943532133
1768646872308,126,-2,-1.7646435113746364,-2.331380756818009,-2.821187928147628
1768646872312,126,-2,-1.4437005646086147,-2.1636406650253055,-2.5010567348170367
1768646872316,126,-2,-1.2829236012376009,-2.296177899699183,-2.3406400292990623
1768646872320,126,-2,-1.280705355933173,-2.1714510500939816,-2.3369807479741835
1768646872324,126,-2,-1.3510700792793156,-2.243118862498703,-2.404408766235708
1768646872328,126,-2,-1.407846743766009,-2.2497436732750926,-2.4583170478359446
1768646872332,126,-2,-1.4174412490054695,-2.2355975909857,-2.466305460177366
1768646872336,126,-2,-1.3961034710932725,-2.2482821884165736,-2.444459507053406
1768646872340,126,-2,-1.375551796479483,-2.203257169839226,-2.423448067123883
1768646872344,126,-2,-1.3727083634386,-2.232577876890272,-2.4193681904959754
1768646872348,126,-2,-1.3828038450970777,-2.24602122773551,-2.427437656266318
1768646872352,126,-2,-1.3921172512072657,-2.2467948884645828,-2.4344784766663183
1768646872356,126,-2,-1.393669774052941,-2.242870747334495,-2.433988753893422
1768646872360,126,-2,-1.3918417267145893,-2.2100450267050253,-2.4303761766642937
1768646872364,126,-2,-1.3946465070194205,-2.2315125860960627,-2.4313377972544217
1768646872368,126,-2,-1.4034451201509386,-2.2438349528653307,-2.4379969623696245
1768646872372,126,-2,-1.4105135407829337,-2.2497303632365973,-2.44278759975439
1768646872376,126,-2,-1.4065570286308224,-2.249142884669696,-2.43682942592073
1768646872380,126,-2,-1.391604497821346,-2.2043371533553944,-2.4203066889658813
1768646872384,126,-2,-1.3799355260210668,-2.240269651462289,-2.4070616217736003
1768646872388,126,-2,-1.3925106072427536,-2.2373086071573827,-2.4173782983747336
1768646872392,126,-2,-1.437011764823434,-2.2472654330045367,-2.458808431516069
1768646872396,126,-2,-1.4863868657792074,-2.275702409948626,-2.504988587271556
1768646872400,126,-2,-1.4774280557396433,-2.158744302988325,-2.493491542626884
1768646872404,126,-2,-1.3459316488123494,-2.3110164342228794,-2.360113632437874
1768646872408,126,-2,-1.083015474501944,-2.1443460430651813,-2.0953612685938676
1768646872412,127,-1,-0.7621227777479418,-1.3561378753733486,-1.772337482925868
1768646872416,127,-1,-0.4987932083848205,-1.1637161546590975,-1.5067135825848206
1768646872420,127,-1,-0.3703833869641566,-1.2766506375981563,-1.375861303026418
1768646872424,127,-1,-0.3678318987897266,-1.1974963495485338,-1.3704839252322352
1768646872428,127,-1,-0.418796457920793,-1.2555483341579532,-1.4183088043572405
1768646872432,127,-1,-0.4525108189419851,-1.256713158604668,-1.449093435790465
1768646872436,127,-1,-0.448097081036185,-1.2473553921805884,-1.442326660408473
1768646872440,127,-1,-0.4339743523003634,-1.2157473224242925,-1.4261982724553075
1768646872444,127,-1,-0.4475825896049783,-1.2333464653349526,-1.437668350161159
1768646872448,127,-1,-0.4896131050309473,-1.2582713025326313,-1.4772439063677727
1768646872452,127,-1,-0.5075286894121833,-1.2149826133842472,-1.492474503867529
1768646872456,127,-1,-0.4224518809092157,-1.3378236638582903,-1.4044711646675343
1768646872460,127,-1,-0.1803006999214407,-1.0709247337216354,-1.159104362175161
1768646872464,128,0,0.215014531451348,-0.4392106292948243,-0.760632845721847
1768646872468,128,0,0.7140212397784167,0.0046554717500675,-0.2592009274842972
1768646872472,129,1,1.2619642682804757,0.4647618343761339,0.2902024271157755
1768646872476,129,1,1.822500584415478,1.027753715673491,0.8519577564809955
1768646872480,130,2,2.36549504901395,1.5274441277636464,1.397114260322394
1768646872484,130,2,2.8458854604917625,1.9734266007083447,1.8810973558036097
1768646872488,131,3,3.21211748494664,2.5965815924325257,2.251492712274829
1768646872492,131,3,3.443862898352966,2.8487290319605023,2.486457687198788
1768646872496,131,3,3.572513622794782,2.680877262593107,2.6166841373590835
1768646872500,131,3,3.6445425422697193,2.818769305875135,2.68942867962079
1768646872504,131,3,3.653067972558818,2.7398514478094995,2.6992224258821955
1768646872508,131,3,3.514907190553351,2.7597261796762513,2.5635780046863346
1768646872512,131,3,3.1373553561715384,2.7653436636558486,2.1893671371984182
1768646872516,130,2,2.523750867507215,1.686546477319718,1.579026749665165
1768646872520,129,1,1.813183641910484,0.8748798064974324,0.870978186557783
1768646872524,129,1,1.2033419140016433,0.6216763072277272,0.2628278985474548
1768646872528,128,0,0.8128941765165076,-0.0821022896508079,-0.1261381744669891
1768646872532,128,0,0.5958466330039386,-0.4054148373050583,-0.3411474957592526
1768646872536,128,0,0.3833735334628186,-0.1355515334585184,-0.5512074375659726
1768646872540,128,0,0.028089292572938,-0.2987004921945368,-0.9047904228824232
1768646872544,127,-1,-0.4714871107221066,-1.2459207575074962,-1.4036723288312318
1768646872548,126,-2,-0.9863722569241123,-2.1689644170602556,-1.917539195566639
1768646872552,126,-2,-1.3967318122875123,-2.3712457034409344,-2.3253318477696077
1768646872556,126,-2,-1.7020153563141125,-2.1096632184710047,-2.6272354014405233
1768646872560,126,-2,-1.9818292259751549,-2.36992295371944,-2.90463795260975
1768646872564,125,-3,-2.2645449684904215,-3.15281453855971,-3.1864219132591836
1768646872568,125,-3,-2.4644379915210513,-3.2739764631434993,-3.385745579787353
1768646872572,125,-3,-2.4602084649733973,-3.283225296332197,-3.380369809086251
1768646872576,125,-3,-2.227051918977386,-3.1673145748772504,-3.1459276016218607
1768646872580,126,-2,-1.8825550397090731,-2.3381872118658844,-2.80085449547814
1768646872584,126,-2,-1.6007942001775508,-2.149739075454474,-2.5187561669056944
1768646872588,126,-2,-1.4791953081123297,-2.3227679758043935,-2.3952044569257223
1768646872592,126,-2,-1.4814507596663011,-2.2114176385808477,-2.3928683738446384
1768646872596,126,-2,-1.5005079249889033,-2.2621274043811335,-2.4067460290147493
1768646872600,126,-2,-1.47581695909054,-2.22346519645595,-2.3808210481123084
1768646872604,126,-2,-1.4548844058015984,-2.258110444388756,-2.365931821385338
1768646872608,126,-2,-1.526739460345895,-2.2349897331605004,-2.449244556585257
1768646872612,126,-2,-1.6348910178866711,-2.2892675208312205,-2.566505379835137
1768646872616,126,-2,-1.3601679758330536,-2.204692342287057,-2.289257512080526
1768646872620,128,0,0.1802641833907976,-0.2570223927395805,-0.731302262185499
1768646872624,132,4,4.167926814862048,3.777603922081237,3.2814562945868744
1768646872628,139,11,11.577803370516593,10.733468392775372,10.708743534378437
1768646872632,150,22,22.43486878768783,21.742434749651736,21.56268125681509
1768646872636,162,34,35.17406520131826,33.779676751222894,34.2776893653989
1768646872640,173,45,46.59864743062927,44.73711693958075,45.66977273067954
1768646872644,181,53,52.78875377791188,52.799919377859304,51.8362924865067
1768646872648,180,52,50.784117441074955,51.64424392499842,49.82835458465214
1768646872652,168,40,40.20781039521055,39.80672057347565,39.2699892424305
1768646872656,151,23,23.7797969663178,22.686367683456663,22.872561582245435
1768646872660,133,5,6.2485751044550115,4.821403547416715,5.370051355082564
1768646872664,119,-9,-7.709394186124609,-9.227867147582849,-8.575159175998152
1768646872668,112,-16,-15.413336908857408,-16.276821264821102,-16.288291568264633
1768646872672,111,-17,-16.899291783496697,-17.207431063682225,-17.799553358525543
1768646872676,114,-14,-14.233705912849544,-14.310106733903488,-15.161422203337182
1768646872680,118,-10,-10.05587380416942,-10.20588582667006,-10.999615135197788
1768646872684,121,-7,-6.305983337302797,-7.2422169231995,-7.248574226776675
1768646872688,123,-5,-3.7626638453450822,-5.274271531502321,-4.691249095752617
1768646872692,125,-3,-2.3531403601389935,-3.2049876632984495,-3.265685921783616
1768646872696,126,-2,-1.7306792509755191,-2.3040659737917544,-2.635344519910481
1768646872700,126,-2,-1.6349397814152131,-2.2464222538267027,-2.5431533857962427
1768646872704,126,-2,-1.9136493759287525,-2.1594200526879477,-2.8320877263854705
1768646872708,125,-3,-2.4000803263952633,-3.417795739341031,-3.327429870212278
1768646872712,124,-4,-2.8709468499921793,-3.9877548977717727,-3.801261389659265
1768646872716,125,-3,-3.1287330845986623,-3.5695189542053627,-4.057638776030075
1768646872720,124,-4,-3.098504342868828,-3.952292359673504,-4.026425606539027
1768646872724,125,-3,-2.839869154946404,-3.463758501490019,-3.7699966315756455
1768646872728,125,-3,-2.479859664619575,-3.1241071183932623,-3.414066727308376
1768646872732,125,-3,-2.1323314882793114,-3.2492775842365096,-3.0697099824005583
1768646872736,126,-2,-1.8490711111758509,-2.360961765156621,-2.7879922026871307
1768646872740,126,-2,-1.6115613459571891,-2.0914950473230793,-2.551978833107529
1768646872744,126,-2,-1.3641003901402984,-2.4134949632348865,-2.3072432113712917
1768646872748,126,-2,-1.0774568773510214,-2.0793763603347015,-2.0240005200872626
1768646872752,127,-1,-0.793449574755996,-1.378061653466018,-1.742915028556659
1768646872756,127,-1,-0.594399803768217,-1.168974672080647,-1.5461395730080756
1768646872760,127,-1,-0.5143254675739657,-1.3201888225717775,-1.4683630622191843
1768646872764,127,-1,-0.4842905872096215,-1.1711411835758925,-1.441132752078961
1768646872768,127,-1,-0.3796655154444297,-1.320340160118188,-1.3397657863928418
1768646872772,127,-1,-0.1326046628723305,-1.1568586909567191,-1.096238652133649
1768646872776,128,0,0.1979414123223293,-0.357918763152085,-0.7694713953542496
1768646872780,128,0,0.4698433133407671,-0.1591773983251492,-0.5014215079902304
1768646872784,128,0,0.5782548095038611,-0.2968493143662267,-0.3964448825305537
1768646872788,128,0,0.545662186998638,-0.2389484653545559,-0.4317849268691032
1768646872792,128,0,0.5065707229251997,-0.2047851600254853,-0.4733955671057788
1768646872796,128,0,0.6029764462571241,-0.3472593193184421,-0.380061691334578
1768646872800,128,0,0.8738280827172842,-0.1186311988778758,-0.1131972967016068
1768646872804,129,1,1.2245426246001936,0.6292142963871901,0.2328211194312173
1768646872808,129,1,1.5018622003280797,0.8547121804781406,0.5052626031145167
1768646872812,129,1,1.6129829669523632,0.6843733928913909,0.611931760233484
1768646872816,129,1,1.591070078303803,0.7574733191131864,0.5863762741589709
1768646872820,129,1,1.5602410473711472,0.8076208172469821,0.5526397883387837
1768646872824,129,1,1.6382837071450953,0.6651533187896765,0.6280236900998311
1768646872828,129,1,1.858066959441877,0.8686373537160783,0.8445626669174402
1768646872832,130,2,2.165375617431577,1.61205551943639,1.1471317637919154
1768646872836,130,2,2.482810667838142,1.884776640978101,1.4583224054371495
1768646872840,130,2,2.7694725436363674,1.6378723694333428,1.738775921682945
1768646872844,130,2,3.021570393200299,1.875621366420407,1.9865054789877683
1768646872848,131,3,3.2406979931095448,2.6194249182843383,2.203103934370548
1768646872852,131,3,3.433343565639235,2.886735043506296,2.393313888218813
1768646872856,131,3,3.641376698827444,2.5952319475449146,2.5976191492401637
1768646872860,131,3,3.939491491419295,2.9482817953883296,2.8908057814163186
1768646872864,132,4,4.373463714277021,3.55455524307322,3.3192955015738255
1768646872868,132,4,4.896367756222494,3.9300248312198898,3.83643846175044
1768646872872,133,5,5.373710966196368,4.597384024598738,4.308021387552499
1768646872876,133,5,5.663722011804605,4.863774216801397,4.593050896216093
1768646872880,133,5,5.714321088055929,4.718555598946532,4.64007272990274
1768646872884,133,5,5.608871198778646,4.733911068113017,4.531877891470858
1768646872888,133,5,5.530206174406394,4.788410597634639,4.449824163539244
1768646872892,133,5,5.659342860092619,4.704791516746939,4.574153754266196
1768646872896,133,5,6.0628118283272485,4.8011702282738105,4.972043568008502
1768646872900,134,6,6.644770227180447,5.763360900271409,5.548506402244537
1768646872904,135,7,7.214466507933936,6.691324116432457,6.112763576153717
1768646872908,135,7,7.6274196246187875,6.826295202394486,6.520206305879145
1768646872912,135,7,7.879070243249396,6.663693036920701,6.767018743099521
1768646872916,135,7,8.072118604717886,6.857624758369434,6.956603574119727
1768646872920,136,8,8.309255282129195,7.696208488450364,7.190933343004
1768646872924,136,8,8.623622502378545,7.7672628715483345,7.501579191696839
1768646872928,136,8,8.990541463257614,7.744404671514475,7.863174163336339
1768646872932,137,9,9.37466175669013,8.753365390736981,8.241120700967903
1768646872936,137,9,9.755064355837163,8.772705762975972,8.615810014009751
1768646872940,137,9,10.11493727828071,8.765560816631389,8.971185299510724
1768646872944,138,10,10.423448418525377,9.720075234819058,9.276069834221856
1768646872948,138,10,10.643427456044815,9.775086443039225,9.492308672996517
1768646872952,138,10,10.762042146186632,9.728627318342207,9.606588441514738
1768646872956,138,10,10.803460585719431,9.822156936673537,9.64353239639978
1768646872960,138,10,10.798125074597802,9.664158404433488,9.634122194650928
1768646872964,138,10,10.734790899472618,9.88762837143872,9.566881457025918
1768646872968,138,10,10.540676875532888,9.542143859764476,9.36833362646972
1768646872972,137,9,10.104947152071444,9.028622656156422,8.927412851895749
1768646872976,137,9,9.325073357228622,8.47895659274424,8.142196608637914
1768646872980,135,7,8.147975569823162,7.021411597290507,6.960540513213358
1768646872984,134,6,6.59153872040915,5.534348560810228,5.400768328336549
1768646872988,132,4,4.746310840456552,3.871284524585625,3.552987425174198
1768646872992,130,2,2.7593759887416787,1.7598664371982442,1.5633619650961808
1768646872996,128,0,0.7978771915262772,-0.3242352243275497,-0.4016611163762977
1768646873000,126,-2,-1.0025678862835536,-2.0898703777469407,-2.206580975370088
1768646873004,125,-3,-2.5800144153645164,-3.447596022054407,-3.788950492501499
1768646873008,123,-5,-3.951897411701995,-5.053179376370569,-5.165251692233722
1768646873012,122,-6,-5.179964719073464,-6.373273457445334,-6.39654301209764
1768646873016,121,-7,-6.313536053141574,-7.156190045119107,-7.5325622015751375
1768646873020,120,-8,-7.343155663632242,-8.262055028801203,-8.565022839001207
1768646873024,119,-9,-8.201037050227004,-9.316032614503708,-9.42658987484082
1768646873028,118,-10,-8.819430921968905,-10.10521987201562,-10.048708955217982
1768646873032,118,-10,-9.199131614567795,-10.404924607278888,-10.431340995815283
1768646873036,118,-10,-9.41339783929047,-10.0317928677455,-10.647950058101554
1768646873040,118,-10,-9.535775516607815,-10.46354151111641,-10.77272477610467
1768646873044,117,-11,-9.571069995022956,-11.069518505701902,-10.81062968919398
1768646873048,118,-10,-9.467702520090882,-10.36067523964172,-10.709999396891618
1768646873052,118,-10,-9.196595914157967,-10.163320122047908,-10.441856555845996
1768646873056,118,-10,-8.814699366011357,-10.23097103097926,-10.063043718768624
1768646873060,119,-9,-8.45256853543499,-9.313788959150402,-9.703544082641956
1768646873064,119,-9,-8.23128395726478,-9.157700130676336,-9.483993445753503
1768646873068,119,-9,-8.171061700346367,-9.34506729643541,-9.424831409976196
1768646873072,119,-9,-8.169604695159792,-9.100808833333073,-9.424404336794897
1768646873076,119,-9,-8.079857682810594,-9.35716714549486,-9.33614939466086
1768646873080,119,-9,-7.831173369839845,-9.136999030416716,-9.089538302190324
1768646873084,120,-8,-7.4913838186827135,-8.35134637889655,-8.75222115233126
1768646873088,120,-8,-7.212134166517999,-8.157466894411247,-8.475328737394282
1768646873092,120,-8,-7.102777996252312,-8.25356231561344,-8.367445078860928
1768646873096,120,-8,-7.140811687140261,-8.249236811711935,-8.405639306744806
1768646873100,120,-8,-7.189897193287363,-8.196716853014184,-8.454047090083638
1768646873104,120,-8,-7.105102716258101,-8.33783510566461,-8.368831095696358
1768646873108,120,-8,-6.841637638608461,-8.120796309544279,-8.10611547756471
1768646873112,121,-7,-6.485758504868552,-7.3172138154274045,-7.752266195180274
1768646873116,121,-7,-6.187886724329468,-7.159191974374881,-7.456731947875695
1768646873120,121,-7,-6.055530834059858,-7.30761286607842,-7.325400615358265
1768646873124,121,-7,-6.088490531272709,-7.214271169949714,-7.357188824609148
1768646873128,121,-7,-6.189930975575369,-7.251098205206383,-7.456175443925585
1768646873132,121,-7,-6.2277369079252765,-7.173008424165675,-7.4921232998578065
1768646873136,121,-7,-6.107073109821218,-7.300068064459425,-7.371154694906714
1768646873140,121,-7,-5.824539859791469,-7.167137051088459,-7.0893151360111615
1768646873144,122,-6,-5.4741820669465415,-6.353984624093087,-6.739629497742979
1768646873148,122,-6,-5.190496596794557,-6.110582743313742,-6.4559482851961185
1768646873152,122,-6,-5.062307469739788,-6.300756643698661,-6.3266852674323015
1768646873156,122,-6,-5.082871145171715,-6.179763007138262,-6.344916891433641
1768646873160,122,-6,-5.168317107070951,-6.26794286990588,-6.4273018556571335
1768646873164,122,-6,-5.217941336920102,-6.296133428873646,-6.474224388238722
1768646873168,122,-6,-5.171385863365933,-6.102620940214136,-6.425954226696685
1768646873172,122,-6,-5.037774382319897,-6.363549199874892,-6.291276896216442
1768646873176,122,-6,-4.88839452891612,-6.050095934646943,-6.14086029007042
1768646873180,123,-5,-4.812426171477363,-5.454282834335001,-6.063567344362285
1768646873184,122,-6,-4.85832802823166,-6.076113270129512,-6.10742450925937
1768646873188,122,-6,-5.004552928481314,-6.336641077203645,-6.250196079792368
1768646873192,122,-6,-5.178407671911128,-6.107795376174727,-6.419286988244944
1768646873196,122,-6,-5.294243101962086,-6.310613460610231,-6.530486951870422
1768646873200,122,-6,-5.280907524438149,-6.196239908998912,-6.514065897538456
1768646873204,122,-6,-5.10538310941954,-6.318737536938036,-6.33677958258447
1768646873208,122,-6,-4.801392420871638,-6.114253460795693,-6.030822765836868
1768646873212,123,-5,-4.473431610547436,-5.285700673141393,-5.699576712408882
1768646873216,123,-5,-4.243606183968695,-5.173025736664968,-5.465242309112481
1768646873220,123,-5,-4.167560873363237,-5.292376217270336,-5.384140237016071
1768646873224,123,-5,-4.192400653954507,-5.256284468274085,-5.403905743310148
1768646873228,123,-5,-4.198642479742134,-5.1521215022803215,-5.405292934617581
1768646873232,123,-5,-4.094340140554358,-5.250479260049316,-5.296401931389159
1768646873236,123,-5,-3.885568549438122,-5.202790685883979,-5.083337908569019
1768646873240,124,-4,-3.664667636470512,-4.246535798424504,-4.858422677391766
1768646873244,124,-4,-3.5259361203655466,-4.323240580841706,-4.715424713637683
1768646873248,123,-5,-3.4857981864949665,-5.056817033139483,-4.669800208848861
1768646873252,124,-4,-3.475875854345106,-4.3737598434974805,-4.6529890049715945
1768646873256,124,-4,-3.3996843655498172,-4.037739851759202,-4.569701517168992
1768646873260,124,-4,-3.197338164322498,-4.446537409277533,-4.3612849930535695
1768646873264,124,-4,-2.883147963516927,-4.078957733675299,-4.042015844821979
1768646873268,125,-3,-2.5432661517168023,-3.3269158413915076,-3.6972356233510992
1768646873272,125,-3,-2.2875965491704724,-3.097119501314655,-3.4361812963591603
1768646873276,125,-3,-2.18100983168758,-3.289300628204005,-3.323226554679158
1768646873280,125,-3,-2.206807377686354,-3.231800216705506,-3.3413947172047727
1768646873284,125,-3,-2.287245124538309,-3.2297998859820125,-3.4134476171088703
1768646873288,125,-3,-2.3343105671257773,-3.252116238124678,-3.4525360097697084
1768646873292,125,-3,-2.2940162489792115,-3.0841091904776547,-3.4053282488917693
1768646873296,125,-3,-2.17108460722603,-3.372266397159823,-3.276080258747179
1768646873300,125,-3,-2.029065318401748,-3.076833999797684,-3.1275833544413567
1768646873304,126,-2,-1.9557525226901251,-2.4336398506606436,-3.047399262322543
1768646873308,125,-3,-2.004876311777581,-3.0169481047651856,-3.089097315128462
1768646873312,125,-3,-2.158411635884604,-3.3295197360742383,-3.2341081024392024
1768646873316,125,-3,-2.3401253632039407,-3.1150672413097755,-3.406118553103892
1768646873320,125,-3,-2.458834960085728,-3.327488236590381,-3.515078356948101
1768646873324,125,-3,-2.444476196163913,-3.192864482372596,-3.492263124519382
1768646873328,125,-3,-2.2720184855368184,-3.227137578836247,-3.3126540442000145
1768646873332,125,-3,-1.980651164917827,-3.1468832867715384,-3.014226245548244
1768646873336,126,-2,-1.6695999529304135,-2.264506425314523,-2.695176239517864
1768646873340,126,-2,-1.447669547637307,-2.1881324715030632,-2.464147915276437
1768646873344,126,-2,-1.3604765869772426,-2.338526719732971,-2.3669701887886267
1768646873348,126,-2,-1.357484927704629,-2.04151630972584,-2.3533749648774847
1768646873352,126,-2,-1.3321201163334884,-2.382657342042834,-2.3174506668960824
1768646873356,126,-2,-1.2036047903991465,-1.9750857283274597,-2.1793945968139
1768646873360,127,-1,-0.9791687203194406,-1.5013021797688242,-1.9467608658583864
1768646873364,126,-2,-0.7575934730652647,-2.010070825249271,-1.7174242798096226
1768646873368,127,-1,-0.6728149453942467,-1.351268908873481,-1.6239805786750052
1768646873372,127,-1,-0.8049405997907861,-1.106639776415598,-1.74588477398252
1768646873376,126,-2,-1.1116376188002055,-2.2048628626676168,-2.041003545242005
1768646873380,126,-2,-1.4361901499237977,-2.3172773853015203,-2.353395530827378
1768646873384,126,-2,-1.5968507138094217,-2.1204795745820864,-2.5025155966607753
1768646873388,126,-2,-1.4952657831911638,-2.3149315512336224,-2.39100182746605
1768646873392,126,-2,-1.1723195998782914,-2.055032350357563,-2.059562446055912
1768646873396,127,-1,-0.7828799276530773,-1.3298644961507926,-1.6617086666262733
1768646873400,127,-1,-0.507553404935662,-1.1193498912679465,-1.3766213943915395
1768646873404,127,-1,-0.4514687338282366,-1.3668038032169858,-1.3090515111281325
1768646873408,127,-1,-0.5888697959043738,-1.031884714882878,-1.4340511584877689
1768646873412,127,-1,-0.7874711957932723,-1.3532855237316386,-1.6204325929143548
1768646873416,126,-2,-0.8993853750191585,-2.0242418544507697,-1.7208275517342737
1768646873420,127,-1,-0.8589735720888378,-1.4045691806446392,-1.6696642996124025
1768646873424,127,-1,-0.7148254390605482,-1.0932620231740542,-1.5155378559397006
1768646873428,127,-1,-0.5740624847478124,-1.2812282478188144,-1.365154582407743
1768646873432,127,-1,-0.5155553852445496,-1.1208155045756796,-1.2962810843523278
1768646873436,127,-1,-0.5465576697775367,-1.2295770617751516,-1.315304761127128
1768646873440,127,-1,-0.6204243723655924,-1.2312075139458891,-1.376128471794298
1768646873444,127,-1,-0.6786005311932402,-1.2081399328185716,-1.4218673275004998
1768646873448,127,-1,-0.680790517162666,-1.2225490199877396,-1.4132873647858202
1768646873452,127,-1,-0.6183148689110878,-1.1009906532506797,-1.3408994741236706
1768646873456,127,-1,-0.5187178369685201,-1.3251352287547054,-1.2304353501954262
1768646873460,127,-1,-0.4348027109177987,-1.0564005848854603,-1.13407621864518
1768646873464,128,0,-0.4070890253601775,-0.4463115109752686,-1.0936267304844516
1768646873468,127,-1,-0.4245404006594295,-0.909437503078554,-1.0994597311216707
1768646873472,127,-1,-0.4361139292721767,-1.4677048781957471,-1.1004067327242375
1768646873476,127,-1,-0.4160509581919134,-0.9133269397079088,-1.0697250786027213
1768646873480,128,0,-0.4070177672762369,-0.4931424234146251,-1.049543700913651
1768646873484,127,-1,-0.4797714167609619,-0.9971445146512696,-1.1104009880155763
1768646873488,127,-1,-0.6483201391105708,-1.3127688279074847,-1.2660887351201338
1768646873492,127,-1,-0.829179411725367,-1.1278107878073549,-1.433661203743907
1768646873496,127,-1,-0.884259091336741,-1.1701418210394872,-1.476458139201172
1768646873500,127,-1,-0.7194145975465429,-1.3364873513524482,-1.3011234222020889
1768646873504,127,-1,-0.3751636923878532,-1.0249821542270383,-0.9472718944588264
1768646873508,128,0,-0.0354829843550459,-0.374837618079372,-0.5973492227379626
1768646873512,128,0,0.0814271617642863,0.0149570898968129,-0.4689055865603202
1768646873516,128,0,-0.1128822490547962,-0.3699607727937199,-0.6506714377827469
1768646873520,127,-1,-0.4948718162315617,-1.117204537613876,-1.019625763344674
1768646873524,127,-1,-0.8099943818877308,-1.2159132740819802,-1.3218603163814862
1768646873528,127,-1,-0.8546361436432501,-1.2113597863186307,-1.3545834810499635
1768646873532,127,-1,-0.6111393804065277,-1.0883750263089775,-1.1005911963966557
1768646873536,128,0,-0.237173850967755,-0.321897703808953,-0.7169958341266416
1768646873540,128,0,0.0656292495491404,-0.1083948489945778,-0.4040891232023189
1768646873544,128,0,0.1904250601748061,-0.2617849796787315,-0.2677300355345346
1768646873548,128,0,0.1688892414366234,-0.127054884990647,-0.2766582245587936
1768646873552,128,0,0.1068775103020198,-0.1844961962192428,-0.3265540956510557
1768646873556,128,0,0.0822640943860328,-0.2239661082360733,-0.3405695108603273
1768646873560,128,0,0.0887940511573159,-0.1831661005371405,-0.3242726513955958
1768646873564,128,0,0.063520648171776,-0.1983942264580567,-0.339018923263378
1768646873568,128,0,-0.0266501070480305,-0.1642101239534263,-0.417328756840047
1768646873572,128,0,-0.1098516088278394,-0.1552030242616358,-0.4883944354268443
1768646873576,128,0,-0.0206582475387846,-0.2523261534661227,-0.3880669328545452
1768646873580,128,0,0.3854774110402399,-0.1325000273757746,0.0281400764117616
1768646873584,129,1,1.096226723312582,0.737232080992761,0.7486271105338185
1768646873588,130,2,1.9139084774419417,1.9394730696263465,1.5759534539166968
1768646873592,131,3,2.584194684335931,2.715259716859487,2.2556157781060824
1768646873596,131,3,2.9794876198470104,2.907689158401616,2.6605896466287744
1768646873600,131,3,3.1712341388358567,2.6876788692118936,2.8634953612647167
1768646873604,131,3,3.332857185879605,2.9322733859679446,3.0376666747154295
1768646873608,132,4,3.577600143738878,3.751079987064637,3.2942585705768184
1768646873612,132,4,3.874414470933389,3.917006188738968,3.6002416339129155
1768646873616,132,4,4.081504616026642,3.717228094397577,3.814272219412908
1768646873620,132,4,4.037193497147429,3.877496736890336,3.7769179680216873
1768646873624,132,4,3.6450201816466783,3.7359317301556345,3.393332651450065
1768646873628,131,3,2.9259037264925514,2.9593204209485555,2.684522127159915
1768646873632,130,2,2.0193600409124497,1.7241427014391122,1.7893780772394352
1768646873636,129,1,1.1273901897008904,0.9200036975328624,0.908960816639608
1768646873640,129,1,0.4321063494856045,0.6725171758329875,0.2239690115189805
1768646873644,128,0,0.032610201869559,-0.0527241254445571,-0.1675929702612488
1768646873648,128,0,-0.08400289665769,-0.2520883896832031,-0.2781207652458275
1768646873652,128,0,-0.0437811766937885,-0.0224954553027985,-0.2317779922956504
1768646873656,128,0,-0.0480461197336833,-0.3583776210897649,-0.2284998644929723
1768646873660,128,0,-0.2806723626584144,-0.026593996846649,-0.4524526037552037
1768646873664,128,0,-0.7942325769360927,-0.3656578821663145,-0.9571440299344456
1768646873668,126,-2,-1.4626898312519558,-1.9350869652296052,-1.6165969353086482
1768646873672,126,-2,-2.056783024031988,-2.297765443113347,-2.201245243265984
1768646873676,126,-2,-2.3868719808940755,-2.118272964014711,-2.5223342503684227
1768646873680,126,-2,-2.396788811814501,-2.217038234565712,-2.5253077672845805
1768646873684,126,-2,-2.1580337918811994,-2.2175741695095272,-2.281836916007091
1768646873688,126,-2,-1.8081375067217729,-2.0146984901418845,-1.927651788516068
1768646873692,127,-1,-1.4864569743766132,-1.2701915220761193,-1.6001489050547484
1768646873696,127,-1,-1.2817283243824915,-1.085510659183605,-1.3874172512492091
1768646873700,127,-1,-1.2016925110408594,-1.2990119875299528,-1.2976906059282496
1768646873704,127,-1,-1.188839021778593,-1.0887324275363224,-1.2747198066959564
1768646873708,127,-1,-1.181608353016965,-1.1471492803793584,-1.2592037829931737
1768646873712,127,-1,-1.1738554062087594,-1.1462006194163752,-1.2478005071202103
1768646873716,127,-1,-1.2112533047464322,-1.156705749301723,-1.287427940003846
1768646873720,127,-1,-1.2946675841687387,-1.2948113507863923,-1.37610178791875
1768646873724,127,-1,-1.216622159518106,-0.9972994560904164,-1.2991182198844229
1768646873728,128,0,-0.4161244252641134,-0.3171174886358772,-0.4878289367205615
1768646873732,130,2,2.0264145841289176,2.1109999863345035,1.9786237818055523
1768646873736,136,8,7.147331586775188,7.543412282108596,7.127425742427818
1768646873740,144,16,15.58449832005803,16.046931988698205,15.581274437642318
1768646873744,155,27,26.912714928405467,26.681600034726873,26.9048769694826
1768646873748,166,38,39.15843413631759,37.99096909512943,39.12786585076296
1768646873752,177,49,48.956511000128174,48.83283866525195,48.899378989552865
1768646873756,182,54,52.62898780744777,53.7748703063406,52.55727187588787
1768646873760,177,49,47.88082837257664,48.80681435775587,47.815311798800536
1768646873764,164,36,35.19396518512171,35.913375154593176,35.15403186396115
1768646873768,146,18,17.95857923153842,17.708084883563522,17.95335820681188
1768646873772,128,0,1.0939704245143638,0.1746733824193271,1.1179771924152684
1768646873776,117,-11,-11.110837187296765,-11.567128545035098,-11.075441958330856
1768646873780,111,-17,-16.704806420006094,-16.716476406419694,-16.679660950241388
1768646873784,113,-15,-16.43659950901427,-15.549107063942897,-16.43610832296372
1768646873788,116,-12,-12.774615509338156,-11.809752263580895,-12.79842912041094
1768646873792,120,-8,-8.377952301294867,-8.33598468399961,-8.411806756470325
1768646873796,123,-5,-4.960766823858734,-5.140805787809414,-4.985748805151555
1768646873800,125,-3,-3.013963700757784,-3.0387603747734344,-3.018265735968192
1768646873804,126,-2,-2.2116624035107124,-2.3328691690460053,-2.196713598209328
1768646873808,126,-2,-2.0061879267720837,-1.8719860334678615,-1.9834299112951372
1768646873812,127,-1,-2.011366122315851,-1.421665350512188,-1.9930736625719896
1768646873816,126,-2,-2.0748580844471736,-1.9478870317395944,-2.066173535828552
1768646873820,126,-2,-2.172556077558598,-2.283345593280735,-2.170130758293195
1768646873824,126,-2,-2.293148266663437,-2.0183541632890116,-2.2902559495720296
1768646873828,126,-2,-2.3874473570276975,-2.1842490851875,-2.3802688460385952
1768646873832,126,-2,-2.3789318154242043,-2.14055998717002,-2.3685395888966285
1768646873836,126,-2,-2.213810049734852,-2.1949300540730414,-2.203421145265743
1768646873840,126,-2,-1.9164978320551256,-2.062324436801791,-1.9080777436134049
1768646873844,127,-1,-1.596064842824639,-1.1701908469415718,-1.5895770676157184
1768646873848,127,-1,-1.3753607486492427,-1.048220798812028,-1.3700356245795364
1768646873852,127,-1,-1.29285957254028,-1.2806729819111178,-1.2881687517139775
1768646873856,127,-1,-1.2699182871408636,-1.0504524121269962,-1.2655703833865355
1768646873860,127,-1,-1.1797819888250536,-1.2092856653205133,-1.175678954349313
1768646873864,127,-1,-0.9562334963837272,-0.981631238097278,-0.9529208187332654
1768646873868,128,0,-0.644455300770586,-0.2207985421083118,-0.6433514135318597
1768646873872,128,0,-0.3568012590763665,-0.1280990626175734,-0.3593419619305629
1768646873876,128,0,-0.1857871617068149,-0.1887314077475139,-0.192037694705808
1768646873880,128,0,-0.1527910856670544,-0.0810127853503783,-0.1612374042385629
1768646873884,128,0,-0.2166013811560225,-0.0692745408813267,-0.2257273694296033
1768646873888,128,0,-0.3074851881527833,-0.1242318267285806,-0.3175285075041574
1768646873892,128,0,-0.3532755641083445,-0.2267636970256632,-0.3661701074903538
1768646873896,128,0,-0.2985052073573842,-0.0914457586481004,-0.3159788013310902
1768646873900,128,0,-0.1276893130631764,-0.1706585040836941,-0.1495650283111576
1768646873904,128,0,0.1203850142440066,0.0437306580496892,0.095699035669917
1768646873908,129,1,0.3761692919068866,0.7887307978630359,0.3494658830908084
1768646873912,129,1,0.5968429764414485,0.8437920679188313,0.5668944449608253
1768646873916,129,1,0.7999970509898136,0.8489033572940692,0.76496165578007
1768646873920,129,1,1.0222568053984769,0.8856907417939754,0.9818683871675896
1768646873924,129,1,1.2401377175426576,1.012198377402625,1.195691340871054
1768646873928,130,2,1.357146069898275,1.8462122344545504,1.3093844470443947
1768646873932,130,2,1.2986209265009836,1.7727194234251922,1.2466479489278763
1768646873936,129,1,1.1194495219472351,0.9413710645174388,1.0621887183504193
1768646873940,129,1,0.9948922519621016,0.7662505507026944,0.9327323490023822
1768646873944,129,1,1.0910294903856843,1.1831451003552889,1.025128662748243
1768646873948,130,2,1.4441268364588495,1.663763534125612,1.3744337535609183
1768646873952,130,2,1.9574246108722195,1.9940186361006231,1.882198862524883
1768646873956,131,3,2.493672438116022,2.7080920498303205,2.4111019312246285
1768646873960,131,3,2.9612320956939326,2.9887349033615234,2.8712127913328542
1768646873964,131,3,3.3282629708500613,3.0016107087338497,3.2324138452555333
1768646873968,132,4,3.5884178178976995,3.815020410623492,3.488379061426527
1768646873972,132,4,3.742241847282968,3.927135778685618,3.63809294783539
1768646873976,132,4,3.816087344382045,3.696475002002488,3.7064675225826607
1768646873980,132,4,3.8777823051072025,4.077969768776277,3.761337005429313
1768646873984,132,4,4.006965339644623,3.8601557956856016,3.883435783315713
1768646873988,132,4,4.23564665207703,4.00833623625382,4.105543492993409
1768646873992,133,5,4.519054488183077,4.75659564008088,4.382517739814784
1768646873996,133,5,4.774295743852141,4.836965393323878,4.6307210415498625
1768646874000,133,5,4.954286393384856,4.9839911582950664,4.803306555417661
1768646874004,133,5,5.085638906565231,4.917622997275973,4.928031144455661
1768646874008,133,5,5.2407817363955385,4.994053851855021,5.077713917430649
1768646874012,134,6,5.48411879752074,5.785433135808917,5.315485588304679
1768646874016,134,6,5.842450054239052,5.800590247162446,5.666580638818229
1768646874020,134,6,6.302488116681134,6.049043468923227,6.117794052579662
1768646874024,135,7,6.8124077380776615,6.829908804046773,6.618981222423529
1768646874028,135,7,7.289341541354098,7.119681803897669,7.088657823383944
1768646874032,136,8,7.653312557678721,7.662359187067097,7.446519574618674
1768646874036,136,8,7.879530514638099,7.938762455093586,7.666275676876842
1768646874040,136,8,8.022643461901175,7.918874123818789,7.801620840208677
1768646874044,136,8,8.176252319716347,7.943098080620876,7.946694432236143
1768646874048,136,8,8.393141477118261,8.054349616588024,8.155457913559887
1768646874052,137,9,8.643464713278922,8.706485094877989,8.398410576516412
1768646874056,137,9,8.859673500200081,8.949238463819286,8.607356331626132
1768646874060,137,9,9.023379845631156,8.881430345121725,8.76341966736625
1768646874064,137,9,9.19554679974021,8.989078782131203,8.927849700267153
1768646874068,137,9,9.448476162224082,9.042421116937078,9.173229139970932
1768646874072,138,10,9.765124862798682,9.679784962995235,9.48203117896234
1768646874076,138,10,10.006414490645607,10.08301519722323,9.714564468767376
1768646874080,138,10,9.977066352411816,9.645898240293103,9.675910549848592
1768646874084,137,9,9.53195412299732,9.33141476328122,9.222067321067607
1768646874088,137,9,8.64559411122115,8.61524881517909,8.328189011580859
1768646874092,135,7,7.408645358061099,7.180120258129329,7.084534843057033
1768646874096,134,6,5.963447616428397,5.5886625276148125,5.6325122577271145
1768646874100,132,4,4.424427721183996,4.123842150629979,4.0856905816484606
1768646874104,131,3,2.8378888251582306,2.9116269815812323,2.4900770829471064
1768646874108,129,1,1.2009875012158604,0.9660352245455416,0.843531608421024
1768646874112,127,-1,-0.4915379803400821,-1.0673918092700556,-0.8579044759604968
1768646874116,126,-2,-2.2138348907760603,-2.22400463596865,-2.587770016506303
1768646874120,124,-4,-3.9006964856200126,-3.9927589472726046,-4.281529669077708
1768646874124,122,-6,-5.461712338918077,-6.014771256117823,-5.8498636938282775
1768646874128,121,-7,-6.815225784047868,-7.074858194151679,-7.21161745214677
1768646874132,120,-8,-7.92505100233843,-8.007633781896686,-8.330333731720176
1768646874136,119,-9,-8.81152157535368,-9.284779247663211,-9.225644480965
1768646874140,118,-10,-9.526086565412797,-9.894597748344044,-9.948451905457745
1768646874144,118,-10,-10.105550275702448,-10.137979368137234,-10.535634531990947
1768646874148,117,-11,-10.53718091801934,-10.928795825060476,-10.974867468053237
1768646874152,117,-11,-10.765716108361502,-11.137906918034489,-11.210968584904846
1768646874156,117,-11,-10.745245209194694,-11.14306114008097,-11.197891960451567
1768646874160,117,-11,-10.493443944797123,-11.017301856568723,-10.953643945219792
1768646874164,118,-10,-10.096285562211964,-10.024997687093284,-10.564819422855262
1768646874168,118,-10,-9.661860350243696,-10.015320083233153,-10.139344097174815
1768646874172,118,-10,-9.27327018884287,-10.05731327770668,-9.759241841658204
1768646874176,119,-9,-8.975251164963279,-9.179758002475806,-9.46866613951476
1768646874180,119,-9,-8.776971032249108,-9.007892169864848,-9.277445846333192
1768646874184,119,-9,-8.648518073724725,-8.997651832161393,-9.156319347175376
1768646874188,119,-9,-8.527146408206196,-9.053905953883056,-9.042070932972964
1768646874192,119,-9,-8.350563439125406,-8.984523950938385,-8.87188752017061
1768646874196,120,-8,-8.092053364848873,-8.254550774393817,-8.619921611426584
1768646874200,120,-8,-7.76546187314757,-7.910524629216681,-8.301364447804207
1768646874204,120,-8,-7.413977638218033,-8.095931372151629,-7.9591386987726285
1768646874208,120,-8,-7.1118053381037365,-7.937850326036852,-7.665672066252414
1768646874212,121,-7,-6.9583850138019505,-7.090944489122324,-7.51930557381234
1768646874216,121,-7,-7.023299962219983,-7.138064517612882,-7.590128534359457
1768646874220,120,-8,-7.267530928229728,-8.011282696641931,-7.840006396534079
1768646874224,120,-8,-7.527440401771819,-7.98384700071965,-8.105655231644988
1768646874228,120,-8,-7.599715766173389,-8.04998311742002,-8.184031928619081
1768646874232,120,-8,-7.366630405539316,-7.956253933728259,-7.957846455484839
1768646874236,121,-7,-6.86804024847383,-7.264433566100159,-7.466974871798687
1768646874240,121,-7,-6.2743174561382835,-6.853735461452151,-6.881130459221808
1768646874244,122,-6,-5.783265591267432,-6.151061030438847,-6.397338376977265
1768646874248,122,-6,-5.509867554085819,-5.864225081679861,-6.13021949599098
1768646874252,122,-6,-5.440503350128813,-6.144358037753964,-6.066213629361806
1768646874256,122,-6,-5.475819014265401,-6.057267041445767,-6.106356792402717
1768646874260,122,-6,-5.517412786941326,-6.029327022033849,-6.152950923338211
1768646874264,122,-6,-5.524773013521269,-5.995937621959511,-6.166130837056746
1768646874268,122,-6,-5.509000195374568,-5.970283911523883,-6.156957792173729
1768646874272,122,-6,-5.492086158343401,-6.072973287841749,-6.146634994302798
1768646874276,122,-6,-5.479891860029285,-6.071068454830105,-6.1402594700128645
1768646874280,122,-6,-5.46617828748113,-6.031836282866135,-6.131607856867568
1768646874284,122,-6,-5.449347535359658,-5.964166559416571,-6.119710465040557
1768646874288,122,-6,-5.438829769496486,-6.000101460078004,-6.114408178456725
1768646874292,122,-6,-5.4465035977508975,-6.037402825587565,-6.1273642175391885
1768646874296,122,-6,-5.472358533196116,-6.074923996676468,-6.15818520359534
1768646874300,122,-6,-5.493941383059237,-6.039397859303638,-6.18440935466134
1768646874304,122,-6,-5.467603137126983,-5.911555650151782,-6.162583247085687
1768646874308,122,-6,-5.3484949672586675,-6.081634046336229,-6.0478530336349285
1768646874312,122,-6,-5.122275615144199,-5.9074335801895925,-5.825901643051499
1768646874316,123,-5,-4.820815964551884,-5.2189420211748,-5.528995316784657
1768646874320,123,-5,-4.502484511418479,-4.864513478389101,-5.215671951487729
1768646874324,123,-5,-4.217837325610221,-5.070578234300116,-4.935755845302538
1768646874328,123,-5,-3.995157673782742,-4.9388481501874555,-4.7167408256623755
1768646874332,124,-4,-3.843088243789908,-4.000491351414297,-4.567685185167756
1768646874336,124,-4,-3.747318250041664,-4.163590960165467,-4.4752849321449135
1768646874340,123,-5,-3.670951381552191,-4.843641330763649,-4.402719309468727
1768646874344,124,-4,-3.5806008160441256,-4.130938165427791,-4.315954999950941
1768646874348,124,-4,-3.4765111651164986,-3.8311067565699872,-4.215166171032676
1768646874352,124,-4,-3.387347335140414,-4.131023889055015,-4.129466703192853
1768646874356,124,-4,-3.337491155122835,-3.992370473737476,-4.083176968944368
1768646874360,124,-4,-3.327379383106575,-4.000623663949136,-4.076149283360679
1768646874364,124,-4,-3.3403986543476223,-3.980306237977002,-4.091553395065605
1768646874368,124,-4,-3.357371464607441,-3.947049468121526,-4.110650329853931
1768646874372,124,-4,-3.3638733884421796,-4.039169711397489,-4.119532398663384
1768646874376,124,-4,-3.3532205068336,-4.026882694153629,-4.111599864342766
1768646874380,124,-4,-3.3299436141733807,-3.9789210977728633,-4.091108943367097
1768646874384,124,-4,-3.309897857304914,-3.972904543811816,-4.073618504136627
1768646874388,124,-4,-3.311329807358947,-3.963018140405787,-4.0772445694400865
1768646874392,124,-4,-3.339094099176813,-3.997758393647053,-4.106869647317083
1768646874396,124,-4,-3.372008194928861,-4.060062750080856,-4.141390159280373
1768646874400,124,-4,-3.364187795833824,-3.917465912494455,-4.134929681784641
1768646874404,124,-4,-3.2643081221206325,-4.03382688282349,-4.036167761491063
1768646874408,124,-4,-3.043240547868285,-3.894245299050054,-3.816241623472886
1768646874412,125,-3,-2.710516968136146,-3.045003175901118,-3.4851157727649276
1768646874416,125,-3,-2.3100178136995675,-3.0057169948109705,-3.086627584079582
1768646874420,125,-3,-1.905741276490303,-2.937736672429069,-2.684083959946062
1768646874424,126,-2,-1.5670670025476454,-2.0235599899644976,-2.346372947516264
1768646874428,126,-2,-1.3467667970684882,-1.8830451721433732,-2.1265563559795337
1768646874432,126,-2,-1.2546636732634022,-2.0596828774841516,-2.0349234610189617
1768646874436,126,-2,-1.2525027621066398,-1.9493521218432672,-2.0332100952886383
1768646874440,126,-2,-1.282170720274241,-1.9948607996923051,-2.0631328931782633
1768646874444,126,-2,-1.3024388035843772,-1.951609522433022,-2.0836324395833117
1768646874448,126,-2,-1.3029768420926038,-1.9438914963795704,-2.0846718653512237
1768646874452,126,-2,-1.2928240887131237,-1.994646206965235,-2.0752018202577327
1768646874456,126,-2,-1.28296084847616,-1.9739947798991524,-2.0657475632018505
1768646874460,126,-2,-1.2782740630828011,-1.97511420016869,-2.060890764327286
1768646874464,126,-2,-1.278430646988582,-1.9500362525110728,-2.060494997303956
1768646874468,126,-2,-1.280518355269586,-1.9455457174352615,-2.062134583232828
1768646874472,126,-2,-1.2808182486729431,-1.9722433194518223,-2.0623520213902804
1768646874476,126,-2,-1.2774038144447912,-1.974464345757392,-2.058979974315539
1768646874480,126,-2,-1.2729100224590133,-1.9629017517569716,-2.0541272384257803
1768646874484,126,-2,-1.2731978213184243,-1.9526801285552648,-2.0533490960381093
1768646874488,126,-2,-1.2804798448785166,-1.936704321141659,-2.059132674872735
1768646874492,126,-2,-1.2872429631599358,-1.959638028041414,-2.064698878794922
1768646874496,126,-2,-1.280251025018735,-1.9704619937511592,-2.0574035941241227
1768646874500,126,-2,-1.2556292639121134,-1.9476038468331032,-2.0331583338281147
1768646874504,126,-2,-1.2320156116263985,-1.9650203416138692,-2.009509938412859
1768646874508,126,-2,-1.2430992144887392,-1.9151147829828208,-2.019027051581787
1768646874512,126,-2,-1.3041585554109458,-1.9546459326338783,-2.077021852835745
1768646874516,126,-2,-1.3749623493625616,-1.973523002472927,-2.144707807374784
1768646874520,126,-2,-1.361010533199408,-1.8998457715352768,-2.129177926202461
1768646874524,126,-2,-1.1778825710440022,-2.0449810717197723,-1.9461547691152796
1768646874528,126,-2,-0.8442968640620645,-1.782822093813489,-1.612987586328048
1768646874532,127,-1,-0.5155792290282233,-1.1063429577709245,-1.2836398605040993
1768646874536,127,-1,-0.3951531448217587,-0.7711930847919797,-1.1612909536602287
1768646874540,127,-1,-0.5741786559560582,-1.100434402234672,-1.3375608458420274
1768646874544,126,-2,-0.9388820619609216,-1.844236901851554,-1.699093441110222
1768646874548,126,-2,-1.239403530559487,-1.9597095852546371,-1.996484266523489
1768646874552,126,-2,-1.2693524015307696,-1.942355268030049,-2.0240653069116536
1768646874556,126,-2,-1.0091948112095168,-1.8649132349008504,-1.762811661289306
1768646874560,127,-1,-0.62381088824997,-1.0312341381393886,-1.3772420872440247
1768646874564,127,-1,-0.3263786147303955,-0.8555359003145403,-1.0793664536841294
1768646874568,127,-1,-0.221245291162369,-1.0087030154614136,-0.972375303653588
1768646874572,127,-1,-0.2434575150116156,-0.8157372052293541,-0.9910767636397132
1768646874576,127,-1,-0.2264900494332282,-1.0289529967733275,-0.969870228899463
1768646874580,127,-1,-0.0299284051721953,-0.785661858893095,-0.7697861227280833
1768646874584,128,0,0.3745954697704272,-0.1389322096150334,-0.3633788069291406
1768646874588,128,0,0.912265717137041,0.315479658055215,0.1748575531140646
1768646874592,129,1,1.4803929759962542,0.8459059252494694,0.7436625239175698
1768646874596,129,1,2.0173730648023303,1.3552431025555831,1.2828965744074252
1768646874600,130,2,2.515834192172911,1.83512634609967,1.7853894546691058
1768646874604,130,2,2.9876351383200124,2.2565366262991184,2.261590113412611
1768646874608,131,3,3.4219641408181207,2.924809160790937,2.698851622672956
1768646874612,131,3,3.76631190657323,3.244477276478135,3.0442080634045254
1768646874616,131,3,3.932189254952022,2.998276869468487,3.2105720646587814
1768646874620,131,3,3.821726629617588,3.183400381880969,3.1017767535442977
1768646874624,131,3,3.379470410727091,2.957664933625507,2.6626804375350743
1768646874628,130,2,2.6532676862541136,2.1681725263011264,1.9403071514902104
1768646874632,129,1,1.8098353019051536,1.098984413049397,1.1007572779692645
1768646874636,128,0,1.065580984046509,0.0740535850016008,0.3602293633998592
1768646874640,128,0,0.5719017489829935,0.2242748906247087,-0.1304345364777919
1768646874644,128,0,0.3432635385413589,-0.1600883644112878,-0.3574537757233038
1768646874648,127,-1,0.2735043346914196,-0.6355353466591881,-0.4266719228186504
1768646874652,128,0,0.2113620179366047,-0.1190016979855005,-0.4878933015134137
1768646874656,127,-1,0.0408807161050212,-0.6776078632788775,-0.65579522496227
1768646874660,127,-1,-0.2686401310116521,-1.000644370808676,-0.961185249446722
1768646874664,127,-1,-0.6569588646658322,-0.946873351456569,-1.3451186225311471
1768646874668,126,-2,-1.0117734956297686,-1.8037915967268143,-1.6965142144479566
1768646874672,126,-2,-1.2365174148263205,-1.972839267814462,-1.9189984503332973
1768646874676,126,-2,-1.3105312410977517,-1.760888936609578,-1.9912923976274832
1768646874680,126,-2,-1.2995330197493375,-1.9358762623506056,-1.97853396588764
1768646874684,126,-2,-1.304858374298064,-1.9808742520260925,-1.9820071149321872
1768646874688,126,-2,-1.3870868653815176,-1.7517750693901202,-2.0624424613743995
1768646874692,126,-2,-1.5218335339202689,-2.039529935769705,-2.1950487901749907
1768646874696,125,-3,-1.6229229183039533,-2.630474809668998,-2.292637557037504
1768646874700,126,-2,-1.6127609542071548,-2.099088917637382,-2.277173343119851
1768646874704,126,-2,-1.479576343823481,-1.758264545172784,-2.138080025952723
1768646874708,126,-2,-1.284366271193607,-1.991656865978681,-1.9387927261165707
1768646874712,126,-2,-1.1337459495297948,-1.769085148192559,-1.788329789638747
1768646874716,126,-2,-1.1376047585063762,-1.874801219216092,-1.7975794232330924
1768646874720,126,-2,-1.328379266875734,-1.8789805880337536,-1.9968201454121213
1768646874724,126,-2,-1.5198670655513056,-1.9036469893035957,-2.193393660565494
1768646874728,126,-2,-1.1560510575448537,-1.898774666286826,-1.8231461464033312
1768646874732,128,0,0.7264503401645048,0.225553230202359,0.0800741162769222
1768646874736,133,5,5.293299187066973,5.098572144857728,4.67369620722432
1768646874740,141,13,13.40591313018578,13.19952817119183,12.803260154315772
1768646874744,152,24,24.903255966620986,24.046988433448377,24.295918724341917
1768646874748,164,36,37.99415452821077,36.14969265918031,37.36239836844836
1768646874752,176,48,49.27386944508925,48.21817021234898,48.612138597953034
1768646874756,183,55,54.74122603284428,55.06085767571334,54.06038430534929
1768646874760,180,52,51.58547746038084,52.25615604068666,50.905996538441
1768646874764,168,40,39.7977148310484,39.955428558523494,39.13990922766044
1768646874768,149,21,22.517099479274435,21.236911303461156,21.89252328230379
1768646874772,131,3,4.739075898592468,3.1412713279508173,4.145031340513382
1768646874776,118,-10,-8.906842614617009,-9.812316067060856,-9.486897374653267
1768646874780,111,-17,-16.01634997309513,-16.749904729231986,-16.604720143135204
1768646874784,111,-17,-16.941394228406487,-17.00571533789192,-17.554093797637435
1768646874788,114,-14,-13.93741170748729,-13.730740290834042,-14.575945660224834
1768646874792,118,-10,-9.668879194176224,-10.00350159417486,-10.32089260763682
1768646874796,121,-7,-6.013937242861051,-6.612567454469966,-6.661268652205628
1768646874800,123,-5,-3.693476574470308,-4.990107457203103,-4.322367602021358
1768646874804,124,-4,-2.603668667461457,-3.694749481253207,-3.211865403612882
1768646874808,126,-2,-2.343413572971479,-2.0434161274230926,-2.940280978118089
1768646874812,125,-3,-2.5290287336907515,-2.703578875335906,-3.128053128371568
1768646874816,124,-4,-2.8608259648754775,-3.895948581034328,-3.4696602786873663
1768646874820,124,-4,-3.1260065170341003,-3.674323128104288,-3.742225261216672
1768646874824,124,-4,-3.233808168347201,-3.97234042321651,-3.849496697893589
1768646874828,124,-4,-3.2161091134706696,-3.75468350871187,-3.825940289756792
1768646874832,125,-3,-3.136370273779079,-2.9753381838146145,-3.741284984941656
1768646874836,124,-4,-2.9854963011260347,-3.642792406047119,-3.589646517588316
1768646874840,124,-4,-2.6903012634722265,-3.876077475866864,-3.2959997967938715
1768646874844,125,-3,-2.232543359249063,-2.760523032230749,-2.83888604319824
1768646874848,126,-2,-1.7299789136436416,-1.937751990744308,-2.3352508757032284
1768646874852,126,-2,-1.3653089697716578,-1.790474815330634,-1.9690492610485464
1768646874856,126,-2,-1.2277121225276653,-1.811462147354888,-1.8303283738532816
1768646874860,126,-2,-1.2311954113121637,-1.6981488239646767,-1.8328028548808224
1768646874864,126,-2,-1.1904094790177742,-1.9051455370556756,-1.7907886997547406
1768646874868,126,-2,-0.98083103870068,-1.785282693002634,-1.5802724972285085
1768646874872,127,-1,-0.6393999591016171,-0.914592677740264,-1.239034026093718
1768646874876,127,-1,-0.3235153632798637,-0.682365891319873,-0.9243523403826408
1768646874880,127,-1,-0.1752414927210912,-0.805542355898084,-0.7768303054164594
1768646874884,127,-1,-0.211899391059195,-0.7774306652126766,-0.8124331550319849
1768646874888,127,-1,-0.3220954337481494,-0.9042994186110628,-0.9202554508374946
1768646874892,127,-1,-0.3506903160164762,-0.7742349730638587,-0.9471467354678076
1768646874896,127,-1,-0.202890476331337,-0.805996423334147,-0.7996241401825679
1768646874900,127,-1,0.096791768856504,-0.6616658863466931,-0.5015246483926395
1768646874904,128,0,0.4250601757779493,0.1001341044435999,-0.1744477334064433
1768646874908,128,0,0.6506954970486221,0.2321884774724349,0.0513557386631101
1768646874912,128,0,0.7343491341177981,0.0980302947169424,0.1361580027755999
1768646874916,128,0,0.7576336544665172,0.3501659133695588,0.160534040243528
1768646874920,128,0,0.8525227228086383,0.1881608315649776,0.2557447219397311
1768646874924,128,0,1.086409851240669,0.278615232651709,0.4891623970394716
1768646874928,129,1,1.4012603066653124,1.0680687646413909,0.8031071198842858
1768646874932,129,1,1.6634793272709345,1.2806690539166643,1.064405231247608
1768646874936,129,1,1.782879288547918,1.1843172974312512,1.1833736735793448
1768646874940,129,1,1.7941898175770634,1.371917231777171,1.1951645357732648
1768646874944,129,1,1.8296590884823412,1.1099796587944923,1.2317986541544257
1768646874948,129,1,2.011687144186128,1.2451653094765427,1.4145751455294948
1768646874952,130,2,2.3613340285425792,2.148160134557223,1.7634594615540076
1768646874956,130,2,2.7930066914125824,2.301910043108511,2.1931198916538643
1768646874960,130,2,3.184398413531327,2.3211656177270417,2.5828744771320236
1768646874964,131,3,3.4604437822864953,3.112923204708466,2.858904916758351
1768646874968,131,3,3.64008071499363,3.3225869639134973,3.0397081433163935
1768646874972,131,3,3.822332756410092,3.0214017320297692,3.2229261929343607
1768646874976,131,3,4.114945417147872,3.520611063718035,3.5154759624141123
1768646874980,132,4,4.548984404579438,4.067630091281552,3.94856158341628
1768646874984,132,4,5.046713577483744,4.405410309262132,4.444989118529739
1768646874988,133,5,5.474168710475384,5.051314753109433,4.87120653600104
1768646874992,133,5,5.739252662397057,5.283002716196085,5.135371829641648
1768646874996,133,5,5.857182308179246,5.328258877009968,5.253047514830095
1768646875000,133,5,5.932157535474384,5.22175027067621,5.32871394368736
1768646875004,133,5,6.076793080459921,5.310051888354634,5.474525986268178
1768646875008,134,6,6.343928709829977,6.1333867386496435,5.7420590177983835
1768646875012,134,6,6.721589933249557,6.2434459313272095,6.118530084262646
1768646875016,134,6,7.168830395257896,6.390768456697105,6.563768875430265
1768646875020,135,7,7.6398519501963325,7.157749914917365,7.033565442045122
1768646875024,135,7,8.085298343494559,7.410324647519944,7.4791357091837085
1768646875028,136,8,8.460175723765015,8.01159868500967,7.85458070773112
1768646875032,136,8,8.749112808778952,8.443776468413276,8.143562277542339
1768646875036,136,8,8.979223553304056,8.162014310941517,8.373357294348303
1768646875040,136,8,9.19656684620956,8.440473084129195,8.590625525745642
1768646875044,137,9,9.43007212679544,9.107697820755138,8.824089745279371
1768646875048,137,9,9.683205494730435,9.344639351864476,9.076625037490809
1768646875052,137,9,9.950531270721974,9.15254356646381,9.34314268870989
1768646875056,137,9,10.224923985651415,9.452916453332588,9.61749692971572
1768646875060,138,10,10.490635589404391,10.188762094427346,9.883984585530834
1768646875064,138,10,10.725487622121411,10.326890185951036,10.119433076895604
1768646875068,138,10,10.908385236650638,10.197976707370902,10.302231768963615
1768646875072,138,10,11.004642487367764,10.279224906021708,10.39818278856866
1768646875076,138,10,10.937598902281495,10.40166919135842,10.330969921481342
1768646875080,138,10,10.593109386849882,10.184999277780172,9.986070582660734
1768646875084,137,9,9.872360183840913,9.404462350771674,9.264628606746315
1768646875088,136,8,8.747765402914716,8.086012172031992,8.140075250005486
1768646875092,134,6,7.273735659596637,6.474904648815357,6.667647937017048
1768646875096,133,5,5.558510558441751,5.173788246641829,4.954669033593386
1768646875100,131,3,3.732630243826875,3.464758975841128,3.1297808783649232
1768646875104,129,1,1.9206748485720135,1.1058427050825814,1.3170345415693163
1768646875108,127,-1,0.2020273997778261,-0.5587169748869338,-0.4027059472421546
1768646875112,126,-2,-1.418859816584673,-1.8756990828090565,-2.0234045289791434
1768646875116,124,-4,-2.9857427852050185,-3.444358301726397,-3.5888257891272675
1768646875120,123,-5,-4.510981196953219,-4.911846167089023,-5.112382173771182
1768646875124,121,-7,-5.919577967873497,-6.498168635027893,-6.519682900606608
1768646875128,120,-8,-7.084057934166379,-7.93004496962606,-7.683100555401541
1768646875132,119,-9,-7.924348343669562,-8.490064245880461,-8.522437174134303
1768646875136,119,-9,-8.4765750644062,-8.789188017193007,-9.074026264359206
1768646875140,118,-10,-8.865850880879247,-9.58143692877116,-9.462971522578798
1768646875144,118,-10,-9.20941069411193,-9.77010315732564,-9.805963226076743
1768646875148,118,-10,-9.532151789146234,-9.688968383624063,-10.127196971876684
1768646875152,117,-11,-9.759756040603005,-10.656810472863894,-10.352098276835353
1768646875156,117,-11,-9.790691484439334,-10.661097817106034,-10.379816276742558
1768646875160,118,-10,-9.584140183579423,-9.626902561896358,-10.170938402618487
1768646875164,118,-10,-9.19431824923311,-9.76655042252126,-9.780444258818584
1768646875168,118,-10,-8.741366913972367,-9.622337383227304,-9.32755249295957
1768646875172,119,-9,-8.356982821386996,-8.731648493104098,-8.942323269614075
1768646875176,119,-9,-8.132573506653353,-8.566871795042537,-8.715559624026257
1768646875180,119,-9,-8.08095679605668,-8.68816173864744,-8.66074046036905
1768646875184,119,-9,-8.130741327574496,-8.708640036668209,-8.707315735076218
1768646875188,119,-9,-8.165823957519631,-8.632646849548095,-8.739464505108714
1768646875192,119,-9,-8.088762222616129,-8.725519056627203,-8.659652538997127
1768646875196,119,-9,-7.865618023150074,-8.53789769701364,-8.43396302239145
1768646875200,120,-8,-7.525493659512509,-7.702296077360372,-8.091624013218983
1768646875204,120,-8,-7.127269766811605,-7.6741542596106305,-7.691260796222131
1768646875208,120,-8,-6.7312974541534745,-7.639517573706373,-7.2926468105967395
1768646875212,121,-7,-6.393475188337285,-6.7149363966086275,-6.951608826913599
1768646875216,121,-7,-6.1617597892965605,-6.515405042189236,-6.716681664411355
1768646875220,121,-7,-6.059196361737416,-6.71996946770007,-6.611084451318733
1768646875224,121,-7,-6.069902799525679,-6.61677033823021,-6.618235904164576
1768646875228,121,-7,-6.14447019688881,-6.686774775514267,-6.68825987949998
1768646875232,121,-7,-6.214674002900873,-6.659983393926556,-6.75366134896541
1768646875236,121,-7,-6.207010759003168,-6.524982935028174,-6.742063014155734
1768646875240,121,-7,-6.0664244164431445,-6.721257612352961,-6.598469632028654
1768646875244,121,-7,-5.7946164905628175,-6.552357673437385,-6.3235640993913735
1768646875248,122,-6,-5.469498277707027,-5.7704637287332865,-5.994489925706146
1768646875252,122,-6,-5.206989577210502,-5.534658993371209,-5.727332033547958
1768646875256,122,-6,-5.082850151513719,-5.642233402636349,-5.598312131029711
1768646875260,122,-6,-5.083817388053812,-5.5765324500541915,-5.594318170074665
1768646875264,122,-6,-5.132490227367368,-5.672106185033267,-5.637990391239193
1768646875268,122,-6,-5.158222870676462,-5.65211508784414,-5.658858309115774
1768646875272,122,-6,-5.148654291133461,-5.605586477554249,-5.644604910136837
1768646875276,122,-6,-5.142029403033993,-5.58045246881727,-5.63315894151236
1768646875280,122,-6,-5.17370366868618,-5.575042356166876,-5.659499853398359
1768646875284,122,-6,-5.225772349893533,-5.6955093060102016,-5.705715342317352
1768646875288,122,-6,-5.224997388109603,-5.581041744709707,-5.698880002740377
1768646875292,122,-6,-5.096133637861117,-5.6793056717195745,-5.564025415686146
1768646875296,122,-6,-4.830084583820676,-5.4695511226756555,-5.292215886730196
1768646875300,123,-5,-4.506225764875369,-4.660480392591956,-4.962944672078286
1768646875304,123,-5,-4.2432924632755125,-4.596847000155982,-4.694748867937044
1768646875308,123,-5,-4.11921640463849,-4.66396944022008,-4.564873496026827
1768646875312,123,-5,-4.126828909040482,-4.568529116633801,-4.565620627932079
1768646875316,123,-5,-4.191298322111503,-4.583166688087978,-4.622519740121822
1768646875320,123,-5,-4.222329919301131,-4.480707439970267,-4.646147127416995
1768646875324,123,-5,-4.162712471091147,-4.802246831941012,-4.579695154633149
1768646875328,123,-5,-4.010240837562753,-4.394218351643138,-4.42068409564999
1768646875332,124,-4,-3.805642563358508,-3.860599333990141,-4.209414532062922
1768646875336,123,-5,-3.5988972426917845,-4.241717039226112,-3.9956607721406794
1768646875340,124,-4,-3.422591407870179,-3.8071372557268295,-3.812090722178692
1768646875344,124,-4,-3.2894637343704245,-3.4571637856398696,-3.671674307785007
1768646875348,124,-4,-3.204826963736437,-3.7111371623336407,-3.5796893530524563
1768646875352,124,-4,-3.1756955196344023,-3.549908287355547,-3.5426816555430154
1768646875356,124,-4,-3.2059174289719707,-3.4925653074823013,-3.564220083099941
1768646875360,124,-4,-3.2778319475312707,-3.5733481512867473,-3.6272162945102826
1768646875364,124,-4,-3.33764126793316,-3.6259409556761297,-3.678858772352617
1768646875368,124,-4,-3.311008442378259,-3.564583005261647,-3.644979022107015
1768646875372,124,-4,-3.1535124729250827,-3.6485620423301097,-3.4800772809794775
1768646875376,124,-4,-2.8966911192194877,-3.391312333058983,-3.2145669429800465
1768646875380,125,-3,-2.634015277040262,-2.6297480610981108,-2.9422029013554933
1768646875384,125,-3,-2.4411186607663833,-2.5643554078716493,-2.7399752637030357
1768646875388,125,-3,-2.3038544517948356,-2.5938653130270612,-2.5943532799768674
1768646875392,125,-3,-2.1379570167163227,-2.616649022004986,-2.4201663704730927
1768646875396,125,-3,-1.8901064092687436,-2.3965768075959355,-2.1630178828448496
1768646875400,126,-2,-1.612828870215723,-1.592669524279417,-1.87573701322485
1768646875404,126,-2,-1.42674507658739,-1.5851317328688137,-1.6802169717785096
1768646875408,126,-2,-1.4059383906655638,-1.5370866049341083,-1.6509757195467856
1768646875412,126,-2,-1.5059614329494877,-1.6823881973665449,-1.742377647371823
1768646875416,125,-3,-1.6060603217184837,-2.292741567925933,-1.8322239639364328
1768646875420,126,-2,-1.6152185272420003,-1.693263357948224,-1.829705311818576
1768646875424,126,-2,-1.532431469171082,-1.4231032193383917,-1.7356708562819438
1768646875428,126,-2,-1.4158989805015336,-1.7047633266014102,-1.6097844343174037
1768646875432,126,-2,-1.3182387714955983,-1.4784408154233932,-1.504150129260023
1768646875436,126,-2,-1.263045186603465,-1.4967283274399303,-1.4404718960044425
1768646875440,126,-2,-1.268423380401893,-1.473100282576581,-1.4354507649266952
1768646875444,126,-2,-1.363875733446342,-1.5800574970982282,-1.5189050627459375
1768646875448,126,-2,-1.5617537221857192,-1.5645505942516589,-1.704809284292689
1768646875452,126,-2,-1.8091252945247107,-1.5577964441909762,-1.9414383846143977
1768646875456,125,-3,-1.988224633599915,-2.4516717026452164,-2.11058223693262
1768646875460,125,-3,-1.9940067702234687,-2.4612198866389017,-2.1059837400245778
1768646875464,126,-2,-1.823952541336174,-1.5755330232410285,-1.9249513700090548
1768646875468,126,-2,-1.5849267366658455,-1.5325989815757184,-1.6752426039292776
1768646875472,126,-2,-1.407654511950748,-1.5750993786108125,-1.4879021294180672
1768646875476,126,-2,-1.354955912088986,-1.4232827663951966,-1.4248852369630147
1768646875480,126,-2,-1.4003707165099764,-1.4787378586166189,-1.4588642738874935
1768646875484,126,-2,-1.47330506281987,-1.5194128165567924,-1.5194290857567687
1768646875488,126,-2,-1.5171908542254835,-1.5579746629790032,-1.5509563030200808
1768646875492,126,-2,-1.5178684370988664,-1.5314809494599824,-1.5401163824125628
1768646875496,126,-2,-1.4948366781850315,-1.4523810183096473,-1.5066051016884092
1768646875500,126,-2,-1.475273983014635,-1.441562853937142,-1.4770826500188403
1768646875504,126,-2,-1.4762738370642283,-1.5149241430757172,-1.4676521438861567
1768646875508,126,-2,-1.503848822708841,-1.5394815674881863,-1.4835199589999333
1768646875512,126,-2,-1.5547817384228375,-1.5181414730417326,-1.521609637778524
1768646875516,126,-2,-1.6064275484087238,-1.4732717661372754,-1.5603724693025862
1768646875520,126,-2,-1.6058316394411891,-1.3823129550285878,-1.5478636590140444
1768646875524,126,-2,-1.489003266625112,-1.5649176543546024,-1.4200465020155346
1768646875528,126,-2,-1.235243987872631,-1.4327590466026747,-1.155479977374415
1768646875532,127,-1,-0.908797886126643,-0.6273398834777314,-0.8180365838861605
1768646875536,127,-1,-0.6329428795032088,-0.3375855875081316,-0.5310815744966918
1768646875540,127,-1,-0.5066302688368489,-0.5059491487096259,-0.3933004800930488
1768646875544,127,-1,-0.5361376489259062,-0.4157046285695041,-0.4103644801480109
1768646875548,127,-1,-0.6373567988043318,-0.5314093683563947,-0.4982938865890602
1768646875552,127,-1,-0.6974676042090622,-0.5533550776194175,-0.5454801798516787
1768646875556,127,-1,-0.6467322599775798,-0.3360101257352355,-0.4832851315598951
1768646875560,127,-1,-0.5002435559977407,-0.5545839686497325,-0.3265985205345966
1768646875564,127,-1,-0.3498592372608931,-0.2666203844862029,-0.1661005011252865
1768646875568,128,0,-0.3046092946626271,0.2867554021117915,-0.1098157429184685
1768646875572,127,-1,-0.4094273145372187,-0.3089312862640176,-0.2023646360999211
1768646875576,127,-1,-0.600790292530444,-0.5972161288462431,-0.3805168647201145
1768646875580,127,-1,-0.7384466935256822,-0.252881822148931,-0.5048191193947529
1768646875584,127,-1,-0.6931975720634465,-0.5462729804047151,-0.4470392578149885
1768646875588,127,-1,-0.4316961742614476,-0.4073436713451981,-0.1743563672317349
1768646875592,128,0,-0.0452904999087162,0.423385697180979,0.2220874677798113
1768646875596,128,0,0.2952445081528054,0.6599517654471507,0.5723110288588744
1768646875600,128,0,0.431160828036699,0.5346575364376998,0.7185946364109044
1768646875604,128,0,0.2970819638934416,0.6741100607275403,0.5962724891269175
1768646875608,128,0,-0.0508925663687374,0.4107048171675883,0.2613732844152794
1768646875612,127,-1,-0.467424971648577,-0.3779590379445052,-0.1416291249947502
1768646875616,127,-1,-0.7875345296434297,-0.5234048217750695,-0.4490456420972469
1768646875620,127,-1,-0.8956855187157684,-0.2546548199027814,-0.5463053091248157
1768646875624,127,-1,-0.7651195439677567,-0.5107740266649206,-0.4063476769368719
1768646875628,127,-1,-0.4617873820036975,-0.3733206459904189,-0.0935872569834483
1768646875632,128,0,-0.1150323431343289,0.4307949762087796,0.263945259115942
1768646875636,128,0,0.1442756080890186,0.6697944842561301,0.535238118703808
1768646875640,128,0,0.253392332032659,0.5900258609778076,0.6563935512626282
1768646875644,128,0,0.2434963622036394,0.6549998610454014,0.6576967186495395
1768646875648,128,0,0.195817654506293,0.510514267207051,0.6203563043480202
1768646875652,128,0,0.1665906326830504,0.5365142094536333,0.6011889597218769
1768646875656,128,0,0.1503444937386004,0.620278798754619,0.5953395435265759
1768646875660,128,0,0.1147226125346778,0.6180785809681159,0.5706786579901253
1768646875664,128,0,0.071112244368438,0.7078892379039924,0.5383365961141909
1768646875668,128,0,0.1074706165595986,0.4351745281798822,0.5857010409761811
1768646875672,128,0,0.3411115782428533,0.6666488814890019,0.8295239842681443
1768646875676,129,1,0.8243941647239712,1.4857129729067098,1.322056693964659
1768646875680,129,1,1.4839182274733216,1.7868625967515266,1.990494574786143
1768646875684,130,2,2.1509418359362487,2.5791596170958666,2.6669248662911738
1768646875688,131,3,2.6698830371635256,3.5684436747153336,3.196061832267001
1768646875692,131,3,3.0041953274070323,3.5803993784636376,3.541094088704841
1768646875696,131,3,3.246144296197,3.537244579895172,3.793896884635447
1768646875700,131,3,3.5110440140711865,3.831856574090036,4.06914616324276
1768646875704,132,4,3.807030664268509,4.476689390150232,4.373989661724125
1768646875708,132,4,3.9996402092279784,4.8042005331713025,4.5736577423565645
1768646875712,132,4,3.8994239120157506,4.256873995240483,4.480090330730678
1768646875716,131,3,3.3961682969113665,3.970647839574178,3.9851735824775463
1768646875720,131,3,2.5452343451881916,3.344280371158876,3.1449237312771
1768646875724,129,1,1.5593684905483025,2.035990280955123,2.1706431854668877
1768646875728,129,1,0.711239732907152,1.273845978672272,1.3329092215695564
1768646875732,128,0,0.1948934271590236,0.7785141460246026,0.8247251326726708
1768646875736,128,0,0.0245278567187647,0.5298653220641169,0.6607068628298227
1768646875740,128,0,0.0368171662017541,0.7151649202042838,0.6787076725381096
1768646875744,128,0,-0.0008105486001649,0.8100683995793796,0.6473008090989685
1768646875748,128,0,-0.2476033830642781,0.4060916124366222,0.4079825764725006
1768646875752,127,-1,-0.7079494032184215,-0.2160895914274834,-0.04350671168895
1768646875756,127,-1,-1.2555639106623266,-0.5683032730669568,-0.581586823991513
1768646875760,126,-2,-1.728094011868301,-1.086065171476436,-1.0451882747222163
1768646875764,126,-2,-2.018653910368782,-1.3992106495525622,-1.328415998862003
1768646875768,126,-2,-2.1143696526737528,-1.3338585510578926,-1.418365268892085
1768646875772,126,-2,-2.078876142674224,-1.445521780048436,-1.3777741140366986
1768646875776,126,-2,-2.0052339931453607,-1.3609933476240703,-1.298785098901739
1768646875780,126,-2,-1.9681388844174332,-1.2264593092626197,-1.255784599616433
1768646875784,126,-2,-1.9935415465909296,-1.2753943432866546,-1.274804798901075
1768646875788,126,-2,-2.05492627658935,-1.3753761048786697,-1.3291756362201517
1768646875792,126,-2,-2.097508141875295,-1.426069241844352,-1.3637388729296267
1768646875796,126,-2,-2.0787658168747862,-1.338253030892138,-1.336291569443232
1768646875800,126,-2,-2.003784611320119,-1.2483296554136425,-1.2537174776084394
1768646875804,126,-2,-1.9353254636269777,-1.205682864960002,-1.181544517247659
1768646875808,126,-2,-1.9631758729794333,-1.411156577202916,-1.2112806629033943
1768646875812,126,-2,-2.118848019131774,-1.3864857424802377,-1.372577332361253
1768646875816,126,-2,-2.237921518870839,-1.3387703574505263,-1.4945986742978712
1768646875820,126,-2,-1.8194916099745664,-1.2683005350456982,-1.0684222342250893
1768646875824,128,0,0.0139637262654737,0.905930449138989,0.786437457953284
1768646875828,133,5,4.338245104375529,5.46481782945037,5.1384580197413365
1768646875832,140,12,11.96559791408844,12.807776993245582,12.784932366060229
1768646875836,151,23,22.774793322885,23.4603231899668,23.59262367226136
1768646875840,162,34,35.129872856087594,34.97005461346506,35.92633535588032
1768646875844,173,45,45.86264130036703,45.70183827786354,46.631287494767754
1768646875848,180,52,51.183494906783224,52.6600792746315,51.934347973916275
1768646875852,178,50,48.350304653928774,50.64249997124269,49.1031135288124
1768646875856,166,38,37.243078671432755,38.55450761189283,38.01734777865357
1768646875860,148,20,20.78313412117339,20.928587144715788,21.58993634976969
1768646875864,131,3,3.760839577121031,3.719341564934892,4.5979449615837655
1768646875868,118,-10,-9.307124915904584,-9.24122160234888,-8.455069235057337
1768646875872,112,-16,-16.03335223190322,-15.390528295585527,-15.1879325860834
1768646875876,112,-16,-16.734101464737705,-15.325207449784076,-15.91197784270992
1768646875880,115,-13,-13.618842779219552,-12.180000562281194,-12.822853814909369
1768646875884,119,-9,-9.316799448220966,-8.182707355025231,-8.535057322074461
1768646875888,122,-6,-5.684612466882817,-5.345341297707051,-4.898307961309482
1768646875892,124,-4,-3.420095433161966,-3.2707758661100765,-2.615199334490205
1768646875896,126,-2,-2.3681935945332055,-1.4107793097477426,-1.5433711345963292
1768646875900,126,-2,-2.0496928932459375,-1.0726981923964414,-1.2150483671805536
1768646875904,126,-2,-2.0334635626179356,-1.277523467348702,-1.201761798059943
1768646875908,126,-2,-2.0660417584479376,-1.2273575480245975,-1.2439649245954318
1768646875912,126,-2,-2.056671614529551,-1.3564885340571131,-1.2425322528783218
1768646875916,126,-2,-2.018017302781606,-1.2907717687744888,-1.2058871873017454
1768646875920,126,-2,-2.000280033144189,-1.1505670827377612,-1.1856561761296642
1768646875924,126,-2,-2.029834159175138,-1.202625618182397,-1.2123177182803708
1768646875928,126,-2,-2.0745326715254127,-1.2734537949291806,-1.2565342448956145
1768646875932,126,-2,-2.0600771474679247,-1.2858464187210052,-1.2437672768433878
1768646875936,126,-2,-1.9290239173685473,-1.3333577915288997,-1.1146121072159474
1768646875940,126,-2,-1.6904264551681414,-1.0553448903727658,-0.8770885475887669
1768646875944,127,-1,-1.4072622558230496,-0.3143005068760348,-0.5950679707290909
1768646875948,127,-1,-1.1315312819571628,-0.1083490048379985,-0.3216461361164721
1768646875952,127,-1,-0.8621449414129048,-0.4569574039777603,-0.0551290501721638
1768646875956,127,-1,-0.5770472463906815,-0.1034033385086536,0.2280230920086547
1768646875960,128,0,-0.2933085267486741,0.7310114604478503,0.5108097070061898
1768646875964,128,0,-0.0701947255852686,0.9115038703149296,0.7324347302821161
1768646875968,128,0,0.0497197581440747,0.7101521719343479,0.8493004127257662
1768646875972,128,0,0.0828627758573148,0.719361115957589,0.8785041515324308
1768646875976,128,0,0.0800293797491762,0.7850115878488799,0.872107707391642
1768646875980,128,0,0.0723956488760104,0.8325837802906942,0.8617342866389851
1768646875984,128,0,0.0537887164101236,0.8641358172752357,0.8407704968517178
1768646875988,128,0,0.0136592564125166,0.7632906551283681,0.7980192464126298
1768646875992,128,0,-0.0214404517801076,0.6987705371544148,0.7595641120672224
1768646875996,128,0,0.0139209903099311,0.8365325645947506,0.7907006206824005
1768646876000,128,0,0.1765782466567311,0.7921488153397354,0.9486447156565496
1768646876004,128,0,0.4560278721587179,0.9510883209892858,1.2235973599798928
1768646876008,129,1,0.7625658156577544,1.6792553024362866,1.5261946094288998
1768646876012,129,1,0.9876381272625684,1.83317916297155,1.747496293050112
1768646876016,129,1,1.0921967946824576,1.7029824155958833,1.847830280708588
1768646876020,129,1,1.1411846249822857,1.9716828539412208,1.892011840404063
1768646876024,129,1,1.2458594849200253,1.7795865725426094,1.991775749859455
1768646876028,129,1,1.4632243530738571,1.8802422784699897,2.2045247447027547
1768646876032,130,2,1.747408055115883,2.672980299077128,2.484049132904286
1768646876036,130,2,2.001571574622441,2.8690636081351832,2.732842476355043
1768646876040,130,2,2.1775334185646473,2.860918843323243,2.902841800081764
1768646876044,130,2,2.3190656946916395,2.873585044830642,3.038794297029515
1768646876048,130,2,2.5077159245662455,2.85456315452549,3.2226800516361513
1768646876052,131,3,2.7768219639766594,3.6656712347291416,3.486907095743585
1768646876056,131,3,3.0835171652927142,3.994265485804783,3.787560870152865
1768646876060,131,3,3.3521319715340216,3.658409287035325,4.0493669072710645
1768646876064,131,3,3.5325158093396327,4.213003516943161,4.2234635367809865
1768646876068,132,4,3.626852692179985,4.416390956687927,4.31241516960218
1768646876072,131,3,3.6811720580581015,4.228269214861663,4.361368780115747
1768646876076,132,4,3.752841198480964,4.406393479696345,4.426861361134831
1768646876080,131,3,3.869393806397648,4.298621304134478,4.536511615584524
1768646876084,132,4,4.0090835436919,4.607518569818391,4.669116058076558
1768646876088,132,4,4.1286577247833,4.983154277773722,4.7818380687601705
1768646876092,132,4,4.219607404882587,4.785407322672578,4.866507220193368
1768646876096,132,4,4.336979947035729,4.762058516721769,4.978328860378042
1768646876100,132,4,4.5682739624432624,5.114837588652144,5.204171286340342
1768646876104,133,5,4.969929731121167,5.654459119898543,5.599182440590447
1768646876108,133,5,5.523124400001639,6.103330063418286,6.144026328728165
1768646876112,134,6,6.133594948037126,6.5746088713299145,6.745678320598731
1768646876116,134,6,6.6719077145432255,7.102233076174708,7.276512126973566
1768646876120,135,7,7.0424093395562055,7.736195614450601,7.641234066648175
1768646876124,135,7,7.25108808595206,8.079185240062259,7.844529827072282
1768646876128,135,7,7.416231452362395,7.697357727194721,8.00338327757184
1768646876132,135,7,7.688440068920233,7.995248036104841,8.268251504546607
1768646876136,136,8,8.130061806338933,8.749659380509678,8.702032234509378
1768646876140,136,8,8.659253078897882,9.074790612627206,9.223286583084846
1768646876144,137,9,9.113235342412828,9.798332437594654,9.669412508699123
1768646876148,137,9,9.376248570968086,9.977043837238552,9.924891226381153
1768646876152,137,9,9.461851397263873,9.748756597815396,10.003557799580042
1768646876156,137,9,9.484788412472389,10.03460798657006,10.02012153301715
1768646876160,137,9,9.555474676539728,9.803295566758957,10.084462596896104
1768646876164,137,9,9.691407481855268,10.101069076496708,10.213391229496812
1768646876168,138,10,9.813844202891286,10.708346991185415,10.32804391747274
1768646876172,137,9,9.814582555387808,10.023992406381762,10.32088474213061
1768646876176,137,9,9.62136017062355,9.820319556460596,10.120241159844626
1768646876180,137,9,9.212447679569078,10.000552588045911,9.70408272592146
1768646876184,136,8,8.58795757519658,8.971637867169758,9.072027186988286
1768646876188,135,7,7.732081956001636,7.81519868395032,8.20866095363123
1768646876192,134,6,6.601272602747915,7.0053021624755445,7.071103574197319
1768646876196,133,5,5.163872962085708,5.806810279234396,5.627327828363157
1768646876200,131,3,3.4707947041210754,4.085604502910905,3.92732374191877
1768646876204,129,1,1.6795224547343972,1.886264789420808,2.128675956313755
1768646876208,127,-1,-0.0214932364753885,-0.0728188802249487,0.4207967378749591
1768646876212,126,-2,-1.5302225888535306,-1.0520596239452118,-1.0942053835748728
1768646876216,125,-3,-2.8726625719417216,-2.1487150231134926,-2.44347698804697
1768646876220,123,-5,-4.131268618034873,-3.8798706978626343,-3.71011680533499
1768646876224,122,-6,-5.342843137234658,-5.164569585619872,-4.929958415220079
1768646876228,121,-7,-6.462110271444395,-5.976752711153173,-6.056203942247829
1768646876232,120,-8,-7.402562494441735,-7.127067049960563,-7.001892376062019
1768646876236,119,-9,-8.097971138691095,-8.06165192325713,-7.701850502781141
1768646876240,119,-9,-8.53066715850997,-7.889921409511947,-8.140096202736716
1768646876244,119,-9,-8.71985934161381,-8.183589615215128,-8.336642441521041
1768646876248,118,-10,-8.70600991297469,-8.882799438028846,-8.331063628350035
1768646876252,119,-9,-8.558293967086255,-8.246560185774564,-8.19091421656556
1768646876256,119,-9,-8.380276641475332,-7.8727916833745715,-8.019005316623012
1768646876260,119,-9,-8.274501911752266,-8.072655561361831,-7.918299311080059
1768646876264,119,-9,-8.279909350092495,-7.955601637325337,-7.928529495046538
1768646876268,119,-9,-8.340650867885435,-8.098004188756812,-7.99445631251464
1768646876272,119,-9,-8.342538808149675,-8.021921476788068,-8.002122217563205
1768646876276,119,-9,-8.196598719425559,-8.040806070019212,-7.862261221932821
1768646876280,119,-9,-7.909879117367296,-7.897175969773941,-7.581404794270809
1768646876284,120,-8,-7.585423619725439,-7.0720739321370125,-7.262518851821098
1768646876288,120,-8,-7.343709476419712,-6.981954843349504,-7.026475198124194
1768646876292,120,-8,-7.228469223657215,-7.118409287568148,-6.917072417540083
1768646876296,120,-8,-7.180055752016308,-6.8965219070225485,-6.87394590177305
1768646876300,120,-8,-7.096644981115926,-7.036820662449269,-6.7944897788025855
1768646876304,120,-8,-6.919427188523537,-6.867444419672743,-6.620233910052013
1768646876308,121,-7,-6.660667092362462,-6.19436565739924,-6.3650101630019025
1768646876312,121,-7,-6.36086001293123,-5.864907636059573,-6.070541087230076
1768646876316,121,-7,-6.041128248707432,-6.122313551823339,-5.757260347863424
1768646876320,121,-7,-5.713932412593828,-5.797291617191075,-5.435653830338413
1768646876324,122,-6,-5.427283999481113,-5.0391996703798,-5.152687995674876
1768646876328,122,-6,-5.262384120547363,-5.06037070732498,-4.9903552291622715
1768646876332,122,-6,-5.263439036757116,-4.90007600115788,-4.994137294571561
1768646876336,122,-6,-5.374374116677191,-5.128124810659943,-5.108249606391946
1768646876340,121,-7,-5.463202182585234,-5.7056491632727795,-5.200290195380524
1768646876344,122,-6,-5.4228326832832945,-5.145380890284514,-5.163178829827816
1768646876348,122,-6,-5.256931714951833,-4.904792418474951,-5.00100497372555
1768646876352,122,-6,-5.077772810343236,-5.032628402872325,-4.825857737839536
1768646876356,122,-6,-5.024784085830151,-4.9629676017882085,-4.7762952660371925
1768646876360,122,-6,-5.16615277348476,-4.8479413620447405,-4.920031930701884
1768646876364,122,-6,-5.44657745444657,-4.979513300357012,-5.202062469074794
1768646876368,121,-7,-5.718196713525938,-6.049525238604403,-5.474899692341513
1768646876372,121,-7,-5.839223704373403,-5.843392602120493,-5.597002376920807
1768646876376,122,-6,-5.764365987567568,-5.134721804506827,-5.523567717379226
1768646876380,121,-7,-5.554941912990758,-5.63458277029024,-5.316358367076226
1768646876384,122,-6,-5.316124330284656,-5.183542005368747,-5.080307744504278
1768646876388,122,-6,-5.128705878106647,-4.802276559047989,-4.895422011131101
1768646876392,122,-6,-5.023998022394702,-5.079304264164245,-4.792292840069496
1768646876396,122,-6,-4.998519723783474,-4.861894260769971,-4.767117421334537
1768646876400,122,-6,-5.0356999495906365,-4.8696499177384,-4.803540081524367
1768646876404,122,-6,-5.107919736725876,-4.950049172150454,-4.874760342529412
1768646876408,122,-6,-5.163582256244338,-4.968318166048703,-4.930238288491506
1768646876412,122,-6,-5.13065815753904,-4.929334843965571,-4.89839260279686
1768646876416,122,-6,-4.957527466737073,-4.943866621311015,-4.72687269306338
1768646876420,122,-6,-4.666458965936082,-4.782578420768513,-4.436576305911739
1768646876424,123,-5,-4.361007740034261,-4.004592324515448,-4.130314174285628
1768646876428,123,-5,-4.15653677216736,-3.874195931106886,-3.9239433844631666
1768646876432,123,-5,-4.08194103611533,-4.023079344349201,-3.8474527790118502
1768646876436,123,-5,-4.046667593268344,-3.784091700426812,-3.810917192020237
1768646876440,123,-5,-3.917993053742546,-3.9581238236296663,-3.681340724387105
1768646876444,123,-5,-3.649866798744136,-3.7665111434789753,-3.412048719651383
1768646876448,124,-4,-3.3459968560607862,-3.103585632324838,-3.1066680380185163
1768646876452,124,-4,-3.1887488357790357,-2.753910618121714,-2.948032965243243
1768646876456,124,-4,-3.2894096059893663,-3.0189502979890857,-3.047431503046913
1768646876460,123,-5,-3.5958499107589885,-3.721005770336558,-3.3518533320629813
1768646876464,123,-5,-3.937531918700331,-3.952503755694503,-3.6901138349124807
1768646876468,123,-5,-4.151878637542412,-3.922845967794616,-3.90026525002302
1768646876472,123,-5,-4.172183773431948,-3.858887441720283,-3.91680347111535
1768646876476,123,-5,-4.021601968921456,-3.9138361040880385,-3.76330159624774
1768646876480,123,-5,-3.7537791267388783,-3.775144921101929,-3.492995667560207
1768646876484,124,-4,-3.4073223204538725,-2.905296458517612,-3.144068900066298
1768646876488,124,-4,-3.00641958063103,-2.9191590164302905,-2.7403392939673212
1768646876492,124,-4,-2.595431072033806,-2.8500959873476637,-2.3255791787463664
1768646876496,125,-3,-2.2613603798437096,-1.8560871469008755,-1.9865916028811776
1768646876500,125,-3,-2.0982376550629995,-1.8478387184981813,-1.8181945767458367
1768646876504,125,-3,-2.1277573641875507,-1.7836949190283748,-1.843011609038942
1768646876508,125,-3,-2.258810483892358,-2.03143534771943,-1.96973060419205
1768646876512,124,-4,-2.347139450842807,-2.693230062988369,-2.0531283408325436
1768646876516,125,-3,-2.3093861363275447,-1.9819336654324016,-2.009708414295494
1768646876520,125,-3,-2.179623802160523,-1.693802747689227,-1.8745475430971812
1768646876524,125,-3,-2.057644210660037,-1.925373919065753,-1.748036119713047
1768646876528,125,-3,-2.011971949296256,-1.8379436740770192,-1.697856127626654
1768646876532,125,-3,-2.0311456303290503,-1.8856546235975231,-1.7112623884364386
1768646876536,125,-3,-2.0492802250272657,-1.7301451033819857,-1.7221702278680031
1768646876540,125,-3,-2.003454443457493,-1.9478256584991476,-1.6687083439314807
1768646876544,125,-3,-1.8720358583052796,-1.6185536144865424,-1.530464194065038
1768646876548,126,-2,-1.675611014508462,-1.1334353723437651,-1.3282943606461457
1768646876552,125,-3,-1.4564394122646869,-1.5465266732806102,-1.1035953410367283
1768646876556,126,-2,-1.2601926631284197,-1.050834047961838,-0.9009813191421612
1768646876560,126,-2,-1.1239511147783658,-0.5977683505517247,-0.7572878774434862
1768646876564,126,-2,-1.0626052940981658,-0.935544029046403,-0.6878772346829832
1768646876568,126,-2,-1.0603614895554625,-0.8058716947071966,-0.6774271349908808
1768646876572,126,-2,-1.0812690446401896,-0.8032004203915628,-0.6902811860607126
1768646876576,126,-2,-1.093497122562784,-0.8287370457617483,-0.6949043949487813
1768646876580,126,-2,-1.087464905296954,-0.7213125993866148,-0.6817513003002934
1768646876584,126,-2,-1.0771131763889938,-0.850013829361741,-0.6641475694012468
1768646876588,126,-2,-1.0867941150475997,-0.809200358193776,-0.6655631648065184
1768646876592,126,-2,-1.1288305821364992,-0.7966590718508644,-0.6981650094935773
1768646876596,126,-2,-1.1800934069884903,-0.8111775781200332,-0.7397236185434664
1768646876600,126,-2,-1.1775327628229348,-0.6885331744717789,-0.728176894197371
1768646876604,126,-2,-1.0527813771461774,-0.8853018763641078,-0.5951196342232454
1768646876608,126,-2,-0.7928838703890442,-0.7103415316646277,-0.3267755717906374
1768646876612,127,-1,-0.4722114074497647,0.1076978947869543,0.0029238272897049
1768646876616,127,-1,-0.2110464796782794,0.3270080499730846,0.2734371105724593
1768646876620,127,-1,-0.088802771629294,0.1964949057518677,0.4051611314975873
1768646876624,127,-1,-0.0923858914198527,0.256007892606845,0.4114183751848486
1768646876628,127,-1,-0.1443321947701874,0.1833228849162267,0.3697361717014226
1768646876632,127,-1,-0.1754700885722271,0.2251701200029293,0.3488436802612724
1768646876636,127,-1,-0.173450268512286,0.2667496916912861,0.3606783694933608
1768646876640,127,-1,-0.1726252466061364,0.2572633858274171,0.3710758794145027
1768646876644,127,-1,-0.2042542716091855,0.2582854802951564,0.3493476160901099
1768646876648,127,-1,-0.2527356830907852,0.1710083339547844,0.311429695519905
1768646876652,127,-1,-0.2539383763115013,0.293658487070545,0.3213525804334693
1768646876656,127,-1,-0.139454605604536,0.2096938752665423,0.4471956765641655
1768646876660,127,-1,0.1056456712722009,0.3598037850500928,0.7033954453457605
1768646876664,128,0,0.4201770708222132,1.177084112363343,1.028211274149572
1768646876668,128,0,0.7011095816223589,1.2855251071416167,1.3186619423568209
1768646876672,128,0,0.8635079807304957,1.1912430834444714,1.4909283531076245
1768646876676,128,0,0.8762830020813195,1.3673098291825907,1.5151329163987377
1768646876680,128,0,0.7620581044252042,1.1985771196886312,1.4136578893425953
1768646876684,128,0,0.5849156492560579,1.4005890160082528,1.2490383025011402
1768646876688,128,0,0.4338511773928619,1.0652627272399948,1.1093108626258703
1768646876692,127,-1,0.3854172444121646,0.4544824225043677,1.0716359398821584
1768646876696,128,0,0.4548555192194845,1.130538955440843,1.1521877380995815
1768646876700,128,0,0.5844212787780829,1.4586468761739952,1.2931715878968195
1768646876704,128,0,0.6917913766290913,1.1834958912467182,1.4118056953568403
1768646876708,128,0,0.7325024016875816,1.2969972739819855,1.463851201048989
1768646876712,128,0,0.7171662989553571,1.2708461808347022,1.460513625652676
1768646876716,128,0,0.6815965526098946,1.304089473050101,1.4375548321795593
1768646876720,128,0,0.6526268781563291,1.3604242348384308,1.4210866063894474
1768646876724,128,0,0.6382831530878983,1.2706648573068806,1.4186383108148253
1768646876728,128,0,0.6356155705447257,1.2828759096968556,1.4274791873139443
1768646876732,128,0,0.6383679235326056,1.276870019445396,1.4418491656859018
1768646876736,128,0,0.6393081493587456,1.3381976593430962,1.454682165398183
1768646876740,128,0,0.6323621208092223,1.3570506082472689,1.4597599759904227
1768646876744,128,0,0.6162388943032466,1.3013174078667549,1.4557816399810193
1768646876748,128,0,0.595447168931613,1.2967814291674118,1.447471824233536
1768646876752,128,0,0.5774298833037117,1.2719152362233543,1.4422673971783306
1768646876756,128,0,0.5697296747664882,1.3737616819429113,1.4471927284026462
1768646876760,128,0,0.5779238344344662,1.359661548706093,1.467256237590991
1768646876764,128,0,0.5987833301569383,1.317033578575132,1.4993578409399635
1768646876768,128,0,0.6091311209713173,1.3417971957513295,1.521147199598788
1768646876772,128,0,0.5672221454849248,1.2098556323717573,1.491517303711797
1768646876776,128,0,0.443336385386219,1.499462243941882,1.3805515988358892
1768646876780,128,0,0.2641336730643417,1.2344844418973795,1.2142633206014637
1768646876784,127,-1,0.1248736442512322,0.5038680969211786,1.0874946149884197
1768646876788,128,0,0.1444023233293003,1.1648312838184212,1.1190235164276383
1768646876792,128,0,0.3945708517118949,1.427256724834104,1.3809115577738398
1768646876796,128,0,0.8599427081232016,1.2856398718305335,1.8581906504302264
1768646876800,129,1,1.4555107465020107,2.5138911220276317,2.4661203853254334
1768646876804,130,2,2.087262708242537,3.2329396895527385,3.110322952870961
1768646876808,130,2,2.706752219872314,3.4785656907868328,3.741891207235395
1768646876812,131,3,3.3071231339069938,4.129853349870713,4.354130698254708
1768646876816,131,3,3.860989569676603,4.602616905647729,4.920021063359317
1768646876820,132,4,4.270426954876902,5.243516126459504,5.341361832773394
1768646876824,132,4,4.396942626298721,5.527408391597968,5.479095586394909
1768646876828,132,4,4.154287449367237,5.22984506484517,5.247341602022765
1768646876832,131,3,3.5765514897516715,4.371581577548385,4.6814998448643985
1768646876836,130,2,2.801652334497306,3.421808161265068,3.9199828803449264
1768646876840,130,2,1.9978494215857363,3.4014709539211037,3.129672129646674
1768646876844,129,1,1.2975256341789043,2.4907563674845834,2.441273287614279
1768646876848,128,0,0.7611929601477193,1.208878835779259,1.915380587235568
1768646876852,128,0,0.3635210233110194,1.504047966641732,1.5279901287789786
1768646876856,128,0,0.0133562613988811,1.2335173124320296,1.1885666097695764
1768646876860,127,-1,-0.3816796856207718,0.6598103783458479,0.8044279371096686
1768646876864,127,-1,-0.847321903437847,0.2922716374264876,0.3499256700516986
1768646876868,126,-2,-1.3311916265338235,-0.6226255464331737,-0.1219121630518352
1768646876872,126,-2,-1.749602427599192,-0.5587673867852758,-0.527481682622043
1768646876876,126,-2,-2.0384703803079134,-0.787461323934763,-0.8039852381034236
1768646876880,125,-3,-2.1716765281028585,-1.1826278267966512,-0.9264427673905444
1768646876884,126,-2,-2.162773406876691,-0.8941611060695623,-0.908071276297174
1768646876888,125,-3,-2.073207676616557,-1.3551552251055716,-0.8090736960332003
1768646876892,126,-2,-2.0096793377417166,-0.8461521522463411,-0.7355690105556549
1768646876896,126,-2,-2.078298039897745,-0.4678362015124244,-0.7939992290824205
1768646876900,125,-3,-2.3111277445312997,-1.4554648174025029,-1.0164380345957416
1768646876904,125,-3,-2.6288904877405685,-1.5975817048477274,-1.3228260378715757
1768646876908,125,-3,-2.8784197655490296,-1.5885192560308026,-1.5595682836796216
1768646876912,125,-3,-2.9180823806434617,-1.650992246533196,-1.5858775087230104
1768646876916,125,-3,-2.70020387482814,-1.5849890658483496,-1.3558349252119186
1768646876920,125,-3,-2.3139890353471007,-1.3376796151023052,-0.9606741587933
1768646876924,126,-2,-1.957207611075639,-0.6379995606940961,-0.5997733279794976
1768646876928,126,-2,-1.813805589033866,-0.5488941885551242,-0.456441755470554
1768646876932,126,-2,-1.863665147821029,-0.6633925203063652,-0.5056828045533361
1768646876936,126,-2,-1.710808790510349,-0.5647838932157048,-0.3436905973972199
1768646876940,127,-1,-0.5336944103014571,0.7064834728626869,0.8559623778038093
1768646876944,131,3,2.7624651632433412,4.3401228365870175,4.183798004945346
1768646876948,137,9,9.150219649196767,10.539436843888318,10.599160331191184
1768646876952,147,19,18.878437100335155,20.2371192105244,20.337427347870268
1768646876956,158,30,30.864566559494943,31.60267616649392,32.31299686117079
1768646876960,169,41,42.47214143930026,42.53856828285467,43.89980220256746
1768646876964,178,50,50.08116442404775,51.572478049896304,51.494073114115565
1768646876968,180,52,50.49344094442219,53.27069722030326,51.90885562540189
1768646876972,171,43,42.56839068599038,44.53449377380212,44.0047666193015
1768646876976,156,28,28.07589084995713,29.24368400322311,29.544738670785673
1768646876980,138,10,11.08207547394673,11.995415143988367,12.584305946237055
1768646876984,123,-5,-3.873168409252592,-3.9035403626526417,-2.346986706989239
1768646876988,113,-15,-13.720710698471244,-13.085696475812508,-12.18695461154074
1768646876992,112,-16,-17.797317998511694,-15.082828135397548,-16.27265781701459
1768646876996,111,-17,-17.40863702149967,-15.076697909597222,-15.90113781450811
1768646877000,113,-15,-14.604492673138736,-13.653373845809632,-13.107896393584385
1768646877004,116,-12,-11.104200390285678,-10.31509890070193,-9.602083539681866
1768646877008,120,-8,-7.889854016196246,-6.581634543123697,-6.368038023409204
1768646877012,123,-5,-5.347037850308042,-3.649243017790382,-3.803065232149308
1768646877016,124,-4,-3.5642705382860287,-2.3585943910070233,-2.00577975516243
1768646877020,125,-3,-2.5303115103670977,-1.4515239973709648,-0.9664477822525936
1768646877024,126,-2,-2.177177879901335,-0.4374454907440246,-0.6124508305165473
1768646877028,126,-2,-2.3387352144488784,-0.4860606419518851,-0.7725399727545921
1768646877032,125,-3,-2.7411681105517927,-1.6731161328025126,-1.1700323243562691
1768646877036,124,-4,-3.096477200578386,-2.2710465403193547,-1.516864020532115
1768646877040,125,-3,-3.2381522425043188,-1.5407540066472063,-1.6493138630175923
1768646877044,125,-3,-3.166200346605882,-1.32323193093331,-1.571012483609858
1768646877048,125,-3,-2.968134420457892,-1.5804191448402096,-1.370201949498035
1768646877052,125,-3,-2.721799373146719,-1.5338758972360655,-1.1215959997539464
1768646877056,125,-3,-2.4723424444697124,-1.3335667780654794,-0.8670204699715115
1768646877060,126,-2,-2.2511818704762723,-0.5236109713721474,-0.6381366461429451
1768646877064,126,-2,-2.064315380825304,-0.2539508589045068,-0.4438857782990376
1768646877068,126,-2,-1.8624667912297952,-0.7027405189707102,-0.2368763837108511
1768646877072,126,-2,-1.5632292987915992,-0.2779847670507059,0.0660296156508872
1768646877076,127,-1,-1.1305118145569282,0.3870081600532823,0.5024567323125055
1768646877080,127,-1,-0.6293026395627401,0.8024316734304395,1.0078504256131928
1768646877084,128,0,-0.1910303208749209,1.434032344874911,1.4503546590153882
1768646877088,128,0,0.0799796447472995,1.620173241304861,1.7255014698678812
1768646877092,128,0,0.1727003605004733,1.4860243059360885,1.822560507046809
1768646877096,128,0,0.1572828466524771,1.6079696967951378,1.811657310076947
