timestamp_ms,ecg_u8_raw,ecg_counts_raw_int,ecg_counts_filt_monitor,ecg_counts_filt_diagnostic,ecg_counts_filt_st
1769249440476,104,-24,-21.846155273838548,-20.24385530885412,-23.47353602912024
1769249440480,100,-28,-27.544126536760395,-24.590111691382532,-29.167849306881106
1769249440484,101,-27,-26.61435117242622,-23.155136026636935,-28.26188648465412
1769249440488,106,-22,-22.09644255723625,-18.43128280528328,-23.773064075636277
1769249440492,110,-18,-17.09021259877617,-14.159340266189329,-18.7771900569819
1769249440496,113,-15,-13.301216294874964,-11.482488988885384,-14.969882337015193
1769249440500,115,-13,-10.940692308648988,-9.308205177583414,-12.571049116872306
1769249440504,117,-11,-9.513304575460502,-7.375245071695971,-11.104842922302424
1769249440508,119,-9,-8.58304927804217,-5.226640291173783,-10.151926539921252
1769249440512,120,-8,-7.981580858850488,-4.358552522201925,-9.54699818364429
1769249440516,119,-9,-7.607755085873985,-5.332586281070799,-9.177780105495644
1769249440520,119,-9,-7.27560476014511,-5.372037069470432,-8.843574530369523
1769249440524,120,-8,-6.810233983167194,-4.296657445099819,-8.363834238676468
1769249440528,121,-7,-6.200899548387693,-3.2716244614110535,-7.734131398402759
1769249440532,122,-6,-5.57542736042847,-2.3428478299797177,-7.091825001559483
1769249440536,122,-6,-5.027501897510261,-2.3395755485452048,-6.533360753084634
1769249440540,122,-6,-4.511849038098775,-2.3501149143055944,-6.008627100054418
1769249440544,123,-5,-3.911917445500556,-1.2679471969438971,-5.395997146205579
1769249440548,124,-4,-3.1682682277325567,-0.3012207182972011,-4.636599253470466
1769249440552,125,-3,-2.313838639045315,0.6856666076591971,-3.76767718259126
1769249440556,126,-2,-1.4110115254976856,1.6420959641521655,-2.853625370050394
1769249440560,126,-2,-0.5037233337131592,1.6775387474613366,-1.9359208717984868
1769249440564,127,-1,0.3610341581121061,2.7456896785478877,-1.0584783132340567
1769249440568,129,1,1.115391054480325,4.681914803976382,-0.289453120604402
1769249440572,129,1,1.72668951468698,4.717210111059576,0.3360969557101974
1769249440576,129,1,2.2695116102402273,4.596607637548657,0.8919986531820276
1769249440580,130,2,2.9073117726006927,5.773977675641734,1.5430595395769735
1769249440584,131,3,3.788516530121567,6.6283311570745775,2.438483633880052
1769249440588,132,4,4.965543289808486,7.851503364794037,3.6296710420898934
1769249440592,134,6,6.40437532425357,9.53342572046326,5.081466880279798
1769249440596,135,7,8.045881276625408,10.794863537611144,6.7351784523315565
1769249440600,137,9,9.844809053574552,12.59654483423242,8.547016347205767
1769249440604,139,11,11.763930377510784,14.798721224798648,10.480467717156072
1769249440608,141,13,13.755447028220182,16.72735920042183,12.487027203016194
1769249440612,143,15,15.759148678885,18.62975033735267,14.505297887846329
1769249440616,145,17,17.711596312365874,20.751916112467946,16.471363039522934
1769249440620,147,19,19.54620305723186,22.59679575190783,18.319122078220385
1769249440624,148,20,21.18092663732201,23.86557121405137,19.967306023817795
1769249440628,150,22,22.512584450626907,25.622132736406595,21.313012437330947
1769249440632,151,23,23.43607480944663,26.797976688411,22.250927139724208
1769249440636,151,23,23.87734694890926,26.544592941882623,22.70684087361448
1769249440640,151,23,23.807613154167353,26.846182044614373,22.651900267296885
1769249440644,151,23,23.22644227659605,26.611282615488513,22.085309698971052
1769249440648,149,21,22.133915622575252,24.887678267531292,21.00664354552876
1769249440652,148,20,20.51764197747099,23.56710929549816,19.403467941850487
1769249440656,146,18,18.36827470635751,21.75302347194438,17.26712105919212
1769249440660,143,15,15.720275899331892,18.67986895772057,14.63316345491984
1769249440664,140,12,12.693189984838824,15.748526786547584,11.621802529887551
1769249440668,137,9,9.50174822832893,12.81613644129072,8.447115240023306
1769249440672,134,6,6.419321969334289,9.593897865339224,5.380751991588281
1769249440676,131,3,3.700076860694944,6.798926444245534,2.6756106054935573
1769249440680,129,1,1.4879208712554974,4.588398162490683,0.4759546240430352
1769249440684,127,-1,-0.2334167093011445,2.891537583649842,-1.232949862632544
1769249440688,126,-2,-1.5985560482028514,1.6729941085623028,-2.58436495864908
1769249440692,125,-3,-2.737231665776505,0.7406745159661892,-3.707627070351179
1769249440696,124,-4,-3.658076855232251,-0.3097459967311451,-4.611800414868656
1769249440700,123,-5,-4.2398273447443895,-1.3442387683794808,-5.1766801831501725
1769249440704,123,-5,-4.344242386575142,-1.1180205349826915,-5.265556121121387
1769249440708,124,-4,-3.957940483650237,-0.3438637765281447,-4.866010880900374
1769249440712,124,-4,-3.2503400166260654,-0.1957606739225443,-4.146500656033247
1769249440716,125,-3,-2.506374740838987,0.6249865309837848,-3.389632430225814
1769249440720,126,-2,-1.973467188101525,1.7160527660487293,-2.841557041944246
1769249440724,126,-2,-1.712333079499153,1.8414833442617349,-2.5638562785195163
1769249440728,126,-2,-1.5590975914990812,1.6827842165188485,-2.394094200534001
1769249440732,126,-2,-1.2515348923510294,1.8310487227182373,-2.0705036433583595
1769249440736,127,-1,-0.6395613016048314,2.5704331698347045,-1.443003091154054
1769249440740,128,0,0.19052611771374,3.806091996711443,-0.5984226410753365
1769249440744,129,1,0.9777965680948596,4.742443906631113,0.2018837973715354
1769249440748,129,1,1.4620179049830797,4.803740204368797,0.6986220386669999
1769249440752,129,1,1.5118880594566426,4.725016133509569,0.7623053346797151
1769249440756,129,1,1.124997196864266,4.6629753724905765,0.391261035300275
1769249440760,128,0,0.355225016983586,3.730701578045106,-0.3618152857954149
1769249440764,127,-1,-0.7333410551215631,2.8195138851714066,-1.4345447178181416
1769249440768,126,-2,-2.05376215158053,1.7574604009695047,-2.740323438035366
1769249440772,124,-4,-3.471426705802807,-0.2192905547505468,-4.1433796094623965
1769249440776,123,-5,-4.820968117616957,-1.410955960441053,-5.477458653335307
1769249440780,122,-6,-5.9637462678915885,-2.1537640993289724,-6.604643675905643
1769249440784,121,-7,-6.842325008673556,-3.337449048953669,-7.468846167501479
1769249440788,120,-8,-7.500248489355755,-3.9881057153409856,-8.113587918673232
1769249440792,120,-8,-8.062622733477548,-4.542289997546625,-8.662377116485084
1769249440796,119,-9,-8.679187866261408,-5.024938452934879,-9.263655009599562
1769249440800,119,-9,-9.44176167418528,-5.596764835282797,-10.009845491169871
1769249440804,117,-11,-10.318266553795512,-6.832780585050398,-10.870950374296417
1769249440808,117,-11,-11.154669384473918,-7.504623023425962,-11.694388403616028
1769249440812,116,-12,-11.753335251089494,-7.995749091124285,-12.281259438058868
1769249440816,116,-12,-11.97725214317602,-8.587605499954549,-12.49058209737388
1769249440820,116,-12,-11.81064699211901,-8.034432800348096,-12.303195768859188
1769249440824,117,-11,-11.345554927702876,-7.346630892570431,-11.813000657330193
1769249440828,117,-11,-10.732744898196882,-7.024192097796333,-11.179227157100994
1769249440832,118,-10,-10.169362128546933,-6.395414975101677,-10.608673828802004
1769249440836,118,-10,-9.93772247385191,-6.292334918882716,-10.384741426715232
1769249440840,117,-11,-10.390339869646724,-7.225995498702973,-10.84688647751625
1769249440844,116,-12,-11.721727452182494,-8.245822735292961,-12.169169734305417
1769249440848,115,-13,-13.503691303672143,-8.998122100230898,-13.912450594613215
1769249440852,115,-13,-14.277750702138404,-9.509698006425351,-14.629521169262423
1769249440856,117,-11,-11.75159133812835,-7.10459790586331,-12.056026931526088
1769249440860,124,-4,-3.96219797873544,-0.446977810363558,-4.252095349690203
1769249440864,134,6,8.977224644765009,10.0235920540884,8.668812150473592
1769249440868,150,22,23.77022432345649,25.773884390694185,23.430743462932575
1769249440872,165,37,34.74853471674233,40.70551387592378,34.389452574833356
1769249440876,168,40,36.6738254634006,43.679879368693314,36.32076323226588
1769249440880,157,29,27.88320712558898,32.677346364560655,27.564195138279025
1769249440884,138,10,11.508643752560175,13.877025500335648,11.243822370737728
1769249440888,120,-8,-6.213099907702324,-4.139781938890565,-6.421443904588806
1769249440892,108,-20,-19.36345369633854,-16.2721099355202,-19.535006090352212
1769249440896,103,-25,-25.16481046964668,-21.235816937319544,-25.33199233603311
1769249440900,105,-23,-24.556565508750584,-19.313684719732027,-24.745294436392363
1769249440904,109,-19,-20.623902064304986,-15.14381266352136,-20.838077380015623
1769249440908,112,-16,-16.343915883955503,-12.238217078878932,-16.56463647187779
1769249440912,114,-14,-13.208434142990972,-10.167075979750408,-13.40755116810027
1769249440916,116,-12,-11.277720755057324,-8.348937911646134,-11.435993698718338
1769249440920,118,-10,-10.06368410104582,-6.1039286462175415,-10.181623902827056
1769249440924,120,-8,-9.251956695897029,-4.388429255029735,-9.346563124222998
1769249440928,120,-8,-8.782781243954084,-4.019367248385115,-8.873188355229924
1769249440932,120,-8,-8.55994703032124,-4.407635730945111,-8.653274360148863
1769249440936,119,-9,-8.312023065565391,-5.077150214035289,-8.400580134176138
1769249440940,120,-8,-7.779609901566324,-4.307412896974084,-7.850844910408564
1769249440944,122,-6,-6.953951841134691,-2.211325219205637,-7.002900499430535
1769249440948,123,-5,-6.057695691109752,-1.1821410184989798,-6.089695673957673
1769249440952,123,-5,-5.303747260031628,-1.30867972537924,-5.326067036732452
1769249440956,123,-5,-4.72074109981858,-1.099010053046852,-4.733912204065332
1769249440960,124,-4,-4.202766627968639,-0.2999462842699181,-4.201449434692229
1769249440964,125,-3,-3.654488866388839,0.8078743801679762,-3.6352490903723473
1769249440968,126,-2,-3.0420339542100225,1.7852587841120124,-3.0074696067229425
1769249440972,126,-2,-2.3467484099029683,1.6977077852403744,-2.301389122520961
1769249440976,126,-2,-1.5495025173618335,1.9512438666834164,-1.4939172444981608
1769249440980,128,0,-0.6776656143851392,3.6228421832279025,-0.6086103357774264
1769249440984,129,1,0.1916200364005311,4.935545725086961,0.2762356270355695
1769249440988,130,2,1.025662522889872,5.606829968067865,1.1243825437405168
1769249440992,130,2,1.9158085342864997,5.918032305326744,2.026468044730561
1769249440996,131,3,3.016509543283637,6.703585882341929,3.139393033128676
1769249441000,133,5,4.395979922708886,8.906526149184554,4.53288673456733
1769249441004,135,7,5.97184439887592,10.651066619533497,6.1230995029543465
1769249441008,136,8,7.602052546427879,11.893778959871502,7.765924962805149
1769249441012,138,10,9.217493371638676,13.640537354858958,9.392452884253956
1769249441016,139,11,10.850773923119672,14.968903470768108,11.037284581280865
1769249441020,141,13,12.550954027937651,16.644970884895958,12.75067356695165
1769249441024,143,15,14.298807257953406,18.941618712911083,14.51255106511275
1769249441028,145,17,16.017713130559567,20.587380914556093,16.244811360359343
1769249441032,146,18,17.65333693854433,21.97918945856283,17.892914078394213
1769249441036,148,20,19.2177124601101,23.59172296730366,19.469874627164035
1769249441040,149,21,20.740976571128034,25.050525354980035,21.00624064712695
1769249441044,151,23,22.17806914006483,26.525453912790375,22.45598542723272
1769249441048,152,24,23.359970921315423,28.036554318802573,23.649124548976193
1769249441052,153,25,24.030413071281956,28.522125976587752,24.330088493321075
1769249441056,152,24,23.939230315111946,28.03586235984607,24.250460681993538
1769249441060,152,24,22.940971149506595,27.61809245141529,23.26528797006957
1769249441064,150,22,21.059952886939755,25.93568937209376,21.397496942868667
1769249441068,147,19,18.487677085592907,22.68965056071545,18.837359792807927
1769249441072,144,16,15.497152542314245,19.80870756340973,15.858426999687966
1769249441076,141,13,12.325408915751582,16.825406825492227,12.698893292011135
1769249441080,138,10,9.123167387782566,13.721768216982229,9.50938467873351
1769249441084,135,7,6.009339265143586,10.96654429469014,6.407683397203559
1769249441088,132,4,3.148739973020078,7.564834106463933,3.5581920331741976
1769249441092,129,1,0.7412128989727393,5.02659318239426,1.161633657377462
1769249441096,128,0,-1.0850818549992458,3.5316290466330544,-0.6530018657304848
1769249441100,126,-2,-2.3649067685200538,2.041709268851089,-1.9209304195512495
1769249441104,126,-2,-3.2666097542933485,1.6663139311896047,-2.811575056028937
1769249441108,125,-3,-3.9602576707514023,0.8735730631854643,-3.4950024405216364
1769249441112,124,-4,-4.503973650696013,-0.277407852290926,-4.027905425795835
1769249441116,124,-4,-4.8432201793869725,-0.1928064352828027,-4.354612826968022
1769249441120,124,-4,-4.901114281084562,-0.2379999977893296,-4.399069137619886
1769249441124,124,-4,-4.663932080930322,-0.0270280143715702,-4.149669571561429
1769249441128,125,-3,-4.199797197408095,0.589815365344335,-3.675657903863514
1769249441132,125,-3,-3.624181473784208,0.999604287275484,-3.0914066230060757
1769249441136,126,-2,-3.055540660392159,1.5086579309629204,-2.5132309988423884
1769249441140,126,-2,-2.5805615095139687,2.0398213455676357,-2.026817874525024
1769249441144,127,-1,-2.2248012744975254,2.7460565620184156,-1.6585993874729583
1769249441148,127,-1,-1.937416849320965,2.7986336686043485,-1.3591412455851777
1769249441152,127,-1,-1.618472797868662,2.8433036263660645,-1.028986474191455
1769249441156,128,0,-1.1919869197533504,3.568849642639849,-0.5918593308289037
1769249441160,128,0,-0.6744408582877375,4.043877019690374,-0.064113059290193
1769249441164,129,1,-0.1810931013698444,4.704111546752881,0.4389196607044
1769249441168,129,1,0.1314775751852379,4.918772577661178,0.7610002329821741
1769249441172,129,1,0.1367478133968727,4.684021791248746,0.776239636386747
1769249441176,129,1,-0.2198551669436852,4.699421671975337,0.4301861771975268
1769249441180,128,0,-0.9146676575910156,3.924905579147853,-0.2539848277886229
1769249441184,127,-1,-1.8633581932490495,2.8122590757832375,-1.1921697689398782
1769249441188,126,-2,-2.9528606707312433,1.885318870522119,-2.2708696755112525
1769249441192,125,-3,-4.074959019585124,0.6715572621063703,-3.3816258028328203
1769249441196,124,-4,-5.1450473946732345,-0.3036878162333805,-4.440661119410085
1769249441200,123,-5,-6.104885237567513,-1.068990948498218,-5.3910284346568655
1769249441204,122,-6,-6.929366005242292,-2.1945589764939797,-6.207720648785949
1769249441208,121,-7,-7.648849435545419,-3.0416645378925535,-6.919393554421392
1769249441212,121,-7,-8.358960293872482,-3.4461498861323427,-7.61968540585884
1769249441216,120,-8,-9.173149724592063,-4.203414596610439,-8.421941126016891
1769249441220,119,-9,-10.123498186888751,-5.167440136392018,-9.360479842720586
1769249441224,118,-10,-11.088283989491998,-6.101633146571222,-10.31622421229676
1769249441228,117,-11,-11.82961819231942,-7.054250017915645,-11.051466569293398
1769249441232,117,-11,-12.136822190920764,-7.517633266235877,-11.35205308595748
1769249441236,117,-11,-11.968936409616155,-7.085793726466008,-11.172221681389455
1769249441240,118,-10,-11.478052980956669,-6.353135752318789,-10.662850837371517
1769249441244,118,-10,-10.901400096063778,-5.84119413750549,-10.067018449421631
1769249441248,119,-9,-10.439043333159274,-5.306196416146306,-9.59521643280353
1769249441252,119,-9,-10.246848457659803,-5.310423372776966,-9.409475281837643
1769249441256,118,-10,-10.528742088502309,-6.270797219570921,-9.70711442503681
1769249441260,117,-11,-11.526288844467285,-7.261169883015116,-10.711665393458716
1769249441264,116,-12,-13.193332930477254,-7.793473369503358,-12.360742879700334
1769249441268,116,-12,-14.643400687726908,-8.441069457413645,-13.76825973889006
1769249441272,116,-12,-13.893644228820634,-8.082404079030544,-12.97085966145441
1769249441276,121,-7,-8.52666387124663,-3.6152606093223874,-7.576268261458487
1769249441280,130,2,2.687469568787673,6.149459643192224,3.633084516608285
1769249441284,145,17,18.133141687357902,20.810189868008116,19.049604298041864
1769249441288,162,34,33.081110692113455,38.00605855329054,33.96448341289538
1769249441292,174,46,41.56644726700482,49.461577222188495,42.4323557353204
1769249441296,171,43,39.57167366784245,46.7294845237998,40.4470279941727
1769249441300,156,28,27.43209447867016,31.744348657404284,28.34452008474377
1769249441304,137,9,9.734346273828471,13.160645721804816,10.699606146262802
1769249441308,121,-7,-7.225860168795972,-3.2901465412345754,-6.214349798642726
1769249441312,110,-18,-18.656105888218963,-14.153098078286533,-17.626053298003207
1769249441316,107,-21,-23.13314948921647,-17.57768949932245,-22.117437727765843
1769249441320,108,-20,-22.29567663006228,-15.944704809414953,-21.31212583034673
1769249441324,111,-17,-19.054930706281223,-13.17755906669671,-18.09639354258915
1769249441328,113,-15,-15.762391160556584,-11.023107960110654,-14.803408161411626
1769249441332,115,-13,-13.405931371676845,-9.371371156482212,-12.420595861639743
1769249441336,117,-11,-11.91085081894328,-7.430105236583614,-10.88948806528235
1769249441340,119,-9,-10.866880733351646,-5.001692182411644,-9.819770355813109
1769249441344,120,-8,-10.002440103789397,-4.238691798414363,-8.948408165398678
1769249441348,119,-9,-9.240724894225837,-4.8704203096388685,-8.191458525174246
1769249441352,121,-7,-8.568217119343018,-3.608789988665545,-7.522316331454095
1769249441356,122,-6,-7.939795823777412,-2.1113475327395683,-6.888994616548454
1769249441360,122,-6,-7.271791139859915,-2.37416402606107,-6.209675510915691
1769249441364,122,-6,-6.491734345541733,-1.8381054859510897,-5.416885617817263
1769249441368,124,-4,-5.595782568318114,-0.2880334355396741,-4.510262404741627
1769249441372,125,-3,-4.652765420699813,0.7854862951745298,-3.5597559903381253
1769249441376,126,-2,-3.742470639043363,1.533336389995308,-2.644201912964733
1769249441380,126,-2,-2.898919707022321,1.9596857044214748,-1.795301931152544
1769249441384,127,-1,-2.120806647096777,2.827805964628757,-1.0100032503962986
1769249441388,128,0,-1.4143601443398446,4.039440122754041,-0.2949047344878864
1769249441392,129,1,-0.7934044807405571,4.429549970168077,0.3346113788720122
1769249441396,129,1,-0.2306685000111918,4.933783864623482,0.9051566268863191
1769249441400,130,2,0.3747384059206533,5.541640118927989,1.5182379599715126
1769249441404,130,2,1.1678325565961891,6.231979021044352,2.319319992740912
1769249441408,132,4,2.2678654142136363,7.641425216137956,3.4270554409296574
1769249441412,133,5,3.711170232994787,8.78618661783433,4.877008449983343
1769249441416,135,7,5.439579803502365,10.652141623178908,6.6113406896222475
1769249441420,137,9,7.33375192120176,12.756354818472644,8.511996210595106
1769249441424,138,10,9.27164927442612,14.074012521170824,10.457671746302571
1769249441428,141,13,11.185745547239724,16.698164840073343,12.38008296245335
1769249441432,143,15,13.086390842618638,18.818126401211433,14.288401363903349
1769249441436,144,16,15.021779380831344,19.546234749249315,16.23075929726265
1769249441440,146,18,16.990193499130147,21.941670913031977,18.206036428029808
1769249441444,149,21,18.885623448999745,24.81255561379411,20.10818739839037
1769249441448,150,22,20.539829846847297,25.971316445234585,21.76889529112269
1769249441452,151,23,21.812298990802333,26.546548739556805,23.048539534624393
1769249441456,152,24,22.629679702596224,27.812855919501896,23.87423920682338
1769249441460,153,25,22.956461080555595,28.693860843946258,24.208949984958103
1769249441464,152,24,22.751075263805877,28.0054600221554,24.009308604214493
1769249441468,151,23,21.941322807997924,26.814159883490625,23.203811047392428
1769249441472,150,22,20.429696967261613,25.654311591313217,21.697475321095787
1769249441476,148,20,18.15415296866871,23.765847083540553,19.429567489871033
1769249441480,145,17,15.197394501360266,20.67947321216089,16.48179343612827
1769249441484,141,13,11.852988390399345,17.054789346778968,13.1460234352693
1769249441488,138,10,8.549030146454239,13.718322346295183,9.84950873988948
1769249441492,135,7,5.650943687090713,10.76930360404123,6.957694366819085
1769249441496,133,5,3.2896306871753507,8.661539225939077,4.601799672547207
1769249441500,131,3,1.3520193480009892,6.770312522055954,2.669166891358829
1769249441504,129,1,-0.3623599866467262,4.9809509188145125,0.9598972304828232
1769249441508,128,0,-1.948241317432278,3.7343045249267175,-0.6199983602601797
1769249441512,126,-2,-3.3172473904545603,1.794927827928063,-1.9814950629926655
1769249441516,125,-3,-4.285875529115447,0.5822700086763692,-2.941307334151909
1769249441520,125,-3,-4.736053836195778,0.9136743468406152,-3.382932337231976
1769249441524,125,-3,-4.704560631061929,0.7736096498281286,-3.3449738705720655
1769249441528,125,-3,-4.346595553735668,0.9681198967528406,-2.982760578773548
1769249441532,126,-2,-3.8401813286044177,1.538216345344173,-2.4724664609933997
1769249441536,126,-2,-3.3201030648096976,1.825399060885267,-1.9469709002765592
1769249441540,127,-1,-2.863710018910743,2.6966241165234135,-1.483359629671828
1769249441544,127,-1,-2.500199996566872,2.9427813303066217,-1.1119269510997376
1769249441548,127,-1,-2.221021353459564,2.835069993845096,-0.82534170305805
1769249441552,128,0,-1.9899430214923015,3.607561198810606,-0.5880142425742778
1769249441556,128,0,-1.7575241414093197,3.817266438868593,-0.3502876122672861
1769249441560,128,0,-1.4859809437428475,3.62740395853598,-0.0732970000227608
1769249441564,128,0,-1.1821382458698744,4.088439291608746,0.2371010560880925
1769249441568,129,1,-0.9119329505928268,4.601885270731345,0.5144886490940535
1769249441572,129,1,-0.771074334378155,4.885905847026018,0.6615881716426195
1769249441576,129,1,-0.835626540028032,4.5105015685881185,0.6016869028392036
1769249441580,128,0,-1.1459705539229894,3.9265890090662503,0.2956137272529138
1769249441584,128,0,-1.7301870041665386,3.806040239688131,-0.2830578722641741
1769249441588,127,-1,-2.6116646383069018,2.832904005378233,-1.1574099013823127
1769249441592,126,-2,-3.7651534971986536,1.6836553928335567,-2.30327046371351
1769249441596,125,-3,-5.065078207229042,0.6882724305018879,-3.59620025536893
1769249441600,123,-5,-6.304090006832403,-1.242213350209826,-4.829165431791268
1769249441604,122,-6,-7.298027830934627,-2.049047306918781,-5.817833496319881
1769249441608,122,-6,-7.998696460635619,-2.3053739917072615,-6.513864069343097
1769249441612,121,-7,-8.514815366440304,-3.208025960304252,-7.025514556140973
1769249441616,121,-7,-9.02172774761629,-3.3841565823688073,-7.527007623814312
1769249441620,120,-8,-9.634948284637469,-4.210531676483716,-8.13312065995837
1769249441624,119,-9,-10.339687371751946,-5.078606013291027,-8.830282731662502
1769249441628,119,-9,-11.01214415312368,-5.301428685765123,-9.49741721509691
1769249441632,118,-10,-11.503868197973848,-6.209954801554628,-9.987183773960083
1769249441636,118,-10,-11.730212696855396,-6.379456737385023,-10.211771097538016
1769249441640,118,-10,-11.706982824904134,-6.2162908677327655,-10.181267876176127
1769249441644,118,-10,-11.511213075346008,-6.101272583219481,-9.97032250776514
1769249441648,119,-9,-11.20471305528138,-5.286338849605393,-9.646378349495947
1769249441652,119,-9,-10.815476331128998,-5.2285174439124384,-9.248827124419067
1769249441656,119,-9,-10.441185117608748,-5.365030805285176,-8.883225176017572
1769249441660,119,-9,-10.390858838310818,-5.234968193545042,-8.853684677582471
1769249441664,118,-10,-11.131024914533583,-6.1065895975761695,-9.608967861363825
1769249441668,117,-11,-12.85368647926602,-7.305362882375041,-11.322511198417924
1769249441672,116,-12,-14.813062969609804,-8.191169061246399,-13.245178766793368
1769249441676,116,-12,-14.984610669454284,-8.41713065053544,-13.369920232794136
1769249441680,119,-9,-10.676021653363108,-5.186704929544534,-9.031130132118356
1769249441684,128,0,-0.1749259184441198,3.861676301682852,1.4673543901318666
1769249441688,143,15,15.431822987419007,18.682192934350063,17.04354781908883
1769249441692,161,33,31.71226080183773,36.908479946595634,33.285412722601365
1769249441696,175,47,42.51937051407243,50.41259132620542,44.06708721049422
1769249441700,175,47,43.15345019441094,50.97934657964933,44.70195142793621
1769249441704,163,35,33.053909357432,38.56937997155014,34.631505324119345
1769249441708,144,16,16.140626358060057,19.87670092530825,17.765572557912872
1769249441712,127,-1,-1.4192032543789097,2.764639050918024,0.2508798614801204
1769249441716,115,-13,-14.432419111110766,-9.420801344013643,-12.74087287171848
1769249441720,109,-19,-20.812543430064633,-14.993477550504956,-19.131956319087006
1769249441724,110,-18,-21.592239407315304,-14.537632900977355,-19.944378843325808
1769249441728,111,-17,-19.342516201554496,-13.009132628117332,-17.72585296385847
1769249441732,113,-15,-16.391517483650247,-11.478054591299978,-14.783956449373386
1769249441736,115,-13,-13.946418099789952,-9.150748745450286,-12.321102635419036
1769249441740,117,-11,-12.251678805221148,-7.220185752559178,-10.594664088356572
1769249441744,119,-9,-11.165076809045969,-5.37495962909926,-9.482480659690031
1769249441748,120,-8,-10.523294481281807,-4.136351645419422,-8.833424245460597
1769249441752,120,-8,-10.168328217098091,-4.504777032706567,-8.48598136107172
1769249441756,119,-9,-9.895731890519812,-5.01307657233086,-8.221963261708956
1769249441760,120,-8,-9.52813915445133,-4.397227464211148,-7.853314839881398
1769249441764,121,-7,-9.029647206915472,-3.167287195923393,-7.34491178406044
1769249441768,122,-6,-8.481564447068623,-2.373812640172086,-6.786547779694496
1769249441772,122,-6,-7.932622557511118,-2.353184103311766,-6.232903274858882
1769249441776,122,-6,-7.316094843964443,-2.0945723355502777,-5.615511094188949
1769249441780,123,-5,-6.540216580989826,-1.373105968205432,-4.837315726952608
1769249441784,124,-4,-5.630169725367096,-0.1273281212151618,-3.921529157340648
1769249441788,126,-2,-4.732514440781358,1.5018937942913055,-3.017429022260834
1769249441792,126,-2,-3.9685077286723818,1.7736756469915598,-2.2492045209624525
1769249441796,126,-2,-3.3127252870348873,1.75487279826054,-1.5909203699422148
1769249441800,127,-1,-2.638723921272486,2.794858608790054,-0.9136984941584828
1769249441804,128,0,-1.8679760933969896,3.6911428626467697,-0.1382619685012209
1769249441808,129,1,-1.0448798891515323,4.662348349249589,0.6895120066286755
1769249441812,130,2,-0.2621236316178703,5.584928748565622,1.475815073744242
1769249441816,130,2,0.4689414429898546,5.949459866000342,2.210162193772356
1769249441820,131,3,1.2642269362888032,6.580082288759754,3.0098351262830567
1769249441824,132,4,2.293167736529827,7.91664667517908,4.043917124289217
1769249441828,134,6,3.663575168529365,9.39718331844973,5.4184707397713865
1769249441832,135,7,5.35691163240941,10.835371213767536,7.114225414979144
1769249441836,137,9,7.243737199780535,12.716589084764244,9.003022427830226
1769249441840,139,11,9.158260556602244,14.761531511137488,10.920617187504812
1769249441844,141,13,10.991710913883336,16.781845010748988,12.758235369760644
1769249441848,143,15,12.748165109800658,18.441125837003803,14.51894965608432
1769249441852,144,16,14.51087966488543,19.83110164488549,16.28559304447333
1769249441856,146,18,16.33142597208099,21.678659144927213,18.109942565933434
1769249441860,148,20,18.13610313986998,23.801079597699314,19.91803640896871
1769249441864,150,22,19.739339802040018,25.747910351191315,21.523685625125022
1769249441868,151,23,20.94556241469936,26.422336980894745,22.73163722319415
1769249441872,151,23,21.634371335569575,26.859862820047088,23.42280175348995
1769249441876,152,24,21.76236891934509,27.620125745486487,23.55445977911912
1769249441880,151,23,21.314520876631452,26.83921550267636,23.110739009620275
1769249441884,150,22,20.272666932419163,25.741815203486247,22.07213399355229
1769249441888,149,21,18.627380100376737,24.348846443811105,20.42872864299156
1769249441892,146,18,16.4141771451112,21.98691068586702,18.216756793714545
1769249441896,144,16,13.740611994773808,19.396711832069435,15.545111835542093
1769249441900,140,12,10.781693932292388,16.12907226666304,12.589654652180023
1769249441904,138,10,7.748294196731183,13.390760656748288,9.560678298644014
1769249441908,135,7,4.850851477912246,10.709487333090904,6.666947094879429
1769249441912,132,4,2.26713396239093,7.618700267100776,4.08503988702561
1769249441916,130,2,0.1059505945704306,5.6968917038611995,1.9241866760078248
1769249441920,128,0,-1.623891616904201,3.9118743026858143,0.1946872803881398
1769249441924,127,-1,-3.003402383395507,2.4825617314389294,-1.1833115858598964
1769249441928,126,-2,-4.133855227896525,1.7229985169388398,-2.311049154770708
1769249441932,125,-3,-5.047440178799471,0.4812410344580016,-3.2214925801276415
1769249441936,124,-4,-5.672188803757834,-0.1235256262429462,-3.8434778765451063
1769249441940,124,-4,-5.890789760167831,-0.2889428531769296,-4.060048207823394
1769249441944,124,-4,-5.653437553627488,-0.3661402248847833,-3.821368011416079
1769249441948,125,-3,-5.052506053587813,0.6333964682125286,-3.2196687588904975
1769249441952,126,-2,-4.293454186529772,1.461954015899841,-2.4601784682843473
1769249441956,126,-2,-3.5834262886282797,1.9588772057605404,-1.7495737864214091
1769249441960,127,-1,-3.02764646933643,2.5502725686027583,-1.1925993996468236
1769249441964,127,-1,-2.6088590734420976,2.8153333554912905,-0.7720346188178465
1769249441968,128,0,-2.2482987462333335,3.425876031016988,-0.4096580254273641
1769249441972,128,0,-1.887246874064412,3.6407780296711456,-0.0471782430872279
1769249441976,128,0,-1.5282303407301177,3.791472466342931,0.3128373528554338
1769249441980,129,1,-1.2153479709082855,4.665282013555922,0.6263164578207112
1769249441984,129,1,-0.9831491360405176,4.7284303383965005,0.8587804953219758
1769249441988,129,1,-0.8329049224110617,4.452529375963343,1.0093216658308342
1769249441992,129,1,-0.7669286048110864,4.631087388381015,1.075822571589034
1769249441996,129,1,-0.8391375113373256,4.762301689057771,1.003780899664803
1769249442000,129,1,-1.1520967350947973,4.678689309443428,0.6900638168949649
1769249442004,128,0,-1.7926877595447297,3.725481062087048,0.0486081689272008
1769249442008,127,-1,-2.7674867122203155,2.4004195114670153,-0.925616912547932
1769249442012,126,-2,-3.986268060815277,1.6963860616703936,-2.1424292295575813
1769249442016,125,-3,-5.2887887623959156,0.6516684943951727,-3.44362896331789
1769249442020,123,-5,-6.499759848960873,-1.2160853896982813,-4.655499492545965
1769249442024,122,-6,-7.506109793830161,-2.3670645476368843,-5.664200638047819
1769249442028,122,-6,-8.31761639143232,-2.571037894860507,-6.477491213422292
1769249442032,121,-7,-9.046481593032992,-3.2979140520490713,-7.206452224571285
1769249442036,120,-8,-9.801944579158793,-4.439481344913435,-7.961024267648409
1769249442040,119,-9,-10.584919153073326,-5.065511865748472,-8.744219584065126
1769249442044,119,-9,-11.27212438437995,-5.596498771119312,-9.434554607854391
1769249442048,118,-10,-11.701820015273068,-6.318433445560605,-9.869247049962953
1769249442052,118,-10,-11.79498210039442,-6.600087007020759,-9.964791020343618
1769249442056,118,-10,-11.61563204976391,-6.142214098591136,-9.781038570368631
1769249442060,119,-9,-11.316376873859026,-5.36566874448732,-9.4722705928959
1769249442064,119,-9,-11.025500968130986,-5.331637453127791,-9.175605516517129
1769249442068,119,-9,-10.81139461550686,-5.58148678344173,-8.969474728370452
1769249442072,119,-9,-10.78349263890479,-5.40351804255791,-8.96480560551702
1769249442076,118,-10,-11.189729428492866,-6.307558504782711,-9.397238487845753
1769249442080,117,-11,-12.259938395976151,-7.275832295140661,-10.47692549456653
1769249442084,117,-11,-13.708535873858446,-7.353115083528436,-11.907033034143623
1769249442088,117,-11,-14.209301596303078,-7.667780988801073,-12.370557009552307
1769249442092,119,-9,-11.473534593670625,-5.2672739455904765,-9.60399230089492
1769249442096,126,-2,-3.3752660087304247,1.4943637796265832,-1.5037718755200418
1769249442100,137,9,10.240972517128768,12.951106797018626,12.08229370275608
1769249442104,155,27,26.327777564951965,30.421977453689237,28.12277484280934
1769249442108,171,43,39.2923867796008,46.529073004338734,41.0475074096354
1769249442112,176,48,43.65989021545807,51.509496835866514,45.398701691627494
1769249442116,168,40,37.19580418749685,43.600134305578706,38.94785350574545
1769249442120,151,23,22.31735295916301,26.797168140715375,24.104902162183347
1769249442124,133,5,4.749641699775184,8.466807791556938,6.575768100303172
1769249442128,119,-9,-9.636614409599664,-5.412882727237687,-7.791186109340792
1769249442132,112,-16,-17.671435918097664,-12.505779747619806,-15.837974353268203
1769249442136,111,-17,-19.720603042400946,-13.29076040578253,-17.92401219115905
1769249442140,113,-15,-18.376088068250866,-11.373958155185,-16.620857783267823
1769249442144,114,-14,-16.292368852366444,-10.45894093611676,-14.561587954378355
1769249442148,114,-14,-14.7540337122107,-10.535052689264244,-13.02128541556944
1769249442152,115,-13,-13.676289933259918,-9.397658647687711,-11.922760928525117
1769249442156,117,-11,-12.52992771733749,-7.359176110766536,-10.755820779588266
1769249442160,119,-9,-11.153366869147591,-5.354151348302714,-9.375719092891782
1769249442164,121,-7,-9.850638349266616,-3.5110351788476963,-8.08906737952396
1769249442168,121,-7,-8.976623004777961,-3.5441973450535507,-7.2383089460016015
1769249442172,120,-8,-8.586863561854798,-4.37838326038378,-6.8632145038137535
1769249442176,121,-7,-8.458532747831502,-3.385348366449686,-6.73558389384803
1769249442180,122,-6,-8.321765387373244,-2.337279968154805,-6.593301911923107
1769249442184,122,-6,-8.008455246102526,-2.5835536721527843,-6.279246547449169
1769249442188,122,-6,-7.448780232792925,-2.48154812016634,-5.727224678024406
1769249442192,123,-5,-6.637307255043432,-1.4692509924815838,-4.927393802035068
1769249442196,124,-4,-5.642787479024015,-0.2936983490381601,-3.942844335141233
1769249442200,125,-3,-4.613691872855452,0.5543587520732443,-2.9203001618623534
1769249442204,126,-2,-3.7222453583207926,1.4790432277444547,-2.033808817901426
1769249442208,127,-1,-3.0671540953605247,2.4411107820302984,-1.3842826161460984
1769249442212,127,-1,-2.609445657790334,2.569449951908736,-0.9330858302103884
1769249442216,127,-1,-2.196868704378259,2.6733089417104527,-0.5268514181009093
1769249442220,128,0,-1.6574820482285506,3.5584537892756876,0.0068052716539046
1769249442224,129,1,-0.882920375531407,4.450119831787523,0.7750371188574157
1769249442228,130,2,0.1542260126027037,5.439015877197723,1.8039743813298823
1769249442232,131,3,1.4260819483303182,6.557973464196883,3.066337436858915
1769249442236,132,4,2.8669615958314862,7.669477702433113,4.49830238243632
1769249442240,134,6,4.381817915002296,9.537188499551911,6.005578566672055
1769249442244,136,8,5.883087310547433,11.445359492455738,7.499583254899692
1769249442248,137,9,7.350298651288856,12.407852840930516,8.958916926598135
1769249442252,138,10,8.849837380376478,13.582316730257354,10.450411698403377
1769249442256,140,12,10.482647337998234,15.617376954420417,12.075611531485478
1769249442260,142,14,12.310084331988628,17.571191012239264,13.895239076204422
1769249442264,144,16,14.322537851797325,19.37880669704866,15.89865466127928
1769249442268,146,18,16.451880399828298,21.459100343744524,18.01790301378987
1769249442272,148,20,18.589267254590307,23.50413918242569,20.14536546921479
1769249442276,150,22,20.595069183760895,25.673893092980336,22.14219496491779
1769249442280,152,24,22.315691833056817,27.49105906313154,23.8544057783375
1769249442284,153,25,23.609128535018645,28.42753931442713,25.13904788018043
1769249442288,154,26,24.36030322408907,29.38976534845973,25.880435634376237
1769249442292,154,26,24.476408145766207,29.551224952675707,25.98585992436865
1769249442296,153,25,23.87718266769157,28.591958335656035,25.37572460225375
1769249442300,152,24,22.5044346692327,27.561040440203097,23.992505811433432
1769249442304,150,22,20.361224042826223,25.325981243716857,21.839341636697966
1769249442308,147,19,17.561366877340646,22.45783444698918,19.029610474950644
1769249442312,144,16,14.344388196043482,19.487590938045663,15.802591634048632
1769249442316,140,12,11.021851930820326,15.589883751546854,12.470078814248335
1769249442320,137,9,7.875043099444078,12.586866197726357,9.313353577019264
1769249442324,135,7,5.073666488630021,10.238605233333814,6.501315313181406
1769249442328,132,4,2.6691442628407644,7.549273738284637,4.08459759644214
1769249442332,130,2,0.6447878511568752,5.368446217322252,2.0469782808814134
1769249442336,128,0,-1.0351728913137517,3.6699154598902206,0.3541649926054107
1769249442340,127,-1,-2.4034656567816617,2.5033033893725696,-1.0255669292339296
1769249442344,126,-2,-3.477003943630762,1.2616773024758166,-2.1094254911742527
1769249442348,125,-3,-4.2413681217776675,0.543744935300098,-2.884022787805726
1769249442352,125,-3,-4.650729826884774,0.3200242060410279,-3.30436367697663
1769249442356,124,-4,-4.663692441685358,-0.2932562483376033,-3.3294198516742637
1769249442360,125,-3,-4.300640174282917,0.432566404059413,-2.9797294312894675
1769249442364,126,-2,-3.675645587112675,1.2981812513862954,-2.3691488700087344
1769249442368,126,-2,-2.9688246996330276,1.5090920001200594,-1.6767015259082063
1769249442372,127,-1,-2.351886111373883,2.2999724836131414,-1.0726274763618802
1769249442376,127,-1,-1.9085745785257329,2.73318431939418,-0.6404086212158728
1769249442380,128,0,-1.5913875048103248,3.3218108146379715,-0.3339751307391713
1769249442384,128,0,-1.2508193660873463,3.4410146526156096,-0.0053824635961292
1769249442388,128,0,-0.7468599223259829,3.294399948641397,0.4850948203414083
1769249442392,129,1,-0.0809394573868311,4.537223393607627,1.1364751439373348
1769249442396,130,2,0.5638438241108221,5.432693246252815,1.7659479458871072
1769249442400,130,2,0.9234744854597536,5.6018222035886245,2.110084152872048
1769249442404,130,2,0.814585697861621,5.147310809417055,1.9867410785769095
1769249442408,129,1,0.2311841286170919,4.537489558337005,1.3905273221134808
1769249442412,129,1,-0.6729488768049441,4.294874646552113,0.4742439604226725
1769249442416,127,-1,-1.6797240368506905,2.6143390234945896,-0.545396081303692
1769249442420,126,-2,-2.61926289122915,1.4163556391110277,-1.4988416212607296
1769249442424,126,-2,-3.4405309735230407,1.3074126663527386,-2.3347995933943033
1769249442428,125,-3,-4.197619403318193,0.341831276597337,-3.1074877070032105
1769249442432,124,-4,-4.970037409212192,-0.520204211646301,-3.8964718486058905
1769249442436,123,-5,-5.794392666118174,-1.6209581216016122,-4.737472144421247
1769249442440,122,-6,-6.660318536535549,-2.363138811047069,-5.6186531401233255
1769249442444,122,-6,-7.544793579438139,-2.949001574463164,-6.516200293509976
1769249442448,120,-8,-8.427859547902179,-4.418591253841475,-7.411074906480679
1769249442452,120,-8,-9.27269025766804,-4.791516652563361,-8.269151353385837
1769249442456,119,-9,-10.00379688164345,-5.377269540855576,-9.017718932232318
1769249442460,118,-10,-10.528628692895513,-6.639893592368594,-9.564034576121818
1769249442464,118,-10,-10.80624285230052,-6.705573359861028,-9.862542835452151
1769249442468,118,-10,-10.899220733023052,-6.6621339595316185,-9.96962642871516
1769249442472,118,-10,-10.932657826223217,-6.61507206430357,-10.00845397095994
1769249442476,118,-10,-10.97632173735628,-6.532684165286904,-10.055123341943744
1769249442480,118,-10,-10.979724204247988,-6.570036362589019,-10.071010717681132
1769249442484,118,-10,-10.879208130460396,-6.765243861404945,-10.000398188154591
1769249442488,117,-11,-10.816697530234691,-7.650662468580562,-9.980125045056818
1769249442492,117,-11,-11.196508349597536,-7.65751506608499,-10.396899211262854
1769249442496,117,-11,-12.312315551099156,-7.4910426189275885,-11.526272479425575
1769249442500,116,-12,-13.643122541199284,-8.687047502862384,-12.843541923544736
1769249442504,116,-12,-13.413683593970443,-8.622719081150489,-12.589767251731145
1769249442508,120,-8,-9.120534768503669,-4.876813764497447,-8.287962448203768
1769249442512,128,0,0.8657847639560075,3.5990389032975743,1.6737430904118602
1769249442516,142,14,15.488662016153048,17.2018844140894,16.242712224948377
1769249442520,158,30,30.426902786771173,33.65010521193839,31.11887077794082
1769249442524,171,43,39.68029243160038,45.97981861852307,40.3249125002793
1769249442528,170,42,38.730893589848264,45.45109713985498,39.35605658236447
1769249442532,156,28,27.27560915662187,31.17682507837285,27.90984466721493
1769249442536,136,8,9.561723208461611,11.49258394760944,10.222133932999707
1769249442540,119,-9,-7.9658785737386,-5.60184090241917,-7.283264606729869
1769249442544,108,-20,-20.05872216596147,-16.78520793293167,-19.37925534589049
1769249442548,104,-24,-24.88061254461883,-20.615093557819016,-24.23740206451679
1769249442552,106,-22,-23.928359723277275,-18.81721691625819,-23.34219325045288
1769249442556,109,-19,-20.227998718979745,-15.551980757202092,-19.6954139680554
1769249442560,112,-16,-16.335750673827015,-12.690039583899829,-15.83342223826959
1769249442564,114,-14,-13.388922831109332,-10.737367778634102,-12.890163680532384
1769249442568,116,-12,-11.38915187629778,-8.63908676061872,-10.880798989773131
1769249442572,119,-9,-9.998608957062729,-5.822343532884041,-9.487232180066144
1769249442576,120,-8,-9.038301914551978,-4.586367484772379,-8.542232668637853
1769249442580,120,-8,-8.46034690131029,-4.747263732097067,-7.994532515042558
1769249442584,120,-8,-8.129316174759344,-4.706747268926009,-7.6954975757682975
1769249442588,120,-8,-7.787770532605373,-4.641179977494172,-7.376992244480181
1769249442592,121,-7,-7.232599077411706,-3.872416730716059,-6.8355488316800965
1769249442596,122,-6,-6.4655701195679915,-2.518740656342773,-6.08031204712371
1769249442600,123,-5,-5.648179986565573,-1.9518044674362296,-5.279376082852325
1769249442604,123,-5,-4.928481061908189,-1.4783671077798548,-4.5810744083125865
1769249442608,124,-4,-4.326296266962753,-0.8981882417103693,-4.000808754644559
1769249442612,124,-4,-3.7666064119216465,-0.6470632903509284,-3.4599388934468376
1769249442616,125,-3,-3.184592569612944,0.2624234090649331,-2.894188568905042
1769249442620,126,-2,-2.5739204609017974,1.1230721873585845,-2.3003779846300767
1769249442624,126,-2,-1.943255046847535,1.5174651684541691,-1.6889056435783676
1769249442628,127,-1,-1.2585358328410825,1.998602071069632,-1.0242644990715437
1769249442632,127,-1,-0.4493392843484285,2.5298286426788072,-0.2337794005488453
1769249442636,129,1,0.5375457816259317,3.957795520278879,0.7356588387715224
1769249442640,130,2,1.7091836797156803,5.423243744774609,1.8890571635718088
1769249442644,131,3,3.0415457639039847,6.168581581069976,3.201565152001419
1769249442648,132,4,4.49372062897793,7.334796701788504,4.633791981501696
1769249442652,134,6,6.003960837192755,9.201280786885144,6.125355465418464
1769249442656,136,8,7.50864484552212,11.175792939045046,7.611926386604225
1769249442660,137,9,8.995980462586324,12.22192284826129,9.080530830529815
1769249442664,138,10,10.529913382235485,13.273148780145403,10.595555723825177
1769249442668,140,12,12.195406720146678,15.28717755853078,12.243036251215356
1769249442672,142,14,14.017235174960833,17.161264185434234,14.047186340606885
1769249442676,144,16,15.939718162685743,19.206875089349495,15.950554238329024
1769249442680,146,18,17.8723867905202,21.121803656096425,17.862421998401373
1769249442684,147,19,19.728715849582205,22.35333165149836,19.698414498821016
1769249442688,149,21,21.41793221288211,24.190568958591,21.369664325018075
1769249442692,151,23,22.833093609937084,26.21730177686079,22.768309674881316
1769249442696,152,24,23.879578867071036,27.1125780170139,23.79722507021157
1769249442700,152,24,24.50523288099612,27.163121024898235,24.403420501577944
1769249442704,152,24,24.667732283564924,27.2894116723422,24.5459974132645
1769249442708,152,24,24.265286513884764,27.224567298171163,24.124372218400495
1769249442712,151,23,23.13185073529489,26.14820137648432,22.971967764267948
1769249442716,149,21,21.136796855680032,24.15489004376726,20.957294569938767
1769249442720,146,18,18.30718287723231,21.05103266874096,18.10800154137952
1769249442724,142,14,14.863494547406743,17.39984800724179,14.64606749902536
1769249442728,139,11,11.148557770240874,14.043081863186185,10.91475821437137
1769249442732,135,7,7.517369976270152,10.35040984136608,7.267769317143195
1769249442736,132,4,4.254935900603046,6.87539575792017,3.988245339558627
1769249442740,129,1,1.5350058585273882,4.325940047450476,1.2489672830913885
1769249442744,127,-1,-0.5968566136703695,2.07121426702697,-0.9040507988797392
1769249442748,125,-3,-2.220310765377228,0.3288295663910308,-2.548920864659875
1769249442752,124,-4,-3.5024959117402235,-0.9189331251896178,-3.851013318461124
1769249442756,123,-5,-4.61462401463572,-1.9650728578737189,-4.980596680410769
1769249442760,122,-6,-5.627742410214368,-2.786054719952294,-6.009144460776895
1769249442764,121,-7,-6.454599883839194,-3.9572066690588383,-6.850963979775462
1769249442768,120,-8,-6.898581858596988,-4.584055839689329,-7.311395514702864
1769249442772,121,-7,-6.797072842331384,-4.10946647931741,-7.229045679182616
1769249442776,121,-7,-6.1657012509231315,-3.755470112291405,-6.61887851750507
1769249442780,122,-6,-5.236371724069324,-3.064938275346467,-5.710439746379991
1769249442784,123,-5,-4.344082775128406,-1.71280635284701,-4.8366837394269835
1769249442788,124,-4,-3.7187129706707656,-0.8520733889127863,-4.227438280962565
1769249442792,124,-4,-3.327870308125162,-0.9081225668086734,-3.851683843784976
1769249442796,124,-4,-2.912398744188838,-0.9481722195478756,-3.4515598440188704
1769249442800,125,-3,-2.2116686429424197,0.0315171379032372,-2.7672773724254087
1769249442804,126,-2,-1.202308970642489,1.2052925195274191,-1.7761103789442003
1769249442808,127,-1,-0.153350014655607,2.154925884747726,-0.7471065336927776
1769249442812,128,0,0.5405700272091685,3.0923203872202976,-0.0736527403820901
1769249442816,128,0,0.6067233175456228,2.9869474442789357,-0.0263826023831859
1769249442820,127,-1,0.036682818917662,2.0467982261313766,-0.6123300595808794
1769249442824,126,-2,-0.9563712805448316,1.153043965812162,-1.6189953003206266
1769249442828,125,-3,-2.0968459930966885,0.1648712460722698,-2.7732447590456695
1769249442832,124,-4,-3.1905256321176614,-0.9241413648179576,-3.8830480337311526
1769249442836,123,-5,-4.174951484632537,-2.0409010559201697,-4.8859924290985335
1769249442840,122,-6,-5.087635765238738,-2.977720221947578,-5.817783504148847
1769249442844,121,-7,-6.0027840398467625,-3.860226054332105,-6.750900961123375
1769249442848,120,-8,-6.975316715115451,-4.868716849919797,-7.739936853333269
1769249442852,119,-9,-8.010293492429488,-5.896367580528919,-8.7905800707738
1769249442856,118,-10,-9.063052197940223,-7.117054383719788,-9.858597285118512
1769249442860,117,-11,-10.062619518496208,-7.960600321290466,-10.87293945621978
1769249442864,116,-12,-10.939640787030305,-8.89861602363733,-11.7645228730957
1769249442868,115,-13,-11.64050473508477,-9.908184168251132,-12.481117452623224
1769249442872,115,-13,-12.12330487164724,-9.816396746416473,-12.982302722719822
1769249442876,115,-13,-12.351804759711989,-10.297031522968645,-13.230785676643384
1769249442880,114,-14,-12.311734056218036,-10.789284398478538,-13.207660412493118
1769249442884,115,-13,-12.0457741913266,-10.137565884510602,-12.95110364536626
1769249442888,115,-13,-11.663716147376231,-9.71278429752428,-12.572681030589267
1769249442892,116,-12,-11.30362901775182,-8.998738558713443,-12.22014523285203
1769249442896,116,-12,-11.094924492068047,-9.199289070640228,-12.033626206095867
1769249442900,115,-13,-11.184671009759237,-9.895289907584685,-12.160989739781565
1769249442904,115,-13,-11.767358178695794,-10.135147366902425,-12.782609356816485
1769249442908,113,-15,-12.938013932290447,-11.70690032178795,-13.97260454763811
1769249442912,113,-15,-14.28292827512822,-12.063451553015666,-15.307031384674929
1769249442916,114,-14,-14.462435058724058,-11.123650477971491,-15.4586798318572
1769249442920,116,-12,-11.349139708025945,-9.059602459673927,-12.328427054781914
1769249442924,123,-5,-3.1354247583088215,-1.9932077648156048,-4.13065450887888
1769249442928,134,6,9.943344474986311,9.120905353887611,8.900609054171838
1769249442932,149,21,24.514724388494585,24.0894634793361,23.413921659571944
1769249442936,164,36,34.912282715922416,38.71195666636747,33.76581334658481
1769249442940,166,38,36.01335664034231,41.024332452819955,34.846169498742384
1769249442944,154,26,26.374550428347643,28.78020078216727,25.21345629988729
1769249442948,134,6,9.36540507276156,9.28826739862014,8.230367946924162
1769249442952,116,-12,-8.641607849098797,-9.213238977008793,-9.747264411054411
1769249442956,104,-24,-21.75200376506809,-20.870224095005383,-22.847258879996115
1769249442960,100,-28,-27.31272375158423,-25.364131678779746,-28.43070688093335
1769249442964,101,-27,-26.372195764803138,-23.77726351084171,-27.539891642007415
1769249442968,106,-22,-22.05468749328215,-19.236086598581757,-23.27560725434693
1769249442972,109,-19,-17.352542239942984,-15.852211945283893,-18.605867727752717
1769249442976,112,-16,-13.8155544994426,-13.261835066139604,-15.071480136719211
1769249442980,114,-14,-11.599394791778863,-11.02185533177282,-12.838813077449004
1769249442984,116,-12,-10.27630708604386,-9.07003247473887,-11.501364934888835
1769249442988,118,-10,-9.502741151590229,-7.067002567737948,-10.731800561218668
1769249442992,118,-10,-9.129173515805196,-7.051538583807194,-10.380773203746502
1769249442996,117,-11,-8.996229912470747,-8.187910725573731,-10.275142592264402
1769249443000,117,-11,-8.845852936857252,-8.018144576854757,-10.142600741849307
1769249443004,118,-10,-8.45627510608805,-7.145592586673718,-9.758930992406858
1769249443008,119,-9,-7.783820833313303,-5.999926655874436,-9.089337452766229
1769249443012,120,-8,-6.93294119605989,-5.223654040089654,-8.247253005837143
1769249443016,120,-8,-6.025274239729622,-5.066379631741773,-7.354386994315002
1769249443020,121,-7,-5.133658958709775,-4.145798338899317,-6.476797208544175
1769249443024,122,-6,-4.308513948920996,-3.044320047958599,-5.660156180186524
1769249443028,123,-5,-3.5898074217296125,-2.151276142431543,-4.94666308570568
1769249443032,124,-4,-2.9529087543651196,-1.1421174653948043,-4.317166075863241
1769249443036,124,-4,-2.279225401702023,-1.2103101336224746,-3.6549610749291146
1769249443040,124,-4,-1.448838211734536,-1.0100047454721226,-2.836855293681119
1769249443044,126,-2,-0.4872762984145042,0.7812140551039684,-1.8847802689237376
1769249443048,127,-1,0.4191768300138578,2.0002151410939844,-0.9854848464950936
1769249443052,128,0,1.1050386023726744,2.6024525284905593,-0.3074447177702805
1769249443056,128,0,1.630484849417991,3.0378756103645226,0.2085961290619404
1769249443060,128,0,2.2793588491153827,2.6707942173932877,0.8487274642757052
1769249443064,129,1,3.3358759119611205,4.086177210312817,1.8989624264964544
1769249443068,132,4,4.865642104305929,6.669224829184673,3.423329224611815
1769249443072,133,5,6.709690345347081,7.831292654236625,5.259816459754079
1769249443076,135,7,8.65918820567378,9.828430988514915,7.1990452495649535
1769249443080,137,9,10.606792466228422,11.77771082057485,9.136334984045538
1769249443084,138,10,12.543613582053062,12.976914908573251,11.065528194768888
1769249443088,141,13,14.461673252240516,15.7126178726749,12.9785729605489
1769249443092,143,15,16.30431469926174,17.74139730927717,14.816583220255414
1769249443096,144,16,18.015082700072433,18.88683243792742,16.521601373234788
1769249443100,146,18,19.603096104442557,20.65899652430991,18.103273355969986
1769249443104,147,19,21.127436411351567,22.07132131557467,19.621753754959904
1769249443108,149,21,22.600539702463323,23.538129185433824,21.08938280722531
1769249443112,150,22,23.894884698646383,24.902027525568936,22.37763088187307
1769249443116,151,23,24.734238742466335,25.669504754241768,23.20977899539529
1769249443120,151,23,24.7873340408879,25.828792568865595,23.255315098828227
1769249443124,150,22,23.814573093383576,24.872541729105233,22.276062668793195
1769249443128,148,20,21.78648562224008,22.639738511811583,20.243510344796043
1769249443132,145,17,18.911572527400143,19.80350877290774,17.36596819838879
1769249443136,142,14,15.56478094654804,16.685473744460193,14.01726411426998
1769249443140,138,10,12.158100198106697,12.806954624301577,10.608076587346233
1769249443144,135,7,9.016282596970346,9.822151037156594,7.46224090215911
1769249443148,133,5,6.309537160389603,7.663635148603838,4.749887111031969
1769249443152,130,2,4.055779160642271,4.712396983523715,2.4899853224299964
1769249443156,128,0,2.166723054929615,2.76816980581254,0.5957789327067422
1769249443160,127,-1,0.5120816444344545,1.6416597675082056,-1.062427149833764
1769249443164,125,-3,-1.0078108421973615,-0.0199848099014454,-2.5849161217554575
1769249443168,124,-4,-2.405488657877381,-1.6028635466221566,-3.984801988447929
1769249443172,122,-6,-3.6057267365284353,-2.9986236583405965,-5.186774888465095
1769249443176,122,-6,-4.502079972519114,-3.6344028279783114,-6.08451343567289
1769249443180,121,-7,-5.020323718343249,-3.9398177947686897,-6.604644454461832
1769249443184,121,-7,-5.146600396673511,-4.5243366161683625,-6.73394972431852
1769249443188,121,-7,-4.924666451464956,-4.145990585258449,-6.5156484096115435
1769249443192,122,-6,-4.442606735138718,-3.464914497668248,-6.036515779926425
1769249443196,122,-6,-3.811461913211291,-3.285813574866883,-5.4067665691965425
1769249443200,123,-5,-3.13065043897796,-2.2467094322898262,-4.726239176719817
1769249443204,124,-4,-2.451801914222174,-1.350460810854056,-4.047742884488269
1769249443208,124,-4,-1.7707847427855576,-1.308844876784164,-3.367857275390712
1769249443212,125,-3,-1.0663007079192544,-0.3846329048642731,-2.664924960159098
1769249443216,126,-2,-0.3588438404686309,0.5917439274445995,-1.958567402458154
1769249443220,126,-2,0.2653306229208207,0.849863872163692,-1.3345567228735944
1769249443224,127,-1,0.6916072056247602,1.4684727892374516,-0.90785396220151
1769249443228,127,-1,0.8439198333635232,1.8677449953839216,-0.7553909262851206
1769249443232,127,-1,0.7200142131316472,1.3403574053783442,-0.8798925910841029
1769249443236,126,-2,0.3602180991823314,0.8473420266011482,-1.2405086001752974
1769249443240,126,-2,-0.2188525041187761,0.5486737439029223,-1.8196428936004505
1769249443244,125,-3,-1.0493085250303542,-0.3122018441300955,-2.6489964084135256
1769249443248,124,-4,-2.1559450050695492,-1.3343272817801075,-3.753812642221352
1769249443252,123,-5,-3.469922252179507,-2.5930199618314154,-5.065952652355077
1769249443256,121,-7,-4.8089414799217325,-4.1859094137261135,-6.403436066985532
1769249443260,120,-8,-5.966001155694656,-5.534868753710905,-7.559237360582728
1769249443264,119,-9,-6.841705870215044,-6.233788180240934,-8.433966296342334
1769249443268,119,-9,-7.503831071222056,-6.465019375164587,-9.0952646319842
1769249443272,118,-10,-8.120995352529857,-7.534005675111373,-9.71103193285644
1769249443276,117,-11,-8.829961769478993,-8.253629361450818,-10.417258220486351
1769249443280,117,-11,-9.643311624762504,-8.576029760950725,-11.22703158572973
1769249443284,115,-13,-10.456395702907924,-10.190044205429585,-12.037667136474612
1769249443288,115,-13,-11.13045027965956,-10.604225511703628,-12.711803474641238
1769249443292,115,-13,-11.578246254250036,-10.396257138888398,-13.160390776342055
1769249443296,114,-14,-11.791456653687003,-11.475804160655311,-13.370090677593131
1769249443300,114,-14,-11.805946787707787,-11.38864684024795,-13.373291532261018
1769249443304,115,-13,-11.64789944848486,-10.43085635633154,-13.200130889796394
1769249443308,115,-13,-11.321743754477412,-10.424735394039516,-12.86604594929262
1769249443312,115,-13,-10.88820961590745,-10.604387260201818,-12.440800971615154
1769249443316,115,-13,-10.590967087900008,-10.332141088909584,-12.164781111058096
1769249443320,115,-13,-10.846596709412283,-10.58621943990788,-12.437673440321488
1769249443324,114,-14,-11.902104008771486,-11.292512552425697,-13.487288330302784
1769249443328,114,-14,-13.234308677756689,-11.59753231842168,-14.785346441649224
1769249443332,114,-14,-13.168812847853276,-11.495658248835795,-14.673819392969827
1769249443336,117,-11,-9.334957342571409,-8.460327620059818,-10.809584474448911
1769249443340,125,-3,-0.1276000392230205,-0.5435593823657277,-1.6053980579676042
1769249443344,137,9,13.547540580141042,11.668584912513523,12.037744754376584
1769249443348,153,25,27.62176478637168,27.372771325534536,26.072807671819906
1769249443352,165,37,36.304505393841424,39.521849594520845,34.73170023136656
1769249443356,164,36,35.15009732326471,38.41213161498769,33.581061917586915
1769249443360,150,22,23.805056198796045,24.446953503508283,22.26762800849609
1769249443364,131,3,6.430115245290315,5.587570125359639,4.9410566045085424
1769249443368,114,-14,-10.583272012148033,-11.651123139596884,-12.027355270370954
1769249443372,103,-25,-22.015289570595524,-22.34322331510041,-23.438543867481336
1769249443376,101,-27,-26.09300695182087,-24.713005526538694,-27.52791854986088
1769249443380,103,-25,-24.437669552697898,-22.39083691188291,-25.905657376166815
1769249443384,107,-21,-20.213774807755037,-18.72999021791791,-21.71218422781316
1769249443388,110,-18,-16.054393639602402,-15.44223389969213,-17.559272596807993
1769249443392,112,-16,-13.074940765091906,-13.622953202905784,-14.557607939929442
1769249443396,114,-14,-11.17700638353838,-11.452170618497174,-12.622832220883712
1769249443400,117,-11,-9.898400714449718,-8.650499798092227,-11.314613195481323
1769249443404,118,-10,-8.96989501243198,-7.598035346605161,-10.377027187520884
1769249443408,118,-10,-8.332377176495598,-7.629912120184415,-9.746811075216756
1769249443412,118,-10,-7.929893291687096,-7.522065276214661,-9.352360697854753
1769249443416,118,-10,-7.631626301763614,-7.528874832598856,-9.050547512772644
1769249443420,119,-9,-7.313509793309242,-6.63830446949877,-8.717921594536405
1769249443424,120,-8,-6.920507290401023,-5.639883367395928,-8.309260547829167
1769249443428,120,-8,-6.42579748699961,-5.731253015178154,-7.805314638388334
1769249443432,120,-8,-5.7843370021432285,-5.422053442190336,-7.159694104251842
1769249443436,121,-7,-4.975771886250854,-4.692546390320766,-6.345719362268662
1769249443440,122,-6,-4.073389713898784,-3.485871141281713,-5.433675882625444
1769249443444,124,-4,-3.211000596061778,-1.8600934281443011,-4.560299747247452
1769249443448,124,-4,-2.455231328279138,-1.6177434560790838,-3.796021248487619
1769249443452,124,-4,-1.7395699527073516,-1.5558616438407382,-3.0738134557737604
1769249443456,125,-3,-0.9570431154599092,-0.6400042434319415,-2.283194283051626
1769249443460,126,-2,-0.1020535743438317,0.4829930946387666,-1.4172981030645198
1769249443464,128,0,0.7238503790372657,2.0417733100568416,-0.5802541176508672
1769249443468,128,0,1.4579127171881914,2.4797150103400427,0.1626166967820332
1769249443472,128,0,2.191166811164189,2.213526547666385,0.9032854835248192
1769249443476,129,1,3.104188889280348,3.604860740263722,1.8251519047603624
1769249443480,131,3,4.295567633332865,5.165215859042337,3.027590298908076
1769249443484,132,4,5.697301936806625,6.304529204101553,4.440535220995294
1769249443488,134,6,7.15991858522268,8.180459281801697,5.91240144167849
1769249443492,135,7,8.603195235598012,9.40771359420012,7.363387621647359
1769249443496,136,8,10.075830241003416,10.39546214972051,8.844682231159036
1769249443500,138,10,11.679296784765365,12.300634319208646,10.45950963532978
1769249443504,140,12,13.452867203538704,14.132725010466462,12.246070164468549
1769249443508,142,14,15.340144411447628,16.280796261293872,14.14512807135485
1769249443512,144,16,17.247519282558184,18.26159772255864,16.06164969048239
1769249443516,145,17,19.09782773786098,19.463541962900344,17.920040030382786
1769249443520,147,19,20.807474047254686,21.208977686453903,19.63924573792497
1769249443524,149,21,22.233249256691817,23.131637274892025,21.076581903638537
1769249443528,150,22,23.183768876969523,24.265240173862527,22.039107417632177
1769249443532,150,22,23.503139960573673,24.174307923323248,22.36973967694777
1769249443536,149,21,23.137251466226033,23.54172836585832,22.014653251594737
1769249443540,149,21,22.11889362968894,23.01780596300462,21.007091922471016
1769249443544,147,19,20.50569437157167,21.316995541896837,19.404432096807476
1769249443548,145,17,18.34115042476661,18.97967678014546,17.25016941739026
1769249443552,142,14,15.667150718887203,16.44774157118234,14.587057658812393
1769249443556,139,11,12.57246294784278,13.18353967475952,11.504458855418916
1769249443560,136,8,9.242981011086822,10.31365464807014,8.187620824075466
1769249443564,133,5,5.96531903778489,6.9952397371508255,4.922206277288365
1769249443568,129,1,3.045534971545272,3.1938356314503187,2.0142007879866277
1769249443572,127,-1,0.6761423626387009,1.2620982895484785,-0.3436983089390544
1769249443576,126,-2,-1.1391569034173823,0.2136581099931964,-2.148249520615827
1769249443580,124,-4,-2.5289287966799794,-1.6735668388640663,-3.528102735936807
1769249443584,123,-5,-3.622405350149415,-3.1744415849168,-4.611058160260462
1769249443588,122,-6,-4.461791083514793,-3.5944247892793744,-5.437779996436997
1769249443592,122,-6,-5.0060593241394304,-4.099516165594301,-5.967786472622738
1769249443596,121,-7,-5.188426040106257,-4.425616914999354,-6.136500099271297
1769249443600,122,-6,-4.981161140046066,-4.108994909276483,-5.9175662756089835
1769249443604,122,-6,-4.442771941577988,-3.816330199208698,-5.368799540031462
1769249443608,123,-5,-3.7223199270049374,-2.946606264174755,-4.6376940363213865
1769249443612,124,-4,-3.001948415726188,-1.9118635290238128,-3.905605487931195
1769249443616,124,-4,-2.403259564736403,-1.5513251001886277,-3.29432391996796
1769249443620,125,-3,-1.9284850773302369,-1.169772770623858,-2.8064367918666253
1769249443624,125,-3,-1.489744453191707,-0.6895909899470007,-2.3542694424548776
1769249443628,126,-2,-1.0036016079611922,-0.2374957487907245,-1.854802239365596
1769249443632,126,-2,-0.472007939668535,0.3863100183768941,-1.3106642775711783
1769249443636,127,-1,0.0092204520731427,1.0666076718192543,-0.8179524756157177
1769249443640,127,-1,0.3048836701701858,1.1460233326145497,-0.511234359395153
1769249443644,127,-1,0.3038979541399937,0.9758504547897462,-0.5005864353041833
1769249443648,127,-1,-0.0466233929726853,0.9685696946761042,-0.8385718693450956
1769249443652,126,-2,-0.734912377537118,0.1894098236357413,-1.513904775134
1769249443656,125,-3,-1.6910157270531538,-0.8664095468754818,-2.456976586347466
1769249443660,124,-4,-2.803314796252012,-1.9023163082732568,-3.555890004542034
1769249443664,123,-5,-3.9444229478365616,-3.1028047902619473,-4.683095397756328
1769249443668,122,-6,-4.997961719618922,-3.962022508922187,-5.722960508455618
1769249443672,121,-7,-5.881311160378543,-4.984304564739687,-6.594038899361011
1769249443676,120,-8,-6.568577031240307,-5.714674046829373,-7.270630305130239
1769249443680,120,-8,-7.110430179364439,-6.131443707049725,-7.801916674758317
1769249443684,119,-9,-7.62742741718689,-6.919764001158993,-8.306393812014264
1769249443688,119,-9,-8.252592182885722,-7.228928673666861,-8.916593657760538
1769249443692,118,-10,-9.03772706294169,-7.761207220338127,-9.68632696420094
1769249443696,117,-11,-9.891044200478568,-9.011755092565352,-10.526719095950572
1769249443700,116,-12,-10.61613612238934,-9.880313184927218,-11.242348527113252
1769249443704,116,-12,-11.04096836571918,-10.231747789545285,-11.658628752784937
1769249443708,116,-12,-11.132036573862448,-10.006986503607717,-11.737075797188115
1769249443712,116,-12,-10.994298496076272,-9.992151611000349,-11.579228491365251
1769249443716,116,-12,-10.766217338540944,-9.899730562834629,-11.326562672857651
1769249443720,117,-11,-10.521970361960696,-8.980472520313645,-11.063405221708688
1769249443724,117,-11,-10.294889835949826,-9.270128846777974,-10.833056480695232
1769249443728,116,-12,-10.219440864921898,-9.987852081742778,-10.76883210999718
1769249443732,116,-12,-10.610780247214004,-10.094884599214454,-11.170215768564166
1769249443736,115,-13,-11.727508169549536,-10.847464833690722,-12.275868428991766
1769249443740,115,-13,-13.187057010079188,-11.087701013566118,-13.695887923274366
1769249443744,115,-13,-13.462911376472508,-11.22807307750799,-13.917707554828404
1769249443748,117,-11,-10.158143012804532,-9.104607633642006,-10.571107482048836
1769249443752,125,-3,-1.3761636699570734,-1.0138007881760496,-1.7791803541893416
1769249443756,137,9,12.429077845471326,11.016196325291803,12.005655654656849
1769249443760,153,25,27.523921522271294,27.01408397844466,27.06920334761236
1769249443764,168,40,38.05337080742965,41.61838686143931,37.578866914925115
1769249443768,169,41,39.038170274092856,42.93254308973909,38.569366924297704
1769249443772,157,29,29.357461873187503,30.82013764066675,28.922887615426088
1769249443776,138,10,12.569738425069607,12.058445585019395,12.18960478898995
1769249443780,120,-8,-5.073026724089475,-6.120909311135247,-5.398202499025954
1769249443784,109,-19,-18.002473828968302,-17.220176127726678,-18.295431657348168
1769249443788,104,-24,-23.838236097929578,-22.155256548602225,-24.132905708637924
1769249443792,104,-24,-23.666763524803137,-22.133711841333835,-23.986735948349352
1769249443796,108,-20,-20.424342641748403,-18.045379357114165,-20.768817125901133
1769249443800,111,-17,-16.81695436776045,-15.218524271229477,-17.16421520775925
1769249443804,112,-16,-14.13368038090385,-14.179019229304451,-14.457037597206488
1769249443808,114,-14,-12.37057409764826,-12.217893311813048,-12.6547072316546
1769249443812,116,-12,-11.081166570958576,-10.117030231488304,-11.329539062740771
1769249443816,118,-10,-10.042847452878792,-8.137876125412761,-10.272692219525204
1769249443820,119,-9,-9.30507610418466,-7.252268764145402,-9.533496937091169
1769249443824,118,-10,-8.884971966534579,-8.199251128361137,-9.116489237792749
1769249443828,118,-10,-8.604891837120661,-8.229043234684475,-8.830631521897452
1769249443832,119,-9,-8.22977066735126,-7.13050414910948,-8.438217370160096
1769249443836,120,-8,-7.666419226330132,-6.231548428962359,-7.854352703394006
1769249443840,121,-7,-6.97959059001996,-5.234519295013165,-7.152507157403443
1769249443844,121,-7,-6.258975825212277,-5.2859961169744265,-6.422690820268783
1769249443848,121,-7,-5.528534874073505,-5.1834106972013565,-5.682976220967492
1769249443852,123,-5,-4.7701829554385835,-3.2140936878233037,-4.9116997330211
1769249443856,124,-4,-3.971807429359596,-2.2473826285972938,-4.0988624224990176
1769249443860,124,-4,-3.1306325704595155,-2.2994276237863875,-3.244979687099441
1769249443864,125,-3,-2.2510801344695706,-1.2715147846003068,-2.3544216421229347
1769249443868,126,-2,-1.3702701058490885,-0.2576724699112507,-1.4621221112780824
1769249443872,127,-1,-0.5601555515153773,0.8131359201436186,-0.6392338392529813
1769249443876,128,0,0.1361506571467767,1.6471038401609004,0.0699939333944867
1769249443880,128,0,0.7772738283345317,1.7161986026298348,0.723212735083361
1769249443884,129,1,1.5145610174729565,2.6566861912279593,1.4721928740685084
1769249443888,130,2,2.49528369021672,3.7646670741272263,2.465176374202736
1769249443892,131,3,3.7681498673017737,4.721323617590375,3.75100272048185
1769249443896,133,5,5.2781936889027765,6.697027819931491,5.273730233611282
1769249443900,135,7,6.946508213014573,8.54444084799107,6.953546326060076
1769249443904,136,8,8.744035557428784,9.808641943993086,8.761862922139752
1769249443908,138,10,10.677662601853918,11.504936116558756,10.7069181396003
1769249443912,140,12,12.712275401467954,13.978571010826224,12.753910221812143
1769249443916,143,15,14.73401253559523,16.313174918858678,14.787796562443209
1769249443920,144,16,16.60867350828121,17.897796131466812,16.673622964038465
1769249443924,146,18,18.270776600770105,19.357647507625757,18.3469126433752
1769249443928,147,19,19.748307620865187,20.903924881338735,19.83701428769713
1769249443932,149,21,21.10716181401948,22.528992013311623,21.209530964120155
1769249443936,150,22,22.370172969760812,23.663618590328248,22.485580032629084
1769249443940,151,23,23.461951793452457,24.51776334583382,23.588524406880005
1769249443944,152,24,24.19894812070273,25.624435895089505,24.335130775113
1769249443948,152,24,24.329275783280817,25.613873652139887,24.47486131398979
1769249443952,151,23,23.615771216019,24.72198290017216,23.771711509879164
1769249443956,150,22,21.935589819479087,23.416199998862304,22.103036855082394
1769249443960,147,19,19.353504423413337,20.69474316276412,19.533138455991025
1769249443964,144,16,16.127188987979352,17.35172248241633,16.319417470755532
1769249443968,140,12,12.631245991600837,13.868635462852511,12.83654221300088
1769249443972,137,9,9.237777183016403,10.35417519444906,9.456160854258528
1769249443976,134,6,6.221444836203939,7.763575937520656,6.45165649999143
1769249443980,132,4,3.726216670554797,5.255792633505747,3.966146009884528
1769249443984,129,1,1.7726945390735995,2.71903839101561,2.0210622482883456
1769249443988,128,0,0.275213162994889,1.46757897364167,0.5325554806998207
1769249443992,127,-1,-0.9198961907653818,0.6346012078037253,-0.6519669740872467
1769249443996,126,-2,-1.9540452896271212,-0.5210158545897463,-1.6740270744184451
1769249444000,125,-3,-2.8689984009044354,-1.596476319417199,-2.575979777937698
1769249444004,124,-4,-3.583723320716154,-2.4350660050418496,-3.2777070437518656
1769249444008,124,-4,-3.960694238916655,-2.507915966785804,-3.643032039082798
1769249444012,124,-4,-3.9148052074523054,-2.411028197935007,-3.587622100370661
1769249444016,124,-4,-3.4945722146587475,-2.563839039526564,-3.159013747973318
1769249444020,125,-3,-2.8835257954850846,-1.6194159996561748,-2.538765794143252
1769249444024,126,-2,-2.3056631734728015,-0.4643165859656748,-1.9499049076722943
1769249444028,126,-2,-1.883928056028651,-0.5917912458062151,-1.5160477525668996
1769249444032,126,-2,-1.5618251972574404,-0.3538215759127396,-1.1819243688671723
1769249444036,127,-1,-1.168276348726475,0.2844049079975428,-0.7771452784831778
1769249444040,127,-1,-0.5835727689244163,0.465513638130179,-0.182021190072978
1769249444044,128,0,0.1314024494982042,1.4029771069298436,0.5427671232013687
1769249444048,129,1,0.7540156838666996,2.430923192861013,1.1747418688433444
1769249444052,129,1,1.0512135849704018,2.6096249235332993,1.4812637325239648
1769249444056,129,1,0.9309519925900585,2.193153313908987,1.3711184034006605
1769249444060,128,0,0.4672255660969786,1.5313970553894647,0.9186877201334348
1769249444064,128,0,-0.2011496902761926,1.222230026433515,0.261878009060754
1769249444068,127,-1,-0.9867641825023652,0.569320350278804,-0.5132307586412213
1769249444072,126,-2,-1.8884257138518263,-0.5911145675860214,-1.405463823998514
1769249444076,125,-3,-2.9417936598456844,-1.6916022701732505,-2.449238745663892
1769249444080,124,-4,-4.143802490914284,-2.632344603384814,-3.640833635332154
1769249444084,123,-5,-5.410379796201396,-3.7306659011330776,-4.896890587103526
1769249444088,121,-7,-6.603947479452456,-5.505858839905998,-6.08064809502384
1769249444092,120,-8,-7.620639349514853,-6.599765399785412,-7.088040095650071
1769249444096,120,-8,-8.46445850163796,-6.747174531475194,-7.922236899302621
1769249444100,119,-9,-9.230529114553766,-7.639277631446333,-8.677721263936897
1769249444104,118,-10,-10.006608088141098,-8.838404212680805,-9.442451009452505
1769249444108,117,-11,-10.78415947505055,-9.407128770560831,-10.209498158170744
1769249444112,117,-11,-11.45301859503308,-9.830494166137049,-10.870792453177842
1769249444116,116,-12,-11.877645979488609,-10.527579665061523,-11.290326070669598
1769249444120,116,-12,-11.997431452702155,-10.979371514546838,-11.402813277869942
1769249444124,116,-12,-11.87307541354484,-10.547515457728952,-11.263689283390306
1769249444128,117,-11,-11.629113288000584,-9.766475425028675,-10.99811314310336
1769249444132,117,-11,-11.343264720001862,-9.558365985010104,-10.692600072004916
1769249444136,117,-11,-11.025582169354031,-9.833106592289385,-10.36852430978952
1769249444140,117,-11,-10.760892747001767,-9.805111693846149,-10.114483845263877
1769249444144,117,-11,-10.862487669625612,-9.74847883491,-10.233455880791
1769249444148,116,-12,-11.742467088127428,-10.681793834742033,-11.117315461685958
1769249444152,115,-13,-13.371420573585864,-11.664820381293667,-12.72144529921364
1769249444156,115,-13,-14.629657139009826,-11.824588322134364,-13.930756021309058
1769249444160,116,-12,-13.212599180091006,-10.87727771405708,-12.465019233309537
1769249444164,121,-7,-6.631068421767173,-5.766733608085824,-5.861539867956514
1769249444168,132,4,5.913975427776059,5.314071569568,6.670157586195895
1769249444172,148,20,21.97390122503591,21.255698712228423,22.695302175895485
1769249444176,165,37,36.080698074990515,38.25405122230878,36.76972917861369
1769249444180,174,46,42.2140664681319,46.87497297581318,42.89222216999752
1769249444184,167,39,37.19323438669464,40.4181591121485,37.89026276646885
1769249444188,150,22,22.671661257758544,22.899929057480545,23.413932260647037
1769249444192,130,2,4.255671767798266,3.6277745659403786,5.053708907192582
1769249444196,116,-12,-11.62910287133734,-11.205816281764694,-10.789039159768048
1769249444200,107,-21,-20.945830983382184,-19.58823450936776,-20.09641457811523
1769249444204,106,-22,-23.36869140174315,-21.098399468706535,-22.54187068028774
1769249444208,108,-20,-21.32224644196198,-18.68726950124327,-20.529137484364178
1769249444212,111,-17,-17.86233736275686,-15.885275363207318,-17.08800813952486
1769249444216,113,-15,-14.965436876361627,-13.901588886265229,-14.18113018952582
1769249444220,114,-14,-13.104476867738788,-12.85035952165502,-12.287081181887084
1769249444224,116,-12,-11.888484785628718,-10.97245824501756,-11.033988541100838
1769249444228,118,-10,-10.899012689389258,-8.776424202861552,-10.021979665764782
1769249444232,119,-9,-10.043027438431857,-8.021648944143564,-9.163467477931269
1769249444236,119,-9,-9.39789182296169,-7.779707342522715,-8.525860751651301
1769249444240,119,-9,-8.959644357175222,-8.076674738238916,-8.089904412300726
1769249444244,119,-9,-8.600422106442732,-7.754928599124933,-7.72068187291813
1769249444248,121,-7,-8.185183384677813,-6.069169371592987,-7.288655574999055
1769249444252,121,-7,-7.650346510674513,-5.848652764665829,-6.740027947007558
1769249444256,121,-7,-6.987929603889775,-6.03437742827363,-6.070258280540848
1769249444260,122,-6,-6.219831692271182,-4.8833119330069295,-5.296947517995699
1769249444264,123,-5,-5.401274256193757,-3.989981376074405,-4.470407422199488
1769249444268,124,-4,-4.600617953559938,-2.9196491191499403,-3.659078294150312
1769249444272,125,-3,-3.838318567542222,-2.07520005769142,-2.8867968546992517
1769249444276,125,-3,-3.061241809159216,-1.936447088758976,-2.1020904836617187
1769249444280,126,-2,-2.2125534417653725,-1.0056766417572511,-1.246366272328141
1769249444284,127,-1,-1.3325931044997543,0.0504442485672869,-0.3576443105673319
1769249444288,128,0,-0.5589562853902956,0.988763318116133,0.4262380586258925
1769249444292,129,1,0.0090298665768415,1.9152122361032489,1.0036703347939633
1769249444296,129,1,0.4527508108521065,1.9755944169887845,1.4549299242747815
1769249444300,129,1,1.019483618429618,2.0183538532141876,2.028955468484436
1769249444304,130,2,1.9420400486247669,2.969089834886459,2.9607726823461755
1769249444308,132,4,3.2698218723805716,4.999934034437537,4.29948469772355
1769249444312,134,6,4.8820401270387705,6.827166752423091,5.921757797687484
1769249444316,135,7,6.650753120619905,7.961274920992041,7.698008600824753
1769249444320,137,9,8.560099402310291,9.97039519778442,9.61349838277414
1769249444324,139,11,10.654685311986016,11.943745205368518,11.71527513573932
1769249444328,141,13,12.892221348106126,13.948549709462537,13.962122563952434
1769249444332,144,16,15.08115916851972,16.816659803553648,16.161248600583114
1769249444336,146,18,16.988887437967986,18.859632205737373,18.078161787562387
1769249444340,147,19,18.516176278056875,20.024037659238346,19.613452090131755
1769249444344,148,20,19.752006818856668,20.793366358604494,20.857643758801935
1769249444348,149,21,20.84506798697368,22.032740165366384,21.960323990636144
1769249444352,151,23,21.819449670177544,23.657830967759377,22.944469004267365
1769249444356,151,23,22.50695203094745,23.91966561703911,23.640286843173236
1769249444360,151,23,22.639138895725683,23.933559862978832,23.779279153609373
1769249444364,151,23,22.004920152462656,23.749981921342805,23.15171076050217
1769249444368,149,21,20.5551266613176,22.054546900082265,21.7097734941928
1769249444372,147,19,18.399735482334272,19.48618364522001,19.563855182198033
1769249444376,144,16,15.729355745494662,17.077909695514506,16.903821457656186
1769249444380,142,14,12.743001607157538,14.662380823398532,13.927379477797016
1769249444384,138,10,9.632954107535282,10.967899974922949,10.826131727956508
1769249444388,135,7,6.599222778998663,7.75927976111524,7.8004866773523
1769249444392,133,5,3.839291351026646,5.675309647826084,5.0485840144570195
1769249444396,130,2,1.5024440278622504,2.8500272725679867,2.719919588573035
1769249444400,128,0,-0.3581318272501073,0.777823855715444,0.8675776810464355
1769249444404,127,-1,-1.7939868350292332,-0.1721138755186406,-0.5601715749497658
1769249444408,126,-2,-2.910725739518642,-1.2301224560389028,-1.6689399133969496
1769249444412,125,-3,-3.7866381735822623,-2.38415664173549,-2.5364762745234333
1769249444416,124,-4,-4.425701424410396,-3.197332590665769,-3.1660618382922077
1769249444420,124,-4,-4.779822435497944,-3.222703132288272,-3.509933228181661
1769249444424,124,-4,-4.809777476211755,-3.273437495455174,-3.5303932822119504
1769249444428,124,-4,-4.533512168363407,-3.175495405042657,-3.246537217240911
1769249444432,125,-3,-4.039008696462703,-2.566274313562027,-2.7456634983285886
1769249444436,125,-3,-3.462481917120546,-2.0447179792014163,-2.162000777694214
1769249444440,126,-2,-2.936852919180498,-1.5013005558491308,-1.627189182455052
1769249444444,126,-2,-2.526537356790132,-1.029445605564594,-1.2063862378778984
1769249444448,127,-1,-2.188132172010691,-0.5236909530024336,-0.858060267387443
1769249444452,127,-1,-1.803417112492028,-0.3078222826318595,-0.464843060113658
1769249444456,127,-1,-1.2878028253625242,-0.3477306044768813,0.058699021680473
1769249444460,128,0,-0.6970413968862517,0.662575584901544,0.6577125242279578
1769249444464,129,1,-0.2252698528784484,1.8178987244110176,1.1377259391974353
1769249444468,129,1,-0.0794599496315564,1.4573492634181289,1.2912696104692256
1769249444472,128,0,-0.345529618181021,0.7099077172064496,1.033039970856637
1769249444476,128,0,-0.9650968452155984,0.4827345542250447,0.4222604356320945
1769249444480,127,-1,-1.815149531754014,-0.2138783070557912,-0.4183169439839986
1769249444484,126,-2,-2.7929144802206283,-1.3830148252066286,-1.386685997950698
1769249444488,125,-3,-3.8411703865483577,-2.4256094997836666,-2.4257190333012133
1769249444492,124,-4,-4.922711343233056,-3.4650870709022197,-3.4980854362144957
1769249444496,123,-5,-5.984138049954748,-4.467555330276274,-4.551048438094391
1769249444500,122,-6,-6.947210972151286,-5.3127517188659565,-5.507037038582656
1769249444504,121,-7,-7.749395322111189,-6.375649521124243,-6.302485128335574
1769249444508,120,-8,-8.410089110804883,-7.493039470595909,-6.954594079550392
1769249444512,120,-8,-9.045959058023374,-7.48573726535683,-7.579544330783141
1769249444516,120,-8,-9.780274377427636,-7.547647783008124,-8.303016031801047
1769249444520,118,-10,-10.611234132099758,-9.29684524156395,-9.12595445043286
1769249444524,117,-11,-11.384828857884084,-10.481395488782097,-9.894462264710654
1769249444528,117,-11,-11.919011886156664,-10.444850867241628,-10.42391263773325
1769249444532,117,-11,-12.149393416809438,-10.641657640442274,-10.646362808010569
1769249444536,117,-11,-12.14400909654683,-10.468140610621708,-10.62711704122592
1769249444540,117,-11,-11.993355602553374,-10.435077584320506,-10.457396214733429
1769249444544,117,-11,-11.720850076427174,-10.450971537241116,-10.167307055848925
1769249444548,118,-10,-11.331814782392362,-9.523115215567415,-9.77239273162956
1769249444552,118,-10,-10.97192339951375,-9.68906212710484,-9.42295018498324
1769249444556,117,-11,-11.020715035647443,-10.486596575786304,-9.489311454003772
1769249444560,117,-11,-11.901870405782658,-10.47948760641884,-10.375360674137822
1769249444564,116,-12,-13.542901513714826,-11.517588697022363,-11.993456696204571
1769249444568,115,-13,-14.774544265647666,-12.502362719272911,-13.178501014782729
1769249444572,117,-11,-13.282842746280911,-10.838219883492073,-11.63980592829424
1769249444576,122,-6,-6.606583791923566,-5.373538237004281,-4.941658308200612
1769249444580,133,5,6.0477642745002065,5.325845454452593,7.700837856474728
1769249444584,149,21,22.307177259161264,21.626297828138732,23.92715368490872
1769249444588,167,39,36.840655213314726,39.291149017039366,38.4283157640494
1769249444592,176,48,43.71195435354932,48.22771731529134,45.2864839371784
1769249444596,170,42,39.635972460338,42.474290539589774,41.22597103114934
1769249444600,154,26,25.94045648810564,26.263164338023724,27.57286194493937
1769249444604,135,7,7.831083519996955,7.610698413806752,9.517731200270797
1769249444608,120,-8,-8.486535776776226,-7.782681629048973,-6.758056770638333
1769249444612,110,-18,-18.84775656752838,-17.648816698663364,-17.108636267605487
1769249444616,107,-21,-22.52067020777531,-20.621425901089744,-20.80164475328455
1769249444620,109,-19,-21.498030393439052,-18.75679771728252,-19.810701718784586
1769249444624,111,-17,-18.611712374158895,-16.48237000519198,-16.943796556708925
1769249444628,113,-15,-15.881060233110343,-14.882561100733213,-14.206737314539122
1769249444632,114,-14,-13.97849491706268,-13.554974656224548,-12.275321166635518
1769249444636,116,-12,-12.70465528317177,-11.795321392446931,-10.966445264004063
1769249444640,118,-10,-11.71784863842388,-9.655887839832891,-9.956048780669462
1769249444644,119,-9,-10.882082335011567,-8.7040655845833,-9.115143080007073
1769249444648,119,-9,-10.185016345485396,-8.804430341568398,-8.424042235233411
1769249444652,119,-9,-9.57514226238121,-8.63226305189366,-7.817494503124901
1769249444656,120,-8,-8.966243507959168,-7.819372949725522,-7.201516746641782
1769249444660,121,-7,-8.33690127335634,-6.6713271237890455,-6.557914030624166
1769249444664,122,-6,-7.742335318135933,-5.8353280387093385,-5.950013405527735
1769249444668,122,-6,-7.218696742849074,-5.771453048523901,-5.417807398322298
1769249444672,122,-6,-6.716043687829703,-5.707981378494898,-4.9087856443523235
1769249444676,123,-5,-6.142799638980405,-4.836220319632112,-4.327789327155819
1769249444680,124,-4,-5.452030248366103,-3.692072583285561,-3.628025539508309
1769249444684,125,-3,-4.6672580765013825,-2.981230729853129,-2.8353532110672575
1769249444688,125,-3,-3.8473270039845935,-2.6671177922955844,-2.00895352265925
1769249444692,126,-2,-3.054032045916091,-1.9279953289196037,-1.208494873974958
1769249444696,127,-1,-2.3367059967024555,-0.6439077760963294,-0.4819718294659875
1769249444700,128,0,-1.7002137615147843,0.0114927610670561,0.1644922890123061
1769249444704,128,0,-1.0665779143648604,0.2058345713619602,0.8068207107194727
1769249444708,129,1,-0.2916487877933664,1.0726192743001142,1.588766736176567
1769249444712,130,2,0.7456485222322771,2.2181878783552538,2.6328175887975975
1769249444716,131,3,2.05433059828634,3.2026771877979687,3.9493765311264033
1769249444720,133,5,3.5346939032427542,5.020187219418473,5.43852548743054
1769249444724,135,7,5.082602741480306,7.157454281993209,6.994801580293302
1769249444728,136,8,6.694375911591809,7.9646926841091155,8.613997400706108
1769249444732,137,9,8.456459280800228,9.28685101080986,10.38340658330432
1769249444736,140,12,10.42412615258097,12.053711301861116,12.358937607569937
1769249444740,142,14,12.521870964809146,14.077305707472435,14.464507328848764
1769249444744,144,16,14.57298091338069,16.02837489276396,16.522826009229554
1769249444748,146,18,16.42118068411432,17.965495518662408,18.37821565895466
1769249444752,147,19,18.021763376085406,19.233466077539425,19.98687564755565
1769249444756,149,21,19.427040853023488,20.99884726671285,21.400922723657953
1769249444760,150,22,20.688584648955796,22.091923833807332,22.67081983056633
1769249444764,151,23,21.755409533196165,22.87132438064687,23.74483861904504
1769249444768,152,24,22.444394590142224,24.082156697634854,24.44004098246921
1769249444772,152,24,22.511308110505333,23.977928248824387,24.512872611124397
1769249444776,151,23,21.77902648576056,23.22167475874648,23.78692062201972
1769249444780,150,22,20.232657449565288,21.75857346073308,22.247821077783733
1769249444784,147,19,18.018289965460887,19.118134072692477,20.041665474636854
1769249444788,145,17,15.363822891496596,16.742160858546526,17.395623755719477
1769249444792,142,14,12.495544231081196,14.22136857671235,14.53514514661962
1769249444796,139,11,9.600889475007328,10.937708221056118,11.647636462369954
1769249444800,136,8,6.827815789532387,7.919061404665995,8.881545092840632
1769249444804,134,6,4.290270733968351,5.919696893908325,6.350651623471129
1769249444808,132,4,2.0673863668078623,3.77116059936019,4.133428840648003
1769249444812,129,1,0.1928474521088632,1.185741319932748,2.263924335568773
1769249444816,128,0,-1.3608336295029098,-0.161503820764997,0.7161389310509676
1769249444820,127,-1,-2.6692166379130917,-1.0179740182559454,-0.5847393372986457
1769249444824,126,-2,-3.785956620805852,-2.268737151233577,-1.693314643858565
1769249444828,125,-3,-4.662866359268299,-3.1397212462669817,-2.5627059797903033
1769249444832,124,-4,-5.156433585557694,-3.953962659385043,-3.04964360264989
1769249444836,124,-4,-5.1468719724939165,-4.150061462883739,-3.0339476497040607
1769249444840,125,-3,-4.671157253801308,-3.0515815077064725,-2.552629291070507
1769249444844,126,-2,-3.942744627763598,-2.3855781869392514,-1.8193780736617964
1769249444848,126,-2,-3.235408903314426,-2.080790093999129,-1.10744051906567
1769249444852,127,-1,-2.7286663170735905,-1.1109600513048132,-0.595185864336494
1769249444856,127,-1,-2.430523114415033,-1.0825473497608664,-0.290073182840775
1769249444860,127,-1,-2.21840934047552,-1.1965175690377323,-0.0702596577667313
1769249444864,128,0,-1.9521456833822084,-0.3397587660733658,0.2030891450065995
1769249444868,128,0,-1.5751084936228978,-0.217910625718686,0.5858574662190057
1769249444872,128,0,-1.145162418097099,-0.0464405581016618,1.0204799443835604
1769249444876,129,1,-0.791947775124651,0.7540904155032204,1.3779531929267663
1769249444880,129,1,-0.6398279376077758,0.8992313927885478,1.5342978580660418
1769249444884,129,1,-0.7522413863999304,0.4404324737353713,1.4264770309520935
1769249444888,128,0,-1.1324561751604767,-0.0581446803296716,1.051713389778986
1769249444892,128,0,-1.7591395628374022,-0.3184707905970927,0.4312477800195846
1769249444896,127,-1,-2.6016601073076364,-1.0431260076682989,-0.405126209846534
1769249444900,126,-2,-3.5996466661867084,-2.382455028067257,-1.397753620195232
1769249444904,125,-3,-4.650171632315097,-3.403093434297075,-2.443710774809234
1769249444908,124,-4,-5.640322733142305,-4.2535712544318445,-3.4297572452380543
1769249444912,123,-5,-6.506101524453416,-5.281407077185178,-4.291683597375519
1769249444916,122,-6,-7.265346581533004,-6.078878355725845,-5.047129865093429
1769249444920,122,-6,-7.992449391714727,-6.510983948856966,-5.770056944105662
1769249444924,121,-7,-8.751599085729532,-7.300117482422605,-6.524149616583847
1769249444928,120,-8,-9.542326430066948,-8.508517849557991,-7.309124131244659
1769249444932,119,-9,-10.2995019533202,-9.076730432765704,-8.061432842465717
1769249444936,119,-9,-10.938171933008803,-9.386810029036258,-8.698148137905331
1769249444940,118,-10,-11.400429968355825,-10.278160413980322,-9.16109429125545
1769249444944,118,-10,-11.673558132964502,-10.625150159209692,-9.433499923509483
1769249444948,118,-10,-11.772615647122608,-10.284494536514742,-9.525288309934556
1769249444952,118,-10,-11.701371934963475,-10.384567172118224,-9.43954704268671
1769249444956,118,-10,-11.435384101271552,-10.171382599045575,-9.15896850699611
1769249444960,119,-9,-10.979930067102725,-9.559229602012731,-8.700434435418341
1769249444964,119,-9,-10.494871838789246,-9.462751076474513,-8.230081415048756
1769249444968,119,-9,-10.368076725726942,-9.521373801582405,-8.12778808051522
1769249444972,118,-10,-11.054011308409432,-10.26126337259906,-8.827805830915851
1769249444976,117,-11,-12.588434762724615,-11.361843737585158,-10.348614466987216
1769249444980,117,-11,-13.986371947673303,-11.46937659856118,-11.707307586692576
1769249444984,118,-10,-13.071254901359648,-10.621378874670311,-10.749952841451062
1769249444988,122,-6,-7.292366637319395,-6.486270484118254,-4.952049422489586
1769249444992,132,4,4.526763098693673,3.676860039508366,6.852725234136182
1769249444996,148,20,20.533619287251483,19.57230523105308,22.82254377376556
1769249445000,166,38,35.74671582817783,37.59018745354986,37.99670525586861
1769249445004,177,49,44.15087642641802,48.162651018218554,46.37832834337428
1769249445008,173,45,41.940625413323446,44.627591825894214,44.17217673165622
1769249445012,159,31,29.747659848367068,30.353649314879345,32.01000794369033
1769249445016,140,12,12.275942109032862,11.76333846713234,14.583295106599646
1769249445020,124,-4,-4.354595153224535,-4.661025191895922,-2.0103994569937225
1769249445024,114,-14,-15.689379959631207,-14.57556382065366,-13.336507075906235
1769249445028,110,-18,-20.54072295574138,-18.58852897331909,-18.21072987375031
1769249445032,110,-18,-20.49806520057175,-18.576556666083704,-18.20631639328721
1769249445036,112,-16,-18.177674512576807,-16.40414277238901,-15.915436443621289
1769249445040,114,-14,-15.600732939621684,-14.69583892338036,-13.343529359580517
1769249445044,115,-13,-13.595081725185734,-13.56540335751288,-11.31971716499383
1769249445048,117,-11,-12.162353725069527,-11.660047707248166,-9.86090368103844
1769249445052,119,-9,-11.118941614607596,-9.621735912174104,-8.801506610908692
1769249445056,120,-8,-10.40183302217123,-8.466096688922367,-8.086881196635094
1769249445060,120,-8,-9.980714293197693,-8.794011700114355,-7.6802081808423805
1769249445064,119,-9,-9.71782936271801,-9.481955897193362,-7.4292103997843135
1769249445068,120,-8,-9.418117538036832,-8.824540530224075,-7.129882021085202
1769249445072,121,-7,-8.97014844719344,-7.544982026239166,-6.674628830902896
1769249445076,122,-6,-8.3702485685275,-6.658371313362947,-6.070122059355042
1769249445080,122,-6,-7.631024944935602,-6.739006264582658,-5.33398331269031
1769249445084,122,-6,-6.746661930908302,-6.554468481767266,-4.456272206040477
1769249445088,124,-4,-5.771828655929075,-4.878615111794656,-3.4852930497367476
1769249445092,125,-3,-4.865637542943876,-3.5276232876150924,-2.5790013777806413
1769249445096,126,-2,-4.177145396710156,-2.8530382237767293,-1.889860394468707
1769249445100,126,-2,-3.674782624853948,-2.5947370004026222,-1.388598285065746
1769249445104,126,-2,-3.129754653349912,-2.8066064895289378,-0.8453568315805451
1769249445108,127,-1,-2.3002804991650967,-1.6964964422776927,-0.0170897353421271
1769249445112,129,1,-1.1356799324431146,0.2114343828785023,1.1455779368935342
1769249445116,130,2,0.1957117114844595,1.271094346719896,2.4723904352514814
1769249445120,131,3,1.455669369175194,2.2238718405553435,3.7260577526537864
1769249445124,132,4,2.5058774427172743,3.261015495852429,4.771629217695841
1769249445128,133,5,3.375330624222544,4.161460416258105,5.640017841170501
1769249445132,134,6,4.224532644255298,5.2515060425979865,6.490019191486112
1769249445136,135,7,5.260941539886332,6.1335329774516385,7.525706640285751
1769249445140,136,8,6.64150127344865,7.26625686481743,8.902227942021755
1769249445144,138,10,8.388882960966257,9.15136109974262,10.643071695728048
1769249445148,140,12,10.366479607049031,11.149176831904036,12.613691744540803
1769249445152,142,14,12.34617786621536,13.214023917797412,14.58765576235214
1769249445156,144,16,14.139660522294408,15.01306963735994,16.377292496108584
1769249445160,145,17,15.705586905598944,16.36188772709228,17.940833311601065
1769249445164,147,19,17.154638996356102,17.887461640781357,19.38769115357002
1769249445168,148,20,18.64572024738537,19.40211517549806,20.87538575706944
1769249445172,150,22,20.239594222262237,20.790933052619415,22.464119294254715
1769249445176,151,23,21.803174636686204,22.40782602675134,24.021242348282005
1769249445180,153,25,23.02889348853543,23.827045368750028,25.239888631092334
1769249445184,153,25,23.562325107864144,24.35454699556367,25.76607268267633
1769249445188,153,25,23.15635828496161,23.83679713380063,25.353141092230302
1769249445192,151,23,21.75374272196499,22.241897230975155,23.944517100850177
1769249445196,149,21,19.46633395440579,19.885616822896687,21.652312694148108
1769249445200,146,18,16.506076991592693,17.221531141461597,18.687697377633175
1769249445204,143,15,13.13869916310211,13.912116746240615,15.315160869098976
1769249445208,139,11,9.668324958462405,10.153900575186269,11.838324580959236
1769249445212,136,8,6.407121897751267,6.862846949754257,8.569830702744405
1769249445216,133,5,3.605743199162484,4.139130046613208,5.760920039281786
1769249445220,131,3,1.3801885380831265,1.8974092280262072,3.527661099639133
1769249445224,129,1,-0.308770966253451,0.1371497645786201,1.8306022700862037
1769249445228,128,0,-1.60234087061376,-1.1430468994346872,0.528482935909119
1769249445232,127,-1,-2.6462488089727527,-1.96486589235319,-0.5240844603506315
1769249445236,126,-2,-3.509058006089133,-3.1008848944971383,-1.3949637740886356
1769249445240,125,-3,-4.165531305403583,-4.0090260496567325,-2.058394471134123
1769249445244,125,-3,-4.543835130312291,-3.9799508668271466,-2.443013854999501
1769249445248,125,-3,-4.588922005778079,-4.178876151568037,-2.4952211194079563
1769249445252,125,-3,-4.299940033459837,-3.972035052867863,-2.2153108929351495
1769249445256,126,-2,-3.739597859562606,-3.2302124012356037,-1.6656478585547407
1769249445260,126,-2,-3.0302013157749315,-2.9649020006014064,-0.967090182534222
1769249445264,127,-1,-2.3316166890755587,-2.1040658777180345,-0.2785052062095635
1769249445268,128,0,-1.785619331742239,-1.1660499939538524,0.2581537371183954
1769249445272,128,0,-1.4443737881160612,-1.0570502615699608,0.590328616698859
1769249445276,128,0,-1.2422902681082193,-1.270526669131438,0.783853817339404
1769249445280,128,0,-1.0484139157543897,-1.010530386027721,0.9696797746131508
1769249445284,129,1,-0.7606580178895204,-0.1476621029815112,1.2486187493223553
1769249445288,129,1,-0.3714136610351441,-0.221310001846049,1.6267965571158458
1769249445292,129,1,0.021345871410134,-0.0699233587324394,2.0064525645326894
1769249445296,130,2,0.2424239527831222,0.6092562476099315,2.214282436342419
1769249445300,129,1,0.099849488991522,0.0333103292565029,2.060001643517859
1769249445304,129,1,-0.5259413893828642,-0.3075864733326989,1.424169960260097
1769249445308,128,0,-1.6016454037889094,-1.12994430522933,0.3390801150218009
1769249445312,126,-2,-2.9330166821548342,-3.256309904460988,-1.0020240573092056
1769249445316,125,-3,-4.256048461713417,-4.333205062863732,-2.3357516111026193
1769249445320,124,-4,-5.372990386408721,-5.074976348199296,-3.4647587083704785
1769249445324,123,-5,-6.237978078016851,-6.359971678317652,-4.343138657361932
1769249445328,122,-6,-6.941238618711862,-7.074130977600683,-5.060355802210689
1769249445332,122,-6,-7.616203328409677,-7.477228118133011,-5.7487924255077445
1769249445336,121,-7,-8.337452288409686,-8.182864923246022,-6.482266016945407
1769249445340,120,-8,-9.07858594652017,-9.3344591115971,-7.23425976482357
1769249445344,119,-9,-9.754187621711498,-10.22202776309072,-7.920583703478127
1769249445348,119,-9,-10.294984176121424,-10.231621884697544,-8.474589677954347
1769249445352,119,-9,-10.678627213793098,-10.489937145001283,-8.875411092469411
1769249445356,118,-10,-10.90410375844832,-11.19875139531682,-9.119020447946903
1769249445360,118,-10,-10.96669892971854,-11.489672294086544,-9.194296489290055
1769249445364,118,-10,-10.865893577904991,-11.115094354650884,-9.097658831702285
1769249445368,119,-9,-10.618448541265767,-10.441951354412618,-8.85188210357385
1769249445372,119,-9,-10.26464217220839,-10.374022950069351,-8.509545488725593
1769249445376,119,-9,-9.90799038174771,-10.392004145945016,-8.18202353676778
1769249445380,119,-9,-9.78228577654155,-10.450096229672951,-8.096928092176753
1769249445384,118,-10,-10.203027540885476,-11.203102959499,-8.550871716485855
1769249445388,118,-10,-11.23446423011232,-11.491273235992042,-9.590241882706923
1769249445392,118,-10,-12.150124557442208,-11.360058966674078,-10.487666635727582
1769249445396,119,-9,-11.156102453792109,-10.542059545590574,-9.46888588788356
1769249445400,123,-5,-5.9686840268481935,-6.388879506399528,-4.276665288413369
1769249445404,132,4,4.658098513168671,2.6559577306119113,6.321474929074628
1769249445408,146,18,19.28578552860319,16.5429211488417,20.895234395515747
1769249445412,162,34,33.42135019597284,32.59656865444617,34.97304626124719
1769249445416,173,45,41.25548359304588,43.31871285647112,42.765698345572005
1769249445420,170,42,38.78577175426268,40.68365919356719,40.28132570636393
1769249445424,155,27,26.285525239991433,25.315776705127924,27.79291601798126
1769249445428,135,7,8.309992476373,5.8174527502198075,9.84399261217894
1769249445432,119,-9,-8.810139992627523,-10.822338839221043,-7.255939953879111
1769249445436,108,-20,-20.2396085429124,-21.213655435227626,-18.69194596915647
1769249445440,105,-23,-24.574957949614177,-24.78840697074758,-23.065932222411956
1769249445444,106,-22,-23.53955111019964,-23.310212056355887,-22.087004156784765
1769249445448,110,-18,-20.12626524763835,-19.6585421484565,-18.72404378079369
1769249445452,112,-16,-16.691236817021064,-17.591094301750022,-15.315207293175051
1769249445456,113,-15,-14.146857156660769,-16.43690948585326,-12.771240631215216
1769249445460,116,-12,-12.34986760935038,-13.743822292177017,-10.963298209940705
1769249445464,118,-10,-10.925837394028177,-11.317877474817848,-9.537115561074817
1769249445468,120,-8,-9.738352369531464,-9.908608170100656,-8.367777204872255
1769249445472,120,-8,-8.829267557516992,-9.346014365234751,-7.492089089869219
1769249445476,120,-8,-8.193599244640538,-9.864756577249215,-6.889457683243822
1769249445480,120,-8,-7.730030108399254,-9.323290615957784,-6.447056199650516
1769249445484,122,-6,-7.343541576721059,-7.844125736048168,-6.071520666168776
1769249445488,122,-6,-6.991041668725231,-7.520380288826729,-5.729827373081796
1769249445492,122,-6,-6.61667307654554,-7.798105276718934,-5.372991327740044
1769249445496,122,-6,-6.115236915578771,-7.5681455699572036,-4.89412896236081
1769249445500,123,-5,-5.410863335330459,-6.63814731010335,-4.211772357283003
1769249445504,124,-4,-4.55448600107591,-5.672990573311821,-3.374340019649325
1769249445508,125,-3,-3.700288012008466,-4.757171128578539,-2.5380551150468125
1769249445512,126,-2,-2.9657120920243423,-3.697771306975938,-1.822975573096724
1769249445516,126,-2,-2.3214321406805483,-3.751259694645629,-1.1993268753337571
1769249445520,126,-2,-1.6278693363129446,-3.5558401160382846,-0.5250795139232616
1769249445524,128,0,-0.7689024775879119,-1.838454042840031,0.3164419186736918
1769249445528,129,1,0.2701632035619177,-0.6996726129814368,1.337454702384597
1769249445532,130,2,1.4470727197597777,0.147292742688831,2.4934885698648284
1769249445536,131,3,2.739669471220399,1.3047788986644062,3.763452463290455
1769249445540,132,4,4.148029368164697,2.294547832014553,5.150298605119851
1769249445544,134,6,5.641456689435042,4.199164890041162,6.624301932757589
1769249445548,136,8,7.151563074690284,6.191612953838002,8.115359241266864
1769249445552,137,9,8.639499099587976,7.123878233062907,9.583046865025606
1769249445556,138,10,10.152391511716418,8.268201089769358,11.075043396444018
1769249445560,140,12,11.79335267781305,10.194981982290484,12.69564851867481
1769249445564,142,14,13.637793022124622,12.216191997464533,14.52000977646486
1769249445568,144,16,15.679423092216052,14.0794671961153,16.540733781040437
1769249445572,146,18,17.833923498629346,16.13622216880861,18.67347040216239
1769249445576,148,20,19.968801717975634,18.17581405748491,20.786795731025535
1769249445580,150,22,21.93334528750329,20.14718286395258,22.730492727975225
1769249445584,152,24,23.586513650380834,22.19444745865243,24.362875218936253
1769249445588,153,25,24.812744687481047,22.979769438492916,25.567828897510488
1769249445592,153,25,25.50819638696972,23.169158494514324,26.24179725743412
1769249445596,154,26,25.554671671006176,24.01886527521831,26.266847181344403
1769249445600,153,25,24.829451839590647,23.210443943893747,25.51989117788597
1769249445604,151,23,23.262239964789806,21.01079198010209,23.93038659851824
1769249445608,149,21,20.890022789587224,19.09999651769007,21.535815381076944
1769249445612,146,18,17.863401438168626,15.928819752421187,18.487466412965674
1769249445616,142,14,14.409431533692436,12.173265241213585,15.01252361513309
1769249445620,139,11,10.784823668738191,8.938062782060486,11.367202671071954
1769249445624,135,7,7.241724386945178,5.199791143689959,7.802974539476609
1769249445628,132,4,4.003627316798301,1.807257694707686,4.542913603055032
1769249445632,129,1,1.238636284141534,-0.8459970844425708,1.7551022514034056
1769249445636,127,-1,-0.9692650855229336,-3.187225430025652,-0.4761401598518229
1769249445640,125,-3,-2.6320503245593843,-4.7836666098410845,-2.162164835867691
1769249445644,124,-4,-3.834625070393491,-6.179325095229183,-3.3872728606938516
1769249445648,123,-5,-4.678915830056687,-6.925149189009472,-4.253276491842964
1769249445652,123,-5,-5.223602585699961,-7.161595636196719,-4.819246229329072
1769249445656,122,-6,-5.4645708122513525,-8.048817216469391,-5.081523613359799
1769249445660,122,-6,-5.379989445994516,-7.953724801160427,-5.018749283706149
1769249445664,123,-5,-5.004538106045464,-7.176640720347763,-4.666310035569111
1769249445668,123,-5,-4.461485021367253,-6.961701094922985,-4.147782113782686
1769249445672,124,-4,-3.919513556414224,-6.256568804177016,-3.630674846610452
1769249445676,124,-4,-3.5088704526631966,-6.041754622395476,-3.2430816462267793
1769249445680,124,-4,-3.252912455536497,-6.077465181939731,-3.007537171229964
1769249445684,125,-3,-3.047401938928499,-5.167185091615034,-2.8215688734628763
1769249445688,125,-3,-2.703528259320845,-5.02383086149032,-2.4988740293991913
1769249445692,125,-3,-2.061627101677567,-5.334925614249669,-1.880446744910596
1769249445696,126,-2,-1.129993761772632,-4.0140266688183495,-0.9734905202350824
1769249445700,128,0,-0.1362696531284459,-2.2669968719557456,-0.0046129511424085
1769249445704,128,0,0.582415986719315,-2.046289950820092,0.6896985930225727
1769249445708,128,0,0.7769764502242402,-2.233427121057565,0.8612838652120087
1769249445712,128,0,0.4140992485342702,-2.2433289542901917,0.4773437561841704
1769249445716,127,-1,-0.3477719663425693,-3.185350585318294,-0.3047893696001559
1769249445720,126,-2,-1.2889491586602628,-4.259247066818886,-1.2674716864161186
1769249445724,125,-3,-2.264417165762512,-5.084455583745746,-2.266623898781656
1769249445728,124,-4,-3.263291030278239,-6.329051782652642,-3.2903662653358365
1769249445732,123,-5,-4.363619515061133,-7.205590163479171,-4.415007020292728
1769249445736,122,-6,-5.62021033635035,-8.358189798946453,-5.694487283676458
1769249445740,120,-8,-6.971473121793833,-10.20283646161048,-7.067661054825054
1769249445744,119,-9,-8.241229430213265,-11.21882629818325,-8.359261673780543
1769249445748,118,-10,-9.239448400166502,-12.285113872970202,-9.379587533652249
1769249445752,117,-11,-9.886671169356656,-13.355102917763936,-10.048898523309235
1769249445756,117,-11,-10.263946510904054,-13.287703659100677,-10.448455784132866
1769249445760,117,-11,-10.544144674897648,-13.442574694661175,-10.752399177509616
1769249445764,116,-12,-10.858710997594414,-13.999787067489116,-11.093074259399003
1769249445768,116,-12,-11.213322942082476,-14.666802437166538,-11.474610721450048
1769249445772,115,-13,-11.516043446479786,-15.002897913643125,-11.80112643784186
1769249445776,116,-12,-11.66841816330358,-14.814638045486593,-11.970776459255916
1769249445780,115,-13,-11.624118507284534,-14.9848341838767,-11.9382679580579
1769249445784,116,-12,-11.388521571991332,-14.558326090666318,-11.716027204087498
1769249445788,116,-12,-11.020467826883989,-14.205825333126448,-11.372539282112246
1769249445792,116,-12,-10.688442654981095,-14.529956141981682,-11.080551035987073
1769249445796,116,-12,-10.718242272445972,-14.473171330937005,-11.157936806850502
1769249445800,115,-13,-11.462659661789212,-15.346016791020624,-11.939559034065368
1769249445804,114,-14,-12.886036338077329,-16.393070422458084,-13.374588923529664
1769249445808,114,-14,-14.041912202102711,-16.341856398100447,-14.518232490326252
1769249445812,115,-13,-12.94746397927717,-15.597988009859616,-13.408071318856775
1769249445816,119,-9,-7.3549758575100785,-11.4370357187147,-7.821484989495628
1769249445820,129,1,3.651690173526165,-1.5253428421122843,3.146391209313657
1769249445824,143,15,18.171609651710295,12.729894875184858,17.60426012624852
1769249445828,158,30,31.42975723582956,27.474908085856864,30.7988655229177
1769249445832,167,39,37.74970457292926,36.43766592545155,37.07341531458856
1769249445836,163,35,33.64099808020537,32.40903894844166,32.94704534441595
1769249445840,146,18,19.98096509081697,15.386473721357476,19.295528013245956
1769249445844,126,-2,1.6939932707822003,-4.27076935683276,1.0304638925506766
1769249445848,111,-17,-14.895796579266566,-19.620080585724057,-15.545614181124396
1769249445852,101,-27,-25.226497001006045,-29.45651978836285,-25.890547795783643
1769249445856,99,-29,-28.209638758715617,-31.6893795916777,-28.919816718222258
1769249445860,102,-26,-25.779551380270615,-28.64187731355499,-26.552074571444415
1769249445864,106,-22,-21.05180581166899,-24.359946136832896,-21.87847793939481
1769249445868,110,-18,-16.510758222457525,-20.730890377251907,-17.36633405684342
1769249445872,112,-16,-13.231301113859464,-18.39369037826816,-14.090372820678342
1769249445876,115,-13,-11.179379961793892,-15.868578481754566,-12.031497845844571
1769249445880,117,-11,-9.92339819251199,-13.539217650860593,-10.777290283955535
1769249445884,118,-10,-9.095075482910694,-12.608032802417508,-9.969708931028268
1769249445888,118,-10,-8.45495540675898,-12.609218630102063,-9.364465696154015
1769249445892,118,-10,-7.829230341848,-12.568416515197628,-8.773814191455838
1769249445896,119,-9,-7.138670193357357,-11.801026199153698,-8.108230575467967
1769249445900,120,-8,-6.457357635528043,-10.676789967093608,-7.44282009274902
1769249445904,121,-7,-5.94070343431664,-9.612113635175705,-6.941335188470863
1769249445908,121,-7,-5.644787605062847,-9.717381088056024,-6.665417935545132
1769249445912,120,-8,-5.435990669765012,-10.533855044384278,-6.47945131094592
1769249445916,121,-7,-5.102228806247531,-9.951148956832608,-6.166564491832114
1769249445920,122,-6,-4.535206059089359,-8.594033808830217,-5.617764949303288
1769249445924,123,-5,-3.780136949271254,-7.843034488276952,-4.881788293503904
1769249445928,123,-5,-2.9318205658006287,-7.557549511477816,-4.055662578321041
1769249445932,124,-4,-2.0344968211610235,-6.8092284621734205,-3.1815036775383234
1769249445936,125,-3,-1.095846522717352,-5.763361458610484,-2.263415173648446
1769249445940,126,-2,-0.1549975322731676,-4.893928978921301,-1.3399665770548637
1769249445944,127,-1,0.7156335750552727,-3.6470458732966,-0.4866248703132139
1769249445948,128,0,1.4905304579258618,-2.848027203682569,0.2681094534796713
1769249445952,128,0,2.2487657829283076,-2.6243672000787392,1.0039631040746246
1769249445956,129,1,3.121064448760091,-2.0374731617949022,1.855163063087624
1769249445960,130,2,4.177615861151541,-0.7506284099310072,2.893928236352392
1769249445964,132,4,5.395459351739074,1.1377952296710028,4.0954022949688245
1769249445968,133,5,6.750063808277771,2.24506671428945,5.431805676536482
1769249445972,134,6,8.3068265276313,3.2178648474406835,6.968003437910513
1769249445976,136,8,10.17269735566687,4.981981348109157,8.813295202490435
1769249445980,138,10,12.343416266967688,7.135237295423639,10.965138847251142
1769249445984,141,13,14.62655276138619,10.13915604622496,13.23017719433527
1769249445988,143,15,16.74495006911571,12.174947365021993,15.329716687974882
1769249445992,144,16,18.521422492636113,13.180094841816503,17.087043658811634
1769249445996,146,18,19.96182946457227,14.906935143780718,18.509728711658287
1769249446000,147,19,21.17356395134717,16.082769795035347,19.705339305594173
1769249446004,148,20,22.217063573044648,17.093926258712862,20.732404344796148
1769249446008,149,21,23.01859472746601,18.15420287077027,21.515585074104383
1769249446012,149,21,23.388205058538052,18.107273073093037,21.865536222417735
1769249446016,149,21,23.10612660172777,17.843445567618545,21.564314317703584
1769249446020,148,20,22.0219403555324,17.04440381134057,20.46232500881445
1769249446024,146,18,20.12267135349815,14.998375386322692,18.546036899529845
1769249446028,143,15,17.537548438615882,12.216398702072343,15.944204263124137
1769249446032,140,12,14.477365163231369,8.924947586728436,12.867880626224796
1769249446036,137,9,11.15908440754771,5.912408373084682,9.534005029022689
1769249446040,134,6,7.779508288288095,2.8588044297800783,6.138483724269095
1769249446044,130,2,4.537802561061991,-0.9251834604957848,2.8797617067713386
1769249446048,127,-1,1.6410188741731444,-3.9046799672636063,-0.0346581247630495
1769249446052,125,-3,-0.7471357236545955,-6.072034639227814,-2.4400320625440144
1769249446056,123,-5,-2.569632560847719,-8.195584782094281,-4.278887129031409
1769249446060,122,-6,-3.8777035426596385,-9.17879719007409,-5.6027456020493736
1769249446064,121,-7,-4.758748173994012,-9.939798834117632,-6.499237254414918
1769249446068,120,-8,-5.257035658092629,-11.015224093976446,-7.012481942710713
1769249446072,120,-8,-5.360868570100783,-10.995784296404178,-7.130986266591645
1769249446076,121,-7,-5.06078255693474,-10.475937691045178,-6.846241336637787
1769249446080,121,-7,-4.418893081140094,-9.944389439283238,-6.220884813026831
1769249446084,122,-6,-3.591667007542148,-9.327017664502222,-5.410277500951795
1769249446088,122,-6,-2.787220752618978,-8.6449603235138,-4.620923248186683
1769249446092,124,-4,-2.169579588527072,-7.511549131603304,-4.01693739760832
1769249446096,124,-4,-1.7593438852831318,-7.072587212328436,-3.6205750967895582
1769249446100,124,-4,-1.4162779255411837,-7.458052180764282,-3.29232579549223
1769249446104,124,-4,-0.9512790185519812,-6.940950236144347,-2.8417863213782253
1769249446108,125,-3,-0.2924576888965822,-6.030543683956383,-2.195743693241877
1769249446112,126,-2,0.444503953195122,-5.324581992679354,-1.4707787353262465
1769249446116,127,-1,1.0454933079170108,-4.2813594696293205,-0.8834399952737149
1769249446120,127,-1,1.3458450129024857,-4.448485176269456,-0.5994346385294823
1769249446124,126,-2,1.2815501340898985,-5.005877358706714,-0.6807734731009747
1769249446128,126,-2,0.8109538780904051,-5.037469507001879,-1.1659084076130009
1769249446132,125,-3,-0.1623851708041126,-6.4675872721223495,-2.1503804885367632
1769249446136,124,-4,-1.7238202060522134,-7.192852587147029,-3.7219750824554385
1769249446140,123,-5,-3.7711929915502704,-8.703205473419116,-5.781237261502593
1769249446144,118,-10,-5.93254552430998,-12.820237450786852,-7.955833221025209
1769249446148,117,-11,-7.727560252240643,-14.303689647945417,-9.763068721046306
1769249446152,117,-11,-8.86370953581887,-14.334914349988308,-10.909884648524772
1769249446156,116,-12,-9.399079213592248,-15.38301072064412,-11.456511176957669
1769249446160,116,-12,-9.641740921510907,-15.677199240519345,-11.712944581843566
1769249446164,115,-13,-9.906968121331456,-15.868451918652957,-11.994055291218116
1769249446168,115,-13,-10.337366168528376,-16.430675211833055,-12.440289980454706
1769249446172,114,-14,-10.88244907345355,-17.270306646566976,-12.99847519410486
1769249446176,114,-14,-11.390926891029531,-17.56804914783987,-13.514936960608006
1769249446180,114,-14,-11.71083989942688,-17.618520119465032,-13.837105617110431
1769249446184,113,-15,-11.739454377560593,-17.946933272880536,-13.86567205023302
1769249446188,114,-14,-11.449778405520345,-17.551593333115434,-13.581685869295743
1769249446192,114,-14,-10.944228880455976,-17.154464047115866,-13.095838198289616
1769249446196,115,-13,-10.51670068345882,-16.888490623460868,-12.701979261922604
1769249446200,114,-14,-10.607929484366991,-17.328877310761534,-12.827464449893885
1769249446204,113,-15,-11.52030042831132,-18.355731638307,-13.754809831926252
1769249446208,113,-15,-12.90657588335682,-18.272592049022222,-15.12680696354907
1769249446212,113,-15,-13.352555964559317,-18.47155722267214,-15.540782175481215
1769249446216,115,-13,-10.60216525183469,-16.780839283167317,-12.767781265941927
1769249446220,122,-6,-2.7516634881850965,-9.399346894849046,-4.926474755158986
1769249446224,133,5,10.021971640175884,1.5273152090176367,7.805547376209461
1769249446228,147,19,24.42064475743652,15.825194049511968,22.15003454929414
1769249446232,162,34,34.87643996956268,30.299995576673258,32.56308952994141
1769249446236,165,37,36.309089926415226,33.302765957805924,33.978814298223
1769249446240,153,25,27.177975972090312,21.395220980622568,24.858853280243583
1769249446244,134,6,10.639281039529532,2.525552338129982,8.351341551597509
1769249446248,116,-12,-7.131659482191154,-15.272089728810274,-9.386045090945837
1769249446252,104,-24,-20.29394978201925,-27.6795467850334,-22.534074197357985
1769249446256,99,-29,-26.095019541441214,-32.668247075864734,-28.352781924522724
1769249446260,101,-27,-25.433655116092343,-30.660477553863856,-27.734496639605844
1769249446264,105,-23,-21.3396416093461,-26.546591747189964,-23.687121742672968
1769249446268,108,-20,-16.786335735878133,-23.406806863596337,-19.16148473873661
1769249446272,111,-17,-13.33304988015802,-20.6920857935771,-15.707983406331923
1769249446276,113,-15,-11.13340762046475,-18.730290212138087,-13.48910391060079
1769249446280,115,-13,-9.753971620165265,-16.626786650223487,-12.09048886368126
1769249446284,117,-11,-8.874115296066353,-14.71737529280316,-11.20736381057113
1769249446288,117,-11,-8.399421765171898,-14.368126887954473,-10.74779732043727
1769249446292,117,-11,-8.215923262025932,-14.900789186352336,-10.587020208732849
1769249446296,116,-12,-8.065729700827898,-15.536014799912664,-10.453038057857604
1769249446300,117,-11,-7.713401144901231,-14.918910146138789,-10.104606524008515
1769249446304,118,-10,-7.1550692198096915,-13.48588130390854,-9.543568781782158
1769249446308,119,-9,-6.581617824727832,-12.783431775403148,-8.970557686577365
1769249446312,119,-9,-6.130147047722608,-12.591119547103384,-8.526416538432649
1769249446316,119,-9,-5.716751845783306,-12.923469339827362,-8.122634128964586
1769249446320,119,-9,-5.13488596370001,-12.605229709105112,-7.546524584598256
1769249446324,121,-7,-4.286183525347218,-10.893780144297388,-6.699404509269965
1769249446328,122,-6,-3.275750740533002,-9.52423698108039,-5.691282038763791
1769249446332,123,-5,-2.291581354374932,-8.959146577696893,-4.713376439721182
1769249446336,123,-5,-1.4378621591874072,-8.630578946236131,-3.8674790487903783
1769249446340,124,-4,-0.7000815118541288,-7.979286400456759,-3.134695114513755
1769249446344,125,-3,-0.0229276316382547,-6.6415064536185024,-2.459001273528177
1769249446348,126,-2,0.6359887877533232,-5.883652000009986,-1.801235236716129
1769249446352,126,-2,1.327321065846906,-5.744266425266996,-1.113366270692583
1769249446356,127,-1,2.1320464479819172,-4.867484336320189,-0.3135928176597375
1769249446360,128,0,3.1235841560001365,-3.8903348357554144,0.6738623677761981
1769249446364,129,1,4.311437645249066,-2.785587191769958,1.8591484733142032
1769249446368,131,3,5.641458671753593,-0.9170959807107956,3.186748527433827
1769249446372,132,4,7.054547744641285,0.234738653340615,4.596580515431481
1769249446376,133,5,8.532460526447531,1.0353933417525036,6.071197041539555
1769249446380,135,7,10.08421065761066,3.141535799025296,7.620760661306466
1769249446384,137,9,11.70814155186381,5.053591973685336,9.243341166453892
1769249446388,138,10,13.384631241586913,6.119489266307495,10.918150940979393
1769249446392,140,12,15.095938451569474,8.116848951501064,12.627159824068723
1769249446396,142,14,16.829412894856976,10.05279517604324,14.358742777468253
1769249446400,143,15,18.54679450072848,11.04127849723022,16.07556221449699
1769249446404,145,17,20.149397552558607,13.032867152736571,17.67821023119789
1769249446408,147,19,21.479079896443587,15.020817414975928,19.006702619448927
1769249446412,147,19,22.353256995747856,15.12394408663947,19.877904940563457
1769249446416,147,19,22.592880533374142,14.950894137830192,20.114496376024544
1769249446420,147,19,22.03472141096264,15.061252885802617,19.55512480500837
1769249446424,146,18,20.574714983899636,13.869777385094109,18.09565241638354
1769249446428,143,15,18.25405228720379,11.092945206333436,15.776028237107033
1769249446432,140,12,15.309970807239102,7.942948634863369,12.832831865730196
1769249446436,137,9,12.11509298311775,5.049917228408816,9.638703446288556
1769249446440,134,6,9.033056388630612,1.871884377520256,6.557182040323028
1769249446444,131,3,6.292349168417058,-1.072779031944311,3.8165113217953888
1769249446448,129,1,3.955567008034886,-3.0400883151150446,1.479352801462279
1769249446452,127,-1,1.983767097284572,-5.046878305481214,-0.4927723737555772
1769249446456,125,-3,0.3314447883989135,-7.026083186522972,-2.144834705057666
1769249446460,124,-4,-1.0019147583776715,-8.167862502229204,-3.4771377750133317
1769249446464,123,-5,-1.9889908647459136,-9.149850414889617,-4.462570678023276
1769249446468,122,-6,-2.6248128719977104,-10.055237504272943,-5.0965382461584845
1769249446472,122,-6,-2.9536635047527673,-10.149070546734412,-5.423597023965995
1769249446476,122,-6,-3.045975067927955,-9.98064405977638,-5.514221389424734
1769249446480,122,-6,-2.950509627870189,-10.349287982748375,-5.416967896283658
1769249446484,122,-6,-2.6737236905421367,-10.062288901111147,-5.138125918428816
1769249446488,123,-5,-2.2086900812705523,-9.256153920976338,-4.670987025941326
1769249446492,123,-5,-1.5833539295746353,-9.055457358998982,-4.04384037235174
1769249446496,124,-4,-0.8810981031459315,-8.132002856509263,-3.3398983508284403
1769249446500,125,-3,-0.2134230258858662,-7.332575088475266,-2.669963510174857
1769249446504,125,-3,0.3376027681948743,-7.170771129029282,-2.11564032349757
1769249446508,126,-2,0.7651845767662089,-6.273965570370754,-1.6840394003699402
1769249446512,126,-2,1.131243511729279,-6.122330326331943,-1.313965961104113
1769249446516,126,-2,1.4987942021225438,-6.154561866499961,-0.9428625275717084
1769249446520,127,-1,1.8460840822930344,-5.41132790866982,-0.5926107267523579
1769249446524,127,-1,2.0358201905702025,-5.2047047930507855,-0.4005535373445377
1769249446528,127,-1,1.877972141770612,-5.355719322098894,-0.5564416210383356
1769249446532,126,-2,1.2447659327096614,-6.124399189193322,-1.1870973159305829
1769249446536,125,-3,0.1532178563722226,-7.245987902642729,-2.274344859911114
1769249446540,124,-4,-1.2367684274482054,-8.434547890060156,-3.657948036960049
1769249446544,122,-6,-2.6963820907585943,-10.269354691474367,-5.110237354394203
1769249446548,121,-7,-4.021924727476215,-11.438495879761485,-6.429724078668642
1769249446552,120,-8,-5.0997748089228185,-12.074959075603628,-7.504415428248813
1769249446556,119,-9,-5.927295485526287,-13.434767456887773,-8.330846621714173
1769249446560,118,-10,-6.6021691064702095,-14.313280869997335,-9.00360557090687
1769249446564,118,-10,-7.280945471264387,-14.520789240357344,-9.67675957392126
1769249446568,117,-11,-8.093340256874692,-15.306034767583933,-10.480765873043918
1769249446572,116,-12,-9.041468672141328,-16.267606654483703,-11.42099307343295
1769249446576,115,-13,-9.971453102984835,-17.363846939654657,-12.346134149831071
1769249446580,114,-14,-10.672871791554206,-18.458348756074052,-13.04533022711049
1769249446584,114,-14,-11.038525805811508,-18.525720958639074,-13.408311848923962
1769249446588,114,-14,-11.138036818638602,-18.369309909073852,-13.50123834888666
1769249446592,114,-14,-11.131707636218309,-18.325364863945875,-13.483114852019588
1769249446596,114,-14,-11.11463288820149,-18.345414043219133,-13.451749404793924
1769249446600,114,-14,-11.061778086523,-18.641830481117207,-13.388596829502513
1769249446604,114,-14,-10.947971417888972,-18.42081625068603,-13.27485774238666
1769249446608,114,-14,-10.926101750828996,-18.60874400770568,-13.263357928949691
1769249446612,113,-15,-11.33471806930822,-19.155089309674945,-13.68293578358735
