timestamp_ms,ecg_u8_raw,ecg_counts_raw_int,ecg_counts_filt_monitor,ecg_counts_filt_diagnostic,ecg_counts_filt_st
1768725702100,126,-2,-1.2947935834631434,-0.7138099795419468,-0.961236631711597
1768725702104,126,-2,-1.7270738347689008,-0.8280208216522813,-1.3920042267883548
1768725702108,126,-2,-1.877381685489103,-0.8605621286211662,-1.5417824979286097
1768725702112,126,-2,-1.8188235664531025,-0.8957451171772761,-1.483807735628507
1768725702116,126,-2,-1.7082654900092595,-0.7012095940221947,-1.3740446544986735
1768725702120,126,-2,-1.6651878465763623,-0.7401597774590403,-1.3305977455252973
1768725702124,126,-2,-1.7044830759179586,-0.7869213883942001,-1.3678199040114885
1768725702128,126,-2,-1.757593692406206,-0.8946361140116645,-1.418060752919601
1768725702132,126,-2,-1.7508532428390435,-0.8544843760774605,-1.40930957431719
1768725702136,126,-2,-1.6784520057609162,-0.6913741869637471,-1.3368171229937271
1768725702140,126,-2,-1.6209081300432338,-0.7896927074532547,-1.2807344755433714
1768725702144,126,-2,-1.6997470785599862,-0.6974756311426342,-1.3611180966074778
1768725702148,126,-2,-1.9971518481511867,-1.0142812934709615,-1.6586969217410306
1768725702152,125,-3,-2.488328837461743,-1.684705411056993,-2.1481978499649346
1768725702156,125,-3,-3.02922078179521,-1.8618417006604575,-2.6862289048916437
1768725702160,124,-4,-3.4148108559459582,-2.6069303437149496,-3.0691185956317493
1768725702164,124,-4,-3.482507202111346,-2.8841321263711084,-3.135676518406261
1768725702168,125,-3,-3.2024409553098385,-1.825420305221998,-2.8567303490494553
1768725702172,125,-3,-2.7016401936947,-1.8222453270346468,-2.358536124395429
1768725702176,125,-3,-2.2110027133329515,-1.7570475747094785,-1.8700674839722289
1768725702180,126,-2,-1.9601357245247928,-0.6391101206339838,-1.619505245859683
1768725702184,126,-2,-2.0612470095494375,-0.9448778733118104,-1.7191670826803804
1768725702188,125,-3,-2.44254393232472,-1.676221787575261,-2.098192792687873
1768725702192,125,-3,-2.8870498391215627,-2.0086113527224847,-2.5405492962377436
1768725702196,124,-4,-3.161066019577462,-2.5133180325834816,-2.813678789282887
1768725702200,125,-3,-3.136865958895564,-1.9049699131735247,-2.790855873586998
1768725702204,125,-3,-2.8266424206700815,-1.6630478284618917,-2.4836245385827
1768725702208,125,-3,-2.3310433601310354,-1.9551661731171297,-1.990086647690326
1768725702212,126,-2,-1.7572567506861163,-0.7079008558049531,-1.4154931225442993
1768725702216,127,-1,-1.1488250781964098,0.21202397259964,-0.8043817461547346
1768725702220,127,-1,-0.4599036310193432,0.3338685311599849,-0.1137014500388441
1768725702224,128,0,0.3899807586795787,1.1565269414389765,0.7354508434499076
1768725702228,129,1,1.3962257686392765,2.1682018790856987,1.739230861095807
1768725702232,130,2,2.3870542922876328,3.256753166808846,2.7275332004126907
1768725702236,131,3,3.0835034256248757,4.195864370713704,3.4224030057436616
1768725702240,131,3,3.285217545393976,4.414291081193943,3.62367471865822
1768725702244,131,3,3.0364820695335695,4.018763768715737,3.375674758393134
1768725702248,130,2,2.623663845348878,3.358608912406858,2.9647483554576826
1768725702252,130,2,2.391481528365518,3.044998410528892,2.7347542696807854
1768725702256,130,2,2.519060583055044,3.451231360186242,2.8628709485180424
1768725702260,131,3,2.9233867182047297,4.166827143787784,3.2645418381661258
1768725702264,131,3,3.3379243296619325,4.256426137514379,3.674077907924928
1768725702268,131,3,3.476788123169367,4.152597688112177,3.808643458704775
1768725702272,131,3,3.168359058966343,4.213485940818706,3.499221888787101
1768725702276,130,2,2.4101406201737436,3.351719389291172,2.7432165248418556
1768725702280,129,1,1.353936790738076,2.2131554982698245,1.6900281410352032
1768725702284,128,0,0.2379269841522896,1.2901441348403286,0.5753038704436468
1768725702288,127,-1,-0.7171878210979384,0.0481213404931852,-0.3812112010649775
1768725702292,126,-2,-1.4096671499792155,-0.6042457268944499,-1.0769900796704492
1768725702296,126,-2,-1.900305637595167,-0.8685521560771885,-1.5712118143662606
1768725702300,125,-3,-2.3631965977195346,-1.512359904342783,-2.036580151016803
1768725702304,125,-3,-2.96604403316772,-2.000897757202377,-2.6402928782115698
1768725702308,124,-4,-3.754242733022719,-2.65718750754713,-3.4282555340262713
1768725702312,123,-5,-4.615041089315865,-3.879343444966252,-4.288888387394596
1768725702316,122,-6,-5.343322101371177,-4.615924730574055,-5.018182320569821
1768725702320,122,-6,-5.757688947379751,-4.686664187970908,-5.434815310010822
1768725702324,122,-6,-5.786034918274784,-4.897736657239148,-5.465088391292223
1768725702328,122,-6,-5.477562996044286,-4.665534074585528,-5.155955666514913
1768725702332,123,-5,-4.957920518796788,-3.954046947979321,-4.6330077106344945
1768725702336,123,-5,-4.371997055361648,-3.4548883250313835,-4.045186901924481
1768725702340,124,-4,-3.8499865562568782,-2.8883477925440197,-3.528452468422108
1768725702344,124,-4,-3.500219537227818,-2.658558413989368,-3.192628674277656
1768725702348,124,-4,-3.383777391654175,-2.9087527775084654,-3.0920690034055576
1768725702352,124,-4,-3.3965026028391057,-2.724136342343603,-3.110943087775059
1768725702356,125,-3,-3.0466927115945195,-1.6383491534942198,-2.750065418351274
1768725702360,127,-1,-1.2915554554174804,0.2734076502208689,-0.9707863054877856
1768725702364,131,3,3.2598015004709,4.2370568068625145,3.603046256934552
1768725702368,139,11,11.589585301456705,12.170411589327877,11.937764703521992
1768725702372,150,22,23.21074690363827,23.232741163564413,23.540463972402847
1768725702376,162,34,35.50626976169741,35.404569544433706,35.802621557691715
1768725702380,172,44,44.19250910348959,45.26033225929774,44.457496922565134
1768725702384,174,46,45.02546130981217,47.22283656979931,45.275382571541265
1768725702388,165,37,35.95529836156573,38.14833055009292,36.21094905404389
1768725702392,146,18,18.412021828685408,19.201579239530197,18.689151482575753
1768725702396,123,-5,-3.1831231586604005,-3.572248231857962,-2.879204096488148
1768725702400,103,-25,-23.42715878595471,-23.70879777032542,-23.103046707100795
1768725702404,89,-39,-38.19546584082661,-37.73266054902282,-37.86741841763859
1768725702408,83,-45,-45.8344252613242,-43.81642141048707,-45.521369068411026
1768725702412,82,-46,-46.88477059724106,-44.809764081627385,-46.59803435148729
1768725702416,84,-44,-42.98487210983486,-42.58036384905867,-42.72123429694767
1768725702420,91,-37,-35.9245760384981,-35.712982029074155,-35.66941825266251
1768725702424,100,-28,-27.307964037172447,-26.732466858342583,-27.046941810625484
1768725702428,109,-19,-18.595194779679396,-17.796694125333765,-18.324188595276176
1768725702432,117,-11,-11.081488464792905,-9.81517642861662,-10.806481868820043
1768725702436,122,-6,-5.660175426239523,-4.603181665544076,-5.389041348345119
1768725702440,125,-3,-2.568582403855571,-1.7230775000736551,-2.3036374827730093
1768725702444,126,-2,-1.3810487175920572,-0.710331880948051,-1.1185962430099108
1768725702448,126,-2,-1.3026085839550072,-0.8024899674774608,-1.038272599721528
1768725702452,126,-2,-1.5739053600028194,-0.753008348094582,-1.30783818027027
1768725702456,126,-2,-1.7389112587785067,-0.6810832335171042,-1.4759584526431149
1768725702460,126,-2,-1.671322030779541,-0.6404892487209908,-1.41625006202751
1768725702464,126,-2,-1.4422415376001485,-0.8012977479067536,-1.1949894721518484
1768725702468,126,-2,-1.1717652356194428,-0.6701096487111071,-0.9278108017465082
1768725702472,127,-1,-0.9341114032949376,0.1253282364451248,-0.6895229051615664
1768725702476,127,-1,-0.7152979444201661,0.4518978959685531,-0.4706075523204795
1768725702480,127,-1,-0.4298185283008724,0.2054861228370539,-0.1884233724994738
1768725702484,127,-1,-0.0069133883190515,0.352679679435987,0.2293958621025396
1768725702488,128,0,0.514678256538956,1.219302551642683,0.7473635222866356
1768725702492,129,1,0.9961174510719184,2.2200208423019907,1.2274183855706169
1768725702496,129,1,1.3323596407500058,2.4233010513019484,1.562536078425882
1768725702500,129,1,1.5741724531377113,2.148350687833533,1.8015853988156725
1768725702504,129,1,1.8871879751154332,2.480904177652002,2.1102689383177013
1768725702508,130,2,2.366672042292378,3.043950614085788,2.585223928972904
1768725702512,130,2,2.892190429262387,3.4664604687242835,3.106994378599039
1768725702516,131,3,3.185125342179448,4.178966430605377,3.396722972526657
1768725702520,131,3,3.0429004141937304,4.362583288421674,3.2511692905062777
1768725702524,130,2,2.5440825418144684,3.302373928541653,2.7492124058980227
1768725702528,129,1,2.0245978745719335,2.167326852705441,2.227854382470851
1768725702532,129,1,1.833563706185395,2.4425959761265976,2.0359939114347285
1768725702536,130,2,2.0883769755835857,3.1537689440663392,2.288694681439005
1768725702540,130,2,2.636883987998037,3.4427725221238115,2.8317467603066633
1768725702544,131,3,3.222018791219787,4.184669218291664,3.409175882126786
1768725702548,131,3,3.6730470228579577,4.304134736759432,3.853950108099159
1768725702552,131,3,3.97516611538203,4.315013787899399,4.153923194237756
1768725702556,132,4,4.2153418049286975,5.293010480508273,4.394969743254977
1768725702560,132,4,4.493104771257129,5.317944923076093,4.672884859048295
1768725702564,132,4,4.859309666232449,5.296600045356333,5.035549890832979
1768725702568,133,5,5.286476016837826,6.21276199269543,5.4555422472096815
1768725702572,133,5,5.66330452975512,6.404895521198618,5.824321658255667
1768725702576,133,5,5.825948059825542,6.222829630435171,5.981270723625138
1768725702580,133,5,5.639565464126265,6.396540943353722,5.792646105920318
1768725702584,133,5,5.10939192993907,6.212583828712961,5.2618892536617965
1768725702588,132,4,4.445064798408689,5.297933703687173,4.596067164710516
1768725702592,131,3,3.987304847120953,4.342649827317149,4.135069574974806
1768725702596,131,3,4.001413254043841,4.283331079008992,4.144905738069799
1768725702600,132,4,4.48656057427271,5.359478372874351,4.625075669156393
1768725702604,133,5,5.168653003318182,6.250671500102726,5.301174366511265
1768725702608,133,5,5.684805487288766,6.25670545734304,5.810854803043354
1768725702612,133,5,5.800688029411845,6.416162110412091,5.921409890274784
1768725702616,133,5,5.503772502865151,6.175539249195957,5.621255502632146
1768725702620,132,4,4.949301984413892,5.503284037530642,5.064755353814258
1768725702624,132,4,4.343086165569589,5.09261277240531,4.456071563467079
1768725702628,131,3,3.851335699513948,4.439379213369586,3.9606471161564216
1768725702632,131,3,3.573521476193891,4.251355157842822,3.6782808087690406
1768725702636,131,3,3.560360980694272,4.316766082255979,3.660151543070726
1768725702640,131,3,3.833895024232045,4.408643958449398,3.928412551809099
1768725702644,132,4,4.376250141573038,5.138255565885205,4.46544106809377
1768725702648,132,4,5.092930143827913,5.476261262632881,5.17732092300792
1768725702652,133,5,5.800026658016658,6.15122605020628,5.880202824383858
1768725702656,134,6,6.284557321341884,7.474676244003224,6.36022178961802
1768725702660,134,6,6.4172384115320815,7.224414473560064,6.487580636602965
1768725702664,133,5,6.221151637339257,6.318344659581566,6.286398575341658
1768725702668,133,5,5.827512047043089,6.36084206448597,5.889185144550309
1768725702672,133,5,5.367978956901295,6.1816265178790655,5.427037708812289
1768725702676,132,4,4.909380130953248,5.557541117686879,4.9647355118342045
1768725702680,132,4,4.464200397993645,5.047543442356799,4.513633976283353
1768725702684,131,3,4.02334256039663,4.591280362376674,4.065630234376414
1768725702688,131,3,3.563731230224745,4.032746300597193,3.5995714346776646
1768725702692,130,2,3.044295999218148,3.534757553940155,3.075387445359217
1768725702696,130,2,2.4275267964287695,3.230353513731239,2.455073244545876
1768725702700,129,1,1.7256936679983956,2.331914316827155,1.7497447788644274
1768725702704,128,0,1.0247066895817318,1.396315630637086,1.044488603701132
1768725702708,128,0,0.4463358664462997,1.1298504273474177,0.4608609628155135
1768725702712,127,-1,0.0670672192188601,0.5435233404328905,0.075586522433371
1768725702716,127,-1,-0.1422889167654877,0.1402581743582565,-0.1400228327841557
1768725702720,127,-1,-0.3015438507349723,0.5044163431577181,-0.3052150393539529
1768725702724,127,-1,-0.5338276817206256,0.1967123579793719,-0.5426678304930614
1768725702728,126,-2,-0.8721620126340659,-0.6792292573078129,-0.8853040791350122
1768725702732,126,-2,-1.235347188290332,-0.6028134498552653,-1.2524939198093847
1768725702736,126,-2,-1.490536133866997,-0.7751963791039664,-1.5123767790547238
1768725702740,125,-3,-1.552680894868579,-1.4830373283271987,-1.5803951588231842
1768725702744,126,-2,-1.44770241921232,-0.8876205980186229,-1.4820318072483665
1768725702748,126,-2,-1.2901729675583995,-0.5184626509292551,-1.330994340159777
1768725702752,126,-2,-1.1878979064991526,-0.8284533153734812,-1.2343632646254885
1768725702756,126,-2,-1.150997321488279,-0.4994096848204565,-1.2019491809712957
1768725702760,126,-2,-1.085701674328028,-0.7566239018570668,-1.1404362253598903
1768725702764,126,-2,-0.87888640827599,-0.6378883752823612,-0.9379850955496518
1768725702768,127,-1,-0.5017260242478956,0.3047706921937284,-0.5669556224818915
1768725702772,127,-1,-0.0525424260857134,0.2529377067778355,-0.1254299266697962
1768725702776,127,-1,0.2875105028055291,0.5372846256923444,0.2070989993643215
1768725702780,128,0,0.3561939899381474,1.1140488860441429,0.2698551027178197
1768725702784,127,-1,0.1109166810106861,0.5785490193679053,0.0202160770192399
1768725702788,127,-1,-0.3360420107394271,0.02707382050063,-0.4306856929262501
1768725702792,126,-2,-0.7818398802947657,-0.4283137412376485,-0.8811412916640535
1768725702796,126,-2,-1.059301400325798,-0.7818382098316483,-1.1644511013630203
1768725702800,126,-2,-1.132939565928715,-0.577168107487736,-1.24485336857782
1768725702804,126,-2,-1.09615541144643,-0.663513107340886,-1.214993864219965
1768725702808,126,-2,-1.0809062156702092,-0.8180331091953177,-1.2062389076553477
1768725702812,126,-2,-1.1535704389642218,-0.4758471836595699,-1.2849730737664284
1768725702816,126,-2,-1.2740518632582578,-0.8379406051901515,-1.4112741234449184
1768725702820,125,-3,-1.345591109590946,-1.4191031465131396,-1.4881907219485246
1768725702824,126,-2,-1.3085167513794256,-0.8761348264170121,-1.455956173943557
1768725702828,126,-2,-1.189339685314994,-0.5692123618980944,-1.3417793380086087
1768725702832,126,-2,-1.062450936098012,-0.7289254304661341,-1.2210659460413522
1768725702836,126,-2,-0.9763132422487903,-0.5902490462834866,-1.1424431964904014
1768725702840,126,-2,-0.9281239070161844,-0.6346397899187215,-1.1020680529148488
1768725702844,126,-2,-0.906094044432713,-0.6896108812252415,-1.086738239081109
1768725702848,126,-2,-0.938655293314165,-0.7172156762446429,-1.1243466752077047
1768725702852,126,-2,-1.0818812444659818,-0.6045327624526813,-1.2718725267740687
1768725702856,126,-2,-1.3475356083082517,-0.6887848181870808,-1.5426152418843595
1768725702860,125,-3,-1.6529913527770896,-1.5329373196444578,-1.8546283311790588
1768725702864,125,-3,-1.8681370255425047,-1.8021671172326936,-2.0771636853259032
1768725702868,125,-3,-1.9322032839861765,-1.578284438900084,-2.148471560298749
1768725702872,125,-3,-1.9244419302768552,-1.761802700437232,-2.147472616171098
1768725702876,125,-3,-2.0049622040547375,-1.5021224234735522,-2.234480914349037
1768725702880,125,-3,-2.267870125220865,-1.7106380442432756,-2.503606758808453
1768725702884,124,-4,-2.639106683270452,-2.6518565975849473,-2.8804029619218445
1768725702888,124,-4,-2.9159850100737152,-2.6918403739803587,-3.162102866653033
1768725702892,124,-4,-2.918653418732337,-2.683737913916496,-3.1697171163250646
1768725702896,124,-4,-2.6278820332209087,-2.5284535476510124,-2.885331893967564
1768725702900,125,-3,-2.203514736607577,-1.6921360334871005,-2.4692890606656976
1768725702904,125,-3,-1.8808594421282705,-1.6651282956488898,-2.1558620719792776
1768725702908,125,-3,-1.8301030647062893,-1.6857953241490051,-2.113291509817265
1768725702912,125,-3,-2.072389568869329,-1.6927638699637917,-2.3613403025336943
1768725702916,124,-4,-2.487866855521098,-2.497586054252708,-2.7805205324356588
1768725702920,124,-4,-2.8855334493710982,-2.7248252826770507,-3.181877864432409
1768725702924,124,-4,-3.081288347075662,-2.6066095158130493,-3.383494816751328
1768725702928,124,-4,-2.954359041904218,-2.7805667053962813,-3.264898462274708
1768725702932,124,-4,-2.4833377325204715,-2.5555262108605477,-2.802728232552931
1768725702936,125,-3,-1.7574544930285678,-1.6608208443561274,-2.0841076384989004
1768725702940,126,-2,-0.9375544365404648,-0.5111514893933735,-1.269854972985939
1768725702944,127,-1,-0.1681651236403586,0.1397881030783991,-0.5062096264489775
1768725702948,127,-1,0.4955047943486836,0.5118770470599494,0.1504064718738037
1768725702952,128,0,1.077769601519167,1.105741448087222,0.7248598054945684
1768725702956,128,0,1.604348261533095,1.7304348263157614,1.2443148065686516
1768725702960,129,1,2.0450878990445913,2.0758059392215635,1.679274425387944
1768725702964,129,1,2.343853737600335,2.576329747127388,1.9728055144160557
1768725702968,130,2,2.5034108732835363,3.079055431602904,2.1264289259700178
1768725702972,129,1,2.6204284035794077,2.5032292113244963,2.23656266193904
1768725702976,129,1,2.804898380213801,2.3963995937349063,2.4138188074725258
1768725702980,130,2,3.04805481118455,3.3445113376323445,2.649495308624329
1768725702984,130,2,3.181216161801585,3.4095999526634664,2.774257288803131
1768725702988,130,2,2.9874615709308134,3.1418615084998365,2.5715238024115217
1768725702992,129,1,2.3738889381992245,2.5498349016802573,1.950471188304727
1768725702996,128,0,1.458873230183284,1.2399694796739862,1.0312034092405176
1768725703000,127,-1,0.5153570326560888,0.5951650537971218,0.0854562797413318
1768725703004,127,-1,-0.1770544534840032,0.1174723416831942,-0.610814963479543
1768725703008,126,-2,-0.4823770060435787,-0.5436926823777712,-0.924274188663471
1768725703012,126,-2,-0.4952932193617523,-0.7330527552810171,-0.9487637542381172
1768725703016,126,-2,-0.5197678920479647,-0.5448466010489033,-0.9849526425521172
1768725703020,126,-2,-0.9202655353530078,-0.5311093336455275,-1.394306296037909
1768725703024,125,-3,-1.9029275858028911,-1.8406535835026716,-2.3819037768607023
1768725703028,123,-5,-3.3645854230239505,-3.492742671602577,-3.8457294324853697
1768725703032,122,-6,-4.926114535873279,-4.856682305805937,-5.409707079825388
1768725703036,120,-8,-6.137455482383036,-6.383948254903881,-6.627234480783537
1768725703040,120,-8,-6.720456331100751,-6.696622266720047,-7.221167914764688
1768725703044,120,-8,-6.69862436797227,-6.660158993949936,-7.2117073219228685
1768725703048,120,-8,-6.342686220831058,-6.641457668526262,-6.8640407483957
1768725703052,121,-7,-5.972873067873037,-5.747420504901789,-6.495946690172579
1768725703056,121,-7,-5.747276882789316,-5.468456193172289,-6.2696013039312275
1768725703060,121,-7,-5.589868145661237,-5.644438337084414,-6.116886583065743
1768725703064,121,-7,-5.327461476931424,-5.66681186417972,-5.869349897367765
1768725703068,121,-7,-4.918096604062243,-5.6418927004239965,-5.481716110795848
1768725703072,122,-6,-4.50521938111058,-4.752845267158694,-5.087624637955818
1768725703076,123,-5,-4.122300612700288,-3.4558893209771497,-4.710719090267284
1768725703080,124,-4,-3.2171011516617263,-2.657798403777223,-3.7957012408696142
1768725703084,126,-2,-0.4767730792092628,-0.6393961026714883,-1.0367852343384094
1768725703088,132,4,5.643103786554303,5.358665485367761,5.095730707029595
1768725703092,142,14,15.786427608300098,15.20157652767536,15.232074464782729
1768725703096,154,26,28.620558455186018,27.664140175064023,28.037145225950898
1768725703100,167,39,40.639900173571554,40.17888796779041,40.01693371242856
1768725703104,174,46,47.266439579447216,47.585762450942944,46.6109768970812
1768725703108,173,45,44.873599336128684,46.03238712972768,44.20441115267225
1768725703112,160,32,32.65663380750108,33.507050459253755,31.993146169307316
1768725703116,139,11,13.1997362944031,12.29959691372436,12.554059184174244
1768725703120,116,-12,-8.654942661386968,-10.427966377504614,-9.281079724053525
1768725703124,98,-30,-27.91875963480946,-28.740309302149388,-28.534303538377664
1768725703128,86,-42,-41.24404482742904,-40.60118649485965,-41.86563757988076
1768725703132,80,-48,-47.50819194031179,-46.78459575903298,-48.15223555233911
1768725703136,79,-49,-47.3099195053607,-47.43043838660495,-47.98330333946014
1768725703140,84,-44,-42.137872087421165,-42.67653797383764,-42.83495613751754
1768725703144,92,-36,-33.823588356610216,-34.535772562234456,-34.5320983285824
1768725703148,102,-26,-24.322266301561775,-24.78207806336364,-25.032381639408857
1768725703152,111,-17,-15.512120998754051,-15.613201344931426,-16.221250653168752
1768725703156,118,-10,-8.816778723331158,-8.610679471324993,-9.527849534542936
1768725703160,122,-6,-4.799943226204711,-4.526626050142084,-5.516501599893335
1768725703164,123,-5,-3.0653778169795056,-3.7174618901498793,-3.7882095284384274
1768725703168,123,-5,-2.6229304454891342,-3.580985743830116,-3.350740096250876
1768725703172,124,-4,-2.508182988724385,-2.7984625891409056,-3.2409246280981088
1768725703176,124,-4,-2.2331275210870194,-2.385728735996268,-2.9738229546430213
1768725703180,125,-3,-1.8068645104344576,-1.7748410134134784,-2.55940682922477
1768725703184,125,-3,-1.4301907115685797,-1.4524873518650114,-2.1954037707289435
1768725703188,125,-3,-1.1863196734342467,-1.8766376303240728,-1.9608336194618745
1768725703192,125,-3,-0.9614249713328092,-1.4745300930346668,-1.740828237817628
1768725703196,126,-2,-0.5794465814662777,-0.6932189578819119,-1.362288925710674
1768725703200,126,-2,0.0247576820076382,-0.4907939495984492,-0.7636888925134608
1768725703204,127,-1,0.7437337853119148,0.2998146249037638,-0.0533234821169364
1768725703208,128,0,1.3744603806246536,1.3137796715080197,0.567696764617506
1768725703212,128,0,1.759086865146275,1.3978575127637118,0.9436958242629714
1768725703216,128,0,1.8805283136171955,1.3909812961843155,1.05810792296108
1768725703220,128,0,1.847120038702435,1.473490987222566,1.0182015362649637
1768725703224,128,0,1.7915224656913298,1.287363298288129,0.9554356030614516
1768725703228,128,0,1.7742617557543243,1.3479550459800276,0.930278017259038
1768725703232,128,0,1.7693635119594102,1.3746574936164797,0.9176690733582388
1768725703236,128,0,1.7363973832014916,1.4027535921008516,0.8777777918244373
1768725703240,128,0,1.7080309501847255,1.50458998831987,0.8427939260486741
1768725703244,128,0,1.801930870295191,1.1909134920508295,0.9294460635232606
1768725703248,128,0,2.1270301609918545,1.492019047370795,1.2463186061886828
1768725703252,129,1,2.6577297337975976,2.207504403429085,1.7682542895317832
1768725703256,129,1,3.2000528562074044,2.5939879600173614,2.301868190903274
1768725703260,130,2,3.5076656100896364,3.3309208783776314,2.6011306722461818
1768725703264,130,2,3.4695488959021823,3.3113820790101047,2.555368654720352
1768725703268,129,1,3.2102658892687668,2.421620178666408,2.28975373881976
1768725703272,129,1,3.0080105506516133,2.212990115141711,2.0824464220387338
1768725703276,129,1,3.097005581554815,2.6799701122920445,2.166032181357602
1768725703280,130,2,3.5181548824998625,3.177411878740586,2.579192688746459
1768725703284,130,2,4.119416165084656,3.5253287084139076,3.169499528630975
1768725703288,131,3,4.671782583353234,4.154335579903121,3.7102668265212686
1768725703292,131,3,5.000624509029501,4.502482720520469,4.029997165482686
1768725703296,131,3,5.06133466493341,4.395827323943907,4.085299103148909
1768725703300,131,3,4.9433446087522475,4.450310800461153,3.963843736240789
1768725703304,131,3,4.817132495179604,4.283031782620055,3.8328029302404194
1768725703308,131,3,4.84547728947615,4.343863213027285,3.852864361214525
1768725703312,131,3,5.086738105764368,4.370991649138427,4.083200932905949
1768725703316,131,3,5.43894044510237,4.476050168616876,4.424550226028392
1768725703320,132,4,5.6820104348878315,5.433681513148173,4.658899793286746
1768725703324,132,4,5.622264630632039,5.250633500979765,4.592607615395274
1768725703328,131,3,5.245405432532083,4.396880303969773,4.210092269595678
1768725703332,131,3,4.74776899144687,4.3031052687865365,3.706378536454973
1768725703336,130,2,4.405158378917736,3.5484501181459183,3.3565635705956876
1768725703340,130,2,4.378028589096035,3.375923582604003,3.320993696794028
1768725703344,131,3,4.60967461233322,4.30358359622175,3.5433064135935135
1768725703348,131,3,4.897282749601231,4.3575997217829014,3.8214902019595383
1768725703352,131,3,5.068922053511709,4.309404192082617,3.98471433301604
1768725703356,131,3,5.113880077586602,4.583048264878929,4.022901212511428
1768725703360,131,3,5.165071110677616,4.294095051030462,4.068334610345263
1768725703364,131,3,5.363091862759937,4.431543868857112,4.259951145509853
1768725703368,132,4,5.722209057730025,5.202566556096611,4.610710191711163
1768725703372,132,4,6.1026556408882024,5.475176774910733,4.981222514384625
1768725703376,132,4,6.299491286213398,5.421716562943794,5.168361225882853
1768725703380,132,4,6.174354689589009,5.442999498919868,5.035187023817383
1768725703384,132,4,5.741077563520157,5.289465612301921,4.595307376924136
1768725703388,131,3,5.152441374926133,4.340144568978672,4.000393096707577
1768725703392,130,2,4.593989476166133,3.3368604684769,3.435236549918211
1768725703396,130,2,4.158828443751846,3.567364381848193,2.9925591873631943
1768725703400,130,2,3.802667126731602,3.298166745690974,2.6277190711372436
1768725703404,129,1,3.4095548811045138,2.4228872995967867,2.22495936261023
1768725703408,129,1,2.8968037653046177,2.2368909185008135,1.702728945031466
1768725703412,128,0,2.267008757526498,1.39116290648507,1.0649217579461638
1768725703416,127,-1,1.584541499676522,0.5627686823915604,0.3761456637104421
1768725703420,127,-1,0.923250554459309,0.2494291680622059,-0.2909236091545251
1768725703424,126,-2,0.337821098916031,-0.4685157602114382,-0.8832560999126322
1768725703428,126,-2,-0.1337361897161,-0.9228020085568118,-1.363562136400769
1768725703432,125,-3,-0.4666406313503199,-1.4063990095191836,-1.7062604120871605
1768725703436,125,-3,-0.6630392882981262,-1.6796400525368251,-1.9119522153069193
1768725703440,125,-3,-0.761658447736171,-1.4915375838800011,-2.018356225905136
1768725703444,125,-3,-0.8142910228189173,-1.7099383685708571,-2.077431524040999
1768725703448,125,-3,-0.8383560594676105,-1.72242069676227,-2.1076569266731804
1768725703452,125,-3,-0.7925601351891003,-1.5421666741109687,-2.068898066319207
1768725703456,125,-3,-0.613336214878869,-1.6409218405611457,-1.8980536105505956
1768725703460,125,-3,-0.2958617717722198,-1.4319345531021788,-1.589845864648514
1768725703464,126,-2,0.0499471401421995,-0.8554203337280624,-1.2532955972384758
1768725703468,126,-2,0.2348898492478826,-0.4954545279180908,-1.0768456752579236
1768725703472,126,-2,0.1091685741906716,-0.8340570511068885,-1.2099209153887944
1768725703476,125,-3,-0.3253326791649285,-1.3225670132876042,-1.650835545422492
1768725703480,125,-3,-0.9024163325304656,-1.765746732738514,-2.2342493049781083
1768725703484,124,-4,-1.3935160859614897,-2.5267199315868907,-2.732606769887884
1768725703488,124,-4,-1.6509937334970208,-2.789595007623487,-2.998587893310651
1768725703492,124,-4,-1.688193332923854,-2.579110229128396,-3.044886493584982
1768725703496,124,-4,-1.6380785766928192,-2.541605824115307,-3.003414503808631
1768725703500,124,-4,-1.6267032301993232,-2.5905655767299227,-2.999625293586986
1768725703504,124,-4,-1.6664455759711467,-2.6682236997168074,-3.046179139346654
1768725703508,124,-4,-1.6565075539299516,-2.666297696390351,-3.0430673536679884
1768725703512,124,-4,-1.4890260438071603,-2.700715474863192,-2.8829567843544397
1768725703516,124,-4,-1.1701904607056504,-2.414896823097277,-2.572088851368158
1768725703520,125,-3,-0.8468956328548979,-1.739158926816405,-2.2573051310060936
1768725703524,125,-3,-0.7054103349902527,-1.4899576089535729,-2.124674368545247
1768725703528,125,-3,-0.8262578313640425,-1.869295367032032,-2.2538679273974203
1768725703532,124,-4,-1.1256244419243968,-2.4874542369831576,-2.559978611916661
1768725703536,124,-4,-1.4298760262611712,-2.643328448241681,-2.8695436171896223
1768725703540,124,-4,-1.6034454607089987,-2.5204473808150203,-3.0489222949858203
1768725703544,124,-4,-1.6192511233162847,-2.6753685075677813,-3.072904549481777
1768725703548,124,-4,-1.5395999570473078,-2.7118660076935206,-3.003456259918514
1768725703552,124,-4,-1.4543168709521803,-2.613954336981274,-2.928008669845895
1768725703556,124,-4,-1.4272582458492342,-2.572423238427566,-2.9082681978127365
1768725703560,124,-4,-1.46785895891115,-2.55872508995294,-2.953721317083843
1768725703564,124,-4,-1.5290082738668225,-2.6526142115665485,-3.019417277744948
1768725703568,124,-4,-1.5365804638595744,-2.7121061397910498,-3.0336884342956543
1768725703572,124,-4,-1.4478111441134032,-2.633011362081821,-2.954488045102772
1768725703576,124,-4,-1.3084447929845722,-2.561676111112629,-2.825827653938526
1768725703580,124,-4,-1.2581247165683316,-2.5790621771682516,-2.784548424109331
1768725703584,124,-4,-1.4512873040098433,-2.608815356011045,-2.9836906829591494
1768725703588,124,-4,-1.9253487816913268,-2.7689910053509585,-3.4618371378534967
1768725703592,123,-5,-2.5202471220071887,-3.568223389465344,-4.061314297556542
1768725703596,122,-6,-2.9504571213161563,-4.658916278760076,-4.498143040071794
1768725703600,122,-6,-3.0094875093376827,-4.478877225444084,-4.5659357978787956
1768725703604,123,-5,-2.7440371460639548,-3.6846133363479256,-4.310515763536415
1768725703608,123,-5,-2.4348399951316737,-3.709634242183296,-4.011002029474633
1768725703612,123,-5,-2.3847911647111,-3.595714878675704,-3.96847329050489
1768725703616,123,-5,-2.6797048059093433,-3.6969194716149287,-4.268129254788297
1768725703620,122,-6,-3.107869122003702,-4.419823283749304,-4.699641865244053
1768725703624,122,-6,-3.305747606983746,-4.7538978172139235,-4.901820495571965
1768725703628,122,-6,-3.0312359012087,-4.619657084267743,-4.634167443496695
1768725703632,123,-5,-2.361289482607833,-3.6763714783629458,-3.97372924228192
1768725703636,124,-4,-1.6548791096770012,-2.657900475092541,-3.278137445550328
1768725703640,124,-4,-1.302753326455233,-2.4371161158957,-2.9357686312016913
1768725703644,124,-4,-1.457149410283395,-2.770490164924264,-3.096570915837414
1768725703648,123,-5,-1.9416673544856624,-3.562477109664051,-3.5838533363839127
1768725703652,123,-5,-2.3839952197371295,-3.768764375818134,-4.027929257581558
1768725703656,123,-5,-2.449116205573021,-3.566542166987541,-4.097420145480516
1768725703660,123,-5,-2.015238870301596,-3.520489946926165,-3.6718780885068183
1768725703664,124,-4,-1.2112691517433334,-2.7061708448999013,-2.8782398613604534
1768725703668,125,-3,-0.3212762628586967,-1.573690903338243,-1.997620219235192
1768725703672,126,-2,0.3840457543629105,-0.8311026447287649,-1.2993687892596606
1768725703676,126,-2,0.7926665801483261,-0.4631446321002618,-0.895923278485352
1768725703680,126,-2,0.9818351248290482,-0.6725549155107016,-0.7109216602866993
1768725703684,126,-2,1.122472126958446,-0.5279085075504156,-0.5743380296867843
1768725703688,127,-1,1.3469656986868783,0.2567168170292173,-0.3548528381666078
1768725703692,127,-1,1.6856261847399463,0.3076816268034832,-0.0228786280667182
1768725703696,127,-1,2.0937995862711913,0.4219848699896553,0.377374779928022
1768725703700,128,0,2.511676535258432,1.399726853442152,0.7875701200662766
1768725703704,128,0,2.896279857298851,1.4356348731484072,1.16612266815051
1768725703708,128,0,3.2134681495478863,1.2651774028475014,1.47898762138228
1768725703712,129,1,3.421127643854381,2.314648503115194,1.6825417622476715
1768725703716,129,1,3.4755489254528,2.3938085231539477,1.7313624206827511
1768725703720,128,0,3.349992035872022,1.418118212138789,1.5987161726462844
1768725703724,128,0,3.031593773941818,1.4314652863343604,1.2733284381256658
1768725703728,128,0,2.5051334030196415,1.2577750453819527,0.7411319567818018
1768725703732,127,-1,1.7671328555822663,0.3092284553422202,-0.0015777103124994
1768725703736,126,-2,0.870017848049385,-0.5785383199091887,-0.903017902477814
1768725703740,125,-3,-0.0608726116270839,-1.6636470086797548,-1.838121658400607
1768725703744,124,-4,-0.8753686553605511,-2.429047433346691,-2.6570025506485546
1768725703748,124,-4,-1.4822327401668982,-2.9433461214826635,-3.2690071959042952
1768725703752,123,-5,-1.9061662388819776,-3.4429019270234855,-3.699146447967383
1768725703756,123,-5,-2.277761440613179,-3.860532937362707,-4.077594054412349
1768725703760,122,-6,-2.7570085026405,-4.382993306282576,-4.5636350241555075
1768725703764,122,-6,-3.4249344883104693,-4.700775825126387,-5.2377312893649135
1768725703768,121,-7,-4.203748671272967,-5.706577461933259,-6.021212353599111
1768725703772,120,-8,-4.867029029819667,-6.647611040142485,-6.686272185163095
1768725703776,120,-8,-5.151609855180029,-6.689362540242427,-6.969416371151457
1768725703780,120,-8,-4.907727125070055,-6.544727521219045,-6.723718666609387
1768725703784,121,-7,-4.196756085968991,-5.540886470844967,-6.016116496614352
1768725703788,122,-6,-3.289031359594032,-4.87651131843298,-5.121165982353009
1768725703792,122,-6,-2.564768589597369,-4.470236038332626,-4.4171590379572425
1768725703796,123,-5,-2.325959710803178,-3.889834378804822,-4.197027784443178
1768725703800,122,-6,-2.526020305383195,-4.354308605547141,-4.402992863699943
1768725703804,123,-5,-2.4944143494987414,-3.72840947675511,-4.359496195864316
1768725703808,125,-3,-0.8649527071644332,-1.6990979830374782,-2.7067582329635806
1768725703812,129,1,4.031770195193468,2.3793606013318507,2.2095569214411337
1768725703816,138,10,13.243899475998257,11.228900229701257,11.423335152680083
1768725703820,150,22,26.100735425023792,23.567904941721828,24.259644974727845
1768725703824,164,36,39.66734837236219,37.31252918790383,37.79171384431912
1768725703828,175,47,49.38562842593717,48.28610765577578,47.4765397155832
1768725703832,177,49,50.8769708636295,50.34857138700029,48.94904776248941
1768725703836,168,40,42.04401461010737,41.18523399513649,40.11782033916051
1768725703840,149,21,24.24760088808939,22.58229448682306,22.340713669683
1768725703844,126,-2,1.820359389730984,-0.7620485320750503,-0.0594808387807699
1768725703848,104,-24,-19.787087642400586,-22.56947375963318,-21.645044467879178
1768725703852,89,-39,-36.11444077908146,-37.744120732036706,-37.96658922461003
1768725703856,81,-47,-44.94289909241233,-45.67245586886414,-46.80863997443767
1768725703860,79,-49,-46.319473029202584,-47.53040719403392,-48.211214594360115
1768725703864,83,-45,-41.79600782296784,-43.693820254904175,-43.7128113411264
1768725703868,91,-37,-33.57709569112672,-35.63561954498876,-35.507270650471035
1768725703872,101,-27,-23.94642432518092,-25.706417281948458,-25.876576233004737
1768725703876,110,-18,-14.919614476080392,-16.7072108032982,-16.842521901033656
1768725703880,117,-11,-7.949033389733821,-9.5233775727978,-9.865261719476106
1768725703884,122,-6,-3.664664247656095,-4.746881607826401,-5.578746617376977
1768725703888,123,-5,-1.8091837668858937,-3.607367964923123,-3.7245481215212752
1768725703892,123,-5,-1.5009774798403237,-3.740675247440217,-3.4176800954587687
1768725703896,123,-5,-1.7365975546111794,-3.651359979453779,-3.653306019612665
1768725703900,123,-5,-1.8382505765893888,-3.567822428631524,-3.7558412463156574
1768725703904,124,-4,-1.591511679696887,-2.7320429796754895,-3.513687027460143
1768725703908,124,-4,-1.0824991174066736,-2.597649994345309,-3.012166633781775
1768725703912,124,-4,-0.4618248544237349,-2.8050355294989964,-2.397426961802714
1768725703916,125,-3,0.1714884879982956,-1.53337494373038,-1.7649965926114937
1768725703920,126,-2,0.7649319933695726,-0.7318102328589293,-1.168608142415626
1768725703924,126,-2,1.289508847768695,-0.5650766923955167,-0.6416517849360792
1768725703928,127,-1,1.744007827843522,0.237316266742153,-0.1882838950640732
1768725703932,127,-1,2.1506457700496093,0.3194612790772833,0.2146507836999155
1768725703936,127,-1,2.517974047275025,0.3800771171225257,0.5788003666967292
1768725703940,128,0,2.8109380179009715,1.3053017670177791,0.8710127356737802
1768725703944,128,0,2.9798636032820407,1.4341505225013975,1.0409268124778248
1768725703948,128,0,3.0314309806107222,1.1851624063738984,1.0933246703817894
1768725703952,128,0,3.059829155400794,1.4051111844712836,1.1212672449817331
1768725703956,128,0,3.1860302753786782,1.2508611105647462,1.2459438459558043
1768725703960,128,0,3.4517140683060976,1.4501715876569563,1.5098970230967952
1768725703964,129,1,3.772038033449027,2.278333618606906,1.829049053912354
1768725703968,129,1,4.00338012779843,2.3339130240576553,2.0602598378317496
1768725703972,129,1,4.073080380977291,2.2450130997909454,2.130997185088083
1768725703976,129,1,4.055833706411093,2.4119153531628448,2.115420735083537
1768725703980,129,1,4.125159050250031,2.247642454580133,2.185917862455643
1768725703984,129,1,4.412651865598539,2.5223792249238506,2.473222608043865
1768725703988,130,2,4.883902851319963,3.0362402602544445,2.943148852455144
1768725703992,130,2,5.334215738514146,3.586730290743135,3.392127938558848
1768725703996,131,3,5.520456011194316,4.013908040544019,3.578176874252839
1768725704000,131,3,0.3470812811904564,2.5421147392004873,2.500555825362458
1768725704004,131,3,0.3260807120782995,2.5165782827208822,2.4801761753673177
1768725704008,131,3,0.3344562346218884,2.583714060143432,2.4894071111200833
1768725704012,131,3,0.5192958137290211,2.609685804274761,2.674183257514796
1768725704016,131,3,0.9463439776161356,2.713230967996057,3.1000144170334014
1768725704020,132,4,1.4956355473168574,3.4825763700776724,3.647440528674132
1768725704024,133,5,1.9221699567954875,4.576784681075241,4.0719235326277445
1768725704028,133,5,2.052427837936604,4.552769499574403,4.200633850873256
1768725704032,132,4,1.942517983688765,3.61932676380683,4.090745852736991
1768725704036,132,4,1.846106388981391,3.750122650227609,3.995824479401904
1768725704040,133,5,2.0228580463419883,4.390161105440125,4.173201146175557
1768725704044,133,5,2.554116667482064,4.737447878824293,4.701824142697548
1768725704048,134,6,3.2912992606613543,5.367614023979572,5.433755319591399
1768725704052,134,6,3.9416342650556895,5.854470128689937,6.079345916093342
1768725704056,135,7,4.22933676089181,6.4817482564261555,6.36468607342448
1768725704060,135,7,4.0522460145006125,6.661584389102863,6.186491028872012
1768725704064,134,6,3.540735176508486,5.48615518384438,5.6732535625804505
1768725704068,133,5,2.96251211912106,4.616348667789213,5.092523289639566
1768725704072,133,5,2.5378339857348893,4.65547969909405,4.6654881862870585
1768725704076,133,5,2.3247589754833085,4.631507574458515,4.450210364132051
1768725704080,133,5,2.2683213342572426,4.55660517128563,4.3906408970949915
1768725704084,133,5,2.3349314172662874,4.580059513037632,4.452635204982577
1768725704088,133,5,2.5699471737106183,4.551526341378139,4.682421850294509
1768725704092,133,5,3.0140811167636388,4.722845674217068,5.121959217525251
1768725704096,134,6,3.580985832452219,5.553000834014725,5.6849659837986115
1768725704100,135,7,4.050585686324931,6.646822300486766,6.150442369810824
1768725704104,135,7,4.209458325070019,6.514986402568214,6.304762860939596
1768725704108,134,6,4.007509212608178,5.613007400784649,6.098728951545479
1768725704112,134,6,3.5852378538763308,5.683796574880758,5.67301496052114
1768725704116,134,6,3.1596448242497805,5.550270796652443,5.243227113018551
1768725704120,133,5,2.871076316122908,4.693126038711614,4.948691366349779
1768725704124,133,5,2.696890184447603,4.477087874145241,4.767725632417667
1768725704128,133,5,2.485755935997454,4.677928038876296,4.550543821940413
1768725704132,133,5,2.0973569629627873,4.60383227579929,4.156986548648069
1768725704136,132,4,1.5442240692603333,3.6242261805458487,3.5987788345546994
1768725704140,131,3,1.0010705408786251,2.627639881274791,3.0503051674834154
1768725704144,131,3,0.6558598001165645,2.5742360555672237,2.6995884531628955
1768725704148,131,3,0.5388708867652288,2.5821046626263024,2.5764688806579383
1768725704152,131,3,0.4942704365218211,2.715780181077506,2.524529128475418
1768725704156,131,3,0.3161493609353436,2.4893909878087612,2.3382817142136045
1768725704160,130,2,-0.0825182531851564,1.7913984466332522,1.9320980882895995
1768725704164,130,2,-0.612201477405087,1.405411813243996,1.3964415585967358
1768725704168,129,1,-1.089955276560869,0.7790997577035923,0.9136401010386216
1768725704172,129,1,-1.3762017587601858,0.5081486497354211,0.6216359834775718
1768725704176,129,1,-1.4542176241464126,0.7050911075865529,0.5360335015805642
1768725704180,129,1,-1.4080671258299444,0.5936924597403741,0.5731834993619429
1768725704184,129,1,-1.3408645428392474,0.5973742896799605,0.6314655520200592
1768725704188,129,1,-1.3082783812367502,0.6276866134938985,0.6562841544138466
1768725704192,129,1,-1.3078488348034183,0.6166887815902474,0.6497438632487229
1768725704196,129,1,-1.3109790487274064,0.6423046123608683,0.6392315122655317
1768725704200,129,1,-1.3004808884176515,0.6287538105462248,0.6413426913293963
1768725704204,129,1,-1.2861648126798366,0.6116150815244552,0.646932353801305
1768725704208,129,1,-1.291454458049688,0.5955669987160046,0.6335570688334013
1768725704212,129,1,-1.3220351117697182,0.6641661015434184,0.5954557314122366
1768725704216,129,1,-1.3420951354805144,0.5902072440349184,0.5672703889324602
1768725704220,129,1,-1.2872502878434702,0.6883898077616126,0.6125832001891103
1768725704224,129,1,-1.1192831144194022,0.586409965761876,0.7702644992714817
1768725704228,129,1,-0.8796806812847762,0.5975506663934147,1.0001387621670783
1768725704232,130,2,-0.6755055847827707,1.6959046327965943,1.1955955365778304
1768725704236,130,2,-0.5858874711299856,1.5341876707429472,1.276968565919994
1768725704240,129,1,-0.5728758651770147,0.7688508002199689,1.2816248688946177
1768725704244,130,2,-0.4964057944552643,1.5268341524730284,1.3492932733525749
1768725704248,130,2,-0.2335953484050688,1.6363431342455317,1.6025398726355768
1768725704252,130,2,0.1986447115260062,1.6875361670874485,2.0243712271041967
1768725704256,131,3,0.6209350199213751,2.530361969727458,2.435735957418218
1768725704260,131,3,0.7935357606710562,2.796288458493853,2.597340334646554
1768725704264,131,3,0.5726712637389773,2.513028788095964,2.3658832848747124
1768725704268,130,2,0.0013018978964927,1.6231201472026588,1.7848803549195114
1768725704272,129,1,-0.7346318192638981,0.7503791002546526,1.040319711526586
1768725704276,129,1,-1.434757574865392,0.4018967556343158,0.331548373683223
1768725704280,128,0,-1.983602224281028,0.0332623838583493,-0.2272412333670732
1768725704284,128,0,-2.3606806880776454,-0.7950364738470082,-0.6156633069928821
1768725704288,127,-1,-2.5933992066771228,-1.0070689888016215,-0.8600585608924076
1768725704292,128,0,-2.7126151913209164,-0.6370041203622554,-0.9904330068441534
1768725704296,127,-1,-2.7392259409048756,-1.2516072327586412,-1.0277961284518256
1768725704300,127,-1,-2.6964213479059516,-1.1914375663348022,-0.9959071268359904
1768725704304,128,0,-2.622928485866037,-0.6971864957634376,-0.9337379067713696
1768725704308,127,-1,-2.5616366347623716,-0.9476295286213808,-0.8837138365787262
1768725704312,128,0,-2.525932318798452,-0.8515946807985822,-0.8583705643323712
1768725704316,127,-1,-2.4760496073039207,-0.9093690115211104,-0.8177788059545252
1768725704320,128,0,-2.333175565364921,-0.590877412476821,-0.6843499598924604
1768725704324,128,0,-2.032086945638059,-0.2645088042811827,-0.3945517424771301
1768725704328,128,0,-1.589418950627947,-0.3371680100380345,0.0345611307651092
1768725704332,129,1,-1.143256137075089,0.4411151530968352,0.4663309346562996
1768725704336,129,1,-0.9138548875050996,0.9297929220227372,0.682698434769813
1768725704340,129,1,-1.080188896062841,0.4499795967366582,0.5059825649237406
1768725704344,128,0,-1.643951814512336,-0.1699215754756202,-0.0662826082385534
1768725704348,128,0,-2.384626130690903,-0.5192549471907275,-0.815992626253506
1768725704352,127,-1,-2.9604855335001554,-1.3429119942552248,-1.4032685658300226
1768725704356,126,-2,-3.1129422639171658,-2.271698237825831,-1.5690635511714617
1768725704360,127,-1,-2.837657684958396,-1.3659495623838664,-1.307260539086002
1768725704364,128,0,-2.374749725869724,-0.2751754938002753,-0.857033683014127
1768725704368,128,0,-2.0049015052801273,-0.4779121261332882,-0.4992678316193717
1768725704372,128,0,-1.8228101611962808,-0.3418110739319693,-0.3288463921272618
1768725704376,128,0,-1.6892815166186457,-0.2956601952958778,-0.2064547457932335
1768725704380,128,0,-1.390971213881932,-0.3391617453175477,0.0809685922538121
1768725704384,129,1,-0.8457354596458351,0.7542136806903756,0.6147636377433383
1768725704388,130,2,-0.1681758859128092,1.4622642688026293,1.279811412815116
1768725704392,130,2,0.446557149065329,1.7456070600568534,1.8812775243112785
1768725704396,131,3,0.9014901105200056,2.6039499072772476,2.3230353561447927
1768725704400,131,3,1.277210652775684,2.75407595075532,2.686578486274661
1768725704404,131,3,1.7434526646045034,2.710192252022779,3.142172133840576
1768725704408,132,4,2.382995059584002,3.4778612843453,3.771891005007984
1768725704412,133,5,3.091369277754479,4.77391109054459,4.469096584871654
1768725704416,134,6,3.644172047023553,5.535405871237334,5.007728175447165
1768725704420,133,5,3.853211204672933,4.865913432242608,5.200834815255111
1768725704424,133,5,3.656566695153708,4.584669350479807,4.98977177377712
1768725704428,133,5,3.094657895194795,4.621689773342412,4.416728466514088
1768725704432,132,4,2.2589438151564987,3.624572099701428,3.571810859959194
1768725704436,131,3,1.2873020953747365,2.690278024520933,2.590478979339662
1768725704440,130,2,0.3715956444580317,1.736755908413064,1.6636137013655865
1768725704444,129,1,-0.2942096116093879,0.7094496089190205,0.98554102787056
1768725704448,129,1,-0.6210186490844983,0.5058069474707465,0.645399573958727
1768725704452,129,1,-0.6994236528514374,0.7500081271380226,0.5520780935113011
1768725704456,129,1,-0.7663325247914521,0.5580129237240263,0.4692875146682456
1768725704460,128,0,-1.0754785777133264,-0.0870336851676745,0.145877379036438
1768725704464,128,0,-1.7510350495168137,-0.5009819972060421,-0.5399012178778648
1768725704468,127,-1,-2.7025127956280603,-1.2549789916380716,-1.4982363912350452
1768725704472,126,-2,-3.648288455099646,-2.512354033718788,-2.4513838684905713
1768725704476,125,-3,-4.258503511394192,-3.1477305303545844,-3.073447901459604
1768725704480,125,-3,-4.362230279608753,-3.363748806597688,-3.194232029048975
1768725704484,125,-3,-4.088264536135238,-3.2358278625637418,-2.9392956004892508
1768725704488,126,-2,-3.810227563511613,-2.4923914141991155,-2.677141284524406
1768725704492,126,-2,-3.893638750643507,-2.3074060567553913,-2.769612859645245
1768725704496,125,-3,-4.41659853834398,-3.3016683092243815,-3.295508707355443
1768725704500,124,-4,-5.093187376547249,-4.240371424460394,-3.9749975043789343
1768725704504,124,-4,-5.485015883258484,-4.326158937620142,-4.378249443250197
1768725704508,124,-4,-5.34956592358016,-4.428293728261512,-4.266887532044631
1768725704512,124,-4,-4.839522612643783,-4.335874214783209,-3.787660159239534
1768725704516,125,-3,-4.33412099411689,-3.262687550202737,-3.3060767686699744
1768725704520,126,-2,-3.927325863042684,-2.2717028443996377,-2.904715305287831
1768725704524,127,-1,-2.911171324314664,-1.300342855028665,-1.876306231224527
1768725704528,130,2,0.2387693595782569,1.5446211201436078,1.2898675445605727
1768725704532,136,8,7.077833438355649,7.704520279148496,8.13139305899255
1768725704536,146,18,17.882587118423015,17.738168941376756,18.91510202909634
1768725704540,159,31,30.653799336902356,30.730841869158347,31.64619972068899
1768725704544,171,43,41.31422985361268,42.726413072320334,42.262531626959195
1768725704548,176,48,45.317036852971654,47.46527955479958,46.23358064928536
1768725704552,170,42,39.88353246861938,41.77250233094854,40.789662783329355
1768725704556,155,27,25.522547917740667,26.618305981292583,26.43779203806952
1768725704560,134,6,5.863849443418978,5.824256478531933,6.797073732453804
1768725704564,114,-14,-14.065465797420782,-14.316368146933163,-13.11934645700966
1768725704568,99,-29,-30.00381146648123,-29.467938492866494,-29.060608192792102
1768725704572,90,-38,-39.79421498689664,-38.16400962644558,-38.872184812084406
1768725704576,87,-41,-43.38175830081311,-41.46209392188616,-42.492047953746706
1768725704580,87,-41,-41.92489220750217,-41.05074250357819,-41.06612598237881
1768725704584,92,-36,-36.89756164283663,-36.50904832587729,-36.05840004760255
1768725704588,99,-29,-29.713474941376425,-29.256875294420173,-28.881348552810152
1768725704592,107,-21,-21.760507302540184,-21.35366084971545,-20.929748128279662
1768725704596,115,-13,-14.41026373917506,-13.281992833085232,-13.58374757046428
1768725704600,121,-7,-8.758714997586607,-7.200296415986061,-7.942841049455909
1768725704604,124,-4,-5.260166469207919,-4.462361522873811,-4.458208226764783
1768725704608,125,-3,-3.606315854873438,-3.243324601538351,-2.815965543001919
1768725704612,126,-2,-3.008293617687561,-2.4041057661872536,-2.225086905675197
1768725704616,126,-2,-2.6877206959473785,-2.148039129785366,-1.910438806612881
1768725704620,127,-1,-2.2293600376846237,-1.3530074955850764,-1.4618367959326222
1768725704624,128,0,-1.6088605287460624,-0.3023276360595541,-0.8564517318709397
1768725704628,128,0,-0.9889114828279628,-0.4154084294732162,-0.253296869989123
1768725704632,128,0,-0.5103298477598419,-0.2171348519283348,0.2119694762961059
1768725704636,129,1,-0.2133376824621109,0.7000394249167547,0.5006557278358201
1768725704640,129,1,-0.0625034406827391,0.7859736849096232,0.6451802102887633
1768725704644,129,1,0.0053346869382653,0.5700091096431528,0.7049189481397115
1768725704648,129,1,0.043963008807583,0.6888720469453119,0.7326816228584495
1768725704652,129,1,0.0731258757565007,0.7128253334986367,0.7498920717589033
1768725704656,129,1,0.0779581848072743,0.7692245465278467,0.7435497510599481
1768725704660,129,1,0.0407272961850291,0.7531059229956384,0.6963121530059053
1768725704664,129,1,-0.0170951627017192,0.5667075678557396,0.628863673308872
1768725704668,129,1,-0.0210988329917023,0.70887799934064,0.6149857035775541
1768725704672,129,1,0.122800798390855,0.6986813360301349,0.7491182743927558
1768725704676,129,1,0.4702100574045069,0.7909554137454725,1.087578757005497
1768725704680,130,2,1.0044575031789489,1.7794187923517724,1.6134226629202488
1768725704684,131,3,1.6574960264330136,2.479769737506067,2.2572369859527734
1768725704688,131,3,2.3573570193883504,2.8516975093135666,2.946210101618555
1768725704692,132,4,3.042190869295059,3.509698437733953,3.619469529007941
1768725704696,132,4,3.627960189516091,4.042265055454859,4.194902696579018
1768725704700,133,5,3.990813563411373,4.511968899713905,4.549419404854417
1768725704704,133,5,4.02443460560019,4.743163898911477,4.575498050701779
1768725704708,133,5,3.742357300239481,4.610762282223213,4.285037142882826
1768725704712,132,4,3.3163545304093796,3.710512753191105,3.849702261379168
1768725704716,131,3,2.981708823014483,2.92558323012911,3.5059551541434333
1768725704720,132,4,2.8776244885647655,3.557335051409875,3.393452216634617
1768725704724,132,4,2.9714243527053963,3.78263768945936,3.478554658556474
1768725704728,132,4,3.1317092056641624,3.4981719418079953,3.629111103602617
1768725704732,132,4,3.264138491036459,3.8931616485363696,3.7515581953651216
1768725704736,132,4,3.379295811672743,3.718433540208766,3.857872019754947
1768725704740,132,4,3.5525107445641213,3.763029330929277,4.0236915835172145
1768725704744,133,5,3.839084714114223,4.615861541351113,4.303334279158929
1768725704748,133,5,4.225620606469185,4.618699690277386,4.68235819672512
1768725704752,133,5,4.642588565049199,4.841206127602206,5.090942621469811
1768725704756,134,6,5.010004493296824,5.7312730518422805,5.449259732670342
1768725704760,134,6,5.275488793855686,5.776055405681388,5.705304366138427
1768725704764,134,6,5.418049553007118,5.59603491940849,5.838918362523786
1768725704768,134,6,5.423445850012122,5.645156209164954,5.836695406399305
1768725704772,134,6,5.273832696142543,5.8346724339425995,5.680608304414401
1768725704776,134,6,4.98240664093439,5.727560291335415,5.3828009354972215
1768725704780,133,5,4.635032563222681,4.8067242648910895,5.028459357247845
1768725704784,133,5,4.36848943070178,4.536588904320517,4.7544111121545285
1768725704788,133,5,4.280994094643467,4.747321608790195,4.658875152106002
1768725704792,133,5,4.35418362935483,4.706717268000584,4.723360175677664
1768725704796,133,5,4.459984948041963,4.8952690255255575,4.820371945426318
1768725704800,133,5,4.4488692652851345,4.635443773415055,4.801589370546397
1768725704804,133,5,4.257514260509187,4.683971527324482,4.60418810155635
1768725704808,133,5,3.966113077046375,4.652473924004883,4.307542415886809
1768725704812,132,4,3.759797807710224,3.7383748924581854,4.095643353080948
1768725704816,132,4,3.8038153272554385,3.9610859407421617,4.133222452919911
1768725704820,133,5,4.1159248447468295,4.499359039003842,4.437945298861304
1768725704824,133,5,4.540461855614752,4.872456818933971,4.854216701090726
1768725704828,134,6,4.848396503445938,5.44689021726332,5.153687231891093
1768725704832,133,5,4.878684401488881,4.946616973810739,5.17662123893856
1768725704836,133,5,4.613478516612976,4.78857607183715,4.9059281835862505
1768725704840,133,5,4.154002722376676,4.628030508667331,4.442065300851476
1768725704844,132,4,3.641506357801568,3.7947272078258503,3.9247531907522903
1768725704848,132,4,3.1817911815227147,3.487314699818243,3.4590649408053595
1768725704852,131,3,2.806225158357985,2.9584197053545287,3.0767731491459225
1768725704856,131,3,2.479332410086013,2.7603592580876093,2.742992949240751
1768725704860,131,3,2.141890158982802,2.6537198619348157,2.3987297263365597
1768725704864,130,2,1.754465761181513,1.8057329717457968,2.004813398068896
1768725704868,130,2,1.3078208237724571,1.417559909526202,1.5524684466902994
1768725704872,129,1,0.8058731329523274,1.1291713480203738,1.0456664659179786
1768725704876,129,1,0.2578627821579964,0.4964815773026241,0.4929746594796994
1768725704880,128,0,-0.3051449818960829,0.0055406241044193,-0.075252512567388
1768725704884,128,0,-0.8179247220807102,-0.5953755361120592,-0.5937409446785853
1768725704888,127,-1,-1.2044881182270566,-1.1646826813140054,-0.9858979959578552
1768725704892,127,-1,-1.4254920704358285,-1.2483669805209063,-1.2121178775270811
1768725704896,127,-1,-1.5040463844768432,-1.1782751155687845,-1.2958904974975338
1768725704900,127,-1,-1.5037575631677929,-1.244806149133182,-1.3011329721781175
1768725704904,127,-1,-1.482019131277426,-1.403310819285279,-1.284878262796924
1768725704908,127,-1,-1.4603519871163135,-1.315103530451521,-1.2680738426320095
1768725704912,127,-1,-1.4268894896291375,-1.0988440282463694,-1.2388801958507196
1768725704916,127,-1,-1.3562748168419474,-1.342250691892099,-1.1725562424298883
1768725704920,127,-1,-1.2293048951569348,-1.031551513729942,-1.0503234999085254
1768725704924,128,0,-1.0456569395101232,-0.6626348921235768,-0.8715560403558851
1768725704928,127,-1,-0.8290574546354308,-1.0079084019749656,-0.6593839311152703
1768725704932,128,0,-0.6218836831163865,-0.4312824560134614,-0.4562877975067708
1768725704936,128,0,-0.4653897577382401,0.0128283246740682,-0.304423320808084
1768725704940,128,0,-0.3766110064419017,-0.3768433177279784,-0.2211987311063923
1768725704944,128,0,-0.3468320523822081,-0.3367488230842578,-0.1968007588167175
1768725704948,128,0,-0.3631662778185911,-0.2890507730019721,-0.2168915648673068
1768725704952,128,0,-0.4168356879545578,-0.2042131456031501,-0.2727430804922378
1768725704956,128,0,-0.4761817114981703,-0.1376613868203039,-0.3343103541001573
1768725704960,128,0,-0.4642296222403084,-0.2784231516658727,-0.3260043422103295
1768725704964,128,0,-0.2999664890525081,-0.3872983842128883,-0.1667244680819829
1768725704968,128,0,0.0082829037500103,-0.2614937141048638,0.1360890346274572
1768725704972,129,1,0.3130830666388548,0.7701303636303469,0.4356219182775173
1768725704976,129,1,0.3976496581564088,0.9264541955642186,0.5156636179357175
1768725704980,128,0,0.1232268228109318,-0.3678222499367588,0.2382514900619144
1768725704984,128,0,-0.4645186036454904,-0.2696863717384321,-0.3510208112113353
1768725704988,128,0,-1.1470377684574655,-0.3999034119944902,-1.035079193765724
1768725704992,126,-2,-1.6550136288142017,-2.096143980943551,-1.5458671845829794
1768725704996,126,-2,-1.8341836475016369,-2.1526946603862855,-1.7289089553676102
1768725705000,127,-1,-1.7455738636964235,-1.317854935179443,-1.644614797721737
1768725705004,127,-1,-1.6094837667301385,-1.2812366442482217,-1.5132583294520945
1768725705008,127,-1,-1.6291620137472846,-1.4300103845303682,-1.5377234804786792
1768725705012,126,-2,-1.8489253707122264,-2.0260152608874997,-1.7610121170308388
1768725705016,126,-2,-2.159317906617852,-2.248079698114154,-2.0728514442670436
1768725705020,126,-2,-2.4093444706854736,-2.1788186241122363,-2.323331054955004
1768725705024,126,-2,-2.505372353037642,-2.446050510304524,-2.420848532313075
1768725705028,126,-2,-2.432203193824886,-2.244614670808511,-2.3510462804774757
1768725705032,126,-2,-2.223636711221072,-2.2066111916830646,-2.146803132407571
1768725705036,126,-2,-1.9344515299064624,-2.074908978723775,-1.8616217483335065
1768725705040,127,-1,-1.6292591879083111,-1.32374559707896,-1.5597259248254391
1768725705044,127,-1,-1.3740954851048746,-1.314813534023367,-1.307279321477271
1768725705048,127,-1,-1.2226513180487413,-1.3682782830276086,-1.1578206161427986
1768725705052,127,-1,-1.2007769686548169,-1.0664215383029745,-1.137163066929597
1768725705056,127,-1,-1.291440986469961,-1.2357151648025555,-1.22911063855527
1768725705060,127,-1,-1.429681758745339,-1.1283839881776192,-1.3697243475851804
1768725705064,127,-1,-1.532243043308506,-1.5209444149228837,-1.4755477901359288
1768725705068,126,-2,-1.5638441228137794,-2.1568161346806383,-1.510165951456558
1768725705072,127,-1,-1.581502363365883,-1.26163082450633,-1.5302785021770655
1768725705076,127,-1,-1.6898569546404174,-1.059892261188767,-1.6412414964036413
1768725705080,126,-2,-1.932933319340617,-2.258839316683684,-1.887095211257432
1768725705084,126,-2,-2.2309203038455205,-2.4290344558589188,-2.1868963513540054
1768725705088,126,-2,-2.4217622915121755,-2.196386305532509,-2.378148672104893
1768725705092,126,-2,-2.355855361501157,-2.2873494038455164,-2.312497117796065
1768725705096,126,-2,-1.965124286780208,-1.9530107400864365,-1.9233773580600055
1768725705100,127,-1,-1.282036761000375,-1.4008412114223638,-1.2434491464547446
1768725705104,128,0,-0.421379201912463,-0.2647601963880184,-0.386477708931916
1768725705108,129,1,0.4619381433567382,0.6500634668028075,0.4938327838875038
1768725705112,129,1,1.225194710369106,0.8149096576820823,1.2552912911525118
1768725705116,130,2,1.78369649043913,2.0293280200869788,1.8127854580927356
1768725705120,131,3,2.1359536403066053,2.55469490949204,2.164129583493332
1768725705124,130,2,2.352004500299598,1.8434186413814,2.3792970914844203
1768725705128,131,3,2.5200404180855047,2.4928280717482485,2.5466979340970606
1768725705132,131,3,2.6851871110771564,3.0015309682846167,2.710921208827184
1768725705136,131,3,2.827537670737406,2.838334570052702,2.8510906975814594
1768725705140,131,3,2.882387076366585,2.775178884781127,2.902457348719489
1768725705144,131,3,2.771058972733984,2.618794654445085,2.787490023069058
1768725705148,131,3,2.431353791891003,2.7012096179462723,2.445350133267093
1768725705152,130,2,1.856343754676128,1.8132467967376984,1.8699068974722588
1768725705156,129,1,1.1277780993360254,1.0076776449631784,1.142770676285953
1768725705160,129,1,0.4091368502362011,0.672838993602545,0.4259701665465082
1768725705164,128,0,-0.1181293903310818,-0.3399997537489527,-0.1014444322833471
1768725705168,128,0,-0.3533859298647024,-0.2827306179250189,-0.3403734832975233
1768725705172,128,0,-0.3599769593676868,-0.262232327914919,-0.3528949269292923
1768725705176,127,-1,-0.3730651150363939,-0.8400755475180937,-0.3705435409528321
1768725705180,128,0,-0.6936824100836263,-0.5217796594260207,-0.6915832633380059
1768725705184,127,-1,-1.4964295630338649,-1.0937920854941583,-1.4915321959963768
1768725705188,126,-2,-2.6708620382923485,-2.5910381494737935,-2.6636536015026797
1768725705192,124,-4,-3.846953214571223,-3.91595698919365,-3.840779666900436
1768725705196,123,-5,-4.634842920542464,-5.178909943919501,-4.632737344491116
1768725705200,123,-5,-4.90492456871685,-5.194789437339309,-4.907330594845271
1768725705204,124,-4,-4.858557937576568,-4.348385162162279,-4.863213746297291
1768725705208,124,-4,-4.814109988966951,-4.430719633236177,-4.817229406075675
1768725705212,123,-5,-4.9079019742508985,-4.976992502678467,-4.906302672788012
1768725705216,123,-5,-4.997310135010935,-5.203687246323313,-4.991672974244174
1768725705220,123,-5,-4.85379868612585,-5.098212250385014,-4.850845885120289
1768725705224,124,-4,-4.450152028221165,-4.477768213275456,-4.459698593794222
1768725705228,124,-4,-4.044187021925355,-4.274402218594847,-4.07094579876473
1768725705232,124,-4,-3.9080957307593938,-4.128339235124767,-3.944854109085645
1768725705236,125,-3,-3.830381932907118,-3.065502073256686,-3.8599969939253542
1768725705240,126,-2,-2.762220872505022,-2.215026899902357,-2.7686324162401017
1768725705244,129,1,0.9754883137214234,0.6241966442757862,0.9950180130663236
1768725705248,137,9,8.787261860332348,8.659990379597946,8.818134414922769
1768725705252,148,20,20.57594857731383,19.955412617478636,20.594337858263444
1768725705256,161,33,33.96757399284378,32.842648870578586,33.95530618229057
1768725705260,173,45,44.693389515316696,44.924574036364305,44.64852415601219
1768725705264,178,50,48.22480980489952,49.40306396079818,48.16094220556944
1768725705268,171,43,41.91356562377538,42.89337332696312,41.85081103784114
1768725705272,155,27,26.40053155895984,26.639941956125146,26.355991024940643
1768725705276,132,4,5.400364994078113,4.160101638033973,5.3822826333926095
1768725705280,111,-17,-15.993374933480258,-17.374658827506018,-15.988184057304114
1768725705284,95,-33,-33.388132122650326,-33.23585627135327,-33.37351985666646
1768725705288,85,-43,-44.36638826364999,-43.38089804391303,-44.360757330048635
1768725705292,80,-48,-48.53585182660888,-48.06446214828592,-48.55194735116594
1768725705296,81,-47,-46.828896094140376,-47.121752667077,-46.86667160317269
1768725705300,87,-41,-40.78938289343134,-41.14195374098422,-40.83816066183705
1768725705304,96,-32,-32.197731067261,-32.45762138130728,-32.24528978732809
1768725705308,105,-23,-22.898349383892633,-23.133844116994407,-22.938715007992855
1768725705312,114,-14,-14.560953591821542,-14.319638131264256,-14.595661929913703
1768725705316,120,-8,-8.32056017586708,-7.870983350110679,-8.354600069229248
1768725705320,124,-4,-4.501321830995803,-4.478442210022866,-4.5380738731833254
1768725705324,125,-3,-2.6661499230093892,-3.0832910638507753,-2.7049946149193085
1768725705328,126,-2,-2.006084323312789,-2.5035722497125357,-2.0440252449221994
1768725705332,126,-2,-1.8063043563099697,-1.9003300926346132,-1.841861927361365
1768725705336,127,-1,-1.6785181271701115,-1.2852627509692285,-1.7140048818243017
1768725705340,127,-1,-1.4854891920046107,-1.1168882597217626,-1.5251500481260418
1768725705344,127,-1,-1.1587333237941235,-1.3887393388088285,-1.204651313014215
1768725705348,127,-1,-0.6434359174302036,-1.2397923222463068,-0.6937922288394641
1768725705352,128,0,0.0106813206893523,-0.0666346146773994,-0.0408588029804384
1768725705356,129,1,0.5888622886661397,0.806218574909166,0.5373539056537406
1768725705360,129,1,0.8147621500877495,0.829330903358714,0.7620238823724232
1768725705364,129,1,0.5517609306900644,0.6304903368768595,0.4965532240805995
1768725705368,128,0,-0.077497529337007,-0.2303107112538857,-0.1344314375876078
1768725705372,127,-1,-0.7549406068503066,-1.0527065557622723,-0.8117343368142176
1768725705376,127,-1,-1.1535120886742796,-1.2329606229831822,-1.209640935967138
1768725705380,127,-1,-1.0995944921673575,-1.1015103183964197,-1.1569863734524637
1768725705384,128,0,-0.6140893255387685,-0.4801048062141563,-0.6754802880339256
1768725705388,128,0,0.1529856796698796,-0.0432248256161462,0.086686858095897
1768725705392,129,1,1.0186216180015948,0.7097041127351278,0.9489715899154582
1768725705396,130,2,1.840570971443734,2.0556511047038586,1.76968212657657
1768725705400,131,3,2.5552053504991825,2.551243883424412,2.4838044001299826
1768725705404,131,3,3.172163249291942,2.902896098242184,3.0996620938400485
1768725705408,132,4,3.725396602187689,3.5852767696832775,3.651038841504066
1768725705412,132,4,4.216813980857196,4.076359565258435,4.140058588239811
1768725705416,133,5,4.605416264707375,4.7122052860643375,4.525651986916477
1768725705420,133,5,4.849150921519518,4.851706793457885,4.765965762137258
1768725705424,133,5,4.949140187502254,4.649318633748612,4.863035728507197
1768725705428,133,5,4.950786674133884,4.813215311627332,4.863003907862392
1768725705432,133,5,4.9119581387744535,4.897017729497627,4.823188487134317
1768725705436,133,5,4.877630401324561,4.847032323786058,4.787120996715478
1768725705440,133,5,4.874000079832204,4.754360346348881,4.780202263523652
1768725705444,133,5,4.905290917983736,4.716328651866029,4.807294788035748
1768725705448,133,5,4.947314257916844,4.7915199341064545,4.845517583937854
1768725705452,133,5,4.956916587677662,4.897291615078989,4.8524478371670785
1768725705456,133,5,4.9090606818501445,4.870163792334908,4.802768939550685
1768725705460,133,5,4.836851906104653,4.70512874955675,4.728815312574016
1768725705464,133,5,4.830560368505666,4.790793247539916,4.720311270369965
1768725705468,133,5,4.9790468303510425,4.715063936445883,4.866001922067081
1768725705472,133,5,5.290855900052397,4.9850332824999715,5.174404475636819
1768725705476,134,6,5.661633753465095,5.790683264765421,5.541010445147242
1768725705480,134,6,5.923914084619135,5.765477942388445,5.798484213120743
1768725705484,134,6,5.946880090891532,5.756178303012984,5.816894806522955
1768725705488,134,6,5.713813571050771,5.737733219146139,5.5807594616847895
1768725705492,133,5,5.328867150972293,4.98180772959758,5.194630781609679
1768725705496,133,5,4.96049530373461,4.781951060081766,4.8257205522313695
1768725705500,133,5,4.764014625502101,4.7870728268593705,4.627163342309087
1768725705504,133,5,4.818862772702335,4.732096585258222,4.677250857105195
1768725705508,133,5,5.091255962230867,4.781567006145783,4.94327540476245
1768725705512,133,5,5.432669842293064,4.936934781496519,5.278787643404214
1768725705516,134,6,5.64106023411706,5.821052500851678,5.48271232944546
1768725705520,134,6,5.582925240533777,5.75965533767633,5.421192182523013
1768725705524,133,5,5.299328712233841,4.749722736303877,5.134974989448265
1768725705528,133,5,4.999811266034191,4.789136507263797,4.833670203192686
1768725705532,133,5,4.936654475892422,4.916372014563588,4.768996223501421
1768725705536,133,5,5.251839365850289,4.846518976815299,5.081413754797992
1768725705540,134,6,5.895773713102563,5.748691186621831,5.720027859170284
1768725705544,135,7,6.649161987134814,6.760220375394649,6.46588696032918
1768725705548,135,7,7.213793763306628,6.798634588473621,7.022914920476271
1768725705552,135,7,7.318979457524023,6.875248443452415,7.12269777159673
1768725705556,135,7,6.813414344343423,6.923666694772745,6.614338622783804
1768725705560,134,6,5.729084369503925,5.621114166681666,5.528272803382114
1768725705564,132,4,4.286293159183717,3.9673216898603463,4.083093688575638
1768725705568,131,3,2.8081702753205926,2.5268290915200775,2.6013316895522856
1768725705572,129,1,1.5735925683116236,1.2068345375566365,1.3619647493208946
1768725705576,129,1,0.7008244439730149,0.5441517752171827,0.4833575332115676
1768725705580,128,0,0.1368582162923339,0.0447578815572933,-0.087144633013583
1768725705584,128,0,-0.2582507837744237,-0.4521705599128576,-0.4884729368459073
1768725705588,127,-1,-0.6075715163268871,-1.0629715751144144,-0.8427300790410046
1768725705592,127,-1,-0.9587869137783578,-1.186288047400199,-1.1978210332252248
1768725705596,127,-1,-1.2851212936140222,-1.1073579431477798,-1.528137060365336
1768725705600,126,-2,-1.5285580950712725,-2.236568324152797,-1.7763876042855604
1768725705604,126,-2,-1.654935420673007,-2.2160716520799393,-1.90823224480687
1768725705608,127,-1,-1.6776322042463705,-1.2366976727727703,-1.9366183547886675
1768725705612,126,-2,-1.6280891174045746,-2.0754577091869564,-1.8925466902100985
1768725705616,126,-2,-1.5106072740116228,-2.184055431612742,-1.779883457681607
1768725705620,127,-1,-1.2962099519363008,-1.1537463870870472,-1.5698684516119117
1768725705624,127,-1,-0.960736725383056,-1.3046425062172262,-1.23940452422654
1768725705628,127,-1,-0.5308697149112795,-1.119549460789295,-0.8159817845978297
1768725705632,128,0,-0.1028033925625895,-0.2202788315387803,-0.3953201265058744
1768725705636,128,0,0.1867623953569361,-0.0322828067345195,-0.1126755382326946
1768725705640,128,0,0.2325318207597497,-0.2893676421875562,-0.0722164231352904
1768725705644,128,0,0.0362193630511402,-0.1744830390595335,-0.2725003293642734
1768725705648,128,0,-0.2686887259890664,-0.2272172650805659,-0.5814343096641185
1768725705652,127,-1,-0.4781310694603284,-1.141236820655808,-0.796042047463346
1768725705656,127,-1,-0.4456284978732376,-1.0941282570093964,-0.7698573104305084
1768725705660,128,0,-0.1915593156916539,-0.2183106681581516,-0.5228050642234993
1768725705664,128,0,0.1004371006221052,-0.243383860057096,-0.2381804719717243
1768725705668,128,0,0.2052397476657805,-0.1326247893750324,-0.1407025833363659
1768725705672,128,0,0.0005609802891453,-0.2717347837774611,-0.3521552463153772
1768725705676,127,-1,-0.4701300486142723,-0.9467644625672832,-0.8287927040521519
1768725705680,127,-1,-1.0440965896900347,-1.3740605550052922,-1.407898035193186
1768725705684,126,-2,-1.5438871375697865,-2.061733644535085,-1.912243052706874
1768725705688,126,-2,-1.8601273997610976,-2.30765901505962,-2.233127485634001
1768725705692,126,-2,-1.964642387875716,-2.10998315489142,-2.3435440814417348
1768725705696,126,-2,-1.874180842732116,-2.0968052495548557,-2.260952777847579
1768725705700,126,-2,-1.6296350041095986,-2.239201932078315,-2.0255018512151413
1768725705704,126,-2,-1.3199121386701862,-2.1552971199509425,-1.724490554053988
1768725705708,127,-1,-1.0959101349750475,-1.2387772125321603,-1.5078478960496031
1768725705712,127,-1,-1.1051109489691329,-1.1596316533273916,-1.5230019284124596
1768725705716,126,-2,-1.3726028235330028,-2.069143085667211,-1.7951727047818251
1768725705720,126,-2,-1.740438892969104,-2.247507743384822,-2.1669211351557673
1768725705724,126,-2,-1.9400917323638027,-2.1453179882203255,-2.371218667717095
1768725705728,126,-2,-1.7635013913421314,-2.2424092699852425,-2.20159179199492
1768725705732,126,-2,-1.2264402332267867,-2.1511547347990008,-1.67394035838231
1768725705736,127,-1,-0.6102457964293814,-1.0782506772501304,-1.0683334212535347
1768725705740,128,0,-0.3231401233262776,-0.2335152866788485,-0.7914011001009678
1768725705744,127,-1,-0.6465416329982379,-1.1546232435602932,-1.1229827214853874
1768725705748,126,-2,-1.5419393102153491,-2.2331433418056403,-2.0233416320519653
1768725705752,125,-3,-2.660028426902037,-3.1637045564586,-3.143670795907928
1768725705756,124,-4,-3.5348255274688483,-4.06969913127672,-4.020843319221351
1768725705760,124,-4,-3.824401812244273,-4.228221052651827,-4.316267924337675
1768725705764,124,-4,-3.465770114421032,-4.13675850469606,-3.967984805025845
1768725705768,125,-3,-2.6861454059741403,-3.2570197789029898,-3.2010938430634996
1768725705772,126,-2,-1.8819954317170184,-2.1337406484329255,-2.408468605414855
1768725705776,126,-2,-1.4275151896964715,-2.1197614852091387,-1.9618070934024936
1768725705780,126,-2,-1.5022624169798835,-2.1648139730813893,-2.0409912674951896
1768725705784,126,-2,-2.0173445031460324,-2.189748975277589,-2.5597874998591568
1768725705788,125,-3,-2.6770277526444133,-3.203633491225215,-3.2248728502375585
1768725705792,124,-4,-3.152878891455047,-4.196970317435021,-3.708023374868739
1768725705796,124,-4,-3.273233795491681,-4.038601639051992,-3.8365926199287537
1768725705800,125,-3,-3.092743831589848,-3.267489748943864,-3.665053108051271
1768725705804,125,-3,-2.7887569149127147,-3.028493748475739,-3.371001333112851
1768725705808,125,-3,-2.489222350019676,-3.400266746814279,-3.081284276643945
1768725705812,125,-3,-2.1914878988345845,-2.987839203581984,-2.7911419005154148
1768725705816,126,-2,-1.8156671853164443,-2.25977456077331,-2.4200430335757694
1768725705820,126,-2,-1.3013619104823773,-2.062626863965777,-1.9096609056804028
1768725705824,127,-1,-0.6513387155660569,-1.1559589932681604,-1.2659694638507044
1768725705828,128,0,0.0848040608588232,-0.3338448136070972,-0.5400616310912403
1768725705832,128,0,0.8324452370515425,0.0012693199565202,0.1952509139225974
1768725705836,129,1,1.4875386037217515,0.6720911601426001,0.8397341400859746
1768725705840,129,1,1.9217470798173923,1.0688319840175624,1.2673971365688868
1768725705844,130,2,2.0521833138654064,1.6999422844831833,1.3939860634765209
1768725705848,130,2,1.9496004450874755,1.8365034317374629,1.2868082055608772
1768725705852,129,1,1.8598860608553864,0.8201413618201177,1.1897934642580512
1768725705856,129,1,2.0512991857311773,0.8094418711037856,1.3718765037330474
1768725705860,130,2,2.582719071507527,1.98837353635469,1.893339706651128
1768725705864,131,3,3.210091780563049,2.7502402947464555,2.510777666810172
1768725705868,131,3,3.540837905176281,2.866221919162003,2.832082694128322
1768725705872,131,3,3.316785044561718,2.716688193661436,2.599950997108115
1768725705876,130,2,2.5965710125265247,1.9328091119195097,1.8735367843309845
1768725705880,129,1,1.7019872730448489,0.8197979989188209,0.9740059918326238
1768725705884,128,0,0.9802556730487542,-0.0039617851076459,0.2469709112984166
1768725705888,128,0,0.5682401786059728,-0.3982169248205217,-0.1725696955805368
1768725705892,128,0,0.3335953083140132,0.0133452512964121,-0.4178743029159544
1768725705896,128,0,0.0160146182213428,-0.4187701703344693,-0.7477980255574905
1768725705900,126,-2,-0.5728116019406508,-1.8186545691131792,-1.347138021028284
1768725705904,126,-2,-1.449981200947959,-2.333187973436294,-2.2305004225327023
1768725705908,125,-3,-2.493131398910937,-3.079693431761074,-3.2769429458708963
1768725705912,124,-4,-3.524617245484058,-4.270105276785141,-4.313061829358268
1768725705916,123,-5,-4.384057864879937,-5.202393542892524,-5.181444231291763
1768725705920,122,-6,-4.98116686624891,-5.981956243992456,-5.790894642024715
1768725705924,122,-6,-5.3214987196244685,-6.195672481713202,-6.143207996510307
1768725705928,122,-6,-5.477184220978615,-6.164909267775674,-6.306812583208677
1768725705932,122,-6,-5.506089629351995,-6.204034599890555,-6.338422849702132
1768725705936,122,-6,-5.3860355269546165,-6.292422293424364,-6.218516242220616
1768725705940,122,-6,-5.0405857946121735,-5.873995843820231,-5.876522757618294
1768725705944,123,-5,-4.457651923479002,-5.310914581554272,-5.306046855205766
1768725705948,123,-5,-3.8007473769669744,-5.015443039324945,-4.671042243291254
1768725705952,124,-4,-3.369128866800552,-4.349036945659357,-4.263336040443753
1768725705956,124,-4,-3.328092445854945,-4.198891951069863,-4.236476401267129
1768725705960,124,-4,-3.3039152797180504,-3.916319003536109,-4.209056845173132
1768725705964,126,-2,-2.1376013905146505,-2.325160951032178,-3.0253220257880415
1768725705968,129,1,1.8493886563317412,1.103118589906631,0.9797582902657732
1768725705972,137,9,9.954652613014732,8.465281881433878,9.088185178455186
1768725705976,148,20,21.912694180087055,20.041584585630623,21.02658707732575
1768725705980,162,34,35.18855998168351,33.81799221749759,34.26483197858099
1768725705984,173,45,45.43587960314361,44.954994432205645,44.4715140379176
1768725705988,176,48,48.16589857441656,47.84684401422099,47.17447809568679
1768725705992,169,41,40.85098903902538,40.61266769444211,39.85489308053714
1768725705996,152,24,24.2874029419388,23.890703025791453,23.305934227718165
1768725706000,129,1,2.3953537120245363,0.8815018924525928,1.436431570617816
1768725706004,106,-22,-19.45213521341907,-22.007634895914695,-20.393582706631246
1768725706008,90,-38,-36.594642675047794,-38.14109658081443,-37.53364776872206
1768725706012,82,-46,-46.53927108819363,-46.3261582879107,-47.4946851914738
1768725706016,79,-49,-49.12013440161461,-49.16480972077752,-50.10543817189727
1768725706020,81,-47,-45.71803049883353,-47.06034990071995,-46.73339740587538
1768725706024,88,-40,-38.3403513398172,-40.07892833239091,-39.37360181500762
1768725706028,98,-30,-29.054448253450488,-30.05746116766847,-30.09146799937607
1768725706032,108,-20,-19.728345537546037,-20.435028595080063,-20.76312639644301
1768725706036,115,-13,-11.837316002058904,-13.049897555340037,-12.872661988245463
1768725706040,121,-7,-6.256169763784248,-7.2199905360533805,-7.297058130869757
1768725706044,124,-4,-3.1374028926089212,-3.923297245061271,-4.185425154350729
1768725706048,125,-3,-1.988062433642115,-3.2198186529435286,-3.0415062360273035
1768725706052,125,-3,-1.9523042025296875,-3.2568844271551747,-3.009797347842977
1768725706056,125,-3,-2.185143207816836,-3.2001550709936977,-3.248297236658324
1768725706060,125,-3,-2.148520811230311,-3.0945909743725286,-3.2209393350679107
1768725706064,125,-3,-1.7129457109293806,-3.015098900165343,-2.796890076760783
1768725706068,126,-2,-1.05911878430471,-2.15744206806571,-2.1535861166098886
1768725706072,127,-1,-0.4635003743073362,-1.266217073321548,-1.56566378328632
1768725706076,127,-1,-0.0925784804282472,-1.227022703950749,-1.200560351253762
1768725706080,127,-1,0.079782734533635,-1.0429552181687516,-1.0340388381231786
1768725706084,127,-1,0.1962802622041723,-1.0991490300294158,-0.9239626817143044
1768725706088,127,-1,0.3648057523975665,-1.055733128482048,-0.7616121769288957
1768725706092,128,0,0.5755057604436016,-0.3519992975280583,-0.5564176082878656
1768725706096,128,0,0.7595303107495106,-0.1405858555975908,-0.3782456893711866
1768725706100,128,0,0.9147322701682106,-0.1217358130762148,-0.2305151536561414
1768725706104,128,0,1.1459659258631216,-0.0487409418633507,-0.008029664790922
1768725706108,128,0,1.554835461227268,-0.0850286361307918,0.3927038742337463
1768725706112,129,1,2.088246050115389,0.6687260207445989,0.91983896224741
1768725706116,130,2,2.526062698892932,1.8756414455161632,1.3523770589317998
1768725706120,130,2,2.655034871695418,1.8425459248169096,1.4753998178371366
1768725706124,129,1,2.4685080068228307,0.9819947497512888,1.2819746875517688
1768725706128,129,1,2.1880957970049297,0.8792633840001346,0.9948172196238412
1768725706132,129,1,2.0830563189573033,0.7046598804952846,0.8838110430613353
1768725706136,129,1,2.2637568825573493,0.8618069701981124,1.0586527920215922
1768725706140,130,2,2.63628947202518,1.8751465416557656,1.4246796781211186
1768725706144,130,2,3.03667311887741,1.9207117930531856,1.818378935989408
1768725706148,130,2,3.397576251708422,1.9579338078502988,2.1735133171853045
1768725706152,131,3,3.791069779785629,2.59198970869348,2.5620833106258503
1768725706156,131,3,4.3226699955160335,3.0235547171320727,3.0880593553348046
1768725706160,132,4,4.98272037065048,3.6919148330588554,3.7406934595320234
1768725706164,132,4,5.587044998387489,4.134611595488688,4.336745827338323
1768725706168,133,5,5.868875110235507,4.70196755713089,4.611486399193691
1768725706172,133,5,5.6723493930126665,4.8678259780378,4.410163758556978
1768725706176,132,4,5.103990076100542,3.746418373338809,3.838748956997292
1768725706180,131,3,4.502296877007892,2.9810359020671364,3.2341792581502204
1768725706184,131,3,4.220511269886388,2.849630318573354,2.9479844712959995
1768725706188,131,3,4.381108719340459,2.967806886133979,3.101640767592051
1768725706192,132,4,4.793824300856677,3.6149028803557535,3.505487607811063
1768725706196,132,4,5.097609472461551,4.021145899221386,3.800710907409533
1768725706200,132,4,5.013624973344054,3.6958807101645927,3.710800475044356
1768725706204,131,3,4.52527516487048,3.1443177593406166,3.21953409321503
1768725706208,131,3,3.871560706863803,2.6332986728849814,2.5639207093133303
1768725706212,130,2,3.3767980278414935,1.9748310214037148,2.0658230370757003
1768725706216,130,2,3.2416638113355196,1.6729894239938972,1.925127613692314
1768725706220,130,2,3.4371695139731333,2.0628933213518703,2.113789581297992
1768725706224,131,3,3.770920193073614,2.7647013664975115,2.4407214063558644
1768725706228,131,3,4.065397678405968,2.9977078770064174,2.7293374249546067
1768725706232,131,3,4.2936393912635875,2.616617435218561,2.953241261114365
1768725706236,131,3,4.559704535274284,3.036711703250195,3.216286885195847
1768725706240,132,4,4.961761371591503,3.729514017194046,3.6153323590550537
1768725706244,132,4,5.476787420062126,4.055085526397004,4.125935262824273
1768725706248,133,5,5.961826333687062,4.746518881742722,4.605091404657054
1768725706252,133,5,6.250751419161195,4.821634902726967,4.887988504851744
1768725706256,133,5,6.258740722004518,4.8847856318448795,4.891031045176622
1768725706260,133,5,6.021511766189643,4.858146019700573,4.650086307084251
1768725706264,132,4,5.652667051686362,3.930884987649552,4.278160311051088
1768725706268,132,4,5.259055983155515,3.8655526565032767,3.881468148936675
1768725706272,132,4,4.880597914139289,3.7017337021682137,3.4995376845341357
1768725706276,131,3,4.494084991312472,3.0242927764564342,3.1090158700221253
1768725706280,131,3,4.059882099550727,2.721680131155521,2.670264415290433
1768725706284,130,2,3.5588808952045867,2.061352856164799,2.1642302405309572
1768725706288,130,2,2.9917981759209793,1.721618973790441,1.5920243060011292
1768725706292,129,1,2.3563176576571014,0.8574271273808746,0.9523015391888738
1768725706296,128,0,1.6398271773324842,-0.1252181075235686,0.2332252508175733
1768725706300,128,0,0.8545139296243185,-0.1164230748113228,-0.5536053983264593
1768725706304,127,-1,0.0938982588769565,-1.107384490005447,-1.3162460259518385
1768725706308,126,-2,-0.4623174963687015,-2.130329956339673,-1.8757884955237312
1768725706312,126,-2,-0.646004040480175,-2.2619805699284345,-2.063469199403382
1768725706316,126,-2,-0.4417906718067503,-2.02278729070465,-1.8631224311819048
1768725706320,127,-1,-0.0373179797127101,-1.1810924230543165,-1.4624673004854285
1768725706324,127,-1,0.282957796903758,-1.0689460259329728,-1.1462939238634329
1768725706328,127,-1,0.3195199593721307,-1.1635862090410312,-1.1137031628449314
1768725706332,127,-1,0.0686389927499717,-1.2421769793503024,-1.3674131897958852
1768725706336,126,-2,-0.3125478130473291,-2.027723704116589,-1.7497484804571155
1768725706340,126,-2,-0.6371296433594038,-2.179279989871994,-2.0745202262498847
1768725706344,126,-2,-0.8020345940279667,-2.049002052577726,-2.240346028054842
1768725706348,126,-2,-0.810458474487147,-2.210061837714615,-2.251790257958966
1768725706352,126,-2,-0.7231340183690549,-2.1754482225688694,-2.1693905123216135
1768725706356,126,-2,-0.6099228103703488,-2.1069491393279396,-2.0612399729892754
1768725706360,126,-2,-0.5399011024874918,-2.0827786755921456,-1.9944117499406488
1768725706364,126,-2,-0.5835684691166758,-2.154376818465733,-2.0388037098394705
1768725706368,126,-2,-0.7837786259073325,-2.096342691577341,-2.2386145768310404
1768725706372,126,-2,-1.1010525791751025,-2.306829214558757,-2.5564341144316924
1768725706376,125,-3,-1.3971441588794449,-2.9504859353310873,-2.854856374534822
1768725706380,125,-3,-1.5083681086651108,-3.2568040593015803,-2.969234791694574
1768725706384,125,-3,-1.367987792635384,-2.9600306240075858,-2.8314360328746915
1768725706388,126,-2,-1.0648263546940138,-2.304042714496108,-2.529873672088672
1768725706392,126,-2,-0.7731932538701586,-2.0918570888716888,-2.2393253985692887
1768725706396,126,-2,-0.6161739175094544,-2.155270811478428,-2.0833775830887205
1768725706400,126,-2,-0.588248902547592,-2.0667626224390743,-2.0567964992522434
1768725706404,126,-2,-0.5993431770214233,-2.13771537607527,-2.0696570881036793
1768725706408,126,-2,-0.5880504248273829,-2.147698436711039,-2.060311270192642
1768725706412,126,-2,-0.5950868989331093,-2.216929513717166,-2.0687974928028297
1768725706416,126,-2,-0.725537484681686,-2.0464596595751203,-2.1997632404169183
1768725706420,126,-2,-1.0273983084786984,-2.15377011019914,-2.501547921377675
1768725706424,125,-3,-1.4001444567585748,-3.077770532033192,-2.87433950410933
1768725706428,125,-3,-1.6371042226802963,-3.1982998904749342,-3.111821447011445
1768725706432,125,-3,-1.587151308720098,-3.1586456814578887,-3.062792619620472
1768725706436,125,-3,-1.2989732744301867,-3.109294404447751,-2.7758922318480765
1768725706440,126,-2,-1.0106413825757368,-2.062924723235327,-2.489267476085973
1768725706444,126,-2,-0.979991038511456,-2.1988526809498556,-2.460380728312936
1768725706448,125,-3,-1.29649721865299,-3.0659604853262943,-2.7776221027931105
1768725706452,125,-3,-1.8306227717262624,-3.301108182396594,-3.310645279481676
1768725706456,124,-4,-2.3468220775143966,-3.9585779266910897,-3.8246110486732112
1768725706460,124,-4,-2.668083416644865,-4.208322028274264,-4.144394350911794
1768725706464,124,-4,-2.762791095489205,-4.0464979143671655,-4.239645765882694
1768725706468,124,-4,-2.7158174496810883,-4.221545646324902,-4.194633312803571
1768725706472,124,-4,-2.6396206981803747,-4.154775925562956,-4.120012559107151
1768725706476,124,-4,-2.6029685026998854,-4.085272689974204,-4.083338427191643
1768725706480,124,-4,-2.6135563811703557,-4.1076458236741225,-4.092629277623784
1768725706484,124,-4,-2.6426793013384327,-4.108357658596034,-4.120305904639457
1768725706488,124,-4,-2.66132954859064,-4.195326192643459,-4.1379983415244945
1768725706492,124,-4,-2.662256576535408,-4.157255771465945,-4.138253573783729
1768725706496,124,-4,-2.6569302574003895,-4.095743079306052,-4.132170647979933
1768725706500,124,-4,-2.6553478998255224,-4.089036480330767,-4.129799410344287
1768725706504,124,-4,-2.6519559830206685,-4.119321616264049,-4.125864472641007
1768725706508,124,-4,-2.635936206408082,-4.193615704395526,-4.109520305118684
1768725706512,124,-4,-2.616091494289614,-4.1564988376939915,-4.089184350425361
1768725706516,124,-4,-2.626254555849179,-4.0957508956738735,-4.09840868582733
1768725706520,124,-4,-2.6890105611501673,-4.089358974321618,-4.159857690307842
1768725706524,124,-4,-2.7608873041909865,-4.102706573978184,-4.230142727514801
1768725706528,124,-4,-2.715637923359413,-4.230369388176197,-4.18276366275636
1768725706532,124,-4,-2.3996455748193286,-4.103535243919314,-3.8639783665869984
1768725706536,125,-3,-1.727564118976404,-3.1675385985591467,-3.1891949976446794
1768725706540,126,-2,-0.7459514329729537,-1.9915804298833983,-2.206247771696822
1768725706544,127,-1,0.3764958635753648,-1.2038446213364764,-1.0841851018454347
1768725706548,128,0,1.4125284935615672,-0.1346757423244097,-0.0489719237293028
1768725706552,129,1,2.152700716378487,0.8083598314741085,0.6918076066163041
1768725706556,129,1,2.472390739467964,0.8851747167229921,1.014324428625729
1768725706560,129,1,2.3784458039922067,1.0037243957360356,0.9246176728914672
1768725706564,129,1,2.0143133920700778,0.7680150077411917,0.5646315888246933
1768725706568,128,0,1.6020480652670126,-0.0776668248611678,0.1554473687866903
1768725706572,128,0,1.3335589126672989,-0.2733088039636154,-0.1111437963411606
1768725706576,128,0,1.272557351749749,-0.0313178931824938,-0.1711325531596699
1768725706580,128,0,1.336383792985772,-0.0541713778520324,-0.1066767578508246
1768725706584,128,0,1.3698797114655192,-0.191581377446277,-0.0721600330955744
1768725706588,128,0,1.2555919379554694,-0.0876020568175469,-0.1842772326864967
1768725706592,128,0,0.9865648525609438,-0.3125191912609556,-0.4497077726262648
1768725706596,127,-1,0.659306151006192,-0.9684084514042438,-0.7722876268771426
1768725706600,127,-1,0.3965874285410357,-1.115456741650906,-1.0302041005017908
1768725706604,127,-1,0.2565782989388515,-1.1275910778857048,-1.1666938657304105
1768725706608,127,-1,0.1912849840407171,-1.1285734918726202,-1.230700922298411
1768725706612,127,-1,0.0721968151781818,-1.3197210036381115,-1.3500454485506894
1768725706616,126,-2,-0.2469347903369128,-1.921274570598279,-1.6687662196084214
1768725706620,126,-2,-0.8632144555253194,-2.1977758421392095,-2.28199047250379
1768725706624,125,-3,-1.767822886278728,-3.0015807374961834,-3.180761823154779
1768725706628,124,-4,-2.81975589509352,-4.278010821854679,-4.225774589225839
1768725706632,123,-5,-3.784997251019636,-5.177840777471522,-5.185430951034316
1768725706636,122,-6,-4.446614605836835,-6.042075713670341,-5.844685147063258
1768725706640,122,-6,-4.727259086847205,-6.117521366673829,-6.126235206116321
1768725706644,122,-6,-4.737251536007106,-5.998938936831835,-6.137666172706641
1768725706648,122,-6,-4.705434417418559,-6.356119112663347,-6.10336713527827
1768725706652,122,-6,-4.828988952440353,-6.0477560855022965,-6.2179959569967105
1768725706656,122,-6,-5.1371115811748,-6.214407726771743,-6.513579505944486
1768725706660,121,-7,-5.4719505132748445,-6.949002344525074,-6.839696831942103
1768725706664,121,-7,-5.626326667603734,-7.103016703652542,-6.995752033989986
1768725706668,121,-7,-5.544235924340834,-7.334683153843808,-6.925300086848028
1768725706672,121,-7,-5.377637634102138,-6.9787578522234694,-6.771142825654223
1768725706676,122,-6,-5.241909420224697,-6.383331764465469,-6.635957564395515
1768725706680,122,-6,-4.759223473559258,-5.695334154602224,-6.134960095715848
1768725706684,125,-3,-2.7656358961145053,-3.3921868006185116,-4.109659250164105
1768725706688,129,1,2.383435650025091,0.967897447393092,1.0685167055361098
1768725706692,138,10,11.802591601353496,9.73947408704946,10.497826085178874
1768725706696,151,23,24.82787193746632,22.850517393002136,23.509123460181055
1768725706700,164,36,38.400327808468624,36.179015261259664,37.053102240393635
1768725706704,175,47,47.782724686723526,46.630161949367725,46.409832953308225
1768725706708,177,49,48.53491330349171,49.022452154021195,47.15281683326065
1768725706712,167,39,38.746435395916706,38.51809421924072,37.37560825033338
1768725706716,146,18,20.159960285050712,18.08376389231284,18.816485235150733
1768725706720,123,-5,-2.5603548436777075,-5.074661741037573,-3.869910318283074
1768725706724,102,-26,-23.93069718474212,-26.093634020185167,-25.211866822667076
1768725706728,87,-41,-39.77758115382272,-41.12391748073603,-41.046637071272315
1768725706732,80,-48,-48.251914347355346,-48.34997109116068,-49.52849367072539
1768725706736,78,-50,-49.56292127507883,-49.96738406636898,-50.85906418579711
1768725706740,81,-47,-45.12278139002231,-47.088364844203134,-46.43602978214388
1768725706744,89,-39,-36.863052932613314,-39.075070370366376,-38.179953712469015
1768725706748,100,-28,-26.919630125095207,-28.136007617615626,-28.226929668402704
1768725706752,110,-18,-17.392044270644018,-18.36817075985267,-18.685284867112575
1768725706756,117,-11,-9.933432163179065,-10.910204382767292,-11.21606771824154
1768725706760,122,-6,-5.30748893857986,-6.239088591936868,-6.583936906592259
1768725706764,123,-5,-3.2491791241426,-4.9125618144979475,-4.520053701999604
1768725706768,124,-4,-2.7850789318474938,-4.337581170965198,-4.048296654753569
1768725706772,124,-4,-2.8258112606099015,-4.097837786749632,-4.080551662200578
1768725706776,124,-4,-2.6627757398358405,-4.180967988065281,-3.9115723211326454
1768725706780,125,-3,-2.1132133910664637,-2.954035495327481,-3.3604880807380524
1768725706784,126,-2,-1.3359154955619483,-2.226822838183751,-2.5845829847119064
1768725706788,126,-2,-0.5518173635587313,-2.0368383797068317,-1.8008170882491965
1768725706792,127,-1,0.1045192806972061,-1.3510569676002406,-1.1404629602974878
1768725706796,127,-1,0.566026198245857,-0.9501901244233608,-0.6709025469390785
1768725706800,128,0,0.7778239568131489,-0.1583612950808828,-0.450549308444679
1768725706804,128,0,0.7171765218874837,-0.0809094575522644,-0.505189169517963
1768725706808,127,-1,0.455071334498246,-1.1447816279572447,-0.7635151030911111
1768725706812,127,-1,0.155895609411564,-1.2693636400072248,-1.058768604905859
1768725706816,127,-1,-0.0073519710839662,-0.9701667127230678,-1.2169156541185104
1768725706820,127,-1,0.0555783216762673,-1.2009865807099018,-1.14889510054691
1768725706824,127,-1,0.3257832297542824,-1.0011965112107146,-0.8748253680763314
1768725706828,128,0,0.7124995921485304,-0.2556216870689686,-0.4848046604947351
1768725706832,128,0,1.1112619199540683,-0.1400019555333568,-0.0814909457994494
1768725706836,128,0,1.4492500254839729,-0.0711519712264112,0.2628315605159033
1768725706840,129,1,1.7092416238632966,0.842725807211546,0.5290627425919021
1768725706844,129,1,1.9310815501235892,1.0148937931790891,0.7548001141513812
1768725706848,129,1,2.1786676601838795,0.6374341273871662,1.0044539451026515
1768725706852,129,1,2.47725075024623,1.0822169193887912,1.306406805386098
1768725706856,130,2,2.781165597323403,1.612218023776525,1.6169463812592038
1768725706860,130,2,3.034765667260492,2.2347963895350382,1.87864036847383
1768725706864,131,3,3.2812248904096464,2.5599688014691773,2.131277886921196
1768725706868,130,2,3.6746242731934826,2.1156472414802217,2.52787988228071
1768725706872,131,3,4.325183933556314,2.6200564477319626,3.180549684361419
1768725706876,132,4,5.11118873514872,4.038690500702383,3.9695443976521263
1768725706880,133,5,5.678325372163706,4.8694199949983235,4.540671080154066
1768725706884,133,5,5.679420775691749,4.840503184276532,4.546164818972133
1768725706888,132,4,5.056278852845082,3.930910315640572,3.9281235543579793
1768725706892,131,3,4.110257874493859,2.6956464925324335,2.988495613548342
1768725706896,130,2,3.3021307509262057,2.052406458730099,2.187350284360747
1768725706900,130,2,2.9554831456333464,1.7899513535349851,1.8463589690850024
1768725706904,130,2,3.095195263357382,1.9762781387446704,1.989220236244523
1768725706908,131,3,3.5135372962435385,2.7856424953822567,2.409228809461387
1768725706912,131,3,3.96915270757967,2.828107537704726,2.867398187760102
1768725706916,131,3,4.346424865024062,2.919451103760958,3.2493972504126947
1768725706920,132,4,4.673324465741372,3.9089191294507657,3.5821820208391486
1768725706924,132,4,5.022788481766982,3.8758653025631977,3.936886638486494
1768725706928,132,4,5.396852609608595,3.8877059002479353,4.315052844704828
1768725706932,133,5,5.690510727765214,4.727642629607755,4.6123714537213205
1768725706936,133,5,5.773234593829787,5.000639655744418,4.698792445189153
1768725706940,133,5,5.624923912658609,4.8280826342138585,4.554353030967164
1768725706944,132,4,5.392396767673371,3.972852928296061,4.326316823760333
1768725706948,132,4,5.294671023801677,3.783567279526459,4.2338593669467315
1768725706952,133,5,5.4603047537196625,4.8369316678510845,4.404518492962067
1768725706956,133,5,5.847150689225737,4.878711211344455,4.7949213859110955
1768725706960,133,5,6.298592652701594,4.952172219848441,5.248699880975597
1768725706964,134,6,6.66293537113651,5.870920804049638,5.615624508912562
1768725706968,134,6,6.876891538896152,5.866845726580833,5.833401998607796
1768725706972,134,6,6.968437969309114,5.746403928028322,5.929781981376253
1768725706976,134,6,6.995583654714301,5.976724549204848,5.961894152319839
1768725706980,134,6,6.977606518609275,5.837281794253092,5.948217088834536
1768725706984,134,6,6.8753348772979965,6.020348895748554,5.849290184531917
1768725706988,134,6,6.628948879820205,5.701187612942951,5.605663218581225
1768725706992,133,5,6.209500294256475,4.8987505125335975,5.189066974264081
1768725706996,133,5,5.638068590379457,4.834272710322255,4.620948025898613
1768725707000,132,4,4.966510976152377,3.9636413318417216,3.953074098857938
1768725707004,131,3,4.246004185109964,2.9210040077486754,3.2364339770228066
1768725707008,131,3,3.5115556592253903,2.7951865643711225,2.505899713349168
1768725707012,130,2,2.7922863101340747,1.7903106396143404,1.7903557736018263
1768725707016,129,1,2.1310182340074904,0.9449125556151938,1.1323262903931102
1768725707020,129,1,1.5837141573972695,0.8480521516979576,0.5877447205802401
1768725707024,128,0,1.1879724390105046,0.0609838639163239,0.1946324529056288
1768725707028,128,0,0.9252107330113548,-0.365668896908658,-0.0651409717488065
1768725707032,128,0,0.7193163748963756,-0.0327335821032481,-0.2678643111052833
1768725707036,128,0,0.4894717924553391,-0.2637287222592603,-0.4949197013120868
1768725707040,127,-1,0.2166466948858605,-0.9231948154465583,-0.7652552943459775
1768725707044,127,-1,-0.0428447116082844,-1.1570562570151794,-1.0217031411850266
1768725707048,127,-1,-0.2113077811605519,-1.1708066136541602,-1.1861899231717103
1768725707052,127,-1,-0.2548592800837941,-1.206290390688058,-1.225754169165417
1768725707056,127,-1,-0.2018701438703705,-1.1261732203993329,-1.1701280337878257
1768725707060,127,-1,-0.1152298511009159,-1.0233429280892423,-1.082464379227726
1768725707064,127,-1,-0.0596411660904627,-1.0704688302061085,-1.026194453750718
1768725707068,127,-1,-0.0892367289757598,-1.2568637912924094,-1.053823724495924
1768725707072,127,-1,-0.241077331745628,-1.1277813062506477,-1.2019968743682368
1768725707076,127,-1,-0.5127610221473118,-1.21539333532477,-1.4693847121534351
1768725707080,126,-2,-0.8393678703773384,-1.914223950472861,-1.7924949084568165
1768725707084,126,-2,-1.1112761190963885,-2.1815748054808703,-2.062403176187533
1768725707088,126,-2,-1.2406575292187538,-2.1511282694209606,-2.1910594318209724
1768725707092,126,-2,-1.2262138905520208,-2.2394008461747754,-2.1762237117420637
1768725707096,126,-2,-1.1560591544645824,-2.1117545746403787,-2.104686345932378
1768725707100,126,-2,-1.1386246184826287,-1.9924066607670077,-2.0840571645694874
1768725707104,126,-2,-1.2112135962473332,-2.1154141119512375,-2.15235444600146
1768725707108,126,-2,-1.2990793716082984,-2.2196763575801746,-2.2369095624747595
1768725707112,126,-2,-1.2682281898796917,-2.178948083483676,-2.2053278551859363
1768725707116,126,-2,-1.045313455841749,-2.186068831928444,-1.983533834172772
1768725707120,126,-2,-0.7107875925771949,-1.8770785446467717,-1.649352703224246
1768725707124,127,-1,-0.4665347404295679,-1.2600611424826051,-1.4027690171576224
1768725707128,127,-1,-0.4706880070930763,-1.053047728027911,-1.402648331333436
1768725707132,127,-1,-0.6692225398296301,-1.380894617123896,-1.5973097095557558
1768725707136,126,-2,-0.8001859469844456,-1.9777746554830096,-1.7262946613031551
1768725707140,126,-2,-0.6115004828447302,-2.0648747983288005,-1.5373157478679156
1768725707144,127,-1,-0.1163701291616359,-1.0979231610066875,-1.0427863397344888
1768725707148,128,0,0.3603692241076823,-0.1699123090198608,-0.5669601435946577
1768725707152,128,0,0.4137356803330598,-0.3226350100180623,-0.5139269356427956
1768725707156,127,-1,-0.1222377586985126,-0.9944512546445222,-1.0483474094638123
1768725707160,126,-2,-1.0371929866069505,-2.0802226404936235,-1.959501371953809
1768725707164,125,-3,-1.8931610773938932,-3.083689527574848,-2.8110545124039965
1768725707168,125,-3,-2.328135456639247,-3.1583275158409494,-3.243506727755498
1768725707172,125,-3,-2.281628853447959,-3.362410002041192,-3.197501075954167
1768725707176,125,-3,-1.9923671611528395,-2.917276189896577,-2.910681089573491
1768725707180,126,-2,-1.7939212125413535,-2.180125694260163,-2.714458470462278
1768725707184,125,-3,-1.8735960930699247,-2.9950618055468956,-2.794430455947352
1768725707188,125,-3,-2.1719715734816445,-3.232073997238542,-3.0906956052192713
1768725707192,125,-3,-2.477064471671862,-3.3180789666474486,-3.39213157237004
1768725707196,124,-4,-2.6096499775817508,-3.9224727995452593,-3.521364993658432
1768725707200,125,-3,-2.5408610254833364,-3.210409044707088,-3.451446083324793
1768725707204,125,-3,-2.367806075775538,-2.92681328794053,-3.2801072526890995
1768725707208,125,-3,-2.207238597898276,-3.342779594598083,-3.122630471451848
1768725707212,125,-3,-2.12151348374046,-3.1799826014015844,-3.0387996513933695
1768725707216,125,-3,-2.1217131943442364,-3.0771628709983,-3.038274723313783
1768725707220,125,-3,-2.195847664988308,-3.0579147185956184,-3.109903741696364
1768725707224,125,-3,-2.3042045929221864,-3.0636377077053014,-3.2158840570884117
1768725707228,125,-3,-2.358057254207057,-3.219173194505928,-3.268594501829682
1768725707232,125,-3,-2.241769599460696,-3.3113075791607924,-3.152268240204261
1768725707236,125,-3,-1.8939793457243783,-2.9221498713727705,-2.805211797942333
1768725707240,126,-2,-1.3863796665456598,-2.2618655620101373,-2.2993012360755385
1768725707244,126,-2,-0.9206027359836052,-1.7865374670391434,-1.8361632304983175
1768725707248,127,-1,-0.726821340342392,-1.5710342626570235,-1.6447749470046915
1768725707252,126,-2,-0.9262323855315768,-1.90120973108986,-1.84446476169856
1768725707256,126,-2,-1.442848411297971,-2.3886749295333876,-2.3586105769030583
1768725707260,125,-3,-2.014839200928878,-2.776603171577405,-2.9270654005348247
1768725707264,125,-3,-2.304649972055393,-3.2490969778661594,-3.2150293577456006
1768725707268,125,-3,-2.064321755241094,-3.1514215024016794,-2.9760157647512955
1768725707272,126,-2,-1.27647487032173,-2.250310932834607,-2.1918003624704814
1768725707276,127,-1,-0.1810425449383552,-1.1347415138699464,-1.1001943633393438
1768725707280,128,0,0.8502952964279074,0.0579836617992899,-0.0711937388448092
1768725707284,129,1,1.5264577757399007,0.8461346753357654,0.6045779206992259
1768725707288,129,1,1.7947417705627966,0.8027866621662305,0.8739567260993243
1768725707292,129,1,1.8327385212227645,0.757310989462509,0.913620712749238
1768725707296,129,1,1.8888704045051328,0.8521561237242461,0.9707537157880926
1768725707300,129,1,2.1022029302459666,1.0924164390519546,1.183224963867605
1768725707304,130,2,2.4341663300467453,1.79426497002458,1.5123152560797604
1768725707308,130,2,2.736786175829941,1.8971727174327673,1.811540335409976
1768725707312,130,2,2.874020666378881,1.6091678739745474,1.946825769665785
1768725707316,130,2,2.8000936460366197,2.0184807455107285,1.8728106870136167
1768725707320,130,2,2.5606115612538103,1.9106283533555417,1.6336892618017007
1768725707324,129,1,2.235284346766373,0.984477702801986,1.3077969249401908
1768725707328,129,1,1.8628563290476157,0.738663041011955,0.9338556574129894
1768725707332,129,1,1.4029709631552394,0.7151103039251216,0.4721765464552576
1768725707336,128,0,0.7728356297395318,-0.0589824279386073,-0.1596309815839737
1768725707340,127,-1,-0.0713317605158424,-1.0463053589798097,-1.0051756406922192
1768725707344,126,-2,-1.087927061396453,-2.01791452245623,-2.022782854677183
1768725707348,125,-3,-2.1805223556347557,-3.269999009818452,-3.116503585809296
1768725707352,124,-4,-3.2637949051767436,-4.297007123628003,-4.202083762204433
1768725707356,123,-5,-4.290506394174541,-5.032669672976712,-5.232669962437339
1768725707360,122,-6,-5.214562220163993,-6.10128600529874,-6.16031523461543
1768725707364,121,-7,-5.938897738898018,-6.912369829323558,-6.884495816017189
1768725707368,121,-7,-6.315517558975978,-7.40432958623091,-7.255794812182144
1768725707372,121,-7,-6.214768829154062,-7.1648562591606355,-7.148577962295364
1768725707376,122,-6,-5.625770468061917,-6.177425191368162,-6.559766121131199
1768725707380,122,-6,-4.7377890753964245,-5.93541184893234,-5.683295389673756
1768725707384,123,-5,-3.94939612704235,-5.104874106728883,-4.9135601048015305
1768725707388,123,-5,-3.723029654293252,-5.133145192375696,-4.702109052742222
1768725707392,123,-5,-4.220639301199786,-5.59654601287028,-5.201693976870994
1768725707396,124,-4,-4.837389338339122,-3.581818167983105,-5.805994281308437
1768725707400,124,-4,-4.022853175625089,-4.6912544332828725,-4.970094601873848
1768725707404,124,-4,0.1985384480659409,-3.185332079479932,-0.7282185851812181
1768725707408,138,10,9.058505327308252,8.850458103295093,8.139227982528787
1768725707412,149,21,21.883924595138765,21.466324335838085,20.95060833743216
1768725707416,162,34,35.73146301099096,33.357468940175295,34.76633836460309
1768725707420,173,45,46.16372586236954,45.366213768760666,45.164912338141406
1768725707424,177,49,48.915330348007615,48.78014624390652,47.89725105381932
1768725707428,170,42,41.73593292467366,41.67758412953775,40.71913785954578
1768725707432,153,25,25.49637101305584,24.787992952437644,24.497382640344835
1768725707436,130,2,3.922764801373715,1.7983309230775015,2.949423075112784
1768725707440,108,-20,-17.90956246143842,-19.78252607596722,-18.859755945295337
1768725707444,92,-36,-35.45256574960657,-36.25149912236719,-36.39257602684634
1768725707448,82,-46,-45.968759488086455,-46.082267589671496,-46.917408807901175
1768725707452,79,-49,-48.83631337675121,-49.5392544613868,-49.80824802244217
1768725707456,81,-47,-45.146670221175896,-46.78393659074065,-46.14388866992431
1768725707460,90,-38,-37.05341871678057,-38.246515318414694,-38.06605825754414
1768725707464,100,-28,-27.10980699549927,-27.796703641162267,-28.12486150020888
1768725707468,110,-18,-17.636486923858484,-18.554717017341662,-18.645897900821055
1768725707472,117,-11,-10.19641641754923,-11.10646334070424,-11.198894900456123
1768725707476,122,-6,-5.344078456764076,-6.186005385942147,-6.342222188027467
1768725707480,124,-4,-2.7568606521801513,-3.945560641808049,-3.7538384281156034
1768725707484,125,-3,-1.6655206326479024,-3.0094301777216725,-2.6636394106844774
1768725707488,126,-2,-1.3340401115946152,-2.4371320905357576,-2.33503581519658
1768725707492,126,-2,-1.3309720855806964,-2.1030777943339483,-2.3365934949528224
1768725707496,126,-2,-1.5039377271832763,-2.2620380966645097,-2.5155434644141135
1768725707500,125,-3,-1.7872992885608978,-2.835817984732621,-2.804680563477932
1768725707504,125,-3,-2.057595178572305,-3.1409544616777234,-3.0785265642767032
1768725707508,125,-3,-2.146333177870978,-3.3334264615883624,-3.1678311485860657
1768725707512,125,-3,-1.9486552429508024,-3.129333430838477,-2.96920178896717
1768725707516,126,-2,-1.491949614456959,-2.3116309431483986,-2.512812358038303
1768725707520,126,-2,-0.8977020246078302,-1.7062351628460868,-1.9219701420490083
1768725707524,127,-1,-0.2909411559976362,-1.3738203429337597,-1.3208562997429314
1768725707528,127,-1,0.2468241724186533,-1.0351488726831124,-0.788172919080149
1768725707532,128,0,0.6586669043808264,-0.458008809013941,-0.3786980757252378
1768725707536,128,0,0.8922853173182825,0.0292826779358281,-0.145104597705026
1768725707540,128,0,0.9334066701058488,-0.025928952900228,-0.1039000995443317
1768725707544,128,0,0.8581390385421441,-0.1281093406247255,-0.1808896010421959
1768725707548,128,0,0.8218905029979926,-0.2054239350988872,-0.2207522803963237
1768725707552,128,0,0.9593353233526823,-0.3686245924769025,-0.0874177201797378
1768725707556,128,0,1.27241038722718,0.0342851016004196,0.2223401667387836
1768725707560,129,1,1.619184429319575,0.8932469116255786,0.5666647684997144
1768725707564,129,1,1.8330089200814947,0.9933719704210044,0.778240201504203
1768725707568,129,1,1.8716282135619304,0.6345890438453964,0.814523705010887
1768725707572,129,1,1.8589610612509904,0.8042685554486693,0.7997354973207436
1768725707576,129,1,1.9825520651532191,0.8751799466234205,0.921637225166384
1768725707580,129,1,2.3409250367854706,1.021345656998658,1.278384182691085
1768725707584,130,2,2.8722746894520004,1.9051776592562404,1.8073634323027905
1768725707588,131,3,3.417695425560505,2.6652883120280992,2.3491827868044957
1768725707592,131,3,3.851605473874577,2.830036848323663,2.7789395095463885
1768725707596,131,3,4.156925200130881,2.7985064597158833,3.081087056379245
1768725707600,131,3,4.3901908951083755,3.1321686479173936,3.3128949894010926
1768725707604,132,4,4.598920761267674,3.758503149272685,3.5208807702012708
1768725707608,132,4,4.784318660925335,3.827843314834426,3.704778524263279
1768725707612,132,4,4.925523103816612,3.674387857490906,3.8434877311459905
1768725707616,132,4,5.011675833010877,3.9351084375412593,3.9268871355475294
1768725707620,132,4,5.042580243897785,4.018207205583615,3.9550051081027937
1768725707624,132,4,5.009653486463286,3.81763121231261,3.9186956734742138
1768725707628,132,4,4.887303733792642,3.829180650679951,3.7923217380481455
1768725707632,132,4,4.649510578057942,3.622208975164024,3.551211813652186
1768725707636,131,3,4.30630689146327,3.0331775435767407,3.207019644785757
1768725707640,131,3,3.941074594019081,2.8728695558856896,2.842897343746629
1768725707644,131,3,3.717894525636051,2.9749920802500247,2.620438025751578
1768725707648,131,3,3.822932210640076,2.6778350764320766,2.723332356693573
1768725707652,131,3,4.335775049789573,2.7631689335109373,3.231086239620931
1768725707656,132,4,5.108332030073778,3.9222811732698855,3.997680283950798
1768725707660,133,5,5.7807947061018625,4.927928338202405,4.665486152475605
1768725707664,133,5,5.983043345261309,4.961701406053091,4.865366326648728
1768725707668,133,5,5.59850732789922,4.650394564471684,4.480607671348476
1768725707672,132,4,4.881002095707529,3.826623440309135,3.764213085205774
1768725707676,131,3,4.313373253652353,2.8236126906659385,3.1977899186667327
1768725707680,131,3,4.297635257667375,3.0278979188514237,3.181873325094367
1768725707684,132,4,4.899010368633064,3.8778913763849463,3.780441405509196
1768725707688,133,5,5.821312757334805,4.719898803088226,4.697166160295476
1768725707692,134,6,6.609049787848127,5.798397075589176,5.4781940142177445
1768725707696,134,6,6.909490971931437,5.7930049852458545,5.773710071032888
1768725707700,133,5,6.616829226877328,5.071626729639492,5.48012366759635
1768725707704,133,5,5.848264717800639,4.808765221084643,4.71410649127294
1768725707708,132,4,4.832763730648676,3.8180254576548895,3.701460786004453
1768725707712,131,3,3.8100401128907206,2.6964922381144185,2.6786846133184996
1768725707716,130,2,2.9651497167437952,1.899523180904741,1.8301161174878993
1768725707720,129,1,2.3787911128791346,0.9329758354686616,1.2383531219147863
1768725707724,129,1,1.999301082062639,0.9530744572323756,0.8543709952712708
1768725707728,129,1,1.6724351304235194,0.6922889835200822,0.525466828436035
1768725707732,128,0,1.2372924177753748,-0.1836375468607461,0.0904425418125756
1768725707736,128,0,0.6371070208069152,-0.21243729344783,-0.50923394176204
1768725707740,127,-1,-0.03431895299732,-0.9964869419647868,-1.181524010270644
1768725707744,126,-2,-0.5977697268972164,-2.1160497642641887,-1.7473022601004624
1768725707748,126,-2,-0.9308031392563256,-2.2143891235773268,-2.08263535013035
1768725707752,126,-2,-1.071785572518454,-2.2812232767373413,-2.2248770638686044
1768725707756,126,-2,-1.18092865599609,-2.1059848511399593,-2.335063518697205
1768725707760,126,-2,-1.3824184885340998,-2.1410801277599663,-2.538696880373291
1768725707764,125,-3,-1.6407611966295643,-2.9604895715495494,-2.799834730082782
1768725707768,125,-3,-1.7999261437124323,-3.382138651621987,-2.9604473278114023
1768725707772,125,-3,-1.7422410520885945,-3.0781971813379374,-2.90208323057303
1768725707776,126,-2,-1.493806934701535,-2.3456351737733563,-2.652767209454012
1768725707780,126,-2,-1.1720607001483163,-1.885990853110264,-2.3323207430674686
1768725707784,126,-2,-0.8586086986400314,-2.233855983721856,-2.0221180804916297
1768725707788,126,-2,-0.5547939973314654,-2.1119445304510487,-1.721039141434669
1768725707792,127,-1,-0.2552157499149469,-1.322203818314014,-1.422225497684564
1768725707796,127,-1,-0.0257876941561288,-1.1504495629250049,-1.1926967071000636
1768725707800,127,-1,0.0184692047808594,-1.033520356324735,-1.1492085771278109
1768725707804,127,-1,-0.1891547753310312,-1.138809817952362,-1.3584550514047395
1768725707808,126,-2,-0.5998269873676529,-2.1651732149034117,-1.7702116671738235
1768725707812,126,-2,-1.071276213896,-2.3135298306426075,-2.2416529925608653
1768725707816,126,-2,-1.4460316023579074,-2.1280327100970142,-2.6162720566135613
1768725707820,125,-3,-1.622740953230169,-3.0809229828071993,-2.7935935961515117
1768725707824,125,-3,-1.5898690819675003,-3.0741333059225067,-2.7618279622870414
1768725707828,126,-2,-1.4143000348196626,-2.2337022903843025,-2.587432350300799
1768725707832,126,-2,-1.1870060189909482,-2.2675014621496383,-2.361481521088891
1768725707836,126,-2,-0.9629833636291968,-2.156501954111734,-2.1387005660115515
1768725707840,126,-2,-0.7525037542464081,-2.066246087382213,-1.928365193650588
1768725707844,126,-2,-0.5661725892056191,-2.0862484377287203,-1.7409210619062616
1768725707848,127,-1,-0.4464327785437112,-1.2282990407588985,-1.620496193733166
1768725707852,127,-1,-0.438977561007893,-1.2743451686614284,-1.614433721792799
1768725707856,126,-2,-0.5469423559161684,-2.1575106549101064,-1.724964893942184
1768725707860,126,-2,-0.7353041918533281,-2.053368989922812,-1.914386524937942
1768725707864,126,-2,-0.9720122917146709,-2.1178874238530634,-2.1495837861092935
1768725707868,126,-2,-1.2336054147841415,-2.2025167555226557,-2.4089592318482205
1768725707872,126,-2,-1.4649085784278109,-2.279018702976405,-2.6396259350538327
1768725707876,125,-3,-1.5715306063040368,-3.1799152450840555,-2.7472699977277624
1768725707880,125,-3,-1.4947371776936134,-3.007564651251182,-2.6717210772451994
1768725707884,126,-2,-1.298042170613055,-2.1971819476308196,-2.4758327137869145
1768725707888,126,-2,-1.154011868540328,-2.1126258635915365,-2.332435832943153
1768725707892,126,-2,-1.22552657034565,-2.361348780189823,-2.40405308385636
1768725707896,125,-3,-1.5496210948991775,-3.101872073364123,-2.726918691288637
1768725707900,125,-3,-2.0151742974099163,-3.104025994040638,-3.1904761502384034
1768725707904,125,-3,-2.431231897659658,-3.1025946862633194,-3.6054962235176142
1768725707908,124,-4,-2.6354581753195054,-4.2190708779288855,-3.810052932038935
1768725707912,124,-4,-2.590871504275284,-4.216292870284965,-3.765710521211606
1768725707916,125,-3,-2.406793741801788,-3.277805971588284,-3.5809597431118014
1768725707920,125,-3,-2.245248121328193,-2.916425911211087,-3.4188011005943357
1768725707924,125,-3,-2.1846140350086105,-3.3312155952652005,-3.3582777080956774
1768725707928,124,-4,-2.1828514851439995,-3.948835851976456,-3.356278991759162
1768725707932,125,-3,-2.1774624733991654,-3.522451140838627,-3.3494655015288375
1768725707936,125,-3,-2.1919843911608408,-2.9406092660417453,-3.3625573504776702
1768725707940,125,-3,-2.316982398857554,-3.2886046749384543,-3.487532296910851
1768725707944,124,-4,-2.5956176506015733,-3.952133748450569,-3.766651203592
1768725707948,124,-4,-2.9470149388261193,-4.314916653233285,-4.116830666352134
1768725707952,124,-4,-3.194697278552519,-4.197342738802124,-4.3612387962580215
1768725707956,124,-4,-3.15725541579779,-4.214781236952522,-4.320631505023547
1768725707960,124,-4,-2.735060841075553,-4.0768892109756525,-3.897495398731162
1768725707964,125,-3,-1.9608218017282324,-3.1025653424587047,-3.1243673193953256
1768725707968,126,-2,-0.9970614118671206,-2.216716195258367,-2.161812229992174
1768725707972,127,-1,-0.0682152833189264,-1.2727370828861444,-1.232516019775414
1768725707976,128,0,0.6502758449818,-0.1542683117552195,-0.5115646172953269
1768725707980,128,0,1.1170645098136935,-0.1408903871978423,-0.0411766282716272
1768725707984,128,0,1.4180148693907253,-0.0393848648555614,0.2630074878011283
1768725707988,129,1,1.671406932717895,0.7164528145010335,0.5178252569242805
1768725707992,129,1,1.922531644168608,0.780697130207952,0.7683596256434888
1768725707996,129,1,2.107580267070907,0.8062984691410767,0.952522999581722
1768725708000,129,1,2.110358849626053,0.8903890582274158,0.9564076341929848
1768725708004,129,1,1.876741758438252,0.9243747216924844,0.726374091030419
1768725708008,129,1,1.5086174090856956,0.7498367276623722,0.3626045982139352
1768725708012,128,0,1.2464575603326318,-0.2655040063471611,0.1036327846560393
1768725708016,128,0,1.3160729029670093,-0.1370487405843591,0.1747194590101934
1768725708020,129,1,1.7431640078474846,0.8279096401801951,0.6021601725904271
1768725708024,129,1,2.2985601487057874,0.9908367393082776,1.1575801583451306
1768725708028,130,2,2.640234083931355,1.6682599750630072,1.4995837347941317
1768725708032,130,2,2.5494193631401023,1.8324294034300912,1.4100908961489904
1768725708036,129,1,2.074409154078751,0.7233324876091263,0.9382342634927404
1768725708040,128,0,1.4701050638089217,-0.0005483120527378,0.339120310814581
1768725708044,128,0,0.9936234918539684,-0.2154817833813546,-0.1316957419467818
1768725708048,128,0,0.7311501454538114,-0.1025145535658226,-0.3908178924557599
1768725708052,128,0,0.5773770009926713,-0.3979322638650653,-0.5450024463769247
1768725708056,127,-1,0.3376778809130049,-1.058031353869964,-0.7871923960799765
1768725708060,127,-1,-0.154579587854985,-1.2176621262954428,-1.2804609879978972
1768725708064,126,-2,-0.9683674194634296,-2.021154999284278,-2.091242786110642
1768725708068,125,-3,-2.0491266792765455,-3.2890533670575204,-3.165275134168461
1768725708072,124,-4,-3.22288207389705,-4.203632218260234,-4.331503749660614
1768725708076,123,-5,-4.238739681245407,-5.263516310336653,-5.342752491207286
1768725708080,122,-6,-4.861447494235933,-6.011947835395548,-5.965591116948657
1768725708084,122,-6,-4.992691733691133,-6.244739202967893,-6.09975253828122
1768725708088,122,-6,-4.749991638499148,-6.05008458234045,-5.857970509085002
1768725708092,123,-5,-4.420466268497329,-5.445714679250706,-5.523489285362162
1768725708096,123,-5,-4.282797700665727,-5.019679298440994,-5.375718763451028
1768725708100,123,-5,-4.417792303972386,-5.269933189934609,-5.501143053431906
1768725708104,122,-6,-4.6770294214759875,-6.0103461182710305,-5.758224259049502
1768725708108,122,-6,-4.856027833326015,-6.262531279650465,-5.945070274792526
1768725708112,122,-6,-4.902664534470931,-6.261258663177104,-6.00440850662445
1768725708116,122,-6,-4.8983801419537,-6.156598959702519,-6.006579966639869
1768725708120,123,-5,-4.719418235103622,-5.1889934940449,-5.817990412687033
1768725708124,124,-4,-3.6225613194051016,-4.0502953438556375,-4.695178302381047
1768725708128,127,-1,-0.2202853778379054,-1.2717229064485895,-1.2626635558682904
1768725708132,134,6,6.841345533766102,5.786510974587247,5.815912082947705
1768725708136,144,16,17.701120841591674,15.802319295309225,16.668649383699606
1768725708140,156,28,30.3356543971636,27.834345011546933,29.276591960354835
1768725708144,168,40,40.69881536937803,39.97061840288213,39.61014190328966
1768725708148,173,45,44.24768601256005,44.61390191398492,43.14378295077516
1768725708152,166,38,38.186020927960435,37.92624262560435,37.08933878747163
1768725708156,151,23,23.081129882002113,22.548347301150223,22.010014481506545
1768725708160,129,1,2.764811345517224,1.1109959660880455,1.725683892963179
1768725708164,108,-20,-17.469742140006545,-20.347303645386432,-18.483204539956457
1768725708168,93,-35,-33.22534264779528,-34.96324902889334,-34.227973712195215
1768725708172,86,-42,-42.46759079118747,-42.44584107504333,-43.476106710607894
1768725708176,83,-45,-45.433089520929045,-45.051984692077546,-46.45841096177135
1768725708180,84,-44,-43.501292109390526,-44.269524414315704,-44.542778610195256
1768725708184,88,-40,-38.13795386409266,-40.08051469427058,-39.18452740015164
1768725708188,96,-32,-30.587503012086323,-32.17105957207762,-31.626267218630908
1768725708192,105,-23,-22.116495968213137,-23.30554214305229,-23.14174134578913
1768725708196,113,-15,-14.167232998393525,-15.098878295727037,-15.18210081043202
1768725708200,120,-8,-8.056762829879705,-8.302540006960566,-9.067618747246648
1768725708204,123,-5,-4.431004046364187,-5.0641631880773375,-5.4410265464978975
1768725708208,124,-4,-2.9810942043134285,-4.252846397943488,-3.988471073612829
1768725708212,124,-4,-2.723149308591122,-4.184142979043202,-3.724050098478654
1768725708216,124,-4,-2.6595603881948406,-4.197742980280152,-3.652415638265561
1768725708220,125,-3,-2.322618396232982,-3.180251288444668,-3.3100607538676896
1768725708224,126,-2,-1.8247880232059677,-2.224629022223685,-2.8117778588256988
1768725708228,126,-2,-1.475988725932762,-2.0991091433833384,-2.465544450700393
1768725708232,126,-2,-1.37292603136128,-2.3580935844192608,-2.363052088303835
1768725708236,125,-3,-1.3170203977249528,-2.959219591686065,-2.302079932895875
1768725708240,126,-2,-1.055638172734597,-2.4846916581644956,-2.031581400763327
1768725708244,127,-1,-0.5417703296928789,-0.8730830918437507,-1.5100903557160836
1768725708248,128,0,0.0448311852176677,-0.5230515453380167,-0.9209939497347516
1768725708252,127,-1,0.4816156096743365,-0.8868530857824566,-0.48478019638561
1768725708256,128,0,0.6761662303558356,-0.4152300855069286,-0.2890918602691625
1768725708260,128,0,0.6952848450919347,-0.0932152463648847,-0.2652859617329448
1768725708264,128,0,0.6867181091323269,-0.2035363982535223,-0.2678131004358006
1768725708268,128,0,0.783822916958848,-0.3008845609863311,-0.1658419280571257
