timestamp_ms,ecg_u8_raw,ecg_counts_raw_int,ecg_counts_filt_monitor,ecg_counts_filt_diagnostic,ecg_counts_filt_st
1769250476600,127,-1,-3.6041155867898658,0.2041699802782435,-0.0586250583472156
1769250476604,126,-2,-3.9795542171598313,-0.6844205331028013,-0.4327610871572807
1769250476608,126,-2,-4.243887977798485,-0.7526758115379564,-0.695072703288343
1769250476612,126,-2,-4.271443549888362,-0.7269910282311653,-0.7210724090569944
1769250476616,126,-2,-3.998175879944018,-0.6090502772853996,-0.4478948893897614
1769250476620,127,-1,-3.4811447756866665,0.0861531923781215,0.0672987912513225
1769250476624,127,-1,-2.892017526859804,0.4463530292147888,0.6541395430076282
1769250476628,128,0,-2.4372358879481335,1.1154794232290703,1.1079190915153645
1769250476632,128,0,-2.238815085660857,1.4252354329964323,1.3075106640253062
1769250476636,128,0,-2.2453880138133364,1.2291101101891062,1.3038769375907031
1769250476640,128,0,-2.242421989029912,1.251622274003303,1.3102283454073465
1769250476644,128,0,-1.9720343326432943,1.3104212596887748,1.5828219055558144
1769250476648,129,1,-1.2908538117734785,2.2241038446968524,2.263897461068753
1769250476652,130,2,-0.2616199523492584,3.3852055517632076,3.2910282189724733
1769250476656,131,3,0.8783558977431789,4.209519367624663,4.428794118978102
1769250476660,132,4,1.8476820717466065,5.33754484895755,5.39781975101389
1769250476664,133,5,2.4732143906056305,6.176444772853965,6.025346525931238
1769250476668,133,5,2.7768726762581477,6.3991419373199765,6.332055364965779
1769250476672,133,5,2.9382794692128957,6.20542544899212,6.4962162149197615
1769250476676,133,5,3.149872766827609,6.3932129164907305,6.709702986691065
1769250476680,134,6,3.4679722139481157,7.174358068341643,7.028717916886182
1769250476684,134,6,3.773395049265838,7.3257091396871585,7.334044428957473
1769250476688,134,6,3.862087324779395,7.289958523802857,7.421879835257398
1769250476692,134,6,3.581669521195451,7.292999927981194,7.140600941065865
1769250476696,133,5,2.9105920103508556,6.335921948639589,6.469784162550135
1769250476700,132,4,1.941504958575845,5.200097488917104,5.502973556911163
1769250476704,131,3,0.8121894588587296,4.342993116819185,4.377654725008762
1769250476708,130,2,-0.3426631910329744,3.2612435653228986,3.22674337648167
1769250476712,129,1,-1.3941896522241204,2.3486466566601027,2.17717754039563
1769250476716,128,0,-2.224974052811646,1.284388435460062,1.346126693299529
1769250476720,127,-1,-2.786160557936894,0.2374283564858883,0.7839149361997488
1769250476724,127,-1,-3.1677139944335293,0.3326234489128534,0.4019494601678979
1769250476728,127,-1,-3.5826238024731225,0.2768821417075229,-0.0125177399551124
1769250476732,126,-2,-4.233009397172729,-0.6614659461037937,-0.6614999898618628
1769250476736,125,-3,-5.156756807323014,-1.672662320849144,-1.5821439751202997
1769250476740,124,-4,-6.187352124792133,-2.8633942054396986,-2.6079453732739792
1769250476744,123,-5,-7.057560064800358,-3.503383262110275,-3.4739532643707056
1769250476748,123,-5,-7.561317829559743,-3.923511621470349,-3.9772646779090417
1769250476752,122,-6,-7.664574269710307,-4.394245652638116,-4.084262763220667
1769250476756,123,-5,-7.507694964151266,-3.956806418104301,-3.931200232350384
1769250476760,123,-5,-7.306860907955867,-3.5926888169132343,-3.728160882574007
1769250476764,123,-5,-7.216416798172152,-3.7432538195113056,-3.6270369953369257
1769250476768,123,-5,-7.2454410285145405,-3.7210151701346055,-3.642394748333115
1769250476772,123,-5,-7.299233670490102,-3.5064392929734582,-3.690970646529996
1769250476776,123,-5,-7.333569296427899,-3.9151144995740568,-3.7367017653981662
1769250476780,122,-6,-7.500975260177929,-4.5790887821951,-3.927269015234807
1769250476784,122,-6,-8.096389395329851,-4.795933000895559,-4.5397673188781855
1769250476788,121,-7,-9.174514222429083,-5.6326234585311195,-5.610968121060286
1769250476792,121,-7,-9.982183243358712,-5.577433941572755,-6.3858458789418275
1769250476796,123,-5,-8.695459488748948,-3.8355334606717495,-5.058958923434976
1769250476800,127,-1,-3.0185251224427274,0.3319857113872593,0.6398790137014281
1769250476804,137,9,8.299321620841887,10.325068317838044,11.948078418267484
1769250476808,152,24,23.85454849992564,25.253232846949977,27.469445118577763
1769250476812,169,41,39.23552340377821,42.59725908580472,42.812232912224346
1769250476816,182,54,48.70472198523713,54.96970343691966,52.257799030379445
1769250476820,180,52,48.198154467179535,53.49269467278175,51.752582856731905
1769250476824,168,40,37.694931088957055,41.0801870356083,41.2760871934941
1769250476828,150,22,21.265527922133337,23.451346660826367,24.88835075712108
1769250476832,133,5,4.765375110287037,6.439533555365797,8.42531271644373
1769250476836,123,-5,-7.196934313130235,-3.7976797979176777,-3.52378788002361
1769250476840,118,-10,-13.0716140748057,-8.58157880674017,-9.415388443181838
1769250476844,117,-11,-14.13200364286008,-9.894082568804349,-10.510507504438056
1769250476848,118,-10,-12.84644210407019,-8.55022030592309,-9.254908713525673
1769250476852,119,-9,-11.222031695075785,-7.653763500428957,-7.638235147243429
1769250476856,119,-9,-10.102819116287092,-7.682373751401515,-6.502701586145763
1769250476860,120,-8,-9.465227924112964,-6.616365385087933,-5.837947932255568
1769250476864,122,-6,-9.060461907851234,-4.920256382791549,-5.41339677807785
1769250476868,122,-6,-8.767555451748315,-4.4585147225386175,-5.118372366835486
1769250476872,122,-6,-8.548041998390298,-4.868674898016579,-4.91010883058697
1769250476876,121,-7,-8.316037966566533,-5.341852546402722,-4.689293943894937
1769250476880,122,-6,-7.971672279463071,-5.0067255961041885,-4.346280763235153
1769250476884,123,-5,-7.517846105045276,-3.448161518933077,-3.8854107960600297
1769250476888,124,-4,-7.058693210467192,-2.9814618890533233,-3.4190631021254587
1769250476892,123,-5,-6.667620039214686,-3.356470103512883,-3.025918974158836
1769250476896,124,-4,-6.299243831880986,-2.808936920060688,-2.6589275255197315
1769250476900,124,-4,-5.853310782620924,-2.5611332949234917,-2.21349390481775
1769250476904,125,-3,-5.301654578364519,-1.831839283723173,-1.659968181169574
1769250476908,126,-2,-4.724307461363164,-0.6393959112232404,-1.080269892268373
1769250476912,126,-2,-4.223302544348153,-0.6825542480490683,-0.5782234221211011
1769250476916,126,-2,-3.82207620500247,-0.4799798333684608,-0.1767216726197857
1769250476920,127,-1,-3.4558846244766923,0.129696919083232,0.1905063150200165
1769250476924,127,-1,-3.043894715867066,0.489778575364495,0.6044824820390613
1769250476928,128,0,-2.555766897775768,1.037728130713075,1.0942828191044818
1769250476932,128,0,-2.0154209514084975,1.6388529332337596,1.635077937443287
1769250476936,129,1,-1.4590711625143342,2.2174366304165263,2.1912830503904295
1769250476940,129,1,-0.898291273237775,2.4302036203497925,2.752636004175959
1769250476944,130,2,-0.3140989526660154,3.227986115662925,3.338384785306759
1769250476948,131,3,0.329531734784781,4.259278738971064,3.9835094958424646
1769250476952,131,3,1.0671556642572697,4.468383824011636,4.7217854282644085
1769250476956,132,4,1.905653927846084,5.343759597898722,5.560623834265826
1769250476960,133,5,2.7983527508316897,6.379145214590108,6.4540984538983475
1769250476964,134,6,3.6516847400468704,7.225326123701935,7.30819982265901
1769250476968,135,7,4.374970878318336,8.31925823409873,8.031290051664413
1769250476972,135,7,4.927624266388707,8.368293726935669,8.583099802365858
1769250476976,135,7,5.311865301590408,8.479525117329683,8.967385083742641
1769250476980,136,8,5.528438335797225,9.24014456492391,9.185506892625192
1769250476984,136,8,5.564577180473536,9.38263604725445,9.223369867694338
1769250476988,136,8,5.434015224797835,9.154318181380187,9.093167290500524
1769250476992,135,7,5.204104100729359,8.564857624490369,8.86240228378558
1769250476996,135,7,4.9543346669162,8.248963599239934,8.611784008010678
1769250477000,135,7,4.706402263933925,8.522433043443856,8.363470115489573
1769250477004,135,7,4.411666222893004,8.075922830608196,8.0683332191286
1769250477008,134,6,4.015769860501018,7.495007197246708,7.671859743874777
1769250477012,134,6,3.5345421171970752,7.226169954156757,7.190496829181517
1769250477016,133,5,3.069627515782038,6.567435433546544,6.726304821019643
1769250477020,133,5,2.752498933993591,6.245525803805032,6.410144281325554
1769250477024,133,5,2.6600500755572707,6.326256747914354,6.317736564856803
1769250477028,133,5,2.7566477015526933,6.3072657972554715,6.4128687675297735
1769250477032,133,5,2.894853270912351,6.367337740632633,6.5485990668032885
1769250477036,133,5,2.875024752407638,6.475179091102907,6.526279232550529
1769250477040,133,5,2.536746272833365,6.291218976342526,6.1862750079351
1769250477044,132,4,1.8351866963331953,5.34334328120265,5.48417743926614
1769250477048,131,3,0.8582597220192834,4.257342393635859,4.507877944356894
1769250477052,130,2,-0.2215071344224133,3.4620144361857625,3.429089918679568
1769250477056,129,1,-1.2232607632248302,2.341143880654437,2.4272153508938468
1769250477060,128,0,-2.0197257111473963,1.471251339847556,1.6285390239431163
1769250477064,128,0,-2.567866557469579,1.1464557763988292,1.076634705165361
1769250477068,127,-1,-2.909127632213323,0.5028737754999906,0.7318470394916865
1769250477072,127,-1,-3.137836333315496,0.1824326562347487,0.501276263321343
1769250477076,127,-1,-3.3383732040065506,0.6490473578353164,0.30034345831217
1769250477080,127,-1,-3.5200007422978294,0.1546439899939999,0.1184615967848456
1769250477084,126,-2,-3.606097197372544,-0.5249493992479857,0.0311766205253227
1769250477088,127,-1,-3.5035607158496247,0.2139668029388319,0.1313065469446732
1769250477092,127,-1,-3.199352891742234,0.4248649724246125,0.4321818790212974
1769250477096,127,-1,-2.7970282056783655,0.4613973709931487,0.8309332618187939
1769250477100,128,0,-2.4567157317053083,1.304143246393907,1.1681491520867626
1769250477104,128,0,-2.2799529875625417,1.383086316515717,1.3425128401890736
1769250477108,128,0,-2.2252361021468072,1.2777409537120428,1.3952965100706656
1769250477112,128,0,-2.1252993945406127,1.3859336017688395,1.4935497226529717
1769250477116,128,0,-1.8017589841975776,1.4871258698442225,1.8154078904428723
1769250477120,129,1,-1.1883962277936344,2.2928495140729717,2.426373861389312
1769250477124,130,2,-0.3645694247406618,3.4290740129194957,3.2462597663295525
1769250477128,131,3,0.5154490054292717,4.214190586065286,4.121018314757198
1769250477132,131,3,1.3193597018826153,4.481593830541546,4.919842709464749
1769250477136,132,4,1.982290243133956,5.350916102054757,5.579115673181885
1769250477140,133,5,2.49861191562805,6.468625595667053,6.093034694086539
1769250477144,133,5,2.8998731821367585,6.255674478606712,6.49224171878972
1769250477148,133,5,3.233787158877606,6.403558935501385,6.823782997680248
1769250477152,134,6,3.539389880417383,7.30754227120992,7.12603763794248
1769250477156,134,6,3.8247771622700055,7.48112652443592,7.406442166100053
1769250477160,134,6,4.0517795817221245,7.4012007379349,7.627196268309422
1769250477164,134,6,4.124662077037059,7.291443488619785,7.6940664256865245
1769250477168,134,6,3.904649531427952,7.433031554345314,7.469305224415728
1769250477172,134,6,3.2814354790683575,7.220490271081921,6.842224389300581
1769250477176,132,4,2.2709646023499444,5.6119814768784835,5.828017971971525
1769250477180,131,3,1.0471995186392944,4.240144587676771,4.600536180729375
1769250477184,130,2,-0.1414049836978785,3.506282388499808,3.4082103251637164
1769250477188,129,1,-1.111462624152133,2.2101858887776693,2.433719696045994
1769250477192,128,0,-1.8333788391090549,1.4434736489552185,1.7057171441538888
1769250477196,128,0,-2.4131660261406114,1.4147432645652598,1.1181771461233427
1769250477200,127,-1,-2.9961262696505875,0.407926928376066,0.5272445618282617
1769250477204,126,-2,-3.668615197526586,-0.6008883983296509,-0.1514529134404891
1769250477208,126,-2,-4.415049255992172,-0.7167372113700732,-0.9015766184253392
1769250477212,125,-3,-5.135090212389721,-1.5982502790707298,-1.624067047072788
1769250477216,124,-4,-5.699045718367619,-2.564825953163793,-2.1916881773311685
1769250477220,124,-4,-6.018073792439122,-2.5792548480109256,-2.517753783246563
1769250477224,124,-4,-6.096467006378252,-2.6122636126383476,-2.6069581768571743
1769250477228,124,-4,-6.031487454485641,-2.690729578597149,-2.553969047464227
1769250477232,124,-4,-5.9567078745312205,-2.621324650496085,-2.487278747006941
1769250477236,124,-4,-5.961753005938488,-2.550714710447619,-2.492657112551187
1769250477240,124,-4,-6.036396398179695,-2.565092920998611,-2.5621500639296246
1769250477244,124,-4,-6.084010646836036,-2.639597265859867,-2.6085416730919464
1769250477248,124,-4,-6.023753168718867,-2.61648099806469,-2.5613338073716556
1769250477252,124,-4,-5.932864870136044,-2.743739384045784,-2.4988881010448822
1769250477256,123,-5,-6.088311789949646,-3.365272941236819,-2.6852596863306823
1769250477260,123,-5,-6.73990014016045,-3.80626031787679,-3.3509645718401857
1769250477264,123,-5,-7.601728817617616,-3.32865297079187,-4.2002921536052
1769250477268,124,-4,-7.384771114670171,-2.9459026299967377,-3.954040756705359
1769250477272,126,-2,-3.946329031568231,-0.418244433214741,-0.4932075280843211
1769250477276,134,6,4.5920972279655015,7.377775357074587,8.040599965756172
1769250477280,146,18,18.174540533514687,19.372664051941715,21.58906270963666
1769250477284,162,34,33.76853681360303,35.645273956721184,37.134729457837736
1769250477288,178,50,46.089366387379734,50.974475212334674,49.41346111087239
1769250477292,182,54,50.101917274176216,55.75102348221494,53.4052203342888
1769250477296,175,47,43.847119040099415,48.05950012462126,47.15612847328961
1769250477300,158,30,29.64307393270708,31.68297625819096,32.978354056426944
1769250477304,141,13,12.785537133814476,14.29414585324867,16.15093004595546
1769250477308,128,0,-1.3273904734901514,1.3908215005065596,2.05110613998243
1769250477312,120,-8,-9.7123419053271,-6.5085022991232195,-6.349798439601438
1769250477316,118,-10,-12.522389958754092,-8.67630161674263,-9.199289218196576
1769250477320,119,-9,-11.93723912750067,-7.528101710603734,-8.657989594309136
1769250477324,120,-8,-10.338919587543018,-6.623597634697571,-7.0884927577699255
1769250477328,120,-8,-9.06892299435755,-6.660533419911028,-5.824071874990248
1769250477332,120,-8,-8.33335554917112,-6.431113519727408,-5.077374535976812
1769250477336,122,-6,-7.861677944146873,-4.742226232573609,-4.593933483718106
1769250477340,123,-5,-7.505840933518321,-3.43304642990791,-4.240024046884391
1769250477344,123,-5,-7.326042359099453,-3.797773193558281,-4.078241593820517
1769250477348,122,-6,-7.3458925044266605,-4.436035846101653,-4.1221985126477385
1769250477352,122,-6,-7.406110479380248,-4.646811043401028,-4.20028934810346
1769250477356,122,-6,-7.281336627538914,-4.500035127090765,-4.083391580602583
1769250477360,123,-5,-6.876700625888803,-3.6571527775374495,-3.682863704028167
1769250477364,124,-4,-6.275581845694312,-2.624457117093439,-3.0901631506494445
1769250477368,124,-4,-5.626735235252894,-2.5529397914613776,-2.455621805294421
1769250477372,124,-4,-5.029696800303632,-2.555729053184884,-1.8738465266463689
1769250477376,125,-3,-4.520909430601818,-1.5279483270752054,-1.3768580604943144
1769250477380,126,-2,-4.107596960385735,-0.6771243208099043,-0.972853000582377
1769250477384,126,-2,-3.768190297776383,-0.5791801525394051,-0.6439988336859201
1769250477388,126,-2,-3.440053276493128,-0.6035058348436113,-0.3287736286101239
1769250477392,126,-2,-3.056084462553974,-0.4739973005867122,0.0421119555862645
1769250477396,127,-1,-2.604488861945584,0.3941920407656165,0.4820343585487974
1769250477400,128,0,-2.124562976166363,1.400572014794599,0.9504961018807768
1769250477404,128,0,-1.6313331276325842,1.3480088380929218,1.4308045219585983
1769250477408,128,0,-1.0703797176150949,1.4723145162590563,1.977905231613764
1769250477412,129,1,-0.3721212268207362,2.4844266568743154,2.663110539280252
1769250477416,130,2,0.4597706222183875,3.410187423321202,3.4830151325139704
1769250477420,131,3,1.3387647043320985,4.425614801582441,4.349650549743483
1769250477424,132,4,2.176618209529981,5.291761879277305,5.173857930402992
1769250477428,132,4,2.9575529350172283,5.578636691253944,5.94070239570039
1769250477432,133,5,3.724925684186517,6.344071297707205,6.694748849266529
1769250477436,134,6,4.507579663468776,7.594104882283688,7.464658420880086
1769250477440,135,7,5.271660053990599,8.212130108509768,8.2154436320236
1769250477444,135,7,5.936734466353783,8.54927474800261,8.866277273401547
1769250477448,136,8,6.424417793140653,9.30968114931061,9.339465063953924
1769250477452,136,8,6.69515683010963,9.62312102068204,9.596079318993212
1769250477456,136,8,6.756393614241144,9.321101257646342,9.643366699594132
1769250477460,136,8,6.64698204449544,9.47882796403065,9.519646280733877
1769250477464,136,8,6.412529186882479,9.32597026131874,9.270502188787969
1769250477468,135,7,6.089314288744095,8.500229291844187,8.932766343632412
1769250477472,135,7,5.708683362388641,8.485627578443033,8.538083518256293
1769250477476,135,7,5.318405785012803,8.409202692698418,8.133770415689074
1769250477480,134,6,4.994373938596244,7.453026278876685,7.795130633807089
1769250477484,134,6,4.811259529967052,7.315523542713536,7.596782234872825
1769250477488,134,6,4.7822229784679,7.5697790237945215,7.552118370720732
1769250477492,134,6,4.825525103960718,7.367993171421161,7.579527466466325
1769250477496,134,6,4.800629379400701,7.575249315571122,7.538716602752794
1769250477500,134,6,4.590175059254886,7.27130087815662,7.312830727156515
1769250477504,133,5,4.163784195287534,6.511976161667771,6.871710703070805
1769250477508,133,5,3.5803700742830715,6.393423875248603,6.273720207210079
1769250477512,132,4,2.9342208623284893,5.517167423931147,5.612314256803732
1769250477516,131,3,2.2840892270561577,4.470419013793017,4.94597858245371
1769250477520,131,3,1.6138600182149925,4.350638920120329,4.258967806439134
1769250477524,130,2,0.8567609401615119,3.4872014836971745,3.4850187847763654
1769250477528,129,1,-0.032176158739761,2.3707788563161167,2.579597258160218
1769250477532,128,0,-1.0161509574191063,1.6025804586688128,1.579806697359821
1769250477536,127,-1,-1.9807943794417793,0.3288798519637703,0.5998646940751664
1769250477540,126,-2,-2.7958360137448284,-0.4433956814823379,-0.2307338250678632
1769250477544,126,-2,-3.381602150148024,-0.7397570184277935,-0.8331173183891907
1769250477548,125,-3,-3.7349058914944,-1.381900308037494,-1.203998815414402
1769250477552,125,-3,-3.909661820880094,-1.631209073841652,-1.3962658179515717
1769250477556,125,-3,-3.97577981731084,-1.462891806322672,-1.479020133079107
1769250477560,125,-3,-3.981494334302359,-1.5956973304855135,-1.5008286324213391
1769250477564,125,-3,-3.938744366088648,-1.6365090826882902,-1.474626509303016
1769250477568,125,-3,-3.8422536193416463,-1.40670801329723,-1.395629419042343
1769250477572,125,-3,-3.707733995142308,-1.673049966279188,-1.2791722940812758
1769250477576,125,-3,-3.587467444868633,-1.362692676820099,-1.1769097105385995
1769250477580,126,-2,-3.532282054994771,-0.7162517965918114,-1.1392259146111965
1769250477584,125,-3,-3.525675592417173,-1.4971265258354371,-1.149250525518564
1769250477588,125,-3,-3.4581387103227126,-1.523298582976366,-1.0975304641290702
1769250477592,126,-2,-3.176896643319681,-0.5821748428796676,-0.8323983993577642
1769250477596,126,-2,-2.5771085431580416,-0.4211433380928544,-0.2504279233617055
1769250477600,127,-1,-1.6763044951009975,0.3302005328913067,0.6308477851598409
1769250477604,128,0,-0.6317661747608979,1.4976691977390724,1.6556775372261583
1769250477608,129,1,0.32074567181008,2.4691613411126885,2.5895460128663843
1769250477612,130,2,0.9925579083995726,3.425124780891633,3.2436419745281806
1769250477616,130,2,1.3548356979390144,3.589454761810743,3.588565260328642
1769250477620,130,2,1.542461420925792,3.3006887030280434,3.759251151906595
1769250477624,130,2,1.7357898149634696,3.5817934445353647,3.936056483492496
1769250477628,131,3,2.021517630931323,4.34943003760101,4.20466239667932
1769250477632,131,3,2.3467538087569326,4.582870855004627,4.510990103176539
1769250477636,131,3,2.576594628726555,4.418070152020666,4.720384027677618
1769250477640,131,3,2.576763030804346,4.496003915522064,4.700108626859462
1769250477644,131,3,2.260283887171046,4.38346602551441,4.364389404785109
1769250477648,130,2,1.6005567255215971,3.5586586533515483,3.6866457356586104
1769250477652,129,1,0.6349501893038136,2.372220809565983,2.7036231897103193
1769250477656,128,0,-0.5345195564262195,1.6460919042666604,1.5167971861419662
1769250477660,127,-1,-1.754701761977163,0.275037696021835,0.2790580454057245
1769250477664,125,-3,-2.863018359696226,-1.393851172703,-0.8472721401972874
1769250477668,125,-3,-3.751845312434963,-1.6423179580655916,-1.755139223885641
1769250477672,124,-4,-4.420623698875246,-2.4395451532119607,-2.444479737447786
1769250477676,123,-5,-4.978433130374722,-3.509041794453342,-3.0238655718431984
1769250477680,123,-5,-5.588233840113964,-3.5820793986186104,-3.654629867375788
1769250477684,122,-6,-6.373215779047219,-4.506223296144759,-4.458353432589819
1769250477688,121,-7,-7.329014668818673,-5.563954981805153,-5.430408909891242
1769250477692,120,-8,-8.298860686165774,-6.463738349622439,-6.415688251473311
1769250477696,119,-9,-9.042957523001752,-7.5248150819373985,-7.177353373743867
1769250477700,119,-9,-9.37051205879518,-7.512161609226527,-7.526732920362075
1769250477704,119,-9,-9.255256333763198,-7.59192179351081,-7.43626074000123
1769250477708,119,-9,-8.860844383747992,-7.470627624762386,-7.064639420606232
1769250477712,120,-8,-8.451819299437581,-6.5303839970261235,-6.671587230665161
1769250477716,120,-8,-8.23564124520717,-6.481161336873286,-6.465168904702134
1769250477720,120,-8,-8.243689667676884,-6.52036364524976,-6.484429557561663
1769250477724,120,-8,-8.358059347373858,-6.599905903932028,-6.62116727651614
1769250477728,119,-9,-8.48131274335273,-7.443999443358443,-6.780784423666216
1769250477732,119,-9,-8.681575378340451,-7.562493344551605,-7.022018221918834
1769250477736,119,-9,-9.08203162107463,-7.418851731191286,-7.45090839550834
1769250477740,119,-9,-9.435708690659,-7.596582676508703,-7.808727139825168
1769250477744,120,-8,-8.675345046097988,-6.484519509631156,-7.033733721008211
1769250477748,124,-4,-4.971470970355633,-2.583374725690188,-3.3180493472038783
1769250477752,131,3,3.340110969578147,4.613954265559861,4.980705027146694
1769250477756,142,14,16.242396510083797,15.413263483453235,17.840255639963253
1769250477760,157,29,30.95233536979815,30.600217942202672,32.490976431719666
1769250477764,172,44,42.41807329692136,45.33434915095005,43.90148434516876
1769250477768,176,48,45.6168650969042,49.560582051597216,47.06504944175911
1769250477772,167,39,38.39627581490205,40.455261954242715,39.83636302039038
1769250477776,150,22,22.90679480544391,23.47243285272558,24.362076230884803
1769250477780,131,3,4.558907981105184,4.566279367992454,6.0365997358530645
1769250477784,116,-12,-10.7950147447567,-10.64049266734468,-9.310206551020444
1769250477788,108,-20,-19.598715003018633,-18.278575362537932,-18.13723295768128
1769250477792,107,-21,-21.672633700945703,-19.670547853147845,-20.261632723109724
1769250477796,109,-19,-19.345937046991644,-17.376224276517263,-17.993060389410285
1769250477800,113,-15,-15.580519404935057,-13.647254438341776,-14.271346464829326
1769250477804,115,-13,-12.40733340078456,-11.49971532548748,-11.11663154389717
1769250477808,116,-12,-10.454657906269768,-10.329210205394324,-9.162484608079904
1769250477812,118,-10,-9.436042792103184,-8.65704724203277,-8.138648775902066
1769250477816,119,-9,-8.889210714417409,-7.312976176139239,-7.5988967270716525
1769250477820,120,-8,-8.562413141600032,-6.8241763505067405,-7.296982072348707
1769250477824,119,-9,-8.373131506091976,-7.256994686673099,-7.142586952028181
1769250477828,119,-9,-8.244638323706571,-7.582669509688371,-7.045428121370294
1769250477832,119,-9,-8.067205577505174,-7.337926492300165,-6.888209876324272
1769250477836,120,-8,-7.755423139659978,-6.638158046507717,-6.589202130918434
1769250477840,121,-7,-7.261185700559594,-5.545070121613896,-6.109388117602667
1769250477844,121,-7,-6.531273038455174,-5.492634013278343,-5.4000052124785505
1769250477848,121,-7,-5.519736924706614,-5.367952881436455,-4.411835220592776
1769250477852,123,-5,-4.280744584040162,-3.4681804180630023,-3.1942264921504337
1769250477856,125,-3,-3.0105374348806597,-1.5617212798590354,-1.9433856565068948
1769250477860,126,-2,-1.9386472531941148,-0.6076445284157725,-0.8920011002655084
1769250477864,126,-2,-1.1677410783524107,-0.4341307812605048,-0.143254489963498
1769250477868,126,-2,-0.6399068283845708,-0.4074145754410008,0.363888729060839
1769250477872,127,-1,-0.2449860634117093,0.5951477874069266,0.7414248727014532
1769250477876,128,0,0.0858281443780546,1.3726302094960294,1.0555285658067255
1769250477880,128,0,0.4041588615929254,1.4413177604791452,1.3539906602432246
1769250477884,128,0,0.803240895010644,1.558553915357474,1.7300673893413698
1769250477888,128,0,1.3809994647029975,1.5762702844920753,2.2853936852236014
1769250477892,129,1,2.130175935500912,2.662407219936202,3.01511765380957
1769250477896,131,3,2.908546062649135,4.271706179994001,3.7752573350770176
1769250477900,131,3,3.557286913638646,4.572842717541264,4.404063613323908
1769250477904,131,3,4.042244435276992,4.426240429893042,4.867508876658175
1769250477908,131,3,4.4562864482965585,4.714452233935366,5.261020400892706
1769250477912,132,4,4.893733426116582,5.538847818879485,5.679826835512145
1769250477916,133,5,5.35520180543309,6.37423142138747,6.122559119142615
1769250477920,133,5,5.777556297961105,6.528512885895704,6.524363501675215
1769250477924,133,5,6.120421626859129,6.435014974801852,6.845904870713912
1769250477928,133,5,6.3980014951876445,6.755092925963597,7.103406366325369
1769250477932,134,6,6.643369303736317,7.44602456801449,7.32993276294718
1769250477936,134,6,6.869066283694272,7.517585884636775,7.536251559906391
1769250477940,134,6,7.058446622972979,7.378330674397485,7.704901718410217
1769250477944,134,6,7.171859841000021,7.618431700685698,7.797357424445283
1769250477948,134,6,7.1598214000841205,7.553965759293068,7.765389482591296
1769250477952,134,6,6.996772908815767,7.641081254940574,7.583238757618529
1769250477956,134,6,6.72225167693859,7.351326519970633,7.289516272467395
1769250477960,133,5,6.43927978139235,6.5409066334764905,6.987044915844814
1769250477964,133,5,6.247319565219457,6.50310389202818,6.775669911100021
1769250477968,133,5,6.162743694784894,6.618868380599625,6.6715913313529835
1769250477972,133,5,6.103651846310559,6.6193541111547045,6.592271223382339
1769250477976,133,5,5.94856484654992,6.346739968658043,6.416367353731819
1769250477980,132,4,5.606081643106725,5.611536925448159,6.053539959882109
1769250477984,132,4,5.042625383076448,5.392018447715314,5.470801508463323
1769250477988,131,3,4.274457797024247,4.760535534291514,4.683799324356464
1769250477992,130,2,3.351578932041515,3.448417106306779,3.741774487039772
1769250477996,129,1,2.339684308459323,2.5495689664083314,2.710551659268599
1769250478000,128,0,1.299454409563934,1.4481862609780194,1.6512335962934772
1769250478004,127,-1,0.2770375136721714,0.5058205712909039,0.6096568501905208
1769250478008,126,-2,-0.6870262478218652,-0.2782542269793264,-0.3743147740566077
1769250478012,125,-3,-1.551010789885837,-1.6064125671724638,-1.2587748763402966
1769250478016,124,-4,-2.287899042234324,-2.2846160664746353,-2.01560702729396
1769250478020,124,-4,-2.9053410716696644,-2.7637476134344268,-2.651803877630152
1769250478024,123,-5,-3.430756731671451,-3.255690763482143,-3.195397138301924
1769250478028,123,-5,-3.8641771779873064,-3.498928568597176,-3.6474364608263863
1769250478032,122,-6,-4.154795495515033,-4.444326607812876,-3.9573574612536375
1769250478036,122,-6,-4.241357766696916,-4.344610205613461,-4.06346176902919
1769250478040,123,-5,-4.122132185506507,-3.77894149644126,-3.963673362845813
1769250478044,122,-6,-3.8820536614919496,-4.151822272855846,-3.742890394355512
1769250478048,123,-5,-3.646473478470967,-3.6664976934691857,-3.52651568753794
1769250478052,123,-5,-3.4971098750028697,-3.240994942244164,-3.396294727368327
1769250478056,123,-5,-3.416188731425333,-3.5382393617362697,-3.3342640462417714
1769250478060,123,-5,-3.3056252250133977,-3.60147977696678,-3.241934698531094
1769250478064,123,-5,-3.0669622667145413,-3.2591386551728547,-3.0209297662685715
1769250478068,124,-4,-2.6698248401272657,-2.6445690820486076,-2.6418888212900535
1769250478072,124,-4,-2.15051390372635,-2.1680666092272163,-2.142057439124455
1769250478076,125,-3,-1.5602465276757598,-1.6743151262896163,-1.5721196124274597
1769250478080,125,-3,-0.9283100008536164,-1.3962838050994688,-0.9596913338165654
1769250478084,126,-2,-0.2667898577779694,-0.491140744722498,-0.3159539268832718
1769250478088,127,-1,0.4142649534365752,0.5901354636416345,0.3482142141919189
1769250478092,127,-1,1.1085496132656352,0.6205395862521379,1.025038718142488
1769250478096,128,0,1.8162773565184,1.5240690779456898,1.7140989268340667
1769250478100,129,1,2.5256975519052935,2.4549334028189596,2.404114344865635
1769250478104,129,1,3.185530415548102,2.617590626978653,3.0447736746076512
1769250478108,130,2,3.700387238136357,3.514116583195272,3.5414255463445197
1769250478112,130,2,3.9649940025460766,3.6908050310565743,3.788705109831973
1769250478116,130,2,3.920521463764257,3.4629240059686963,3.726853288129558
1769250478120,130,2,3.5913266645392916,3.5462488901920115,3.379388847613356
1769250478124,129,1,3.065400474720697,2.5019092141089088,2.834611172893579
1769250478128,128,0,2.426584024377563,1.6475042245424,2.1775583973349684
1769250478132,128,0,1.69999449294871,1.5624588985040897,1.4339621007245773
1769250478136,127,-1,0.8695308686885943,0.6068213110459846,0.5869948889971761
1769250478140,126,-2,-0.0510665836409061,-0.5839798824658327,-0.3507585031445113
1769250478144,125,-3,-0.9804337410584822,-1.36287391891416,-1.298293247115463
1769250478148,124,-4,-1.8200180637913128,-2.5014816221756715,-2.156513328960819
1769250478152,123,-5,-2.5466442884727813,-3.2716145055975643,-2.90155476273648
1769250478156,123,-5,-3.2453773723063737,-3.536718882888297,-3.6181557798344417
1769250478160,122,-6,-4.033245648397647,-4.438806869108115,-4.423149850058281
1769250478164,121,-7,-4.935188387685984,-5.485262772476752,-5.34115478079504
1769250478168,120,-8,-5.829423486035879,-6.416596429074249,-6.250527184634893
1769250478172,119,-9,-6.519312937656181,-7.319268653024819,-6.9560544373002715
1769250478176,119,-9,-6.8734347317195885,-7.4988103433051805,-7.328395778781997
1769250478180,119,-9,-6.918343547946224,-7.426904133823434,-7.394448195384401
1769250478184,119,-9,-6.81438391565838,-7.516883816735738,-7.311371555556789
1769250478188,119,-9,-6.73936387424534,-7.381253391555881,-7.251972605671876
1769250478192,119,-9,-6.766992445940687,-7.352988401454766,-7.288058765019795
1769250478196,119,-9,-6.826229337471093,-7.461183956576163,-7.3535929143319665
1769250478200,119,-9,-6.779457131175055,-7.42554146629873,-7.320884225439824
1769250478204,119,-9,-6.578589710885555,-7.527467172150407,-7.148718751255353
1769250478208,119,-9,-6.372031281242907,-7.379945746336486,-6.981115820952211
1769250478212,119,-9,-6.403515611724741,-7.327092161118387,-7.045859176969609
1769250478216,119,-9,-6.642796077816138,-7.516102881844292,-7.296003795353347
1769250478220,120,-8,-6.325097421537135,-6.290926732800196,-6.96426824804877
1769250478224,123,-5,-3.8191075253500513,-3.7142689479838658,-4.436548236752363
1769250478228,128,0,2.7560956630920987,1.850874102867881,2.1424143172767525
1769250478232,139,11,14.175892192103358,12.433015272370763,13.533566961982368
1769250478236,152,24,28.7454674973306,25.75876854517083,28.049413943778752
1769250478240,167,39,42.08778324181734,40.46849732400527,41.334699010006155
1769250478244,177,49,48.78065972618268,50.499957576045105,47.98783559837479
1769250478248,173,45,45.21493851225833,46.618036629162944,44.40969851393421
1769250478252,157,29,31.857426531289526,30.56476499553741,31.065619079140504
1769250478256,137,9,13.250204988295684,10.645497706909914,12.485371740588466
1769250478260,120,-8,-4.350273710455362,-6.458274360177189,-5.095225073423549
1769250478264,109,-19,-16.10954344214176,-17.411935926219087,-16.860780931750554
1769250478268,105,-23,-20.553261850397988,-21.42104388502304,-21.341312447097923
1769250478272,107,-21,-19.379107300107652,-19.305655421877702,-20.220295607116824
1769250478276,111,-17,-15.696737748527488,-15.57040901416384,-16.58453926749798
1769250478280,113,-15,-12.0891740841398,-13.266864500081889,-13.000479136719552
1769250478284,115,-13,-9.663772140053355,-11.634270776691077,-10.574222671141442
1769250478288,116,-12,-8.315405481373109,-10.14376860682752,-9.213738102402672
1769250478292,118,-10,-7.553113413962984,-8.570538209780594,-8.446133693561418
1769250478296,119,-9,-7.081409722795375,-7.331494341243227,-7.98677649249389
1769250478300,119,-9,-6.839434352595972,-7.493342659249324,-7.771592354487877
1769250478304,118,-10,-6.774142144435579,-8.446184862446792,-7.734447558875236
1769250478308,118,-10,-6.732330824787549,-8.230414252228208,-7.711079336365568
1769250478312,119,-9,-6.555297030889737,-7.535134211379118,-7.542404643094109
1769250478316,119,-9,-6.195193596202592,-7.313615516865547,-7.1886890461504285
1769250478320,120,-8,-5.708388792877495,-6.565828726652048,-6.7135920079627205
1769250478324,120,-8,-5.170091239097911,-6.328450820462693,-6.192397525246058
1769250478328,120,-8,-4.628821506574185,-6.3522894029355825,-5.668438258906369
1769250478332,121,-7,-4.125198576819197,-5.374686000222906,-5.178453504851488
1769250478336,122,-6,-3.698682832523682,-4.5101417862446835,-4.762766295912047
1769250478340,122,-6,-3.340888886635601,-4.335892431523638,-4.415983544951641
1769250478344,122,-6,-2.962618077928055,-4.588585344417702,-4.05007825550763
1769250478348,122,-6,-2.4491072218832115,-4.025735234021633,-3.5495263378963027
1769250478352,124,-4,-1.7630486921525907,-2.740493245032124,-2.8766532265932883
1769250478356,124,-4,-0.9865086543338516,-2.1066743961533714,-2.113892966088131
1769250478360,125,-3,-0.2643802304999464,-1.754348326258932,-1.405661650446462
1769250478364,125,-3,0.2895032791107901,-1.1660603045433344,-0.8644179135043242
1769250478368,126,-2,0.6551880603032563,-0.4042903574272323,-0.5096397463227267
1769250478372,126,-2,0.9155106658057286,-0.4133250086530675,-0.2596260882060659
1769250478376,126,-2,1.2119068397409,-0.3603363270245356,0.0256491845677224
1769250478380,127,-1,1.662759986882735,0.4353376235160433,0.4642675503906404
1769250478384,127,-1,2.2902335960910034,0.7161618850911826,1.0791360306629263
1769250478388,128,0,3.0102935192281297,1.6757180803541265,1.7870431607000974
1769250478392,129,1,3.697148568933964,2.5545398097380225,2.4624027122604515
1769250478396,129,1,4.271197717109829,2.642780646904127,3.0252999773965743
1769250478400,130,2,4.738165460123768,3.4589467721282694,3.4812215245022204
1769250478404,130,2,5.149269443243215,3.681157461693095,3.881584921734581
1769250478408,130,2,5.522566034425755,3.737110634931723,4.24466747909031
1769250478412,131,3,5.80306601745769,4.490064094144001,4.514968203744742
1769250478416,131,3,5.905894337138512,4.728203434264754,4.606645052549062
1769250478420,131,3,5.802174274055881,4.358139151965121,4.4908861471222
1769250478424,130,2,5.556237436150611,3.802447666410234,4.233677280365964
1769250478428,130,2,5.275839199425527,3.6223940986297745,3.9442120187297456
1769250478432,130,2,5.038623820860988,3.5970290145294253,3.699308277197234
1769250478436,130,2,4.876594253627815,3.6687025843741674,3.528595532613415
1769250478440,130,2,4.811810625047809,3.3732754026804033,3.453020910009605
1769250478444,129,1,4.866369083954735,2.8510098122719554,3.4960429235923467
1769250478448,130,2,5.016701970782715,3.51877305585844,3.636068291510056
1769250478452,130,2,5.156568632368039,3.760831328469292,3.7671838509980167
1769250478456,130,2,5.137785430697363,3.475645768948648,3.740020462164102
1769250478460,130,2,4.8649406915769156,3.6053123046891895,3.4582784162993745
1769250478464,129,1,4.352194883833524,2.608145025387377,2.9364624576163623
1769250478468,128,0,3.687850965405217,1.7484201444346283,2.263581079027401
1769250478472,128,0,2.9478875675264655,1.5717000526644571,1.5154977093641353
1769250478476,127,-1,2.1455709380602483,0.6365848535058007,0.7047813257946158
1769250478480,126,-2,1.2554315487298764,-0.4892684969906833,-0.194163613232996
1769250478484,125,-3,0.2730464724854677,-1.3484238771824295,-1.185111465230972
1769250478488,124,-4,-0.7481520617791388,-2.251459162691166,-2.2141344282341193
1769250478492,123,-5,-1.708074319562869,-3.467589545075082,-3.1813565742501897
1769250478496,122,-6,-2.5062225621767453,-4.262358633159521,-3.9867921397815183
1769250478500,122,-6,-3.089061378352864,-4.607450352400699,-4.577112355885251
1769250478504,121,-7,-3.4652981833670915,-5.210061035747961,-4.9608257965192335
1769250478508,121,-7,-3.680725174364655,-5.397702441349361,-5.183514587911996
1769250478512,121,-7,-3.775021912289107,-5.327230007136339,-5.284946473216848
1769250478516,121,-7,-3.7558695299369926,-5.360806741987995,-5.272908439267701
1769250478520,121,-7,-3.61249395458576,-5.523177513595052,-5.1363925382676126
1769250478524,121,-7,-3.353926001052649,-5.268968965569315,-4.884207753102332
1769250478528,122,-6,-3.0257133954598316,-4.359695902709044,-4.562139297950175
1769250478532,122,-6,-2.679079742631729,-4.354499456867506,-4.221670367080288
1769250478536,122,-6,-2.325854754774681,-4.304266010728487,-3.874390677817478
1769250478540,123,-5,-1.9313061432094816,-3.586678293869221,-3.4853615497830384
1769250478544,123,-5,-1.450175201444287,-3.18167580211165,-3.009754545781913
1769250478548,124,-4,-0.8690170120664404,-2.484462745088763,-2.434549494838304
1769250478552,124,-4,-0.2252319119176687,-2.176961142774857,-1.7967446084592096
1769250478556,125,-3,0.4058439066340304,-1.507368139203114,-1.1709970218224806
1769250478560,126,-2,0.9541615133278007,-0.331316291997497,-0.6273983274109796
1769250478564,126,-2,1.404675093949859,-0.4718342150993067,-0.1815102248625058
1769250478568,126,-2,1.8066448220381777,-0.1848312194080348,0.2158184196822841
1769250478572,127,-1,2.2231876310324696,0.5449977315906374,0.6279405092656254
1769250478576,127,-1,2.6665503162379385,0.7568129244829747,1.0670358350371154
1769250478580,128,0,3.0830236490922713,1.4588280796366515,1.4791165066565517
1769250478584,128,0,3.3966579212295005,1.6997446125744775,1.7884115989374805
1769250478588,128,0,3.5612521905867727,1.6657913784041731,1.9493288632372672
1769250478592,128,0,3.5712454140489154,1.6906052930902478,1.9563780407293592
1769250478596,128,0,3.4326013226613563,1.6227222102773864,1.8145745657550811
1769250478600,128,0,3.131190999263404,1.6206570914963372,1.5089243776864034
1769250478604,127,-1,2.625753220951916,0.5261334640621866,0.9987526943872472
1769250478608,126,-2,1.8687660859214397,-0.157053071524011,0.2380987831789789
1769250478612,126,-2,0.8517166390351545,-0.4779386917351593,-0.7807902352336593
1769250478616,124,-4,-0.3444917614301821,-2.210547279826394,-1.9777031118088864
1769250478620,123,-5,-1.5440796945947088,-3.500480567847524,-3.178116348431958
1769250478624,122,-6,-2.552006071660327,-4.385693904198932,-4.187966817288708
1769250478628,121,-7,-3.2712088090568328,-5.2087620073190894,-4.910586782958667
1769250478632,121,-7,-3.7686504415529742,-5.467769131609214,-5.412385247065634
1769250478636,120,-8,-4.231350415399893,-6.142788554212315,-5.878808609166841
1769250478640,120,-8,-4.837645097999614,-6.616751271746395,-6.486562835085072
1769250478644,119,-9,-5.63019494874758,-7.209530662202264,-7.278033227620028
1769250478648,118,-10,-6.479779798681433,-8.44584663283421,-8.12562724845617
1769250478652,117,-11,-7.170924386082348,-9.194559893879063,-8.816586823688464
1769250478656,117,-11,-7.550565898750067,-9.39538335896294,-9.199737293368644
1769250478660,117,-11,-7.627937906253943,-9.372053214033544,-9.283106709280991
1769250478664,117,-11,-7.5526224164161135,-9.401753900826575,-9.211405365269648
1769250478668,117,-11,-7.495479907339244,-9.327656916393234,-9.15027040339773
1769250478672,117,-11,-7.527119052744888,-9.238410394172632,-9.170652323771716
1769250478676,117,-11,-7.587061154663235,-9.406176971734782,-9.220793423584857
1769250478680,117,-11,-7.578393967426173,-9.28119430239644,-9.215520739432952
1769250478684,117,-11,-7.530927947060901,-9.534469092691426,-9.188130602666169
1769250478688,116,-12,-7.678343722081653,-10.179368727347676,-9.360470105905804
1769250478692,116,-12,-8.264765115824574,-10.382552237096936,-9.955798749660948
1769250478696,116,-12,-9.043921030828493,-10.270834774115752,-10.7149278657384
1769250478700,117,-11,-8.773557981442792,-9.35285516383092,-10.403732085412848
1769250478704,120,-8,-5.295138064023638,-6.504325098178486,-6.888989121908966
1769250478708,127,-1,3.38171123768024,0.8382328264610841,1.795918557576145
1769250478712,140,12,17.330377703582396,13.581463091855095,15.719600717690955
1769250478716,156,28,33.490343996418886,29.80484088843656,31.837252051141142
1769250478720,172,44,46.26608353880646,45.61977192275375,44.57671164180808
1769250478724,178,50,50.120752630790435,51.458705494242146,48.418738605390025
1769250478728,168,40,42.71941415759843,41.87535792021537,41.03463790095532
1769250478732,150,22,26.459058834828376,23.377692487090112,24.815224866876985
1769250478736,130,2,7.237516738650996,4.0801092296669825,5.6405027436755795
1769250478740,115,-13,-8.705140005026157,-11.66095008534998,-10.272122815698548
1769250478744,106,-22,-17.759099482206302,-20.072533683163027,-19.32724438121104
1769250478748,106,-22,-19.97987734032928,-20.531536061614823,-21.5767399801346
1769250478752,108,-20,-17.951547102044685,-18.261379755088974,-19.58514291818581
1769250478756,110,-18,-14.666006678366648,-16.29302279825545,-16.321256010825913
1769250478760,112,-16,-11.958636662262624,-14.383746344517752,-13.607860741169226
1769250478764,113,-15,-10.25408922007604,-13.235745201119398,-11.8748248667464
1769250478768,115,-13,-9.246714316644583,-11.420422013576191,-10.83538506114448
1769250478772,117,-11,-8.616768657099506,-9.307392269665204,-10.188546036998344
1769250478776,117,-11,-8.240373854621389,-9.337780760041792,-9.815175948983317
1769250478780,116,-12,-8.033269126511481,-10.295939159968151,-9.61968585246819
1769250478784,116,-12,-7.84512996288918,-10.308058753292938,-9.43638653357244
1769250478788,117,-11,-7.551918330692715,-9.319935159215676,-9.135978159430932
1769250478792,118,-10,-7.160660696819751,-8.401555241300759,-8.732362024212716
1769250478796,118,-10,-6.760547583696175,-8.263292009139512,-8.323542235400616
1769250478800,118,-10,-6.396837281106074,-8.365058038408662,-7.9561813828639405
1769250478804,118,-10,-6.033498292194283,-8.220542111076027,-7.589440743682021
1769250478808,119,-9,-5.62236947081998,-7.390296103138109,-7.17176346580247
1769250478812,120,-8,-5.15833212063273,-6.33357279903568,-6.699637250503982
1769250478816,120,-8,-4.6548974994971495,-6.31478928254401,-6.189620858516214
1769250478820,120,-8,-4.107073098648013,-6.3429742098028585,-5.63686691939567
1769250478824,121,-7,-3.513393526387096,-5.190524978460174,-5.037671124398845
1769250478828,122,-6,-2.9194772165906486,-4.450871001332739,-4.43638579678429
1769250478832,122,-6,-2.4018639262298422,-4.229595797012697,-3.910557335725211
1769250478836,123,-5,-1.9922488477600069,-3.4327253832522584,-3.4934690809156024
1769250478840,123,-5,-1.6265598048814272,-3.227223076459662,-3.1211849794855615
1769250478844,123,-5,-1.1845788235039962,-3.283310331936089,-2.672154834888431
1769250478848,124,-4,-0.58856145052565,-2.3780570725275867,-2.06771519241378
1769250478852,125,-3,0.1399791534726173,-1.2421595026213874,-1.3301817814392485
1769250478856,126,-2,0.9225544497841032,-0.4723116536683243,-0.5394381377077364
1769250478860,126,-2,1.707466026725045,-0.1199166044105985,0.2527406630981632
1769250478864,127,-1,2.494911486076504,0.5439052390556396,1.0476692992188776
1769250478868,128,0,3.2865719706834327,1.8565217111094032,1.84769751037544
1769250478872,129,1,4.034152994947961,2.5015378618886936,2.6042666291216747
1769250478876,129,1,4.648943941550479,2.808783675544494,3.228364668629254
1769250478880,130,2,5.059915920127423,3.6092968679598503,3.648957502549485
1769250478884,130,2,5.265972638345799,3.789097521422412,3.864731465633873
1769250478888,130,2,5.337178363769483,3.639857751112709,3.945308673210312
1769250478892,130,2,5.356837865090637,3.7173503689968377,3.973913932167894
1769250478896,130,2,5.346544786891359,3.613999665185171,3.972570273507692
1769250478900,130,2,5.243732626843596,3.8066762247810466,3.879202041102324
1769250478904,130,2,4.963361439960201,3.5854225161534115,3.6089816434127986
1769250478908,129,1,4.495138001631281,2.855622864227509,3.1515423649907444
1769250478912,129,1,3.946818278887266,2.5066123773667477,2.614324214216195
1769250478916,128,0,3.488213398687536,1.8468003013130383,2.1666745325443237
1769250478920,128,0,3.2371703786232673,1.5625180416708455,1.9261278756437017
1769250478924,128,0,3.1788781807992676,1.845220425546224,1.877987653233871
1769250478928,128,0,3.183020378998967,1.600621320470928,1.892386963565543
1769250478932,128,0,3.1038199842944074,1.7601109954202088,1.823967389080952
1769250478936,128,0,2.880744982107415,1.6386267910257315,1.6123424381989642
1769250478940,127,-1,2.5582213493550405,0.7112967503960488,1.3017948459958748
1769250478944,127,-1,2.2138552813110906,0.7642737407002005,0.969548517588648
1769250478948,127,-1,1.865895680717441,0.6269242590626614,0.6334405917042449
1769250478952,126,-2,1.4447633775479731,-0.1992801069139651,0.22379286979104
1769250478956,126,-2,0.8505144230858886,-0.4259470401550835,-0.3591258655720475
1769250478960,125,-3,0.0449295341288593,-1.2040197830162889,-1.1532807485754757
1769250478964,124,-4,-0.8978909991727289,-2.339368320068881,-2.0841994520085634
1769250478968,123,-5,-1.825482672835065,-3.250716972680542,-2.998861097348703
1769250478972,122,-6,-2.597557999061694,-4.305228438918122,-3.7569679823857394
1769250478976,122,-6,-3.1510733723746607,-4.32034852547543,-4.296623912029258
1769250478980,122,-6,-3.486537913166472,-4.280914111263015,-4.61955038691866
1769250478984,121,-7,-3.615777211155247,-5.299488543852311,-4.737148534785095
1769250478988,121,-7,-3.5514671701661524,-5.247403707911796,-4.6605170621138825
1769250478992,122,-6,-3.3456061972028146,-4.325701494978269,-4.441157918786862
1769250478996,122,-6,-3.105724042932464,-4.271871326566367,-4.187688734557468
1769250479000,122,-6,-2.9491420911853448,-4.332908831804244,-4.018228149434624
1769250479004,122,-6,-2.9369191093874285,-4.239281542491047,-3.993214050449364
1769250479008,122,-6,-3.041428035147082,-4.319035503757605,-4.084031759600269
1769250479012,122,-6,-3.1559297757887044,-4.233380543962395,-4.183760705138891
1769250479016,122,-6,-3.131301061325264,-4.35563550929197,-4.143710414227961
1769250479020,122,-6,-2.8308157877642692,-4.24106849258973,-3.827714894509027
1769250479024,123,-5,-2.18748155336175,-3.318922093446917,-3.169588350939459
1769250479028,124,-4,-1.2355445367864912,-2.2595115980131464,-2.20439635779278
1769250479032,125,-3,-0.1023499270991062,-1.2582064140190248,-1.0592158247729777
1769250479036,126,-2,1.0259075149217225,-0.3364801732223947,0.0814939746423375
1769250479040,127,-1,1.953147078784924,0.7589076321364439,1.0233340619377551
1769250479044,128,0,2.5422909488447103,1.671816158195898,1.6290762694970071
1769250479048,128,0,2.7882843861070388,1.7444138840891688,1.891957156935807
1769250479052,128,0,2.8360082825415063,1.7614294098792076,1.9555135524333045
1769250479056,128,0,2.896795964289088,1.645703835482144,2.0312233848468924
1769250479060,128,0,3.1049012492928787,1.7913440689539293,2.2541958019484674
1769250479064,129,1,3.4269724087801667,2.6369836948455223,2.5913737073065293
1769250479068,129,1,3.701371770420119,2.7801549794968947,2.8807793709312826
1769250479072,129,1,3.766559851621442,2.7508840531415406,2.9607718038851085
1769250479076,129,1,3.5610301290340236,2.64562465816625,2.7703403261593333
1769250479080,128,0,3.118664658478268,1.821090193911941,2.343846073573962
1769250479084,128,0,2.4909735269972204,1.5593479920410402,1.732641520868636
1769250479088,127,-1,1.6888059220181957,0.9270064674915102,0.947003495010294
1769250479092,126,-2,0.6993980386420665,-0.4456559334092183,-0.0261351815670556
1769250479096,125,-3,-0.4496324669077651,-1.087544676581814,-1.1589438912086003
1769250479100,124,-4,-1.6540308833023731,-2.4854845599922193,-2.346827833558673
1769250479104,122,-6,-2.7708737241530934,-4.133273736503362,-3.4469578676804264
1769250479108,122,-6,-3.704401787446863,-4.343108500521222,-4.364224321665502
1769250479112,121,-7,-4.463624088561804,-5.20249608789557,-5.108106976697024
1769250479116,120,-8,-5.13969443521166,-6.267372485655035,-5.769091207002619
1769250479120,120,-8,-5.822278410987088,-6.352149964852735,-6.435239513337775
1769250479124,119,-9,-6.520442393501855,-7.239892650635527,-7.1146690802942505
1769250479128,118,-10,-7.1448831387949365,-8.255053662388546,-7.719319881303544
1769250479132,118,-10,-7.561682749562792,-8.25451147246272,-8.1184050483126
1769250479136,118,-10,-7.677937797726958,-8.207441512380713,-8.221151492062518
1769250479140,118,-10,-7.5054894610708285,-8.418693235539308,-8.037137659446795
1769250479144,118,-10,-7.16975260383685,-8.160548391034272,-7.685568569266526
1769250479148,119,-9,-6.852744599993482,-7.351133287795833,-7.344035469854654
1769250479152,119,-9,-6.690235619915512,-7.12545917557219,-7.151822144688786
1769250479156,119,-9,-6.699097259594969,-7.326949423494222,-7.13689409359616
1769250479160,119,-9,-6.826902898828606,-7.315652113457558,-7.25685990082242
1769250479164,118,-10,-7.109669787165514,-8.235784039849264,-7.546100084302468
1769250479168,117,-11,-7.747311279238866,-9.325791015539078,-8.188771020158075
1769250479172,117,-11,-8.855243102665074,-9.071501341125684,-9.280751293689857
1769250479176,117,-11,-9.894399728192916,-9.41352362087556,-10.275798507933686
1769250479180,117,-11,-9.224661651992768,-9.195816877757425,-9.547270547678188
1769250479184,122,-6,-4.4467925417053635,-4.36135836570719,-4.722129319842167
1769250479188,131,3,6.201313806429461,4.78899803020551,5.941825223261729
1769250479192,145,17,22.035167348133953,18.883548218220895,21.760708741497915
1769250479196,164,36,39.06605771249727,37.62648103035272,38.7645124499111
1769250479200,179,51,51.20563148138152,52.8159398572009,50.887632629409005
1769250479204,182,54,53.26403664442306,55.523456619283294,52.955530729542645
1769250479208,170,42,43.92916692948256,43.894047226056,43.660064889528925
1769250479212,151,23,26.639262810208024,24.658385046653912,26.43081002050555
1769250479216,132,4,7.694881820430275,5.9087549590237405,7.547991368002558
1769250479220,118,-10,-7.072277463131067,-8.420241186796755,-7.179924259076538
1769250479224,111,-17,-14.888785505147906,-15.10615822545279,-14.990938665696705
1769250479228,111,-17,-16.488348084964343,-15.412659387737618,-16.609701462563066
1769250479232,112,-16,-14.630129716799637,-14.07871738540081,-14.771726327013706
1769250479236,114,-14,-12.050333998724003,-12.39581401600447,-12.191125763653568
1769250479240,115,-13,-10.20659475160197,-11.147554689131582,-10.3190125569465
1769250479244,116,-12,-9.265868585929224,-10.348066393370106,-9.333582094347214
1769250479248,117,-11,-8.828242649472864,-9.132063104073122,-8.85409039023884
1769250479252,118,-10,-8.575891924560203,-8.382065222492422,-8.576137754675024
1769250479256,118,-10,-8.42724740993059,-8.112614875828523,-8.41804267422791
1769250479260,118,-10,-8.349988316316903,-8.430619065945624,-8.336470542425651
1769250479264,117,-11,-8.21721045865139,-9.036824706332665,-8.192672620530406
1769250479268,118,-10,-7.881904991820753,-8.401139369571336,-7.836226050729533
1769250479272,119,-9,-7.32619466241492,-7.137677577485455,-7.255156111105905
1769250479276,120,-8,-6.676548383713953,-6.353138510156228,-6.583557399529315
1769250479280,120,-8,-6.076322097112252,-6.214327249644486,-5.966399013455452
1769250479284,120,-8,-5.575914956259165,-6.191666526183382,-5.449910664085762
1769250479288,121,-7,-5.13987744198957,-5.26926058908506,-4.995169280126294
1769250479292,122,-6,-4.712501447501738,-4.239573925290195,-4.547473897135637
1769250479296,122,-6,-4.253855092931967,-4.289912954293248,-4.069510165815293
1769250479300,122,-6,-3.7458352742594423,-4.2547389908174935,-3.5433854977332655
1769250479304,123,-5,-3.20060561824305,-3.1232659502227333,-2.979583845633777
1769250479308,124,-4,-2.654500284712004,-2.3501744547787,-2.4138834647686407
1769250479312,124,-4,-2.1254908491951316,-2.1262648237893167,-1.865411817172572
1769250479316,125,-3,-1.5762327638085385,-1.450786468487205,-1.2976827840153993
1769250479320,125,-3,-0.9417077658394242,-1.0424826635551947,-0.6450434823797311
1769250479324,126,-2,-0.2052307204271131,-0.3657719830346617,0.1102594118211215
1769250479328,127,-1,0.5629075819872786,0.951403536143768,0.897937489270789
1769250479332,128,0,1.2584419983633612,1.5351402557991138,1.6127561927767622
1769250479336,128,0,1.8405784823549207,1.9073090148435563,2.213356740412764
1769250479340,129,1,2.372649635993127,2.594708819212657,2.7637046955575286
1769250479344,129,1,2.9612883594706982,2.9984772323918016,3.3715260261617903
1769250479348,130,2,3.653514111786345,3.628517821751709,4.083964360956383
1769250479352,131,3,4.392942901677809,4.8218912179351,4.843342613291
1769250479356,132,4,5.073441642063312,5.675749840178709,5.542212972998367
1769250479360,132,4,5.624011797656538,5.755113035186586,6.110024212954371
1769250479364,132,4,6.029755581460487,5.933813404297836,6.533712807130951
1769250479368,133,5,6.280980760737647,6.6071208387750255,6.804470955920814
1769250479372,133,5,6.335040274558334,6.943093493382597,6.87853735280769
1769250479376,133,5,6.1497030549494935,6.4759916293853745,6.712263138268144
1769250479380,132,4,5.745752063480141,6.017933466492917,6.326590270685084
1769250479384,132,4,5.220399043714473,5.648383835314283,5.81999410251275
1769250479388,131,3,4.695753771894848,4.891061410392227,5.315072025099168
1769250479392,131,3,4.255233590107018,4.707374832691105,4.894258742267534
1769250479396,131,3,3.919891128396418,4.658037620952588,4.577457281988801
1769250479400,130,2,3.664930211831362,3.9163074497892887,4.340079068766219
1769250479404,130,2,3.443947940475108,3.674524252559891,4.1369811898264635
1769250479408,130,2,3.206873604354911,3.9402312039940934,3.918812036822131
1769250479412,130,2,2.9210508953652177,3.6079619454020135,3.652509464727429
1769250479416,129,1,2.589393657180322,2.8043942210014867,3.3402898368593195
1769250479420,129,1,2.242903585016641,2.762401900599715,3.0128105897334487
1769250479424,129,1,1.908354361973669,2.816181095023772,2.69680726880333
1769250479428,128,0,1.5791138969977552,1.836367903086673,2.385833718033526
1769250479432,128,0,1.2117435700260382,1.6696722817832523,2.036698973275223
1769250479436,128,0,0.7526413753592207,1.820783867587992,1.5958663863665308
1769250479440,127,-1,0.1794547288347117,0.673189733647324,1.0410788434962377
1769250479444,126,-2,-0.4764808857271361,-0.0231652455742221,0.4039981663925935
1769250479448,126,-2,-1.147166012316474,-0.3767258707215588,-0.2473782900264938
1769250479452,125,-3,-1.7632702820422703,-1.0733496077321214,-0.8444348034088955
1769250479456,125,-3,-2.2751529154475207,-1.4396198569664218,-1.3381373677087811
1769250479460,124,-4,-2.657047332565382,-2.056005551625327,-1.7023107075094015
1769250479464,124,-4,-2.9083185248699124,-2.294137180352533,-1.935415900623336
1769250479468,124,-4,-3.0492190915080117,-2.1076228687268275,-2.057548195896176
1769250479472,124,-4,-3.1018066639781647,-2.325015110998363,-2.0914706109414247
1769250479476,124,-4,-3.069784314993683,-2.1926072012529314,-2.0413498137863813
1769250479480,124,-4,-2.943711967439512,-2.2648871205558967,-1.8973807571146128
1769250479484,124,-4,-2.7283882146695535,-2.1367902182141583,-1.6639089639040932
1769250479488,125,-3,-2.4541814551384036,-1.2073711660349118,-1.3714680180365364
1769250479492,125,-3,-2.150404774304887,-1.2685147890601192,-1.049623541268045
1769250479496,125,-3,-1.8108770897709583,-1.1905652255539414,-0.6918340753283094
1769250479500,126,-2,-1.3951782557005667,-0.2919186729829468,-0.2572862230727684
1769250479504,126,-2,-0.8649875304727165,-0.1014141920930919,0.2917594625038233
1769250479508,127,-1,-0.2180840677552675,0.7523246527820189,0.9563748414691168
1769250479512,128,0,0.5037130321634716,1.7917440899596546,1.6946133427150751
1769250479516,128,0,1.2259058300244683,1.7647345425400376,2.433392398304193
1769250479520,129,1,1.863708610136924,2.7379338388550725,3.0892715996338413
1769250479524,130,2,2.3618808417528236,3.8964718812159664,3.6066215271695503
1769250479528,130,2,2.740086347750752,3.701841421278199,4.003660490156199
1769250479532,130,2,3.0930507565533056,3.9251004752747223,4.374511395050533
1769250479536,131,3,3.51527563778043,4.58159548462833,4.81424258780684
1769250479540,131,3,4.004230501217049,4.9691638271980825,5.3207580485759465
1769250479544,132,4,4.435900726367536,5.625957164384896,5.769653218517246
1769250479548,132,4,4.641430251795088,6.003929847509288,5.991692720748202
1769250479552,132,4,4.515929223159075,5.619210477484596,5.882583280884607
1769250479556,131,3,4.0670358321125155,4.913074239225056,5.4510701611145365
1769250479560,131,3,3.380331837673807,4.610568454826393,4.782976584097376
1769250479564,130,2,2.5562840806893323,4.007458452171661,3.9777990244768944
1769250479568,129,1,1.6750736840154108,2.606438255263441,3.114629984533813
1769250479572,128,0,0.7932062526296142,2.061445889167167,2.249715135074611
1769250479576,128,0,-0.0542530612723051,1.4607003379443528,1.418592912134716
1769250479580,126,-2,-0.8612756357104208,0.0564730341938704,0.6279384964866919
1769250479584,126,-2,-1.6611400190596322,-0.4223129841683297,-0.1552216506813244
1769250479588,125,-3,-2.517214294096412,-0.9856990179082494,-0.9944768556611492
1769250479592,124,-4,-3.4819889429058826,-2.281733044157649,-1.9426070348663904
1769250479596,123,-5,-4.546732834939041,-3.2505705557030797,-2.9906132215491237
1769250479600,122,-6,-5.622803807549402,-4.169447562725216,-4.049116621645227
1769250479604,121,-7,-6.573288478471813,-5.275260643922114,-4.980866491054961
1769250479608,120,-8,-7.275777498997734,-6.048641407396543,-5.664481839512183
1769250479612,120,-8,-7.675059462728197,-6.252825393222019,-6.047120228563949
1769250479616,120,-8,-7.7929084727908675,-6.242417083939988,-6.152221685387368
1769250479620,120,-8,-7.699922387945519,-6.1890662553874,-6.048324259927737
1769250479624,120,-8,-7.485422926235372,-6.275696591546565,-5.818780575843126
1769250479628,120,-8,-7.243723138796637,-6.0112800133645985,-5.553152060517876
1769250479632,121,-7,-7.055957890332472,-5.303317568279224,-5.3357271384385685
1769250479636,121,-7,-6.960938846996212,-5.156845665829568,-5.216803356663479
1769250479640,121,-7,-6.968596052065703,-5.30390470500243,-5.217142004177142
1769250479644,120,-8,-7.154718949480029,-6.142323089471624,-5.4112173308438125
1769250479648,119,-9,-7.725540663278355,-7.167267269857105,-5.989313126263788
1769250479652,119,-9,-8.818647217582386,-7.101039381809303,-7.06934634510028
1769250479656,119,-9,-9.97176827678928,-7.376863965713126,-8.181777039012417
1769250479660,119,-9,-9.6374494794427,-7.052496545194541,-7.79184148429481
1769250479664,123,-5,-5.421805618456601,-3.4137760415357645,-3.5303427335797544
1769250479668,131,3,4.602932942125378,5.121347273455134,6.51128268234812
1769250479672,146,18,20.074440952188603,19.645665584082774,21.96984796518808
1769250479676,164,36,37.35065891607392,37.88806442242187,39.21932626664439
1769250479680,180,52,50.512189875585584,53.7338403138548,52.361386477174904
1769250479684,185,57,54.1989655438596,58.69781088176522,56.05148824361851
1769250479688,175,47,46.597653741210216,49.01393354686814,48.482029881308875
1769250479692,157,29,30.52710840069387,30.602309465420113,32.46587976542909
1769250479696,138,10,11.851723647256504,12.007503403654637,13.849321827622244
1769250479700,124,-4,-3.639920099459232,-2.374083703794234,-1.602256274291995
1769250479704,115,-13,-12.822100494670096,-11.037259725432076,-10.77686736014433
1769250479708,113,-15,-15.88038945649405,-13.208857904650523,-13.85402269790872
1769250479712,114,-14,-15.11117660406294,-12.190440313163874,-13.10831607989602
1769250479716,115,-13,-13.06694300396949,-11.265300580114673,-11.06971804036844
1769250479720,116,-12,-11.307031151778943,-10.107528402664702,-9.288422403910277
1769250479724,117,-11,-10.240293563340469,-9.28516166039134,-8.181737727377428
1769250479728,118,-10,-9.66896363967192,-7.922909085884763,-7.570809868016354
1769250479732,120,-8,-9.331287483877734,-6.502955132406116,-7.209576987437206
1769250479736,119,-9,-9.078847557308478,-6.981269208297122,-6.951316253367681
1769250479740,119,-9,-8.81815610545671,-7.384410110663534,-6.6909329892974645
1769250479744,119,-9,-8.483438277132283,-6.982808385492855,-6.349297753925907
1769250479748,120,-8,-8.086804364960503,-6.181343820325128,-5.934839527659828
1769250479752,121,-7,-7.709291493709853,-5.278817692026877,-5.535339108875486
1769250479756,121,-7,-7.386941428820736,-5.190511054840827,-5.195076110078364
1769250479760,121,-7,-7.029742605746637,-5.216164021885604,-4.8256102321950465
1769250479764,121,-7,-6.5022761940132074,-5.091021030487742,-4.286970414676334
1769250479768,122,-6,-5.791329059887956,-4.077129975373366,-3.562020627754636
1769250479772,124,-4,-5.054850596343406,-2.3770260964615892,-2.809596581330888
1769250479776,124,-4,-4.47334900987722,-2.0892601524156267,-2.2132443116143423
1769250479780,124,-4,-4.064180217862058,-2.349350765369234,-1.7908214553677206
1769250479784,124,-4,-3.6699415684759114,-1.908733446979395,-1.3827398274188814
1769250479788,125,-3,-3.129513704179788,-1.273996336345686,-0.8268074050752996
1769250479792,126,-2,-2.438902746319956,-0.1742713211853961,-0.1208901027118147
1769250479796,127,-1,-1.7417060025063826,0.7427165552972492,0.5892612744483792
1769250479800,127,-1,-1.1864221666119827,0.7551858869596473,1.1558601559163195
1769250479804,127,-1,-0.8074935666294423,1.077592797156698,1.5473152322675832
1769250479808,128,0,-0.5215303738392533,1.6524030993441534,1.848473951670283
1769250479812,128,0,-0.1993442009711096,1.98419207391064,2.186954477549529
1769250479816,129,1,0.2662603362589537,2.5329996611726493,2.667446380934538
1769250479820,129,1,0.9254915898886432,3.0061834872672017,3.339513019753682
1769250479824,130,2,1.756377565779518,3.8191070231202695,4.182537812446151
1769250479828,131,3,2.6678829960997543,4.901260054369228,5.106761227763904
1769250479832,132,4,3.5349394806169325,5.769381918500164,5.987013433244621
1769250479836,133,5,4.254624631329751,6.714289392939017,6.719800508419338
1769250479840,133,5,4.7799190255435695,6.878502324474349,7.258352992087763
1769250479844,133,5,5.104515384057895,6.897065041951939,7.59692334115405
1769250479848,134,6,5.229997639426358,7.862472731545057,7.736603003148428
1769250479852,134,6,5.163392928071535,7.791691470540417,7.683233950829719
1769250479856,133,5,4.938036188740307,6.712334360961292,7.469967103933911
1769250479860,133,5,4.611560767307598,6.887787861413803,7.155515528360536
1769250479864,133,5,4.235339147867701,6.881623409790027,6.792164590906172
1769250479868,132,4,3.8366494227372367,5.869951102107967,6.407058295938429
1769250479872,132,4,3.434266857098709,5.815087315022579,6.018210339171221
1769250479876,132,4,3.062823643371563,5.682795523172263,5.659631113179049
1769250479880,131,3,2.7714435821297188,4.928050928727932,5.380457272536297
1769250479884,131,3,2.587997746178961,4.843355561370492,5.209099397913075
1769250479888,131,3,2.4792712054490527,4.884814553173959,5.112707476865105
1769250479892,131,3,2.353708405742622,4.852741972841475,4.9995375097488335
1769250479896,131,3,2.1166097803989867,4.6063426628436,4.774645334837868
1769250479900,130,2,1.7313138883727373,4.065968012304808,4.401584705741053
1769250479904,130,2,1.232360113092209,3.633402123220188,3.9152698414659417
1769250479908,129,1,0.6851533259188056,3.152418822210921,3.3810107188802068
1769250479912,129,1,0.1333883611362488,2.5538983580158403,2.8418475209413643
1769250479916,128,0,-0.4219990372064297,1.9486546474785031,2.298060140755772
1769250479920,128,0,-1.0014776878372342,1.718758756335148,1.729305931286542
1769250479924,127,-1,-1.6095193274637092,0.9622882372625484,1.132302514498733
1769250479928,126,-2,-2.217729126501773,-0.1592984232356027,0.5366512008241375
1769250479932,126,-2,-2.7749906168905847,-0.1439201582619094,-0.0070094866900238
1769250479936,126,-2,-3.219430417322265,-0.3143832634531902,-0.4388520011969659
1769250479940,125,-3,-3.4851898052235297,-1.0362875084164287,-0.694107224106828
1769250479944,125,-3,-3.5303206735963837,-1.2673494223006774,-0.7293451277676244
1769250479948,125,-3,-3.383242447349162,-0.9559547930768466,-0.5707846326179169
1769250479952,126,-2,-3.147716915041378,-0.314287729723667,-0.3221414288274795
1769250479956,126,-2,-2.930940024089685,-0.1500315359697004,-0.0927012391093149
1769250479960,126,-2,-2.75865337086455,-0.1646369274978889,0.0902413669708028
1769250479964,126,-2,-2.576658640868733,-0.1843093110083677,0.2816017470933989
1769250479968,126,-2,-2.343813525421445,-0.0135692637908442,0.5244335027710105
1769250479972,127,-1,-2.1070883867441204,0.7205753906292185,0.7727600558860701
1769250479976,127,-1,-1.9597158832345332,0.871031794730569,0.9327699240521844
1769250479980,127,-1,-1.9153021334303344,0.799227518582925,0.9896693394294512
1769250479984,127,-1,-1.8349085556445337,0.8547431908601604,1.0816239804277512
1769250479988,127,-1,-1.502750057313809,0.922191643418784,1.4242969065924922
1769250479992,128,0,-0.8019066119392974,1.7989630463185815,2.134953474693815
1769250479996,129,1,0.161890961940833,2.8278513290277916,3.108413390106088
1769250480000,130,2,1.106993177328222,3.848685042719659,4.0634137627430835
1769250480004,131,3,1.7707529310444745,4.797490129215462,4.737359390059277
1769250480008,131,3,2.0995048057131216,4.953873473771796,5.076703207291588
1769250480012,131,3,2.273253613819721,4.772884232095631,5.261942843269297
1769250480016,131,3,2.5415074774062845,4.883592936509493,5.542672818529876
1769250480020,132,4,3.0158172719083756,5.809180994246429,6.029129663610809
1769250480024,133,5,3.5987682422250344,6.825144542571976,6.62204744693262
1769250480028,133,5,4.085365701862572,6.924393640203885,7.116327765378863
1769250480032,133,5,4.309710490289648,6.787362611628102,7.348209263936135
1769250480036,133,5,4.205865802436387,6.910147118908171,7.253772285683927
1769250480040,133,5,3.778570774260743,6.768677997060546,6.837616148388513
1769250480044,132,4,3.062330733214573,5.8830898764562445,6.132822818545778
1769250480048,131,3,2.114413238361882,4.840641831454999,5.195892947035784
1769250480052,130,2,1.0252744159384355,3.8894362471788297,4.117332783289609
1769250480056,129,1,-0.0840712966725482,2.8109284103460377,3.017967535911545
1769250480060,128,0,-1.0921060395498356,1.8915133443293093,2.0188802296661996
1769250480064,127,-1,-1.9313376146622492,0.7526165076305258,1.187844456409965
1769250480068,126,-2,-2.6372640917753545,-0.0357177723959662,0.4903438548185064
1769250480072,126,-2,-3.3375693990324855,-0.2253538071666021,-0.2008030874493664
1769250480076,125,-3,-4.157545109078694,-1.07341507716399,-1.0112730124098466
1769250480080,124,-4,-5.103178620944066,-2.1915862438441653,-1.9472965844718624
1769250480084,123,-5,-6.030144340516428,-3.1911896607462493,-2.864004465567588
1769250480088,122,-6,-6.739690544861272,-4.079170824485883,-3.5623946368054176
1769250480092,122,-6,-7.121130349530535,-4.203834459251235,-3.933212289126342
1769250480096,122,-6,-7.2171841208120915,-4.052970965419005,-4.021605531172099
1769250480100,122,-6,-7.167600519689719,-4.203960637247507,-3.967921963328387
1769250480104,122,-6,-7.098436315580604,-4.191494424252803,-3.894877252122293
1769250480108,122,-6,-7.055121133660223,-4.068434303842796,-3.842196773942669
1769250480112,122,-6,-7.014844008475636,-4.265160547052989,-3.784183012590206
1769250480116,122,-6,-6.9417194084394005,-3.909356920735368,-3.6896827142381214
1769250480120,123,-5,-6.839090069193759,-3.3893964352211725,-3.573358369131005
1769250480124,122,-6,-6.791679166545877,-3.9525028876559416,-3.529264366734374
1769250480128,122,-6,-6.992572333547226,-4.371707120505266,-3.747515588088972
1769250480132,121,-7,-7.67741056341144,-4.937596902783423,-4.446488673554869
1769250480136,120,-8,-8.845362126023021,-6.228696429098031,-5.6051404679065895
1769250480140,120,-8,-9.793624584291551,-6.061557421396972,-6.515038703372776
1769250480144,122,-6,-8.814793442767767,-4.232577428490889,-5.485667149018633
1769250480148,126,-2,-3.607020802129112,-0.1713979961175553,-0.2433854729831557
1769250480152,135,7,7.361494801619015,8.952959792950516,10.725651744723848
1769250480156,150,22,23.13672513517702,23.828689685023285,26.472114155395843
1769250480160,168,40,39.553706268723104,41.98008012448957,42.85222660130377
1769250480164,182,54,50.575157312558574,55.68758571428594,53.85091509650094
1769250480168,183,55,51.3336783876581,56.87090292692862,54.6134541001394
1769250480172,171,43,40.99554811554014,44.843001004462906,44.30698710553256
1769250480176,151,23,23.398296630803163,24.854615134794813,26.758749512832644
1769250480180,132,4,4.939619157192912,5.986680342416412,8.347083742431929
1769250480184,120,-8,-8.821138527376858,-6.242855093534883,-5.389345527062673
1769250480188,114,-14,-15.598140570088734,-12.080474417905124,-12.174123261454646
1769250480192,114,-14,-16.536478554580224,-12.15564543259344,-13.142829773894324
1769250480196,116,-12,-14.5025984024986,-10.184948105880071,-11.138925783714395
1769250480200,117,-11,-12.032510458303465,-9.047648070890286,-8.677202811801374
1769250480204,118,-10,-10.284270150447275,-8.210101033399672,-6.909917972723531
1769250480208,119,-9,-9.269191262598952,-7.102274303439847,-5.8606884408634174
1769250480212,121,-7,-8.65839325725684,-5.078834043489337,-5.221146080712202
1769250480216,122,-6,-8.309568439844279,-4.302894255999026,-4.862307212827233
1769250480220,121,-7,-8.240630114561911,-4.941901730271321,-4.799278320569622
1769250480224,121,-7,-8.379840136213582,-5.332999707904321,-4.946252743991021
1769250480228,120,-8,-8.49487395086776,-5.944918319125022,-5.059222879754672
1769250480232,121,-7,-8.3547111799115,-5.204835525658026,-4.907193231477749
1769250480236,122,-6,-7.897195818163435,-4.186403745227989,-4.436815077778499
1769250480240,122,-6,-7.228733302830564,-4.062354417882751,-3.7616848596591823
1769250480244,123,-5,-6.505352189432058,-3.2508836750693417,-3.036886026536598
1769250480248,123,-5,-5.8401457035814275,-2.9575016016825977,-2.3694313756035115
1769250480252,124,-4,-5.287880321143113,-2.2443769899555903,-1.810428699351948
1769250480256,125,-3,-4.850040169984613,-1.0606240962880815,-1.3634770176545872
1769250480260,125,-3,-4.4634654576957935,-1.2907721653977051,-0.9697239371439506
1769250480264,125,-3,-4.016747844399021,-0.954567939699194,-0.5190279683567742
1769250480268,126,-2,-3.432181276254096,-0.2900662413950496,0.0688144565924844
1769250480272,126,-2,-2.7512801474267112,0.1347649636981787,0.7547910091832457
1769250480276,128,0,-2.1157728921758183,1.5521955552620867,1.3966380695437342
1769250480280,128,0,-1.6342935107535277,2.090850543420543,1.8834482178360872
1769250480284,128,0,-1.2663877436548878,1.656933983009653,2.2550896958374373
1769250480288,128,0,-0.8580164340730735,2.093270864798653,2.6674019159444016
1769250480292,129,1,-0.2973677026177872,2.8014268410408794,3.233587448366035
1769250480296,130,2,0.3822322990048739,3.8253834101072584,3.919260468384311
1769250480300,131,3,1.0632158026076866,4.914339484942213,4.604955261744903
1769250480304,131,3,1.68666886438079,4.716092332366386,5.231686330119327
1769250480308,131,3,2.3098259427251873,5.143180317167197,5.858264612930627
1769250480312,133,5,3.024330375037714,6.6683600678756685,6.577214491426534
1769250480316,133,5,3.836656873113786,7.027391942819201,7.394307692585325
1769250480320,134,6,4.632673745856654,7.689245859732429,8.194403264728486
1769250480324,135,7,5.251089824589115,8.94322318697935,8.81603775039601
1769250480328,135,7,5.596625604931313,8.931505074828696,9.164554119435204
1769250480332,135,7,5.697897417727777,8.835967447154893,9.269408152593698
1769250480336,135,7,5.664018863734318,8.9351054906192,9.240004390686648
1769250480340,135,7,5.585005887627472,8.71228789477476,9.16555861471755
1769250480344,135,7,5.47061607125596,8.989951800726509,9.054532848503309
1769250480348,135,7,5.274901371986316,8.837926137925214,8.860688201223997
1769250480352,134,6,4.964964889705981,7.947466937844666,8.552365566464092
1769250480356,134,6,4.563835543921494,7.843766789269193,8.15397116909076
1769250480360,134,6,4.144589097138514,7.771165034235994,7.738605404897514
1769250480364,133,5,3.797541002367004,6.978675176445651,7.395606560228835
1769250480368,133,5,3.590176393503878,6.806078449742503,7.191758982242827
1769250480372,133,5,3.529771082902341,7.02109668306864,7.134175049044419
1769250480376,133,5,3.546777184377775,6.750458053608355,7.1530793286578
1769250480380,133,5,3.514330664366012,6.867707453701128,7.121320891966251
1769250480384,133,5,3.2945044521566915,6.913827170128457,6.901469661898645
1769250480388,132,4,2.784454650904763,5.815013169144406,6.392224152922466
1769250480392,131,3,1.947961813487512,5.083683259909206,5.558612394556519
1769250480396,131,3,0.8409526620286052,4.616644085773576,4.455971381813145
1769250480400,129,1,-0.3713038375114834,3.068623597238316,3.2476286575753335
1769250480404,128,0,-1.445658846059934,1.677046925329805,2.175412239356767
1769250480408,127,-1,-2.168915140316145,1.071447036548677,1.4526759001385083
1769250480412,127,-1,-2.4859730091250976,0.8347533578520279,1.135299315217974
1769250480416,127,-1,-2.5394381998351943,0.8368816688619891,1.0812630346577363
1769250480420,127,-1,-2.571999465548617,0.915277489362478,1.0484237921782975
1769250480424,127,-1,-2.759978230204333,0.7603039602887351,0.8612157821157047
1769250480428,126,-2,-3.1037407288623067,0.0613628136113262,0.5196932261937528
1769250480432,126,-2,-3.4492832922815424,-0.2372207243112325,0.1771298401272867
1769250480436,126,-2,-3.610050447952776,-0.0230812435733338,0.0184755410836872
1769250480440,126,-2,-3.4946628973344445,-0.2538972160983763,0.1340792435382831
1769250480444,126,-2,-3.1618290624838337,-0.0392238467391705,0.4656372808694335
1769250480448,127,-1,-2.7782515324065886,0.8517353587180561,0.8475505088121438
1769250480452,127,-1,-2.5100765024557807,0.9578426701330348,1.1144652759383495
1769250480456,127,-1,-2.4203074719878828,0.7899601114763581,1.2038064326519975
1769250480460,127,-1,-2.4425600419495495,0.9475318962814924,1.1822275295224525
1769250480464,127,-1,-2.4388437817844135,0.7544730474680361,1.187467364239763
1769250480468,127,-1,-2.2813619508547447,1.065337207082906,1.3462544834712116
1769250480472,128,0,-1.896246300164416,1.7367858918550156,1.7312368301698209
1769250480476,128,0,-1.2641994026003234,2.0077783816292656,2.3614744656936377
1769250480480,129,1,-0.4158897682109232,2.768435894418493,3.2072270454038976
1769250480484,130,2,0.5600499242315966,3.893281878035209,4.1809195132679235
1769250480488,131,3,1.5234579859722224,4.976846182520731,5.142744997343538
1769250480492,132,4,2.3294661717651404,5.755263164844482,5.947726211737948
1769250480496,132,4,2.8953967412811887,6.067076956447142,6.513014868479237
1769250480500,133,5,3.2401346115926866,6.648582282556961,6.857147432572838
1769250480504,133,5,3.4662565719067917,7.068900112015297,7.082267763361008
1769250480508,133,5,3.6891735330814353,6.7650449046115195,7.303733153982988
1769250480512,133,5,3.9507373193258073,6.968545044039058,7.563496631071527
1769250480516,134,6,4.179314612080762,7.891928673745441,7.789511619047305
1769250480520,134,6,4.234517307799852,7.777437595538721,7.840946142102089
1769250480524,133,5,3.998679214240201,7.008673089098518,7.600865834441485
1769250480528,133,5,3.4364856571531988,6.754549292308294,7.0355802698042975
1769250480532,132,4,2.593507927937952,6.022194675551523,6.191413065959155
1769250480536,131,3,1.5680369935292933,4.81653722069284,5.165617049137174
1769250480540,130,2,0.4876759633261609,3.8731555445499986,4.083928790006118
1769250480544,129,1,-0.5174044575210051,2.9337455140874074,3.075476118143051
1769250480548,128,0,-1.3617202554343195,1.7879904047364914,2.2262786435124298
1769250480552,127,-1,-2.0562600784866896,1.0265842219738577,1.5267111910732334
1769250480556,127,-1,-2.7145982420754065,0.7767622908209835,0.8640316243280979
1769250480560,126,-2,-3.480567270915973,-0.0360809303276603,0.0943103405272958
1769250480564,125,-3,-4.416326258407823,-1.1805091573233817,-0.8448535347051083
1769250480568,124,-4,-5.441284544771504,-2.089706958886209,-1.872652350935088
1769250480572,123,-5,-6.377943547524505,-3.1212527002619357,-2.8114509185578713
1769250480576,122,-6,-7.06955048805665,-4.0484318562167925,-3.50554399824669
1769250480580,122,-6,-7.472608704476645,-4.219459244602171,-3.9136974702410265
1769250480584,122,-6,-7.651572781068874,-3.9490535766846033,-4.101552881068617
1769250480588,122,-6,-7.696796313375993,-4.381978280523174,-4.156565413287782
1769250480592,121,-7,-7.6571465097197695,-4.7856356958166675,-4.121362559928298
1769250480596,122,-6,-7.542078176841621,-4.429706417181622,-4.002024415223754
1769250480600,122,-6,-7.3565910400136945,-3.792105386512509,-3.8090174305933497
1769250480604,123,-5,-7.121231182451964,-3.372314022518964,-3.575044192906808
1769250480608,122,-6,-6.8993063462742175,-3.981179962862038,-3.371788413810461
1769250480612,122,-6,-6.8496188611337905,-4.162247341129422,-3.3529273205530385
1769250480616,122,-6,-7.195273992702239,-4.113904524068784,-3.7236977568436096
1769250480620,121,-7,-7.940908802609946,-5.023855243130074,-4.4707755826510045
1769250480624,122,-6,-8.380683681682532,-4.202280297926755,-4.885711194066269
1769250480628,124,-4,-6.816915114170751,-2.0635622105489375,-3.288296480073316
1769250480632,128,0,-1.061382636510681,1.8274312629413416,2.483861464524987
1769250480636,138,10,10.134734042636545,11.964524430555578,13.664306244126529
1769250480640,153,25,25.45548164841612,26.897111958264244,28.942316333001024
1769250480644,169,41,40.53546738607585,42.89482236364336,43.97244878605608
1769250480648,181,53,49.50504646273676,54.87944110624892,52.90611972095079
1769250480652,180,52,48.01161181637212,53.770126261291026,51.40329436113983
1769250480656,165,37,35.82548165650809,38.994529265358935,39.235569935015
1769250480660,145,17,17.17292196608723,18.772080945191338,20.618729984574756
1769250480664,126,-2,-1.5012752528118565,0.0727930987547957,1.977141732084442
1769250480668,114,-14,-14.81883612996456,-12.233084180719713,-11.332368000478509
1769250480672,109,-19,-20.69919889319551,-16.985443831171608,-17.23787379677102
1769250480676,110,-18,-20.42242376877026,-16.24129789822739,-17.008071397152555
1769250480680,113,-15,-16.984744408590238,-13.015012976216315,-13.615135719315404
1769250480684,116,-12,-13.142209033030284,-10.205913586869084,-9.794746485411192
1769250480688,118,-10,-10.33536539028788,-7.976256345056203,-6.983359282686554
1769250480692,120,-8,-8.763573906794466,-6.187918127530282,-5.3929245381120605
1769250480696,121,-7,-8.056415162820686,-5.07182809848089,-4.671980914162553
1769250480700,122,-6,-7.82628431862873,-4.153578341563837,-4.445303067556975
1769250480704,122,-6,-7.806156758430775,-4.153223417295079,-4.444575867221425
1769250480708,121,-7,-7.763248750806049,-4.961275470044637,-4.4250951309222
1769250480712,121,-7,-7.488747504563543,-5.218825621588792,-4.166222354009007
1769250480716,122,-6,-6.908699673666761,-3.989515998278442,-3.5918372904739213
1769250480720,124,-4,-6.130689776667424,-2.2747201637219576,-2.8167044864216573
1769250480724,124,-4,-5.323182291327569,-2.043881963877509,-2.016635094188137
1769250480728,124,-4,-4.563357523932842,-2.054171529070126,-1.269012081221009
1769250480732,125,-3,-3.830924035018227,-1.126944744963847,-0.5487663556908982
1769250480736,126,-2,-3.12399206959185,-0.0558284154798829,0.1487226709154319
1769250480740,127,-1,-2.5243815026110337,0.7576616921541484,0.739786488725592
1769250480744,127,-1,-2.130027059565558,0.9374060999171204,1.123780011863357
1769250480748,127,-1,-1.948173449386691,0.9592125183039996,1.293721320957895
1769250480752,127,-1,-1.8760703893691848,0.8720387186237919,1.3548012767885194
1769250480756,127,-1,-1.7768689195967242,0.9476023187351944,1.4449335252281783
1769250480760,128,0,-1.5558750855994932,1.7417546076565722,1.6571048270388218
1769250480764,128,0,-1.1710448844554353,1.9613854665750472,2.0312064346841887
1769250480768,128,0,-0.6098068738028521,1.9446905262870895,2.5798516725937364
1769250480772,129,1,0.1080725334658101,2.8763211054450437,3.2850227343749716
1769250480776,130,2,0.9095708242570462,3.972773757617752,4.074781889988391
1769250480780,131,3,1.6837205209155686,4.6552725698980195,4.8377962709431
1769250480784,131,3,2.341790153892657,5.128211648444202,5.4846866220447446
1769250480788,132,4,2.869325537565903,5.698408773796864,6.000876891734563
1769250480792,132,4,3.32444465376964,6.206133414070741,6.444523298404282
1769250480796,133,5,3.7888380929576497,6.564452031111329,6.897178563592237
1769250480800,133,5,4.310142627635551,7.11555883913372,7.406410872456266
1769250480804,134,6,4.871779979146269,7.650007423619776,7.955754768376256
1769250480808,134,6,5.406072703815311,8.177643779891465,8.477511146986423
1769250480812,135,7,5.838733567590227,8.760646395039245,8.897184107216656
1769250480816,135,7,6.128821173885488,8.941819126263656,9.17395177301616
1769250480820,135,7,6.271336213567378,8.818256603603162,9.3034348746647
1769250480824,135,7,6.26938805837691,8.858405424995698,9.289055607897955
1769250480828,135,7,6.120890924506061,9.071956824835665,9.12810814390352
1769250480832,135,7,5.845522599349175,8.777822400565473,8.839555801242732
1769250480836,134,6,5.51631361502342,7.991894250933071,8.496770836835296
1769250480840,134,6,5.243784158875407,7.721150771411662,8.21114325661831
1769250480844,134,6,5.118534404303568,7.96848080679212,8.073216263025397
1769250480848,134,6,5.166392350215562,7.99617725342868,8.10785512014356
1769250480852,134,6,5.344161247566454,7.797944601706169,8.271378160710377
1769250480856,134,6,5.558233612386527,8.057563457248868,8.47065897052562
1769250480860,135,7,5.6888900911317135,8.538871056209345,8.586623498758954
1769250480864,134,6,5.621384903958633,8.263934478388414,8.5048128659726
1769250480868,134,6,5.277823159093104,7.607009281017292,8.147361373294776
1769250480872,133,5,4.63558980553972,7.269392446163618,7.491372541997976
1769250480876,133,5,3.7301869483502728,6.536780734840084,6.571836985770039
1769250480880,131,3,2.645203534641379,5.051740305356773,5.472218896740964
1769250480884,130,2,1.4860615959680326,3.798836561225662,4.298377039119519
1769250480888,129,1,0.3469933134494285,3.001151452265863,3.144810333886361
1769250480892,128,0,-0.7038976521571194,1.9847975279978625,2.0793308401112425
1769250480896,127,-1,-1.6169644049271206,0.7020777940961502,1.15125725141454
1769250480900,126,-2,-2.354708692077757,-0.0072719777712144,0.3980746474250338
1769250480904,126,-2,-2.899895569932487,-0.2382708660313146,-0.1628824329908971
1769250480908,125,-3,-3.263848416726466,-0.8792663296036998,-0.5426960437666919
1769250480912,125,-3,-3.4809088992221606,-1.1795578997801273,-0.7751769887830187
1769250480916,125,-3,-3.590560058139211,-1.1079415091179476,-0.8995052184826386
1769250480920,125,-3,-3.6149272982339657,-1.219183366349874,-0.9383776175536068
1769250480924,125,-3,-3.5456574636657656,-1.026173747267463,-0.8844600531107307
1769250480928,125,-3,-3.3603393122316945,-1.0728212154647134,-0.7156553165031903
1769250480932,125,-3,-3.0682580199778258,-0.9968184445757248,-0.4405347837792956
1769250480936,126,-2,-2.7438307607551917,-0.277922134554236,-0.1326689253850443
1769250480940,126,-2,-2.4984386688601683,-0.072918394951817,0.0967090697229622
1769250480944,126,-2,-2.3966667963322217,-0.1588526275478314,0.1826554675629785
1769250480948,126,-2,-2.38767413575409,0.0569920012437243,0.1758369234645989
1769250480952,126,-2,-2.3210409928929905,-0.1101177321267634,0.2268471350228114
1769250480956,126,-2,-2.0439009852231056,-0.1935249332925153,0.4884509136490798
1769250480960,127,-1,-1.5003141027118772,0.869952312764724,1.0157662292530785
1769250480964,128,0,-0.751445870935915,1.8663999989430713,1.7469776573567826
1769250480968,128,0,0.0848340894402595,2.080625724575946,2.565044724503693
1769250480972,129,1,0.9043545010749672,2.8294653895114052,3.3674368152592535
1769250480976,130,2,1.6465886729677508,3.89048320475398,4.093837050978129
1769250480980,131,3,2.295383256974138,4.7416449773990585,4.72654112156725
1769250480984,131,3,2.867146805780848,5.037145561401546,5.2810186837943345
1769250480988,131,3,3.377140902410376,4.897602177551005,5.773526484620447
1769250480992,132,4,3.798759103020139,6.01689399501997,6.17858036645334
1769250480996,133,5,4.067243290164956,6.705942847971906,6.4308305984305445
1769250481000,132,4,4.135681145932182,5.881390562142977,6.482008493936144
1769250481004,132,4,4.0143170226924045,5.96776480158877,6.34215711100659
1769250481008,132,4,3.7387634260944034,5.909367883571154,6.048018786830946
1769250481012,131,3,3.305025454014986,5.056383984704561,5.596734862359559
1769250481016,131,3,2.654355796101364,4.612997017157677,4.929516383150545
1769250481020,130,2,1.739759177985059,4.003661039890675,3.998219669014418
1769250481024,129,1,0.6153443872673737,2.840525444274299,2.856142654402415
1769250481028,127,-1,-0.553004223052707,1.0429735262671969,1.6698295372363532
1769250481032,126,-2,-1.5913489738529876,-0.0754185110948846,0.6142600185689764
1769250481036,126,-2,-2.444293149628673,-0.2808839861786945,-0.2557104837486177
1769250481040,125,-3,-3.19473485137929,-1.081064205101109,-1.0246728593983931
1769250481044,124,-4,-3.960852656449432,-2.068465972832541,-1.8109905550656804
1769250481048,123,-5,-4.783004124169974,-3.050868205762291,-2.652700701298828
1769250481052,122,-6,-5.602290393141819,-3.9724802188328336,-3.4885794462823503
1769250481056,122,-6,-6.318158989174852,-4.4454345798059505,-4.218772693329817
1769250481060,121,-7,-6.846844724731015,-4.841459597817778,-4.763021826979993
1769250481064,121,-7,-7.142968620650641,-5.358725970737586,-5.07890433956286
1769250481068,120,-8,-7.207712061117317,-5.696111344337984,-5.166962682714831
1769250481072,121,-7,-7.101464292778845,-5.383530311211166,-5.083323966582668
1769250481076,121,-7,-6.935345711383801,-5.050435433171747,-4.934104469052662
1769250481080,121,-7,-6.818654179764865,-5.182525719777204,-4.82704152498621
1769250481084,121,-7,-6.794637294960583,-5.078364790531355,-4.81037485225849
1769250481088,121,-7,-6.832153343572758,-4.867325389285571,-4.863042420951756
1769250481092,121,-7,-6.905874729431947,-5.3573775865222775,-4.967241610978112
1769250481096,120,-8,-7.103335312114976,-5.973902473152485,-5.206583742154559
1769250481100,120,-8,-7.600704765976491,-6.3437717451252045,-5.740997669853566
1769250481104,119,-9,-8.364450905025588,-6.826274622114098,-6.519480340919831
1769250481108,120,-8,-8.662910723922064,-6.162479255814892,-6.806931691079442
1769250481112,122,-6,-6.814165599993492,-4.05201728371155,-4.937618055953885
1769250481116,127,-1,-0.7100242378836676,0.6969517586615446,1.1713889102333
1769250481120,137,9,10.776251405880537,11.015531629052145,12.630831612282986
1769250481124,152,24,26.2298183730432,25.84511711164537,28.02982592070776
1769250481128,168,40,41.265933977352226,42.173103973261505,43.00315605061862
1769250481132,180,52,50.07077822074754,53.59962145817848,51.75914686603912
1769250481136,178,50,48.363566004935024,51.9751997885993,50.031188785828995
1769250481140,164,36,35.95228883733244,37.68788891427598,37.62884362673115
1769250481144,143,15,17.080476369366693,17.11478460572726,18.783574558854077
1769250481148,124,-4,-1.757233009425411,-2.070998955592082,-0.0323095529796906
1769250481152,112,-16,-15.092436888480004,-14.117370580840664,-13.372126749348537
1769250481156,107,-21,-20.791355796634026,-19.15040046155467,-19.109188164386342
1769250481160,108,-20,-20.209936269927727,-18.21357709171072,-18.586411138362635
1769250481164,112,-16,-16.539746830239615,-13.921303444374422,-14.971079770644904
1769250481168,115,-13,-12.7105171547347,-11.199179600771092,-11.173377540924708
1769250481172,116,-12,-10.159102432757178,-9.94867162115068,-8.626580776268156
1769250481176,118,-10,-8.888508397859496,-8.34668487070397,-7.346370464793816
1769250481180,119,-9,-8.289888608043494,-6.98006664680462,-6.743249363255744
1769250481184,120,-8,-7.883282902686282,-6.152523243771679,-6.350097585734483
1769250481188,120,-8,-7.530733941042904,-6.0249063023875,-6.0275324786122395
1769250481192,120,-8,-7.2596728663075245,-6.095226295676626,-5.790645079878231
1769250481196,120,-8,-7.06524217243129,-6.217718331665222,-5.6224041248206245
1769250481200,120,-8,-6.881193589262369,-6.05373759229798,-5.453595223148732
1769250481204,121,-7,-6.647310137954043,-5.112147525207867,-5.230165024223787
1769250481208,121,-7,-6.3383101015293,-5.066999132982672,-4.934653584348504
1769250481212,121,-7,-5.935988916472816,-5.0779092755354425,-4.551445010383356
1769250481216,122,-6,-5.417896525265364,-4.2128842172029675,-4.055035485392388
1769250481220,122,-6,-4.794117880152026,-4.038157230289425,-3.4514951939441563
1769250481224,123,-5,-4.137529632407574,-3.156467660773107,-2.8127404432767333
1769250481228,124,-4,-3.548742597525208,-1.9963487131655475,-2.241156496226142
1769250481232,124,-4,-3.078516502933709,-2.218158753232208,-1.7888882762327727
1769250481236,124,-4,-2.6906215086044334,-1.996623884351147,-1.4190864222237822
1769250481240,125,-3,-2.3043389281496904,-1.3009202519437957,-1.050004705281328
1769250481244,125,-3,-1.8631764797450137,-0.8562190888542967,-0.6256944493413714
1769250481248,126,-2,-1.3578460302791522,-0.336847054912718,-0.1383655045537661
1769250481252,126,-2,-0.8009927564463075,0.1307046288033633,0.3991046054682883
1769250481256,127,-1,-0.2052141573244668,0.6632471224814316,0.9758114063763144
1769250481260,127,-1,0.409085308341536,1.0333745051141432,1.5729848639370851
1769250481264,128,0,1.0057889224108123,1.8300009674698736,2.153837848703358
1769250481268,129,1,1.5591604576643865,2.925327118874558,2.6903024214604656
1769250481272,129,1,2.087545546533256,2.9168961866031893,3.1998355005068935
1769250481276,129,1,2.6326205667548086,2.826998207812933,3.72595390443982
1769250481280,130,2,3.188873290821201,3.9290186531218345,4.265079533064965
1769250481284,131,3,3.677076932601063,4.881103090183689,4.737282150049538
1769250481288,131,3,4.017481792686035,4.898203026776314,5.0607452477103045
1769250481292,131,3,4.222187013221947,4.930458443692349,5.247338588858191
1769250481296,131,3,4.385647361623996,4.820401013486348,5.393327310257062
1769250481300,131,3,4.576253706879562,4.927300954802407,5.567936793152661
1769250481304,132,4,4.757273141044941,5.887799515139441,5.732743444265849
1769250481308,132,4,4.826921103104169,5.879682016663535,5.784212345708909
1769250481312,131,3,4.7204829281399485,4.968179294737857,5.658686605954258
1769250481316,131,3,4.459205292385166,4.762950213504416,5.380052775887015
1769250481320,131,3,4.12353885556596,4.985593745974569,5.029424395947453
1769250481324,131,3,3.816519579413536,4.81966972509413,4.707955297510682
1769250481328,130,2,3.646054547134962,3.96083248304194,4.521880091724426
1769250481332,130,2,3.690657150347944,3.896925046343728,4.549754087162775
1769250481336,131,3,3.943437047321409,4.809611482200748,4.7852245900434625
1769250481340,131,3,4.288531425370624,4.950980632012255,5.112596724164536
1769250481344,131,3,4.542321154720764,4.824711810076637,5.348776721003238
1769250481348,131,3,4.52951624758453,5.00482312747244,5.3194913519110365
1769250481352,131,3,4.151535671439039,4.808901864430959,4.926493983303548
1769250481356,130,2,3.4251044442561054,3.91928956363947,4.185624741499849
1769250481360,129,1,2.4743481022636593,2.8060506483694225,3.2198725347730197
1769250481364,128,0,1.469515537715525,1.9884424339340925,2.199205644502849
1769250481368,127,-1,0.5422713795218052,0.8502274029192205,1.2558468888877312
1769250481372,126,-2,-0.2639933830624936,-0.0473877217457094,0.4336976609400995
1769250481376,126,-2,-0.9710274421226148,-0.2144859593541426,-0.2890422266684238
1769250481380,125,-3,-1.5945995535070985,-1.093077587996958,-0.9282311679536308
1769250481384,124,-4,-2.0986086991053536,-2.08458566471503,-1.447372288943788
1769250481388,124,-4,-2.421505455747289,-2.0926441994711236,-1.7846603644908172
1769250481392,124,-4,-2.541273579889004,-2.086602764442997,-1.9187407636284424
1769250481396,124,-4,-2.507331643677055,-2.2034232341075106,-1.8999700134286617
1769250481400,124,-4,-2.4134553341256626,-2.0911914288571625,-1.822029597232607
1769250481404,124,-4,-2.345035113520255,-2.096490387173562,-1.7691378396123048
1769250481408,124,-4,-2.3414273346371446,-2.0785796962000105,-1.7797240251248114
1769250481412,124,-4,-2.387074759742291,-2.0923646102075586,-1.8385769550702344
1769250481416,124,-4,-2.4261195644626867,-2.226152162085775,-1.8910480190009016
1769250481420,124,-4,-2.3927334533113664,-2.0496381245032285,-1.872073958486259
1769250481424,124,-4,-2.247423975724236,-2.1505390301280674,-1.7417561429673345
1769250481428,124,-4,-1.9996883934705465,-2.021718680006644,-1.5086306690438804
1769250481432,125,-3,-1.6943543691248668,-1.1390547567107094,-1.2170736240539264
1769250481436,125,-3,-1.3646810534882778,-1.2062398616449248,-0.9006012417978684
1769250481440,125,-3,-0.9940834251381084,-1.0564052707680762,-0.5430534001785916
1769250481444,126,-2,-0.5284313878195158,-0.1506048603868439,-0.090579885041131
1769250481448,126,-2,0.0682877920518412,-0.024871723918419,0.4926733366333531
1769250481452,127,-1,0.7653706786372292,0.8691672216450816,1.1760220636783572
1769250481456,128,0,1.46805338677649,1.778714668564619,1.8649685298636725
1769250481460,128,0,2.0724387047964976,1.9498774542235924,2.4559949892889437
1769250481464,129,1,2.5311545154818265,2.849978000507912,2.9020136944700967
1769250481468,129,1,2.877697584211325,2.964962314396196,3.2365899050660776
1769250481472,129,1,3.1883190436632405,2.879266474085472,3.5357063440315697
1769250481476,130,2,3.511063688562283,3.76454684338601,3.846757562037172
1769250481480,130,2,3.818120771806654,3.9662832921761617,4.141312940128842
1769250481484,130,2,4.012888456410716,3.820139632647781,4.322795466223004
1769250481488,130,2,3.977595609432591,4.015999314790793,4.274086819214963
1769250481492,130,2,3.6288347248258286,3.796013423370887,3.9125311248247874
1769250481496,129,1,2.955029771942794,2.8636334506467893,3.2271235038469697
1769250481500,128,0,2.020625257062169,1.851178927142521,2.2824787289686146
1769250481504,127,-1,0.9404702043888123,0.9427118472144268,1.192736147139936
1769250481508,126,-2,-0.1545050518981365,-0.1112705859069667,0.0874214699516953
1769250481512,125,-3,-1.1489867979900463,-1.0775814048758303,-0.9188914464807764
1769250481516,124,-4,-1.9808634245806656,-2.265704002186196,-1.7632437915165404
1769250481520,123,-5,-2.6775834317971725,-3.0265444025553343,-2.4717313930760785
1769250481524,123,-5,-3.3488275593540906,-3.1694257718224845,-3.153892289369253
1769250481528,122,-6,-4.110159755921657,-4.019597214970121,-3.926115214415596
1769250481532,121,-7,-4.988976874872746,-5.14512925947202,-4.815773474946063
1769250481536,120,-8,-5.901248334568464,-6.237008089434522,-5.737620127250775
1769250481540,119,-9,-6.719032412231805,-7.025750880834991,-6.563328564822096
1769250481544,119,-9,-7.354056089407795,-7.213814533815507,-7.2065706193072865
1769250481548,118,-10,-7.780703796096265,-7.920591539445898,-7.644424947375905
1769250481552,118,-10,-8.003727344759117,-8.295899197595734,-7.881763898865141
1769250481556,118,-10,-8.03044855744227,-8.04276212432325,-7.921968185099908
1769250481560,118,-10,-7.880005124970437,-8.275519193330268,-7.778711520513041
1769250481564,118,-10,-7.606409196047672,-7.939925588987363,-7.504514391559046
1769250481568,119,-9,-7.298185822710615,-7.188701151944484,-7.194330374620668
1769250481572,119,-9,-7.058371719839502,-7.049153335817573,-6.962653849942572
1769250481576,119,-9,-7.009006159531852,-7.2593283839886436,-6.938149186490243
1769250481580,118,-10,-7.320334773376569,-8.124873623282271,-7.2839710592800415
1769250481584,117,-11,-8.144396783539232,-9.041180349862914,-8.133240005470377
1769250481588,117,-11,-9.30553125301952,-9.137570915472558,-9.293392069190478
1769250481592,117,-11,-9.833440778051925,-9.035873545947892,-9.794473146644153
1769250481596,119,-9,-7.796748596681028,-7.326443116992857,-7.725530327963215
1769250481600,125,-3,-0.9826388585767428,-1.021975021472834,-0.9004286404397464
1769250481604,136,8,11.549734524364414,9.835394144983944,11.60853228876527
1769250481608,151,23,27.907038714644692,25.007343746057344,27.91710921539149
1769250481612,169,41,43.15484257166775,42.85528396856875,43.11351550721889
1769250481616,180,52,51.223660563708535,53.739806416994256,51.14928331138055
1769250481620,176,48,48.126524534790455,49.87338642054619,48.04831445796414
1769250481624,160,32,34.40600879157333,33.84165644662756,34.35223758100036
1769250481628,139,11,15.022477432391709,12.947067667665364,15.008131359952705
1769250481632,121,-7,-3.3047498170456713,-5.0627945203495095,-3.2874588531581512
1769250481636,110,-18,-15.498844214693303,-16.238458442070037,-15.47865600142418
1769250481640,106,-22,-20.132708704322148,-20.04558344359592,-20.143268921420667
1769250481644,108,-20,-19.10974997724786,-18.211932516193286,-19.16925224868064
1769250481648,111,-17,-15.7115132802287,-15.082482271725071,-15.812538093950808
1769250481652,113,-15,-12.558241959670989,-13.081010323849656,-12.674121296098612
1769250481656,114,-14,-10.685877178159828,-12.248927475168074,-10.788409160168998
1769250481660,115,-13,-9.879775101241714,-10.98218819201132,-9.95665691542475
1769250481664,117,-11,-9.53446952560852,-9.283564415393718,-9.595132643572049
1769250481668,117,-11,-9.24165115245676,-9.047922353061091,-9.307524756428066
1769250481672,117,-11,-8.87183927028589,-9.128776082832568,-8.95885124780315
1769250481676,117,-11,-8.423476468824566,-9.220014363246875,-8.531373592075902
1769250481680,117,-11,-7.933037906926832,-8.939409613257432,-8.049718663532996
1769250481684,119,-9,-7.464709029974574,-7.373297147247268,-7.57938537492929
1769250481688,119,-9,-7.064635629540634,-6.924368155761792,-7.176196238367422
1769250481692,119,-9,-6.686187839635734,-7.340947603641539,-6.800263691468444
1769250481696,119,-9,-6.20663415017311,-6.949745424583596,-6.327510186371352
1769250481700,120,-8,-5.558156707745457,-6.227684098280775,-5.685221247320458
1769250481704,121,-7,-4.828289483088065,-5.070913574629783,-4.959053176900776
1769250481708,122,-6,-4.197469819199892,-4.2205866279790225,-4.331414970886583
1769250481712,122,-6,-3.770289492752397,-4.110297153338091,-3.9086100658012217
1769250481716,122,-6,-3.483748861724978,-4.131879329488006,-3.626415851780063
1769250481720,122,-6,-3.185876126697302,-4.086047669013167,-3.3307903509827197
1769250481724,123,-5,-2.78359262864955,-3.172624675956404,-2.9291952429332433
1769250481728,124,-4,-2.293697328458377,-2.141619790314671,-2.441247148265827
1769250481732,124,-4,-1.765799342073528,-2.2024158047933726,-1.9178285027055384
1769250481736,124,-4,-1.2001099617347972,-2.039243870647556,-1.357047156193364
1769250481740,125,-3,-0.5610883576275019,-1.184015962221824,-0.7206986257261203
1769250481744,126,-2,0.1567665253931389,-0.0751322724074339,-0.0034157296248533
1769250481748,127,-1,0.9113964836583176,0.7678354493057311,0.7504492815129766
1769250481752,127,-1,1.6563230860192717,0.8717694287576991,1.49306384369527
1769250481756,128,0,2.3749780597978742,1.8774279005832983,2.208639405093415
1769250481760,129,1,3.0660537187667183,2.904983881510955,2.8973270386725027
1769250481764,129,1,3.709928301682347,2.810765918829352,3.5400218551868092
1769250481768,130,2,4.262413500069278,3.920053524698567,4.091882479358707
1769250481772,131,3,4.6851970803755085,4.677997667558953,4.513708116616621
1769250481776,130,2,4.97893598414735,4.0872988382795565,4.806066693762583
1769250481780,131,3,5.1777196983589455,4.664402674179248,5.003679075013737
1769250481784,131,3,5.307570251514368,5.073173625405772,5.132884987798869
1769250481788,131,3,5.355887644333148,4.642383990548547,5.180660748631258
1769250481792,131,3,5.284590569445891,4.96048558971684,5.108486117672887
1769250481796,131,3,5.0702839965720115,4.804497536307002,4.893246669491653
1769250481800,130,2,4.7315977940006,3.9005652071126495,4.554270205367069
1769250481804,130,2,4.3246128083657,3.892755466200928,4.147778531571557
1769250481808,130,2,3.920701179319576,3.7620068542503,3.744469835082364
1769250481812,129,1,3.58653674840846,2.8989216773005824,3.410458788595813
1769250481816,129,1,3.3673848214785305,2.8065313718793696,3.1912896583853763
1769250481820,129,1,3.2724590503601196,2.928341107960078,3.0967846134847266
1769250481824,129,1,3.2736810904573295,2.826736480879161,3.0990107994436373
1769250481828,129,1,3.320735743748001,2.866978534388961,3.147266171096899
1769250481832,129,1,3.3558265163159593,2.7605519735156414,3.183189239876996
1769250481836,129,1,3.3162024852964573,2.9577526079094913,3.1437129283581573
1769250481840,129,1,3.132255354306631,2.746923270294317,2.9596597361113632
1769250481844,128,0,2.7353207893644043,2.013679332777765,2.5634798301092907
1769250481848,128,0,2.0836700221340965,1.687542325418765,1.9141249006365513
1769250481852,127,-1,1.2038792228005648,0.9244645411190936,1.0374491071166578
1769250481856,126,-2,0.2196948827329592,-0.1972401933110448,0.0557996716523305
1769250481860,125,-3,-0.6775958008967984,-1.140679335411988,-0.8399521562936356
1769250481864,124,-4,-1.327732347215962,-2.0558077490808846,-1.4886694488662138
1769250481868,124,-4,-1.702159467741167,-2.2933515394357755,-1.861102650366219
1769250481872,124,-4,-1.911316267164324,-2.0330361689883243,-2.068205044157999
1769250481876,124,-4,-2.10137490260571,-2.3083065441249593,-2.2568278938818285
1769250481880,123,-5,-2.3364684082080536,-2.9959155646620204,-2.4904681024493778
1769250481884,123,-5,-2.5756433177966964,-3.2336035134624277,-2.7267997378124993
1769250481888,123,-5,-2.7461282988991913,-3.1158098482356618,-2.892920759039085
1769250481892,123,-5,-2.8182447188079505,-3.1866151811601995,-2.960741651595576
1769250481896,123,-5,-2.8106570695963606,-3.197771463314664,-2.950445545803017
1769250481900,123,-5,-2.746866114076313,-3.066173299323616,-2.8852254496397087
1769250481904,123,-5,-2.626827420029957,-3.2277177482825756,-2.7633069507402537
1769250481908,123,-5,-2.437690245198503,-3.0783854189237725,-2.570661668203189
1769250481912,124,-4,-2.171880268892549,-2.2582248184803833,-2.3001981665632054
1769250481916,124,-4,-1.82212813200705,-2.101533663072914,-1.9458535508628172
1769250481920,124,-4,-1.3696708803586086,-2.187437292975812,-1.4894371130312685
1769250481924,125,-3,-0.7965212568912279,-1.1113806552687664,-0.9128740374211874
1769250481928,126,-2,-0.115371583514465,-0.2040435053135691,-0.2286416479889972
1769250481932,126,-2,0.614394273036941,-0.129654753620501,0.5042869063131548
1769250481936,127,-1,1.300876796552982,0.7738741291339422,1.19458932074791
1769250481940,128,0,1.8607823527882787,1.924426834228222,1.759143822709443
1769250481944,128,0,2.2683041658907523,1.7619474995387412,2.171741186200692
1769250481948,128,0,2.5741401146746865,1.9083990218723648,2.4825442816075385
1769250481952,129,1,2.8697468811938256,2.7848792675784093,2.782737997284617
1769250481956,129,1,3.21883969294407,2.818645291484044,3.1362698626139185
1769250481960,129,1,3.605401759706337,2.9268224773581553,3.5276974614581147
1769250481964,130,2,3.9345971934973174,3.6832450903783824,3.862241281565791
1769250481968,130,2,4.088945530446216,4.041490930775034,4.021577306660508
1769250481972,130,2,3.996852139239314,3.602458221857156,3.9335077847313102
1769250481976,129,1,3.6501609440057416,3.0335887307102163,3.5906560910510086
1769250481980,129,1,3.058881310570035,2.6922845512555864,3.004439317507953
1769250481984,128,0,2.2096316392310427,1.880750897566582,2.1617780404870137
1769250481988,127,-1,1.0938560192393472,0.8894734985348827,1.0529338325063655
1769250481992,126,-2,-0.2183250852189655,-0.3067204603907183,-0.2532114339516571
1769250481996,124,-4,-1.5538926860743354,-1.9849972370154845,-1.5835482874017617
1769250482000,123,-5,-2.7179525584435016,-3.371584431528838,-2.742199601932139
1769250482004,122,-6,-3.619392926411142,-4.020226701723294,-3.637785277697156
1769250482008,122,-6,-4.318255383353266,-4.2331549083104,-4.331136140957867
1769250482012,121,-7,-4.9455198983084205,-5.176012637127593,-4.953516986541907
1769250482016,120,-8,-5.576395078267159,-6.092399032638904,-5.578895593433677
1769250482020,120,-8,-6.174735017894605,-6.32822008396075,-6.16972925934951
1769250482024,119,-9,-6.641557195596685,-7.034349223639683,-6.627600578272304
1769250482028,119,-9,-6.906007250070608,-7.267944385668979,-6.884298203003462
1769250482032,119,-9,-6.980268381895306,-7.077706484015832,-6.954368232588939
1769250482036,119,-9,-6.947239869022115,-7.230173670439178,-6.919917984247166
1769250482040,119,-9,-6.904589919124177,-7.191142581212744,-6.874025511169348
1769250482044,119,-9,-6.91003132011851,-7.198140637629614,-6.869177934611912
1769250482048,119,-9,-6.9585926316526265,-7.1191637817084645,-6.89997349958536
1769250482052,119,-9,-7.003119245945326,-7.178444214308139,-6.926689520453469
1769250482056,119,-9,-7.019315642454531,-7.175915929155492,-6.936572121056875
1769250482060,119,-9,-7.093427860419136,-7.213816168918669,-7.021546081702983
1769250482064,118,-10,-7.454056649024049,-8.254860444578544,-7.401621251889665
1769250482068,117,-11,-8.31808077261137,-9.01359880241136,-8.273653852720393
1769250482072,117,-11,-9.48091595968092,-9.3067143634259,-9.416708961860785
1769250482076,117,-11,-9.832308917092956,-9.028228292314928,-9.723324294509853
1769250482080,120,-8,-7.288770088633145,-6.374154707743012,-7.132812950557317
1769250482084,126,-2,0.3683714885346267,-0.1276863576417222,0.5470446679370591
1769250482088,138,10,13.84375127944934,11.90379964396945,14.01054257007457
1769250482092,155,27,30.847459396957017,28.76030533920894,30.979530650590355
1769250482096,172,44,46.1416899465198,45.9636963655593,46.239263590660435
1769250482100,183,55,53.69517958773413,56.54740525932597,53.77803328725732
1769250482104,178,50,49.92092275366924,51.93424341823629,50.017891124467795
1769250482108,161,33,35.86053304169337,34.701731798527526,35.9982237430759
1769250482112,141,13,16.717498274501736,14.96551390127436,16.908585171381173
1769250482116,124,-4,-0.9672610839618834,-2.2414516925276935,-0.7327339091433744
1769250482120,113,-15,-12.565039864122568,-13.154073321717172,-12.316680756590566
1769250482124,110,-18,-17.030657428672875,-16.239962921413714,-16.80079345156291
1769250482128,111,-17,-16.333077090690484,-15.170820596049888,-16.136808440415784
1769250482132,113,-15,-13.515339659547276,-13.16518350067303,-13.342425470623423
1769250482136,115,-13,-10.879959533001587,-11.240985872382888,-10.70374157740059
1769250482140,116,-12,-9.293530747499853,-10.096300932500482,-9.08922430686905
1769250482144,117,-11,-8.582826717750791,-9.33162343225564,-8.342119796683166
1769250482148,118,-10,-8.298109897978724,-8.021838133616752,-8.031232414696623
1769250482152,119,-9,-8.163861776751434,-7.400503463991653,-7.889381534442735
1769250482156,118,-10,-8.075308316455416,-8.01013989347852,-7.805969332543269
1769250482160,118,-10,-7.941523563597814,-8.326707976077596,-7.676752260014302
1769250482164,118,-10,-7.663228179715034,-8.083877849420816,-7.393179852458624
1769250482168,119,-9,-7.23114512999273,-7.240266667839808,-6.9471690483409585
1769250482172,120,-8,-6.75545077321337,-6.2544600262258925,-6.456766600026671
1769250482176,120,-8,-6.35589972690484,-6.133075031860669,-6.047275314415673
1769250482180,120,-8,-6.041745081908426,-6.257034810093423,-5.726619782602989
1769250482184,120,-8,-5.721615801952944,-6.082113650138845,-5.39894009634026
1769250482188,121,-7,-5.314550516635201,-5.291384785133345,-4.9818563358466506
1769250482192,122,-6,-4.820668167371194,-4.201388368354848,-4.478046595757002
1769250482196,122,-6,-4.288694908569701,-4.204807801619916,-3.938229808639587
1769250482200,122,-6,-3.7542519352837473,-4.21104685561087,-3.396453645634138
1769250482204,123,-5,-3.2272876214831587,-3.0671370071378345,-2.860028847527465
1769250482208,124,-4,-2.7079349819935947,-2.380169525448214,-2.3292323519720317
1769250482212,124,-4,-2.1792731281920457,-2.0681945265301853,-1.7898490223274672
1769250482216,125,-3,-1.5942861912378885,-1.4020325187705045,-1.1966351653725713
1769250482220,125,-3,-0.909202241479838,-0.982830314265598,-0.5046443771374785
1769250482224,126,-2,-0.1501695065670316,-0.3041370444628084,0.2624561545744579
1769250482228,127,-1,0.5715105010742678,0.8455758091019772,0.9942581205353308
1769250482232,128,0,1.1466373821556366,1.7084945903239648,1.5802559557432223
1769250482236,128,0,1.5885533451020613,1.7810306368281652,2.032309352416337
1769250482240,128,0,2.052634450790434,1.8620215972433745,2.5057915151684513
1769250482244,129,1,2.709910960467586,2.816613615397567,3.172512364500006
1769250482248,130,2,3.5854426785194384,3.749864712856627,4.0575979620469
1769250482252,131,3,4.51531638302393,4.766556279137362,4.996469547578208
1769250482256,132,4,5.260697414826741,5.743672511298808,5.750141204058557
1769250482260,132,4,5.672039841860161,5.863909665803418,6.170053029831546
1769250482264,132,4,5.763611418514451,5.828306764017728,6.271623537480111
1769250482268,132,4,5.65514576196814,5.711191665737035,6.174395351157716
1769250482272,132,4,5.458226312328685,5.804637473387697,5.988363904339673
1769250482276,132,4,5.212636999192177,5.707918805513637,5.752096392467478
1769250482280,131,3,4.9049446755708255,4.882761687908449,5.452730537509393
1769250482284,131,3,4.5257074908315165,4.817884178476054,5.08237652519818
1769250482288,131,3,4.1113533471793975,4.689256173703483,4.678182097682416
1769250482292,130,2,3.744107965348007,3.8325056963404665,4.321754552365123
1769250482296,130,2,3.509286391707239,3.674093580383306,4.097355399837079
1769250482300,130,2,3.436836164342114,3.9087010880731703,4.034404341607571
1769250482304,130,2,3.4717797859244865,3.7974765650093065,4.078278033022916
1769250482308,130,2,3.498453990869459,3.666976631514469,4.114154968826847
1769250482312,130,2,3.403052496503709,3.887851826737629,4.028617901225866
1769250482316,130,2,3.1351210046467735,3.572091571583446,3.7707651580756822
1769250482320,129,1,2.7276735014781135,3.0355720136644155,3.3731729082009165
1769250482324,129,1,2.2572181798774484,2.6535121482073363,2.9127397378714575
1769250482328,128,0,1.772339683786865,1.7740188345714367,2.438585420632157
1769250482332,128,0,1.257363179261996,1.8253636244611136,1.9344668177861208
1769250482336,128,0,0.6691022024353651,1.5648066069733853,1.3559424175016046
1769250482340,126,-2,0.001437467005509,0.1138015160236856,0.6967702532799023
1769250482344,126,-2,-0.7033243742590352,-0.5087051593170155,0.0006507056002145
1769250482348,125,-3,-1.4048255699669765,-1.0194113415758927,-0.6909669238879075
1769250482352,125,-3,-2.098393710308766,-1.438001302141425,-1.3738366372955118
1769250482356,124,-4,-2.7784392498645993,-2.133314838221086,-2.0432252737088343
1769250482360,123,-5,-3.3781327649962676,-3.2051242254967627,-2.632285184804388
1769250482364,123,-5,-3.7673706673773184,-3.209044450145349,-3.0105728106783127
1769250482368,123,-5,-3.8248523116598103,-3.322649660050672,-3.057289841070237
1769250482372,123,-5,-3.526434345655439,-3.1666607231709394,-2.7493254427345333
1769250482376,124,-4,-2.9834281188237113,-2.3651995648899655,-2.1981864463671457
1769250482380,124,-4,-2.403093530999282,-2.000880601825374,-1.6099939726916066
1769250482384,125,-3,-1.9880794740138952,-1.4167490632462705,-1.185896985231953
1769250482388,125,-3,-1.8255927477653944,-1.1517227154022098,-1.0124880141914732
1769250482392,125,-3,-1.831336639949257,-1.3302733656748875,-1.0060103979092148
1769250482396,125,-3,-1.7923858962881107,-1.2198587639375913,-0.9546282948972123
1769250482400,125,-3,-1.4944027133277191,-1.1012547807849913,-0.645112129225573
1769250482404,126,-2,-0.8553522089859874,-0.3990980559566925,0.0036443053543502
1769250482408,127,-1,0.0238228234723049,0.8870680296235995,0.8904532463618664
1769250482412,128,0,0.9202829190659224,1.5534514657447884,1.79366189249231
1769250482416,128,0,1.610592876776545,1.9593580314192656,2.4920920980871775
1769250482420,129,1,1.9766842504971296,2.680663012144951,2.8691147562878268
1769250482424,129,1,2.0555391581554883,2.8015365147813,2.9609272744719206
1769250482428,129,1,2.0224998109585077,2.679401252116266,2.9407529697778574
1769250482432,129,1,2.1062133802191676,2.736829802450484,3.035776562834866
1769250482436,129,1,2.4601320176060155,2.813328463332194,3.3993333217441863
1769250482440,130,2,3.0626227360921283,3.78886262929573,4.010265744669255
1769250482444,131,3,3.719576483582241,4.710385968233408,4.6750710941101605
1769250482448,131,3,4.17040501959098,4.710182197533307,5.1341403130849805
1769250482452,131,3,4.220722757907253,4.750105616473167,5.194115286695046
1769250482456,131,3,3.822202451050127,4.745441560282552,4.8068071251755145
1769250482460,130,2,3.072268721683696,3.907490506273101,4.06882302055775
1769250482464,129,1,2.1483151788976693,2.509353093975416,3.1566392041076674
1769250482468,128,0,1.2147260483426356,1.9623402858308343,2.234008990561036
1769250482472,128,0,0.3557161486402811,1.4371244665674228,1.3846995949625205
1769250482476,126,-2,-0.4333014827985662,0.1053072267238666,0.6041840509680623
1769250482480,126,-2,-1.2117549841363728,-0.480966493403637,-0.166087399084172
1769250482484,125,-3,-2.052453918911984,-1.122702162018837,-0.997791634437038
1769250482488,124,-4,-3.005941147642748,-2.400654631534681,-1.941024226812316
1769250482492,123,-5,-4.06783044322518,-3.2494080040737563,-2.9919100081689693
1769250482496,122,-6,-5.156596317244755,-4.138731582418832,-4.069691373059149
1769250482500,121,-7,-6.124974438742955,-5.322429740215724,-5.0271696333128855
1769250482504,120,-8,-6.8207593854157125,-6.219866672285132,-5.711641233389373
1769250482508,120,-8,-7.171558604498254,-6.391721797947843,-6.051098409632243
1769250482512,120,-8,-7.230288665554431,-6.208299190331365,-6.100399732911211
1769250482516,120,-8,-7.141289695743796,-6.203841426533037,-6.005458987592813
1769250482520,120,-8,-7.056848533096147,-6.254078135161707,-5.916850024364534
1769250482524,120,-8,-7.067820202987184,-6.30818227526071,-5.920230122472046
1769250482528,120,-8,-7.177312905062129,-6.338115762155226,-6.013992349389071
1769250482532,120,-8,-7.30564865477837,-6.252724565679358,-6.119527966405426
1769250482536,120,-8,-7.326508158557044,-6.1592852863752325,-6.1190857683483175
1769250482540,120,-8,-7.162509771897179,-6.295945536666361,-5.946548928452286
1769250482544,120,-8,-6.9291501767770844,-6.298139652892753,-5.722098225680528
1769250482548,120,-8,-7.002355155619049,-6.360169004260747,-5.812854141367117
1769250482552,119,-9,-7.818725663266735,-7.255803975410084,-6.635986990798338
1769250482556,118,-10,-9.345853971773533,-8.117158591086456,-8.14260255135989
1769250482560,118,-10,-10.486345241679071,-8.382171058066245,-9.236555121072744
1769250482564,119,-9,-8.981247909422198,-7.188040703620686,-7.680218576414277
1769250482568,125,-3,-2.305177042883986,-1.5378689867948774,-0.975186077940009
1769250482572,136,8,10.58591622155101,9.991384456330348,11.909719477301172
1769250482576,153,25,27.668767828093102,26.6133269449721,28.9606241452384
1769250482580,171,43,43.798190601166795,44.9347841992048,45.055288313579965
1769250482584,183,55,52.78916429502471,56.4347816922271,54.03022296623067
1769250482588,180,52,50.668690320925855,53.759565714724665,51.9235147659294
1769250482592,165,37,38.00016292597062,38.63110375745185,39.29697749126398
1769250482596,145,17,19.628992894088704,18.89616354219247,20.981757515784075
1769250482600,128,0,2.0080658742425896,1.6985437441916398,3.4076258465326643
1769250482604,117,-11,-10.063454321519393,-9.268459973193874,-8.64654979062451
1769250482608,113,-15,-15.256648838237092,-13.446777819016516,-13.855401803798008
1769250482612,113,-15,-15.305377777053296,-13.131828284128314,-13.936024425773972
1769250482616,115,-13,-13.141294691048254,-11.43192537422397,-11.794451949415937
1769250482620,116,-12,-11.04502701453427,-10.000865270531111,-9.694165282454128
1769250482624,117,-11,-9.869815043987526,-9.631286346397602,-8.489695807424855
1769250482628,117,-11,-9.39841440878709,-9.03415129457184,-7.980361912115132
1769250482632,119,-9,-9.141856038418055,-7.543807538567243,-7.696424539838892
1769250482636,119,-9,-8.854680570281504,-7.078910534417529,-7.401191441421489
1769250482640,119,-9,-8.553083420262757,-7.33705588564089,-7.104572358552646
1769250482644,119,-9,-8.300793135321438,-7.380546905871169,-6.856105625294636
1769250482648,119,-9,-8.079828168676846,-7.166254768968327,-6.628124178572226
1769250482652,120,-8,-7.814215970910928,-6.519348052063937,-6.346107258640036
1769250482656,120,-8,-7.432102557243413,-6.015410798973476,-5.946783623033992
1769250482660,121,-7,-6.887445611776682,-5.53782068072435,-5.390685824073016
1769250482664,121,-7,-6.170602278986666,-5.1044238995846385,-4.667696899598139
1769250482668,122,-6,-5.343438944037097,-4.4846643811379066,-3.834841522912036
1769250482672,123,-5,-4.5544247723556675,-3.1795620311434916,-3.0372895142756775
1769250482676,124,-4,-3.967666905425328,-2.363061626991227,-2.4398029219057324
1769250482680,124,-4,-3.635995651940977,-2.264763954757531,-2.097291219758457
1769250482684,124,-4,-3.4420312471242873,-2.326790458481484,-1.8929084774599048
1769250482688,124,-4,-3.18214849046186,-2.3229708612051563,-1.6224366817648472
1769250482692,125,-3,-2.718950169283589,-1.2830348735536727,-1.148846408217168
1769250482696,126,-2,-2.0601283514589332,-0.3154787754654458,-0.4810705234785017
1769250482700,126,-2,-1.3126324175568571,-0.3103790140632911,0.2739180777513041
1769250482704,127,-1,-0.5849169509751428,0.6905940785618543,1.0094428330757834
1769250482708,128,0,0.0741553555165015,1.6736042658086765,1.6782617691384316
1769250482712,128,0,0.679063745720605,1.6941342644075454,2.2944754700105436
1769250482716,129,1,1.281005277910055,2.7209922941069205,2.9073667491636703
1769250482720,130,2,1.9353136561079671,3.610339135316554,3.5709527585377794
1769250482724,130,2,2.6689537371037426,3.767465875925262,4.312907559580886
1769250482728,131,3,3.4535317860814514,4.597011065537976,5.106499409603178
1769250482732,132,4,4.208443874733095,5.755319048822068,5.871425106207212
1769250482736,133,5,4.851509418539517,6.6622312328702185,6.524194191971228
1769250482740,133,5,5.356837707034485,6.6358867816715925,7.038191785783076
1769250482744,133,5,5.750566822326933,6.736632079989126,7.440566951201643
1769250482748,134,6,6.04521817263184,7.61732432392063,7.744942642332368
1769250482752,134,6,6.198822792193201,7.72783371694659,7.908834786435067
1769250482756,134,6,6.157744802708971,7.6905565007935,7.877298287865211
1769250482760,134,6,5.9333065152059055,7.579400217765981,7.661511329249954
1769250482764,133,5,5.616866724725762,6.790133360449156,7.354038360407141
1769250482768,133,5,5.311219579583113,6.531896364144687,7.058383729298157
1769250482772,133,5,5.053824996042121,6.833642343098228,6.811037549197236
1769250482776,133,5,4.810665125771963,6.562932999170869,6.576669650717436
1769250482780,132,4,4.531425620567246,5.705228416328883,6.30528038392408
1769250482784,132,4,4.196776825163022,5.641644891721086,5.979156645508672
1769250482788,132,4,3.8226259364300703,5.653341819856484,5.615060032900363
1769250482792,131,3,3.441879427916372,4.726755459612522,5.245057835815395
1769250482796,131,3,3.0871876191407037,4.649832554261902,4.900316534530928
1769250482800,131,3,2.774792670227276,4.6298572440778365,4.596445729333879
1769250482804,130,2,2.486371999746131,3.6691736580082006,4.315785889048844
