timestamp_ms,ecg_u8_raw,ecg_counts_raw_int,ecg_counts_filt_monitor,ecg_counts_filt_diagnostic,ecg_counts_filt_st
1769250641768,127,-1,-2.923571348625158,-0.4722702326214811,-0.5630370203393288
1769250641772,128,0,-2.3450200810450728,0.1996252653787459,0.020288412109127
1769250641776,128,0,-1.9708531968325227,0.483478466085844,0.3982543187809233
1769250641780,128,0,-1.71762293736368,0.4362265097082738,0.6545138935197667
1769250641784,128,0,-1.4190495803113603,0.5069855951382296,0.9567512938913456
1769250641788,129,1,-0.9641132146866797,1.47859734390941,1.416301183432691
1769250641792,130,2,-0.3691295512492483,2.1571184318639447,2.0156679751685234
1769250641796,130,2,0.2727091370493777,2.5586402979624405,2.6607133609289053
1769250641800,131,3,0.8916089463939403,3.329069768014901,3.282166982418448
1769250641804,131,3,1.4868329254326853,3.614999602048156,3.880516175884206
1769250641808,132,4,2.091268559909805,4.350359856099239,4.489124699833987
1769250641812,133,5,2.7123489517602777,5.215806346459869,5.1148820981601
1769250641816,133,5,3.314653478395968,5.542086165625358,5.721686591592206
1769250641820,134,6,3.854685667501448,6.272865710520251,6.2658695879183
1769250641824,134,6,4.327352036750357,6.751334324582558,6.742470092395196
1769250641828,135,7,4.777762891602293,7.076866195537552,7.19667622651781
1769250641832,135,7,5.264635722274001,7.560245627480951,7.687278259921358
1769250641836,136,8,5.804951996053799,8.087242131616382,8.231475236853651
1769250641840,136,8,6.350292162242929,8.81206104081423,8.78106448090625
1769250641844,137,9,6.821063442838429,9.14523657641488,9.256374002172375
1769250641848,137,9,7.1719800438792065,9.675630395306332,9.611743473326614
1769250641852,138,10,7.428435890838042,9.930048033457611,9.87231946480055
1769250641856,137,9,7.654055575484386,9.668283995159056,10.101918765925872
1769250641860,138,10,7.873682569599802,10.293065365323573,10.325734037692223
1769250641864,138,10,8.024788355712584,10.580668118369656,10.481294892629029
1769250641868,138,10,7.987060618222457,10.290184428916836,10.448062407485953
1769250641872,138,10,7.663652604585378,10.198940415165431,10.128936030292095
1769250641876,137,9,7.040048190491988,9.4575961747285,9.509249405294517
1769250641880,136,8,6.172567852550264,8.439678899827893,8.645382459618048
1769250641884,135,7,5.125806712443804,7.468862417524975,7.602296749569686
1769250641888,134,6,3.924885037672923,6.357980143472622,6.4056269680166595
1769250641892,133,5,2.5730939055966826,5.079636628049913,5.0589181034480815
1769250641896,131,3,1.1187521390280617,3.6140616413083424,3.6101554853731823
1769250641900,130,2,-0.3014795118238673,2.2033194209224005,2.1951594464461825
1769250641904,128,0,-1.5037735919462216,0.7888726851713204,0.9969445768380604
1769250641908,128,0,-2.367752971442067,-0.0843370941032501,0.1357527508243867
1769250641912,127,-1,-2.927770932513629,-0.4300887958779609,-0.4219664425056253
1769250641916,127,-1,-3.3562948001655215,-0.9385197568579078,-0.8473699280281943
1769250641920,126,-2,-3.8344611301240334,-1.2336459079507014,-1.3207240011042476
1769250641924,126,-2,-4.404190851061124,-1.7560198491543897,-1.884282693146638
1769250641928,125,-3,-4.924594181975913,-2.644003421830678,-2.398559594370272
1769250641932,125,-3,-5.180872421453765,-2.804763021019304,-2.650219681374204
1769250641936,125,-3,-5.069212169170287,-2.6864981988909866,-2.5358697100051253
1769250641940,125,-3,-4.708866873601919,-2.3712119083465035,-2.1738492392209627
1769250641944,126,-2,-4.3796630127184395,-1.7248501697011236,-1.8425004669488676
1769250641948,126,-2,-4.319145968976491,-1.6291244792709914,-1.778350531142851
1769250641952,126,-2,-4.533642291259462,-1.9203805851179097,-1.9875811426315015
1769250641956,125,-3,-4.779105699267134,-2.540817367262788,-2.226783433990849
1769250641960,125,-3,-4.734109924373762,-2.5481280547940703,-2.175861363539726
1769250641964,126,-2,-4.226597393265259,-1.5331182388509266,-1.664310485216908
1769250641968,127,-1,-3.3369646916898965,-0.8502994107808408,-0.773073883768872
1769250641972,128,0,-2.315498462441816,0.2548829914085491,0.2489123343940875
1769250641976,129,1,-1.4024803272365312,1.3007098880876966,1.1637517758387386
1769250641980,129,1,-0.6925392634100347,1.5485330759319085,1.8781211299821647
1769250641984,130,2,-0.1230808637744986,2.427623120817856,2.453629873032118
1769250641988,131,3,0.4330344405995043,3.088122500665615,3.015193612565268
1769250641992,131,3,1.0485204525165188,3.363657781903449,3.634211361323086
1769250641996,132,4,1.6724112734800007,4.104396060694949,4.260128892190258
1769250642000,132,4,2.1502392420246093,4.809411494053942,4.73957141005997
1769250642004,133,5,2.3187296734264935,5.090116769051216,4.909945065025679
1769250642008,132,4,2.1052939839576372,4.456694383547126,4.698919291150524
1769250642012,132,4,1.5582466924200054,3.918907154189797,4.154948192369359
1769250642016,131,3,0.7980739615532279,3.5586478554423113,3.398529331766188
1769250642020,130,2,-0.0541329408203976,2.3464291742433736,2.550549129208478
1769250642024,129,1,-0.914213731788269,1.525886389382204,1.6945858565720957
1769250642028,129,1,-1.728172002063698,1.0465267063038843,0.8836197437574836
1769250642032,128,0,-2.453722530645155,0.2252980936096544,0.1592486267705514
1769250642036,127,-1,-3.072246420417131,-0.6772542862113065,-0.4592279033512199
1769250642040,126,-2,-3.6319765127702186,-1.5161155389387748,-1.0184378278894308
1769250642044,126,-2,-4.259100444648718,-1.5296358061225317,-1.6436878764305685
1769250642048,126,-2,-5.078127814785059,-2.0001879347405858,-2.4597350293273887
1769250642052,124,-4,-6.087430083767595,-3.693839448628348,-3.465232010794355
1769250642056,123,-5,-7.11618040843243,-4.824524442321346,-4.4896514756021
1769250642060,122,-6,-7.92232625668708,-5.348428683076876,-5.292617754595472
1769250642064,122,-6,-8.350908497351718,-5.719413244826513,-5.721699996214628
1769250642068,122,-6,-8.425163199373284,-5.826481695583437,-5.800105875534641
1769250642072,122,-6,-8.316603235488746,-5.8729201098589465,-5.694679440749112
1769250642076,122,-6,-8.228180678318537,-5.697460005143425,-5.602326080234641
1769250642080,122,-6,-8.263401127381922,-5.461722261705188,-5.6257216112949715
1769250642084,122,-6,-8.36335039579976,-5.6372957445735965,-5.7136987559468775
1769250642088,122,-6,-8.375238245575982,-5.920927371852356,-5.72523781652042
1769250642092,122,-6,-8.233371101797168,-5.780016633946991,-5.599960127776232
1769250642096,122,-6,-8.103448050788094,-5.8570602523899895,-5.494500536938605
1769250642100,121,-7,-8.276310745851756,-6.2581174548031715,-5.68002104102964
1769250642104,122,-6,-8.720585174949846,-5.909165583417257,-6.110462641350129
1769250642108,123,-5,-8.524969882173947,-4.6123227260174495,-5.87938868395575
1769250642112,126,-2,-5.785358695240824,-2.137464997713595,-3.105516641036484
1769250642116,131,3,1.554873373253411,3.4793451690761694,4.244748450631415
1769250642120,142,14,14.060382773915634,14.446570087460213,16.72996181745816
1769250642124,158,30,29.420747569308787,30.306797186617025,32.052042792469024
1769250642128,174,46,42.6745488917229,46.28430629088748,45.2690012203188
1769250642132,182,54,48.43598141665397,53.80030994288588,51.010910318519
1769250642136,175,47,43.90306699228982,47.604325475823515,46.48409483985595
1769250642140,160,32,30.581014436823978,32.09907580934508,33.19217036797572
1769250642144,142,14,13.476850360872966,14.69128802551557,16.12831113021432
1769250642148,128,0,-1.6412869114152562,-0.1224593345170088,1.038753881387862
1769250642152,119,-9,-11.043757456142568,-8.695021054294132,-8.36372935102264
1769250642156,117,-11,-14.234233712573245,-10.77221948593474,-11.582562201760185
1769250642160,118,-10,-13.188654137939846,-9.669044955554526,-10.576442130602278
1769250642164,120,-8,-10.572725399798086,-7.487535784457027,-7.9889062719744
1769250642168,122,-6,-8.263840023285951,-6.147729639373263,-5.684362923312337
1769250642172,122,-6,-6.923904047165028,-5.520655454486585,-4.32775537529831
1769250642176,124,-4,-6.436839539612123,-4.038616748631944,-3.8184540902195367
1769250642180,124,-4,-6.506696751749481,-3.363162764292822,-3.877141706669139
1769250642184,124,-4,-6.908222809133661,-3.893031432736591,-4.2849494926930785
1769250642188,123,-5,-7.423500761085909,-4.768682492530863,-4.816869172738849
1769250642192,122,-6,-7.788174090287623,-5.848369116970236,-5.195562639662548
1769250642196,122,-6,-7.80430971750205,-5.752206283030364,-5.215824612559405
1769250642200,123,-5,-7.472461650384989,-4.599622592299321,-4.881608857791408
1769250642204,124,-4,-6.949805246771348,-3.7847348957472806,-4.358456080363428
1769250642208,124,-4,-6.3715898600699585,-3.834290824557867,-3.785563285229221
1769250642212,124,-4,-5.749413327094732,-3.818825548305437,-3.171311795459786
1769250642216,125,-3,-5.050508267288927,-2.762940347882657,-2.4781856153468316
1769250642220,126,-2,-4.327165809096514,-1.604690394768085,-1.7580813750314717
1769250642224,127,-1,-3.717298935306228,-0.8577056985725203,-1.1520465333582677
1769250642228,127,-1,-3.317658432015494,-0.7195808809533262,-0.758497730108143
1769250642232,127,-1,-3.087500195645254,-0.9985028144127148,-0.5349460803123768
1769250642236,127,-1,-2.8862969359695176,-0.5249023658275902,-0.3387563888827439
1769250642240,128,0,-2.5857042413618503,0.0782874621198075,-0.0422143094762786
1769250642244,128,0,-2.1362510474540266,0.4560465086935064,0.4018452918545783
1769250642248,129,1,-1.5550146931414703,0.9595347013052082,0.9755896705906112
1769250642252,129,1,-0.889307398946641,1.2911744952497308,1.6332705585626477
1769250642256,130,2,-0.1990158593385314,2.231567990436471,2.316553914704465
1769250642260,131,3,0.45636615823027,3.210115499592495,2.9656533821563205
1769250642264,131,3,1.043019230710506,3.3985635206540223,3.545541588351131
1769250642268,132,4,1.56831233587729,3.89168284511624,4.063270763699342
1769250642272,132,4,2.062870901370222,4.480005288409459,4.550141061912329
1769250642276,133,5,2.5487985739370074,4.9097678384176175,5.028681851656958
1769250642280,133,5,3.0320092960970584,5.60241669317592,5.504416474675498
1769250642284,134,6,3.5215432712586505,5.9235471078353115,5.985856597245699
1769250642288,134,6,4.0409915729645025,6.367640263131203,6.496653844367729
1769250642292,135,7,4.6073912201284335,7.039070954718998,7.054214862552364
1769250642296,135,7,5.198377224452927,7.256164854921556,7.636034669109206
1769250642300,136,8,5.752686066449954,8.332792903969661,8.180317035342963
1769250642304,137,9,6.216007394132091,9.065093300604108,8.63314936869747
1769250642308,136,8,6.587742794908483,8.31284602718101,8.995591732128116
1769250642312,137,9,6.922743768152224,9.006346921727062,9.3232238385753
1769250642316,138,10,7.300447092006173,10.33452725626347,9.693481391913734
1769250642320,138,10,7.793476477282612,10.187335432978651,10.17633838546723
1769250642324,138,10,8.422686823310123,10.217552233155857,10.792749322117604
1769250642328,139,11,9.09073132463511,11.150725751423987,11.447829782508196
1769250642332,140,12,9.566577564593953,12.133795063130998,11.91209021089303
1769250642336,140,12,9.59491518965481,12.223272938803154,11.929717654878004
1769250642340,139,11,9.069586018129854,11.249020139910312,11.393816969025483
1769250642344,138,10,8.112923166210805,10.15792937895867,10.426818167536956
1769250642348,137,9,6.98451990059327,9.178110870602785,9.288194455061664
1769250642352,136,8,5.904752796927058,8.101833660439247,8.197270046725903
1769250642356,135,7,4.938700261862582,7.240658447117846,7.218252939297923
1769250642360,134,6,4.010109079754392,6.244005172524454,6.275424623176292
1769250642364,133,5,3.0067166004507113,5.099730942498759,5.257959236581622
1769250642368,132,4,1.8884315247034151,4.2713420508040265,4.126669472849843
1769250642372,131,3,0.7266090623858086,2.9227290893507094,2.952750763603159
1769250642376,129,1,-0.3440122287896019,1.4878142355948991,1.870196690612924
1769250642380,129,1,-1.2159352037652016,0.9210381268753578,0.9856111578608008
1769250642384,128,0,-1.8645375371928283,0.4523922380458828,0.3229602439827159
1769250642388,128,0,-2.3288770783028263,-0.1320973076492992,-0.1565189643814903
1769250642392,127,-1,-2.6543582371308094,-0.6801232226484075,-0.4969084099966069
1769250642396,127,-1,-2.860616459639492,-0.8988290288984034,-0.7168800820404423
1769250642400,127,-1,-2.9521099880314696,-0.7485467970250594,-0.821634744986111
1769250642404,127,-1,-2.942922607814866,-0.8388520559649285,-0.8269946358968379
1769250642408,127,-1,-2.8712909884580187,-0.9274212715851388,-0.7718464604711299
1769250642412,127,-1,-2.7994514963902932,-0.83058176551516,-0.7171371470602739
1769250642416,127,-1,-2.793002876274829,-0.8148142103636093,-0.7266072579795831
1769250642420,127,-1,-2.873473523577487,-0.8095057230406261,-0.8212494915072348
1769250642424,127,-1,-2.9672925855548695,-0.8144419068892549,-0.9286487698188636
1769250642428,127,-1,-2.906393722755329,-0.9672004932223836,-0.8823415381894453
1769250642432,127,-1,-2.515163395515523,-0.797515848502374,-0.5074677798187148
1769250642436,128,0,-1.741494925018772,0.1364646311621324,0.2483690846896089
1769250642440,129,1,-0.7284160250856881,1.224994442405812,1.2429068721890464
1769250642444,130,2,0.2481245770123432,2.1516605286153787,2.2009697999053577
1769250642448,131,3,0.9443680465282276,3.0163740144374973,2.879456289285273
1769250642452,131,3,1.2979042045065206,3.247384578998304,3.216427496840742
1769250642456,131,3,1.450154128455242,3.0180302808886936,3.353269805984789
1769250642460,131,3,1.6305043118581717,3.3890089410720066,3.518439756806595
1769250642464,132,4,1.9958647859132428,3.926344002320669,3.867299444986133
1769250642468,132,4,2.5394007516450694,4.262193261288922,4.391998333255966
1769250642472,133,5,3.11045493844686,4.978687045658841,4.942332005455983
1769250642476,133,5,3.505000802172595,5.258807453214235,5.315849687537152
1769250642480,133,5,3.559892913535209,5.1578767355417465,5.350904131802064
1769250642484,133,5,3.208690969395953,5.1002566030921095,4.981650612993598
1769250642488,132,4,2.4902403820896515,4.128233931831436,4.246563239780024
1769250642492,131,3,1.5207482825219916,3.038835769336077,3.2606255922933527
1769250642496,130,2,0.4486062571643425,2.246436275534177,2.17039684372136
1769250642500,129,1,-0.5903170929348271,1.0989432481993373,1.1104945120430214
1769250642504,128,0,-1.5124878429510529,0.184339074849297,0.1654854655929518
1769250642508,127,-1,-2.32017998343603,-0.9754038001886812,-0.6638326240993835
1769250642512,126,-2,-3.101031872903502,-1.8908500012918807,-1.463147648290262
1769250642516,126,-2,-3.9552243032325034,-1.7995136607849105,-2.334462652179772
1769250642520,125,-3,-4.877821995804115,-2.9204734515005537,-3.276666495503296
1769250642524,123,-5,-5.712928102473201,-4.762411229713298,-4.135183108686392
1769250642528,123,-5,-6.261467945563519,-5.072764194866382,-4.707957692796896
1769250642532,123,-5,-6.457311197695371,-4.801773464167338,-4.924303428218235
1769250642536,123,-5,-6.430712453842501,-4.887963010500121,-4.912597510172415
1769250642540,123,-5,-6.390932275173233,-4.871101656861356,-4.885547325732352
1769250642544,123,-5,-6.450426613848391,-4.771111722515124,-4.963443907339169
1769250642548,123,-5,-6.568903370020621,-5.1542906712368985,-5.112486525687903
1769250642552,122,-6,-6.665768034547591,-5.6788984915609335,-5.249604764665322
1769250642556,122,-6,-6.74742717719515,-6.0683677118792865,-5.368152096091369
1769250642560,122,-6,-6.805586692403231,-5.67487043691167,-5.445346401681403
1769250642564,124,-4,-6.420476348601744,-3.9564345883236727,-5.058780475859848
1769250642568,126,-2,-4.398357774849847,-2.0353030625585573,-3.028287420317249
1769250642572,130,2,0.9804996825888256,2.2513112840693132,2.345927259324939
1769250642576,139,11,10.844440487944402,10.921871469677868,12.18100494345959
1769250642580,151,23,24.30522583227645,23.401876901081657,25.59298001305068
1769250642584,167,39,37.90982259726157,38.921700993181545,39.1430690765419
1769250642588,178,50,46.81615211083018,50.10443090016274,48.0038329297981
1769250642592,178,50,47.270233067622634,50.04906831968066,48.43094726088371
1769250642596,168,40,38.78443510867716,40.030732621097464,39.939495994268384
1769250642600,152,24,24.463190928631395,24.262163972251255,25.627386224817943
1769250642604,137,9,9.25346867705234,8.992196875267197,10.425925346008537
1769250642608,126,-2,-2.624934320510352,-1.830397856196452,-1.462361988886652
1769250642612,120,-8,-9.398186405693895,-7.997750028302557,-8.270845864370083
1769250642616,118,-10,-11.765233687097426,-9.875648130044771,-10.690042273580804
1769250642620,118,-10,-11.644751983812366,-9.889602805164756,-10.620540917988166
1769250642624,118,-10,-10.758327256023687,-9.957124215310696,-9.768530669276016
1769250642628,118,-10,-9.949366578832866,-9.826559267210785,-8.974023924288407
1769250642632,119,-9,-9.35809925754022,-9.060243780041278,-8.386593693885827
1769250642636,120,-8,-8.929702760476848,-7.732409456104444,-7.966060804120518
1769250642640,121,-7,-8.692048992056813,-7.159849599193906,-7.74972170089084
1769250642644,120,-8,-8.681990406000748,-7.660713295540715,-7.772498862793995
1769250642648,120,-8,-8.797896964233836,-8.182526856301203,-7.922613798069686
1769250642652,119,-9,-8.838956650795314,-8.644794559018774,-7.990613341728023
1769250642656,120,-8,-8.68586750907181,-8.169776361868186,-7.857372584108853
1769250642660,121,-7,-8.390457946746562,-6.761704544486056,-7.581630972249824
1769250642664,121,-7,-8.074536499476718,-7.05307579292753,-7.290210888404766
1769250642668,120,-8,-7.781391754576441,-7.868693221880346,-7.024530500140011
1769250642672,121,-7,-7.453539514843607,-6.85041788750576,-6.722260213748169
1769250642676,122,-6,-7.021864302584472,-6.08627712881093,-6.31300344603368
1769250642680,122,-6,-6.469954510612993,-5.772816732718852,-5.783296128395997
1769250642684,123,-5,-5.820475107962285,-5.129178573380684,-5.1584010702232455
1769250642688,123,-5,-5.107591406827391,-4.777925300114346,-4.471811248729972
1769250642692,124,-4,-4.385796702877128,-3.9191946714482966,-3.775769631041811
1769250642696,125,-3,-3.741818177112896,-3.093354155681318,-3.156146683675376
1769250642700,125,-3,-3.260148718268561,-2.691271025561768,-2.6984265420528937
1769250642704,126,-2,-2.958746385407746,-2.345240805627935,-2.421552579740681
1769250642708,125,-3,-2.7620329538297614,-2.4557720518503228,-2.249620540731743
1769250642712,126,-2,-2.545066419583879,-2.343488937745189,-2.0568171603181633
1769250642716,126,-2,-2.2073550541640237,-1.621089689433041,-1.742665864616351
1769250642720,127,-1,-1.710198270222096,-1.1834989443434922,-1.2694255071628284
1769250642724,127,-1,-1.0621864456533676,-0.9233911582227388,-0.6463954722262825
1769250642728,128,0,-0.2924477477244382,0.2131987656465745,0.097609023619954
1769250642732,129,1,0.5532304204285885,0.8552836664168368,0.917723897431499
1769250642736,129,1,1.401897621123667,1.2867273286392416,1.741593231573149
1769250642740,131,3,2.1628779630761,2.8029346789144487,2.4783583088862287
1769250642744,131,3,2.771279240226121,3.1249130686919657,3.0626634667074266
1769250642748,131,3,3.233640908252631,3.1410583948312505,3.500960004427623
1769250642752,132,4,3.629333499385007,3.901331571393293,3.87268544582594
1769250642756,132,4,4.06260452598034,4.2629474970163415,4.281805050263845
1769250642760,133,5,4.6034276866685895,4.771605667502685,4.797993974371174
1769250642764,133,5,5.254277937500931,5.1802310406129415,5.423954036993783
1769250642768,134,6,5.957756272906703,6.058304693806657,6.102702468168588
1769250642772,135,7,6.640478359145575,6.965413118154479,6.760916328840857
1769250642776,135,7,7.263169293646724,7.21864743537487,7.359288523015737
1769250642780,136,8,7.8325398603986,7.749315193910041,7.904792322567288
1769250642784,136,8,8.362366199172378,8.250510389565592,8.411330441307648
1769250642788,137,9,8.82455447650769,8.917839870695152,8.850257366824602
1769250642792,137,9,9.138827574895592,9.144158683459034,9.140482479174686
1769250642796,137,9,9.20422751781704,8.999591061155483,9.180880593937282
1769250642800,137,9,8.938260290957539,8.964515917527656,8.889662145658146
1769250642804,136,8,8.29833049828644,8.021481529552167,8.225187591562541
1769250642808,135,7,7.289191114950476,7.122522871255324,7.192695228833192
1769250642812,134,6,5.970241460349705,5.950066686794747,5.851367991472168
1769250642816,132,4,4.460807481264874,4.167740839658782,4.319880900137735
1769250642820,131,3,2.923606278524546,2.7931974066259477,2.76024616116472
1769250642824,129,1,1.5138945255201388,1.1750387156380715,1.3271838675817644
1769250642828,128,0,0.3137704138346209,-0.0461034556431043,0.1026212013648748
1769250642832,127,-1,-0.7043933299456886,-0.8762362260461973,-0.940582189360276
1769250642836,126,-2,-1.6524902990401196,-2.0232727943293893,-1.9131916419991404
1769250642840,125,-3,-2.6460032794807917,-3.026287366062983,-2.929703502814064
1769250642844,124,-4,-3.711930372952563,-4.022738331291056,-4.017208823835066
1769250642848,123,-5,-4.7431203539464954,-4.866908416681386,-5.069520416396636
1769250642852,122,-6,-5.542348352317568,-6.052840148903273,-5.890092954963568
1769250642856,121,-7,-5.946464840408561,-6.859964782530255,-6.315907357401279
1769250642860,122,-6,-5.946520760640775,-6.199031448881129,-6.338506106336354
1769250642864,122,-6,-5.702387574986684,-5.866294895088771,-6.118561108552281
1769250642868,122,-6,-5.438752621172781,-6.032842500981556,-5.880238364422444
1769250642872,122,-6,-5.315652832800657,-5.896434883281412,-5.781155781767553
1769250642876,122,-6,-5.366985370757865,-6.019400683818683,-5.8530562857817365
1769250642880,122,-6,-5.513436804149058,-6.084447341631028,-6.017310662929109
1769250642884,122,-6,-5.604300065702971,-5.952893265561847,-6.126424159930206
1769250642888,122,-6,-5.470447078812519,-5.998148708196937,-6.013915234642387
1769250642892,122,-6,-5.003304712831403,-5.8844156813013235,-5.570834339599296
1769250642896,123,-5,-4.2413562527262005,-5.095128073287565,-4.833077445996625
1769250642900,124,-4,-3.386891639425529,-3.9827596473191007,-4.000934614671186
1769250642904,125,-3,-2.6961557706791845,-3.105072133336643,-3.330642415330503
1769250642908,125,-3,-2.302575639571224,-2.811533328532876,-2.9565578541382425
1769250642912,125,-3,-2.1217517135573503,-3.1136966742803573,-2.7948124105729755
1769250642916,125,-3,-1.929693544340904,-2.8627388303447088,-2.621729673026463
1769250642920,126,-2,-1.5492380299165949,-2.247298943622021,-2.26090705664377
1769250642924,126,-2,-0.987548140678643,-1.8420744496375816,-1.7201927025312789
1769250642928,127,-1,-0.4248622429933437,-1.0588582888139622,-1.179341538426387
1769250642932,127,-1,-0.085026069074229,-0.8914117591406234,-0.8607127003948221
1769250642936,127,-1,-0.0972245057598807,-1.0962001763511324,-0.892486690458915
1769250642940,127,-1,-0.4413381150261348,-1.053714039642415,-1.2549376152194598
1769250642944,126,-2,-0.9975676561415744,-2.02337188924507,-1.8293246708396
1769250642948,125,-3,-1.6508599063962646,-2.888332308609834,-2.5011609445166183
1769250642952,125,-3,-2.366129897698142,-3.047611079463583,-3.2353118504776965
1769250642956,124,-4,-3.1750727120933893,-3.984831094712095,-4.063324150353672
1769250642960,123,-5,-4.094487863014205,-5.170125826781775,-5.001901500569137
1769250642964,122,-6,-5.060733298452962,-5.922737910649684,-5.987155667730158
1769250642968,121,-7,-5.945915003950276,-6.972472106615758,-6.890720928838414
1769250642972,120,-8,-6.639820487891196,-7.989199594830687,-7.6019741474263824
1769250642976,120,-8,-7.1193300056198074,-8.03867385511817,-8.0979516902597
1769250642980,120,-8,-7.441163759867165,-8.166606688670138,-8.436217364754418
1769250642984,119,-9,-7.672391893201339,-8.896528548146836,-8.684852650757882
1769250642988,119,-9,-7.835084511747653,-9.023904161365843,-8.866481495076899
1769250642992,119,-9,-7.916427896185756,-8.929726358266926,-8.96782288978348
1769250642996,119,-9,-7.919009132614139,-9.132722602496246,-8.989376204246327
1769250643000,119,-9,-7.888674102217462,-9.08762579069708,-8.973852229789177
1769250643004,119,-9,-7.886169681229952,-8.966138196561381,-8.980767825917088
1769250643008,119,-9,-7.925104119043463,-8.969232730538373,-9.02767752358911
1769250643012,119,-9,-7.939801216667156,-8.98160402785184,-9.057086375537212
1769250643016,119,-9,-7.834873970487335,-9.110668280321368,-8.979261293156762
1769250643020,119,-9,-7.584685563031785,-9.135278295491297,-8.764141477724959
1769250643024,119,-9,-7.246094662907906,-8.88938665106738,-8.454145536651193
1769250643028,120,-8,-6.745819514865589,-8.087308977411146,-7.962171553488641
1769250643032,122,-6,-5.498366630561813,-5.821091192864665,-6.702648992119382
1769250643036,126,-2,-2.214641923818623,-2.3377718175677717,-3.402761767460942
1769250643040,131,3,4.634324307981636,3.116157361854123,3.445702431369349
1769250643044,141,13,15.625814257621576,12.846737008385212,14.410532756721492
1769250643048,154,26,29.146752038154993,26.18338012403031,27.885972853479014
1769250643052,168,40,41.23190723187596,39.92244409095556,39.92368021815861
1769250643056,176,48,47.09319535958737,47.86245340967248,45.751304949341886
1769250643060,172,44,43.66935908432833,43.90829772039734,42.31623951344217
1769250643064,158,30,31.52764956418578,29.934896321126665,30.185454718646085
1769250643068,140,12,14.730721878297349,12.09832280729988,13.41146845370169
1769250643072,124,-4,-1.2857299934293671,-4.034171431422308,-2.587716547063925
1769250643076,114,-14,-12.389918406472896,-14.078013734845117,-13.69666935642258
1769250643080,110,-18,-17.316348637775775,-18.073788437686673,-18.653832682716992
1769250643084,110,-18,-17.41246776489802,-18.0905210461194,-18.79467010603736
1769250643088,112,-16,-15.143340294909718,-15.894222486977116,-16.564444472007395
1769250643092,114,-14,-12.555986658708209,-14.15214622026667,-13.995816695859348
1769250643096,115,-13,-10.593657102262892,-12.936372761576122,-12.031503542185506
1769250643100,117,-11,-9.3290823739647,-11.213755841740102,-10.75612004312573
1769250643104,118,-10,-8.554054840676361,-9.941983572594667,-9.97669847963349
1769250643108,119,-9,-8.13818382932422,-9.076765579700142,-9.571008588383902
1769250643112,119,-9,-8.010499369522552,-9.023232838990602,-9.464303657653907
1769250643116,118,-10,-8.021691425372236,-10.043960660966407,-9.49600602144117
1769250643120,118,-10,-7.953288927356283,-10.111019922289469,-9.439318742775054
1769250643124,119,-9,-7.659622029189008,-9.00235202967589,-9.150140164124956
1769250643128,120,-8,-7.148953526373426,-8.087076274872963,-8.644718829193886
1769250643132,120,-8,-6.522795496047776,-8.002842550309285,-8.029319418165596
1769250643136,120,-8,-5.8840406207077285,-8.095442835186649,-7.403903968204598
1769250643140,121,-7,-5.317890336805837,-7.039487135018557,-6.848187359774106
1769250643144,122,-6,-4.899666721285905,-6.063648676276782,-6.436414685301094
1769250643148,122,-6,-4.64868739617547,-6.08148075347719,-6.191357337501907
1769250643152,122,-6,-4.471279298974235,-5.980560918887369,-6.02202868141076
1769250643156,122,-6,-4.203466722916121,-6.183299160301437,-5.763457764937237
1769250643160,122,-6,-3.750977292276219,-5.888216124825126,-5.31924519782455
1769250643164,124,-4,-3.1813050828270804,-4.272361423095177,-4.756946365521813
1769250643168,124,-4,-2.6558947013994088,-3.82559632250526,-4.239471357775999
1769250643172,124,-4,-2.2728885107284773,-4.314529302932733,-3.864858108838696
1769250643176,124,-4,-1.9887550838341497,-3.809621440572957,-3.5878252246916325
1769250643180,125,-3,-1.680742447595586,-3.306155059909599,-3.2850388014270724
1769250643184,125,-3,-1.256996696867842,-2.84238596553993,-2.8663050415406532
1769250643188,126,-2,-0.7060116710767474,-2.232369750767889,-2.3218247615228376
1769250643192,126,-2,-0.0723049249750271,-1.9788680512149524,-1.6958186729288545
1769250643196,127,-1,0.5924881729818074,-1.0851875016710617,-1.0382633473781686
1769250643200,128,0,1.26479097627465,-0.1301149097668695,-0.3715559156680406
1769250643204,128,0,1.9571413437400016,0.075372261932902,0.3167123838875025
1769250643208,129,1,2.6976492655910516,0.767194084824971,1.0534487589129484
1769250643212,130,2,3.4965599959382425,2.074176824241456,1.847435557724056
1769250643216,131,3,4.325369608795438,2.7939061283241307,2.669830888881246
1769250643220,131,3,5.116206526694408,3.0077601393986644,3.4542213985166192
1769250643224,132,4,5.778241995598397,3.941509886204431,4.111489639114068
1769250643228,133,5,6.24136439758962,4.879458483284182,4.571429552544465
1769250643232,133,5,6.520624118667636,4.972501204765349,4.847639363099696
1769250643236,133,5,6.741207635164534,4.853830531103389,5.064655281212681
1769250643240,133,5,7.069676971812903,4.958182733630931,5.389638093025381
1769250643244,134,6,7.594731402256333,5.9833236858289744,5.911586216032391
1769250643248,135,7,8.266700329695189,6.8383561225803495,6.5802227293563815
1769250643252,135,7,8.942940321530159,7.012473471763003,7.252588901012858
1769250643256,136,8,9.478334372790666,7.783752032316997,7.784241633730474
1769250643260,136,8,9.777716681558127,8.030989297526846,8.080731856400643
1769250643264,136,8,9.789893679274618,7.887365289470524,8.090701051183501
1769250643268,136,8,9.478497754255397,7.949970359871881,7.777197676282532
1769250643272,135,7,8.80810719355663,6.896513435106152,7.104697636197565
1769250643276,134,6,7.759375714504667,5.859178321200806,6.0541568009453535
1769250643280,133,5,6.36318472265156,4.985670091332984,4.6564688412616615
1769250643284,131,3,4.725264202706855,2.8713297761360668,3.017053909380591
1769250643288,129,1,3.008364772250064,1.0294688259678952,1.2986011166491471
1769250643292,128,0,1.3699286645552715,-0.2359754829676337,-0.3411552466931806
1769250643296,126,-2,-0.0991383632540001,-1.9912260351127085,-1.811166202271056
1769250643300,125,-3,-1.3818272638594982,-3.196206635404617,-3.094736274316287
1769250643304,124,-4,-2.484689948408121,-3.935254321013586,-4.1987730173181355
1769250643308,123,-5,-3.382540327291875,-5.16497447859751,-5.097746844602984
1769250643312,122,-6,-4.017889056742808,-6.054733886037233,-5.733226109920294
1769250643316,122,-6,-4.357589158843531,-6.1724520263409515,-6.071828608289872
1769250643320,122,-6,-4.443717668195929,-6.0578434105389425,-6.156937143471472
1769250643324,122,-6,-4.382507744886828,-6.032905708550891,-6.096392862098472
1769250643328,122,-6,-4.287908030595332,-6.101426665354051,-6.003979813451531
1769250643332,122,-6,-4.238959446428602,-6.097611645659703,-5.956594247697987
1769250643336,122,-6,-4.272955416255906,-6.169184686963771,-5.989585628695123
1769250643340,122,-6,-4.381910116120595,-6.077253124301685,-6.095369749176931
1769250643344,122,-6,-4.488191961717991,-5.982460442925178,-6.19865705036069
1769250643348,122,-6,-4.434872140887856,-6.187613221122934,-6.14423452271198
1769250643352,122,-6,-4.047789902153285,-5.969355367213461,-5.757328692786399
1769250643356,123,-5,-3.2567432455562506,-5.3694743640192915,-4.965994742888883
1769250643360,124,-4,-2.1720402216789823,-3.855624929620183,-3.8800237630949113
1769250643364,126,-2,-1.025836940207418,-2.202119488148132,-2.7325217286072547
1769250643368,126,-2,-0.0187071858398321,-1.9748307365925224,-1.7245401951345398
1769250643372,127,-1,0.7867111952851111,-1.165500998863319,-0.9177799320181828
1769250643376,128,0,1.4380676602743645,-0.2422346158676322,-0.2636808260761678
1769250643380,128,0,1.9863257630064584,0.0345779535069021,0.2881207696458822
1769250643384,129,1,2.415428888643909,0.902195473026097,0.7200785381647038
1769250643388,129,1,2.6597747367668214,0.9535095996357896,0.9659634749929458
1769250643392,129,1,2.6666014135788636,0.8720646038671521,0.9738845662958616
1769250643396,129,1,2.4334634642014397,0.7091562611816572,0.7426430092939618
1769250643400,128,0,1.9966616704297224,0.0362747466686967,0.3087465298883395
1769250643404,128,0,1.4002053170654836,-0.0434545547243199,-0.284612354596657
1769250643408,127,-1,0.6807553184954171,-1.1216588554067095,-1.0013036665796573
1769250643412,126,-2,-0.1275293754330382,-2.031760924607396,-1.8066725461971669
1769250643416,126,-2,-0.9845099927202106,-2.451540950415512,-2.65993321644674
1769250643420,124,-4,-1.841985013621926,-3.796781645316994,-3.513317587521202
1769250643424,124,-4,-2.65050943231786,-4.2059799402623,-4.318660917912687
1769250643428,123,-5,-3.379022415961728,-4.932313800510137,-5.045431000215126
1769250643432,122,-6,-4.043225447314925,-6.229394519942459,-5.708150424013048
1769250643436,122,-6,-4.715043278873278,-6.318525146986245,-6.376928219300614
1769250643440,121,-7,-5.478967261510178,-6.891610507393075,-7.135741895200745
1769250643444,120,-8,-6.3464493454669295,-8.167067254243426,-7.997469168509744
1769250643448,119,-9,-7.201265292238559,-8.867740071080732,-8.848014057232238
1769250643452,119,-9,-7.844766477536613,-9.38207544881414,-9.489531954155389
1769250643456,118,-10,-8.126853135084996,-10.16147779887616,-9.770291772160592
1769250643460,118,-10,-8.061830204899989,-10.065462366338576,-9.701711367303243
1769250643464,119,-9,-7.821120386513111,-8.998248789692532,-9.45380961602137
1769250643468,119,-9,-7.596121485147732,-8.96108135891873,-9.21972648846894
1769250643472,119,-9,-7.458885300279184,-9.373005512352044,-9.075627869805349
1769250643476,119,-9,-7.362041902447647,-9.153809310066793,-8.978165862250151
1769250643480,119,-9,-7.2654200600803,-9.127901391411816,-8.887824692285758
1769250643484,119,-9,-7.214868721278945,-8.913828867064776,-8.845272354436183
1769250643488,119,-9,-7.210653423626837,-8.965913777043632,-8.841499066499466
1769250643492,120,-8,-6.890907825695284,-8.46922969326873,-8.5082052043571
1769250643496,122,-6,-5.279548435949903,-6.00788658020192,-6.872187861308245
1769250643500,126,-2,-0.9446891476206684,-2.3486570420225306,-2.512581225489141
1769250643504,133,5,7.253826696917136,5.320735765640835,5.699485923459223
1769250643508,144,16,19.096396796954775,15.97682571290416,17.539015158968475
1769250643512,158,30,32.33995031039345,29.321694290457692,30.76402662502573
1769250643516,172,44,43.15961749276339,44.4986573055967,41.557397509729306
1769250643520,176,48,47.69400939008948,46.74332771916536,46.07313005610095
1769250643524,166,38,43.84567509202447,39.53052677744193,42.229967017147075
1769250643528,162,34,32.30474318668479,32.518883480058555,30.72030750175971
1769250643532,143,15,16.31724276428986,15.842428731614248,14.773527123787634
1769250643536,126,-2,0.3725187666235614,-3.0201706212403465,-1.1426966402259868
1769250643540,114,-14,-11.607615198793656,-13.774744143888398,-13.116522596383264
1769250643544,108,-20,-17.746338056719708,-19.70236847197698,-19.26688722578822
1769250643548,109,-19,-18.59766268494762,-19.521522109029043,-20.137145330409226
1769250643552,111,-17,-16.303695159568633,-16.75905609197727,-17.858721192658123
1769250643556,114,-14,-13.180608338411725,-14.834377053402708,-14.73974239729364
1769250643560,115,-13,-10.665725514578693,-12.648033339836251,-12.214681227018476
1769250643564,117,-11,-9.116886612836836,-11.079105231182217,-10.645893351407922
1769250643568,118,-10,-8.264595762872805,-10.064781515477696,-9.773798426362768
1769250643572,119,-9,-7.764606981546921,-9.173404325938858,-9.263014192547594
1769250643576,120,-8,-7.453539048616927,-8.547784535451688,-8.951917479643042
1769250643580,119,-9,-7.2947080607873716,-8.765433882414381,-8.797970082913425
1769250643584,119,-9,-7.241773270835837,-9.149494289731807,-8.74684133409483
1769250643588,119,-9,-7.200505571032877,-8.85985216642211,-8.700802523551625
1769250643592,120,-8,-7.0822763842871845,-8.466560153342392,-8.57400744318565
1769250643596,120,-8,-6.849419949697559,-8.206502941267388,-8.333674682517449
1769250643600,120,-8,-6.509587024548014,-8.10327734277282,-7.989415852442197
1769250643604,120,-8,-6.091874096519028,-7.867246920248221,-7.568809362381275
1769250643608,121,-7,-5.631533723135295,-7.098654055318871,-7.105230986069684
1769250643612,122,-6,-5.154111050155497,-6.288576432860582,-6.623914297930007
1769250643616,122,-6,-4.660350736779154,-6.3047632165106915,-6.125857749016088
1769250643620,122,-6,-4.135732741253912,-6.0777016531093455,-5.596377409869419
1769250643624,123,-5,-3.5793656161306995,-4.839924781412373,-5.034790683463637
1769250643628,124,-4,-3.0107404480161755,-4.215547656848434,-4.461592166531815
1769250643632,124,-4,-2.4451276868127345,-4.090571951330309,-3.8925747479863726
1769250643636,125,-3,-1.88129325277022,-3.5518231638328763,-3.3257221546267317
1769250643640,125,-3,-1.324850413562996,-2.789679859345666,-2.7656619296110003
1769250643644,126,-2,-0.8094206132538228,-2.178506460686277,-2.2460477842153725
1769250643648,126,-2,-0.3760808291494235,-1.8822607234505528,-1.808610358527006
1769250643652,127,-1,-0.0289251237601492,-1.393038442143335,-1.4576469566935193
1769250643656,127,-1,0.2833508476668571,-1.2796068939693566,-1.1415011706175209
1769250643660,127,-1,0.6392071888598065,-1.0124711564785671,-0.7815718182226489
1769250643664,128,0,1.0955568659736643,-0.0468257387174718,-0.3213380869093128
1769250643668,128,0,1.6566399584668583,0.0569651451949206,0.243075022643846
1769250643672,129,1,2.2750443509234937,0.6002089360128866,0.8643916656859412
1769250643676,130,2,2.876971921169123,1.8139343072141596,1.4692121605069328
1769250643680,130,2,3.395736276637182,1.8210253899952655,1.991116006040128
1769250643684,130,2,3.794357235614929,2.134744484438888,2.3931136305227
1769250643688,131,3,4.066743372379254,2.864230660618375,2.668829210155802
1769250643692,131,3,4.226247009690074,2.778429389676138,2.8313212589700165
1769250643696,131,3,4.29597693881286,2.693000140141167,2.9037493212161785
1769250643700,131,3,4.306809400389403,2.8809627650939373,2.9172711053019644
1769250643704,131,3,4.303242443485709,3.1007282039323187,2.9165660641717372
1769250643708,131,3,4.348172461390377,2.8570570214900335,2.9646035248489877
1769250643712,131,3,4.50919010627115,2.8184817238285667,3.1288955119206285
1769250643716,132,4,4.8244926163659985,3.6605165367015022,3.447172036708351
1769250643720,132,4,5.271155974357871,3.895159990922469,3.895940617824354
1769250643724,132,4,5.756350958257074,4.0850862508031245,4.382410444365998
1769250643728,133,5,6.13496097806806,4.842969948500147,4.76213812795169
1769250643732,133,5,6.251845418686587,4.871003862506075,4.880593551567523
1769250643736,133,5,5.999714295078438,4.584950541606085,4.630617819554461
1769250643740,132,4,5.36479322653911,3.9948082681627097,3.998221147660349
1769250643744,131,3,4.430288619451878,2.9377792194327004,3.066257040668458
1769250643748,130,2,3.3347989680799275,1.9955084400673095,1.972966605801035
1769250643752,129,1,2.212814210476233,0.7440817572400894,0.8526294628970503
1769250643756,128,0,1.1522365074475918,-0.3148634171059754,-0.2068343873512961
1769250643760,127,-1,0.1883944679940432,-1.0467834082681966,-1.169883996324653
1769250643764,126,-2,-0.6727617309015095,-2.120673529514712,-2.0302297391667072
1769250643768,125,-3,-1.4289467177244384,-2.86913501617963,-2.7853070727542377
1769250643772,125,-3,-2.074368919215558,-3.453073834836297,-3.4294226300906745
1769250643776,124,-4,-2.608187308451925,-4.051523529681903,-3.9622307873210794
1769250643780,124,-4,-3.0414048160337583,-4.347059958429267,-4.395090536598507
1769250643784,123,-5,-3.3923075061414636,-4.832939900984538,-4.745995258587867
1769250643788,123,-5,-3.672868774160141,-5.148469426398108,-5.026251996819493
1769250643792,123,-5,-3.871800443086959,-5.195631750039146,-5.224324872783537
1769250643796,123,-5,-3.941951844594161,-5.251713396495888,-5.293482595944106
1769250643800,123,-5,-3.80726533342222,-5.203689892082021,-5.158168311964456
1769250643804,123,-5,-3.400641432433212,-4.942839253495149,-4.751377576571967
1769250643808,124,-4,-2.715953026724485,-4.0905809165727645,-4.066927659673171
1769250643812,125,-3,-1.8323118670323568,-3.2079280616898314,-3.1840824806874
1769250643816,126,-2,-0.8845172553626843,-2.2457449119260127,-2.237685092705492
1769250643820,127,-1,-0.0006777853021935,-1.211013655933619,-1.3552489991265475
1769250643824,127,-1,0.7454871875291027,-0.9438140987566888,-0.6096126855273005
1769250643828,128,0,1.342820787708951,-0.1284324575612239,-0.0118596681434252
1769250643832,129,1,1.825040767535567,0.8811660316336261,0.4707469605597287
1769250643836,129,1,2.2452052989212796,0.6388916006279275,0.8903525823181191
1769250643840,129,1,2.642276797287925,0.9351327204823812,1.285894292951998
1769250643844,130,2,3.0082075746158305,1.875015602083308,1.649741128035409
1769250643848,130,2,3.2835877253444616,2.0336372972620023,1.9229001028480448
1769250643852,130,2,3.389623198772287,1.7602392673131173,2.027117629490281
1769250643856,130,2,3.2692172732634464,1.7407492571473742,1.905575990405168
1769250643860,130,2,2.9130801634721717,1.8611717365447604,1.5483696279332615
1769250643864,129,1,2.3650979774621983,0.9039880308159198,0.998465740823742
1769250643868,128,0,1.7012895070236849,-0.0001478923571156,0.3319534758855771
1769250643872,128,0,0.9867057959199822,-0.1697175907938688,-0.3850223976090732
1769250643876,127,-1,0.2436379001108923,-1.3544507349263428,-1.129468039881374
1769250643880,126,-2,-0.5352878722716539,-1.994846589682533,-1.909555356638911
1769250643884,126,-2,-1.3406864526386482,-2.3144134972589514,-2.717523643107424
1769250643888,124,-4,-2.1212532125941066,-3.73807276044382,-3.5025230152128968
1769250643892,124,-4,-2.821404441990416,-4.46805716897065,-4.207300625620935
1769250643896,123,-5,-3.4506164132521873,-4.990410427463087,-4.839197158547335
1769250643900,123,-5,-4.0964757069787785,-5.414959164249182,-5.485719625478703
1769250643904,122,-6,-4.840410297328898,-5.860382812682677,-6.23060750035343
1769250643908,121,-7,-5.652844987164821,-7.239599128159501,-7.046750675558252
1769250643912,120,-8,-6.389129701996179,-7.933275838850706,-7.789724220300181
1769250643916,120,-8,-6.908337799846835,-8.516293760412754,-8.316128804549937
1769250643920,119,-9,-7.198793701162063,-8.909874117653661,-8.610694830000895
1769250643924,120,-8,-7.375768905096856,-8.34135133985654,-8.78654479585819
1769250643928,119,-9,-7.548166962739906,-8.800644392388191,-8.954242111847359
1769250643932,119,-9,-7.6973145501195885,-9.326536590449976,-9.10127376772293
1769250643936,119,-9,-7.709760305918457,-9.155646518155056,-9.121929165779846
1769250643940,119,-9,-7.54312517598481,-9.23491744263071,-8.976330413331508
1769250643944,119,-9,-7.334726328077085,-9.076893363705116,-8.793161078676693
1769250643948,119,-9,-7.251099449365661,-8.988316846185024,-8.722101067937857
1769250643952,120,-8,-7.063966842343705,-8.224857009576231,-8.522964686903329
1769250643956,122,-6,-5.73785326073722,-6.143737399598158,-7.16618185077811
1769250643960,126,-2,-1.521731793357854,-2.3656142767232105,-2.9232611296349944
1769250643964,133,5,7.120400743988988,5.167979205374381,5.7192525869010735
1769250643968,145,17,20.027109775192105,16.683847039087578,18.59492573546956
1769250643972,159,31,34.31764013322483,31.194947629220643,32.83831073108703
1769250643976,173,45,44.95109507367573,44.39274809957138,43.431651699404384
1769250643980,176,48,47.05348419290192,48.0932348610546,45.51757337916676
1769250643984,167,39,38.75043978210185,38.65706449034177,37.22576546517458
1769250643988,148,20,22.542776913969256,20.10226927001748,21.049154655986783
1769250643992,129,1,4.1263832512852865,0.7998724530022772,2.666600724929901
1769250643996,115,-13,-10.609447687585032,-13.22510004220781,-12.052429321029823
1769250644000,108,-20,-18.404795996214695,-20.10627708912799,-19.8598533419488
1769250644004,108,-20,-19.56890441028261,-20.13430374201563,-21.06042318344041
1769250644008,111,-17,-16.80498763636974,-17.050371738678216,-18.3388708534928
1769250644012,114,-14,-13.093066956005796,-14.173256796639446,-14.654765667034098
1769250644016,116,-12,-10.15550809525656,-12.27162966380135,-11.720550686888911
1769250644020,117,-11,-8.26431402299369,-11.053440165249752,-9.813679008937422
1769250644024,119,-9,-7.01904632827098,-9.158548037881395,-8.549858736028796
1769250644028,121,-7,-6.144021112242846,-6.9979312708072685,-7.66933653548062
1769250644032,122,-6,-5.671432151699433,-6.289574854037039,-7.209389577905565
1769250644036,121,-7,-5.63526881848874,-7.1547290992587715,-7.195457981580733
1769250644040,120,-8,-5.822069178339604,-8.161464748765543,-7.399932746917198
1769250644044,120,-8,-5.887840408140835,-8.02908538308477,-7.47140859321027
1769250644048,121,-7,-5.651769666118695,-7.09158117958748,-7.233607885883413
1769250644052,122,-6,-5.204431671060136,-6.257605034424993,-6.787190845028716
1769250644056,122,-6,-4.737985316916552,-6.138394656620748,-6.329408054473775
1769250644060,122,-6,-4.3279037552238,-6.2363684001600745,-5.9320671784757
1769250644064,122,-6,-3.902695709644122,-5.87296334074092,-5.516875455242245
1769250644068,123,-5,-3.384197675498353,-5.304270938146969,-5.003375101990523
1769250644072,124,-4,-2.7978895573073874,-4.016815674479043,-4.420620956336409
1769250644076,125,-3,-2.23214108962162,-3.3885946761141974,-3.861200101064674
1769250644080,124,-4,-1.728651364509784,-3.995019158898109,-3.366933264056608
1769250644084,125,-3,-1.2512274489974065,-3.071951310139485,-2.898729021317511
1769250644088,126,-2,-0.7537262078486608,-2.1505908574130954,-2.4087093130581065
1769250644092,126,-2,-0.245241460609124,-2.143999369319008,-1.9068484176443865
1769250644096,127,-1,0.2215851693038042,-1.270819371629841,-1.4472064110182603
1769250644100,127,-1,0.6114952041783894,-1.096276970265686,-1.0651343029573237
1769250644104,127,-1,0.9480301007721496,-0.971200765009922,-0.7363340154283922
1769250644108,128,0,1.3029427419270032,-0.2614262662417555,-0.388788716004725
1769250644112,128,0,1.750470354593142,-0.0259917013925961,0.0513488278022489
1769250644116,129,1,2.320680261682368,0.6033115114278591,0.6139399966335424
1769250644120,129,1,2.9779325214724937,1.0693523767571462,1.2635070818138256
1769250644124,130,2,3.638928493532563,1.829139527972791,1.9166044710276608
1769250644128,131,3,4.224291205511208,2.959866305365793,2.4934652493414897
1769250644132,131,3,4.703324261759008,2.7363865548055095,2.9638101398313728
1769250644136,131,3,5.087451710109916,2.844313424430085,3.340246256184567
1769250644140,132,4,5.385686195933991,3.86254734412414,3.6320566941182544
1769250644144,132,4,5.58576951084156,3.998382689642414,3.8256265204321624
1769250644148,132,4,5.684426661900349,3.824735036649664,3.916323228043307
1769250644152,132,4,5.714672575543858,3.844657818911824,3.9374322669251143
1769250644156,132,4,5.723217329193459,3.760943784961965,3.937024349200906
1769250644160,132,4,5.725871383518081,3.9339572997941263,3.9317510141041856
1769250644164,132,4,5.702898134508094,3.956240449003789,3.901619611768815
1769250644168,132,4,5.647539710698626,3.830153969094158,3.8392194375599096
1769250644172,132,4,5.61499089571064,3.887485244826867,3.799458339404459
1769250644176,132,4,5.711325817109685,3.6705322426043736,3.8884795514608874
1769250644180,132,4,6.01855994803121,4.071461202162176,4.1882428214508645
1769250644184,133,5,6.515102624533281,4.801184579562066,4.676832027541021
1769250644188,133,5,7.0591003785915545,4.9911235225012405,5.212231412090127
1769250644192,134,6,7.450781923499872,5.743028456563465,5.595108632504165
1769250644196,134,6,7.528847145403859,5.7885743296286165,5.6650407193109515
1769250644200,133,5,7.235614454382284,4.9860713599591,5.364895637096852
1769250644204,133,5,6.617302444924328,4.856218188013379,4.740438556497443
1769250644208,132,4,5.776571898223182,3.978096503195843,3.8932025514683297
1769250644212,131,3,4.8171747715494035,2.715825958285741,2.926293072103633
1769250644216,130,2,3.809095503793745,1.868364300717345,1.910076822110371
1769250644220,129,1,2.786798970745001,0.8634958805983687,0.879798291183317
1769250644224,128,0,1.7779328815314657,0.0191521898494033,-0.1364277867397674
1769250644228,127,-1,0.8354166410775239,-1.200644443846628,-1.0855941375512872
1769250644232,126,-2,0.0376056933223731,-2.0953348708465596,-1.88959642244403
1769250644236,126,-2,-0.5480452342012818,-2.3130854389980455,-2.4816248628786393
1769250644240,125,-3,-0.9055798379042204,-2.9610006744639454,-2.8463788139188044
1769250644244,125,-3,-1.0818997559419907,-3.143146228701253,-3.0307624880474537
1769250644248,125,-3,-1.1600792462827056,-3.0333053270840953,-3.117090208178731
1769250644252,125,-3,-1.2077129514613405,-3.2642723435859127,-3.171991966683396
1769250644256,125,-3,-1.2274223525591117,-3.141312061327222,-3.1975324370724767
1769250644260,125,-3,-1.141655381222551,-3.12435916523792,-3.116358310018166
1769250644264,125,-3,-0.8285988093695889,-2.9893754376422574,-2.807698693283684
1769250644268,126,-2,-0.1934965666916301,-2.1546615815053376,-2.1782550268423098
1769250644272,127,-1,0.7644083370310157,-1.1705744603314736,-1.2280110199691476
1769250644276,128,0,1.9252712453679073,-0.1968651888683423,-0.0758745976814634
1769250644280,129,1,3.078187990547364,0.8986325780802238,1.0692503682586514
1769250644284,130,2,4.004622753256282,2.027898024280435,1.989997102940185
1769250644288,131,3,4.587610556948967,2.794263344837921,2.5687993072547757
1769250644292,131,3,4.880230439414853,2.9190169978338374,2.8574593479249257
1769250644296,131,3,5.064917766183708,2.6869211165909506,3.0378028237525525
1769250644300,131,3,5.313516199982956,3.036232185995618,3.2815528136388323
1769250644304,132,4,5.655163462305954,3.891203984620054,3.617528900561901
1769250644308,132,4,5.9585618372949,3.934665156141164,3.9143287370108
1769250644312,132,4,6.029406437520482,3.8021487953290265,3.978442030410634
1769250644316,132,4,5.733256442688293,3.7832810993751216,3.676562289919964
1769250644320,131,3,5.0603835815614735,2.955541982082096,2.999341771652629
1769250644324,130,2,4.11087713779321,1.9544627669789532,2.0464322217676845
1769250644328,129,1,3.028679668041611,0.9100345673936124,0.9612467043011584
1769250644332,128,0,1.933548387580348,-0.1926585671871894,-0.1368346771903903
1769250644336,127,-1,0.8905841576584395,-1.185258331394488,-1.1832926534154238
1769250644340,126,-2,-0.0784066242152925,-2.1173226882965075,-2.157022376995305
1769250644344,125,-3,-0.973891507649383,-2.924993367882341,-3.058394117251794
1769250644348,124,-4,-1.8211492914025704,-4.237584618997661,-3.9112531754884454
1769250644352,123,-5,-2.686729354086829,-5.005067475555104,-4.78044753097701
1769250644356,123,-5,-3.660002425662662,-5.391651590918187,-5.755135470847365
1769250644360,121,-7,-4.779013587075474,-6.908146145274417,-6.875012625911403
1769250644364,120,-8,-5.9581667357215995,-8.117601201852041,-8.056581098977102
1769250644368,119,-9,-7.002732033991542,-9.053661320802288,-9.10584471028994
1769250644372,118,-10,-7.722188134544738,-10.157099437043566,-9.830751560814106
1769250644376,118,-10,-8.05540265520116,-10.265666271597922,-10.167038316557386
1769250644380,118,-10,-8.100806034458063,-9.999648617152037,-10.210696606542797
1769250644384,118,-10,-8.028999796108362,-10.039812494579287,-10.133444541044812
1769250644388,118,-10,-7.966393140486022,-10.113097520261514,-10.067476700251229
1769250644392,118,-10,-7.963121543021918,-10.088624101330296,-10.070320418183725
1769250644396,118,-10,-8.061465158396016,-10.360826551857562,-10.18631835915246
1769250644400,117,-11,-8.347805181719476,-10.868210575116224,-10.493195436489152
1769250644404,117,-11,-8.829143106025093,-11.183541897974017,-10.981996791618906
1769250644408,117,-11,-9.10005710137122,-10.953479134870696,-11.236708337854456
1769250644412,119,-9,-8.025607798470602,-9.219069481067091,-10.128771299129705
1769250644416,123,-5,-3.874913293980243,-5.281240974099033,-5.948832205430318
1769250644420,130,2,4.783443482295295,2.149197885646615,2.7136851107060895
1769250644424,142,14,17.68722902158937,13.72339265895836,15.5923904729811
1769250644428,156,28,31.93921474442007,28.258522781609436,29.80451650764482
1769250644432,170,42,42.577327802871366,41.48039291759484,40.40943732962614
1769250644436,173,45,44.82408606215186,45.07104590798856,42.645358347916165
1769250644440,164,36,36.80505213463696,35.70700379560259,34.64235609979161
1769250644444,146,18,20.873527788166705,18.129415955663404,18.74702705713634
1769250644448,127,-1,2.50484519208973,-1.160943828743279,0.4188001082372787
1769250644452,112,-16,-12.556123107677983,-16.080728686815718,-14.616814985685092
1769250644456,105,-23,-21.017741404311344,-23.21393750475663,-23.080874310993657
1769250644460,104,-24,-23.011017651749928,-23.960331892414768,-25.10174391749524
1769250644464,106,-22,-21.049112756507736,-22.170614026479992,-23.175093058828445
1769250644468,108,-20,-18.049765472176716,-19.94528883871344,-20.19706934687047
1769250644472,110,-18,-15.83366676241976,-18.3352029680662,-17.97638008102757
1769250644476,110,-18,-14.813951199678373,-17.94576020305984,-16.930838950568763
1769250644480,111,-17,-14.590416552317064,-17.176510020157,-16.67746641521615
1769250644484,112,-16,-14.665083369821806,-15.953054507653714,-16.735699266363934
1769250644488,112,-16,-14.746420266742682,-16.17389652733161,-16.81945836824653
1769250644492,111,-17,-14.687248956837347,-17.158663211137814,-16.772376269847747
1769250644496,111,-17,-14.392640923828372,-17.052271646511045,-16.48502617182905
1769250644500,112,-16,-13.85609592114175,-16.072958559491966,-15.94387330417216
1769250644504,113,-15,-13.197793092480792,-14.99673012921478,-15.273653859788416
1769250644508,114,-14,-12.571472216187471,-14.181577467045493,-14.637100284305
1769250644512,114,-14,-12.01906881841454,-14.154438506800522,-14.080127553566092
1769250644516,114,-14,-11.452401278477746,-14.04586442854622,-13.51146375320496
1769250644520,115,-13,-10.79160150472083,-13.054513965672047,-12.846596168196214
1769250644524,116,-12,-10.093596895042698,-11.974439701123057,-12.141655384570248
1769250644528,117,-11,-9.513218794688786,-11.24240378688529,-11.55408475050125
1769250644532,117,-11,-9.13841057473143,-11.071916224003612,-11.173610766726632
1769250644536,117,-11,-8.884976539148106,-11.161244210332873,-10.914796350979287
1769250644540,117,-11,-8.563344381584214,-10.87499524598541,-10.585905797387356
1769250644544,118,-10,-8.039168910661921,-10.164116918204556,-10.052666425039806
1769250644548,119,-9,-7.32119629652611,-9.034383514297955,-9.32619008449259
1769250644552,120,-8,-6.508229881679593,-8.29057566813982,-8.506914547719337
1769250644556,120,-8,-5.681765178461209,-7.949515877030715,-7.675114306669659
1769250644560,121,-7,-4.863137737567475,-7.038296394452102,-6.849567979298234
1769250644564,122,-6,-4.049520134563478,-6.02778096579313,-6.026622100081458
1769250644568,123,-5,-3.2513767173185606,-5.117462869587956,-5.218274737978199
1769250644572,124,-4,-2.481443794276249,-4.268300568425397,-4.4388940754450505
1769250644576,124,-4,-1.7282704924326793,-3.900328996027384,-3.676949022282891
1769250644580,125,-3,-0.9651191452990836,-3.1377433262360483,-2.9047435141926408
1769250644584,126,-2,-0.1883142999618225,-1.8529556370791744,-2.1184445749640983
1769250644588,127,-1,0.559508501726178,-1.3372884540212333,-1.3612698134679244
1769250644592,127,-1,1.2010556091679652,-1.016668794664719,-0.7106021153254554
1769250644596,128,0,1.6567935627166737,-0.1534614765624608,-0.2453194064892418
1769250644600,128,0,1.8829183555574556,0.1162244353542165,-0.0086179796990603
1769250644604,128,0,1.9021697158422013,-0.0720087857362559,0.0223016804771146
1769250644608,128,0,1.8059683217814797,-0.134502948378489,-0.0616385256829194
1769250644612,128,0,1.7174307035019458,-0.1978944143801682,-0.1382391421956283
1769250644616,128,0,1.7354753779173206,0.0183283979112861,-0.1092891698176491
1769250644620,128,0,1.892074917951449,-0.0263083371207445,0.0575666166626417
1769250644624,128,0,2.142849667315542,0.0726991730567644,0.3192473555358428
1769250644628,129,1,2.399282431103662,0.7432869900196729,0.5880418403479274
1769250644632,129,1,2.593611734344578,0.9044874526782788,0.7956622061197094
1769250644636,129,1,2.733443448590218,0.9455058745569578,0.9487238780639936
1769250644640,129,1,2.890581598190048,1.031945508657222,1.118806755713269
1769250644644,129,1,3.1202329706021668,1.0677749005038737,1.3615378215588168
1769250644648,130,2,3.3826359468131395,1.7000282494054806,1.6372279982788642
1769250644652,130,2,3.5474853348228303,2.0235721666016677,1.81517141536025
1769250644656,130,2,3.4805265649844994,1.7469897978909414,1.7611523787401455
1769250644660,129,1,3.1300398722438008,1.341598654680085,1.424226991226378
1769250644664,129,1,2.540906665454508,0.6692036644792972,0.8497627800862663
1769250644668,128,0,1.8045658544217564,0.1890103019467568,0.1286051385065807
1769250644672,128,0,1.004906738894765,-0.5241890713890798,-0.6562260874756176
1769250644676,126,-2,0.1988433333823749,-1.6492552217482208,-1.447735703357819
1769250644680,126,-2,-0.5734811856708948,-2.264949704884895,-2.2049904907294855
1769250644684,125,-3,-1.2691307775215206,-2.722395665131057,-2.88480653187954
1769250644688,125,-3,-1.8321002423330548,-3.388656010793063,-3.431791328664648
1769250644692,124,-4,-2.2101453046990756,-3.9816626168687894,-3.794327544664048
1769250644696,124,-4,-2.39626574783055,-4.116429727971298,-3.965457271655353
1769250644700,124,-4,-2.454982846637878,-3.862393622339544,-4.009274706397548
1769250644704,124,-4,-2.491427652395857,-4.0266868722340865,-4.030218833101134
1769250644708,124,-4,-2.5729308263477906,-4.1779120408952375,-4.094936814626249
1769250644712,124,-4,-2.661974111801372,-4.080577923468281,-4.165836757628567
1769250644716,124,-4,-2.6156741320212467,-4.109634175891946,-4.100862137090713
1769250644720,124,-4,-2.262498315542423,-3.762974190900181,-3.7296080586594544
1769250644724,125,-3,-1.5154810607331153,-3.1902723634924555,-2.9657119846112527
1769250644728,126,-2,-0.4479732011943036,-1.9510815005906883,-1.8823491454312264
1769250644732,128,0,0.7278347228127515,-0.3312620256007094,-0.6908828283680177
1769250644736,128,0,1.7709220509875734,0.1670989055459126,0.3688348612396483
1769250644740,129,1,2.5340612308265955,0.9664061078503948,1.1503340848060604
1769250644744,130,2,3.020770558576551,2.0832920244104223,1.6568316250545694
1769250644748,130,2,3.349577634844856,1.7906932633674058,2.0058405170688443
1769250644752,130,2,3.6538193919310906,1.9205687509890643,2.3297330034849058
1769250644756,131,3,3.984000011994485,2.9577940830601848,2.6783851298823924
1769250644760,131,3,4.2797821538941365,3.155547899384704,2.9914686399738653
1769250644764,131,3,4.420303867575136,2.932811284588918,3.149135883183284
1769250644768,131,3,4.299812659519415,2.9307074060963947,3.046952512736315
1769250644772,131,3,3.8792890752470144,2.7889615821033873,2.6461957565306453
1769250644776,130,2,3.202415012625718,2.112849689412744,1.9898283139889168
1769250644780,129,1,2.375613710453202,0.9954519519501818,1.1837145237945237
1769250644784,128,0,1.5164063140317772,0.1292300053165953,0.345244279879956
1769250644788,128,0,0.7009459622247788,-0.2848431108893223,-0.4498742327260479
1769250644792,127,-1,-0.0516843421398922,-0.9650485082857744,-1.1831884222925653
1769250644796,126,-2,-0.7617440427035365,-2.1293426428537536,-1.874718254536944
1769250644800,125,-3,-1.4708041670480885,-2.7487134244570117,-2.564850383797597
1769250644804,125,-3,-2.2305031254762464,-3.0993132818910167,-3.304239898793478
1769250644808,124,-4,-3.0777585027946484,-4.091597167579294,-4.129706513297154
1769250644812,123,-5,-4.000129040683203,-5.09029328972319,-5.02943938704197
1769250644816,122,-6,-4.92549455268046,-6.052738211551348,-5.932663551502638
1769250644820,121,-7,-5.751640101049052,-6.74825476704985,-6.738912391055823
1769250644824,121,-7,-6.393606218476217,-7.149316287164027,-7.363551960532387
1769250644828,120,-8,-6.820164505281785,-7.985436154482879,-7.772370027403889
1769250644832,120,-8,-7.0632105575917015,-8.217554518498746,-7.992465347069648
1769250644836,120,-8,-7.188721244074848,-7.888459003953885,-8.08829175305828
1769250644840,120,-8,-7.2385278949849,-7.911764513543665,-8.107169307150699
1769250644844,120,-8,-7.199316264032041,-7.977475872737777,-8.04561119819696
1769250644848,120,-8,-7.057871163722231,-8.137830951016657,-7.896120210336351
1769250644852,120,-8,-6.899328384039667,-8.072411260261864,-7.737924660497858
1769250644856,120,-8,-6.880094012479953,-8.003792782021018,-7.7111690573521985
1769250644860,120,-8,-6.932692469709158,-7.790262580930643,-7.733616338314018
1769250644864,122,-6,-6.311408948910354,-6.090837565236196,-7.0601177665028985
1769250644868,125,-3,-3.4128609580997593,-2.989567208832022,-4.105558302582066
1769250644872,131,3,3.633311814960676,2.7577435301610747,2.9777598197380843
1769250644876,141,13,15.57911398275769,13.232048369307574,14.9320405372729
1769250644880,156,28,30.673506220040228,27.963483097437965,30.014717335804026
1769250644884,172,44,44.51995689504066,44.18937387689959,43.84729812332593
1769250644888,182,54,51.81156881843457,53.752630727321794,51.13919553892555
1769250644892,178,50,49.14508419762715,49.93461521305241,48.49653487330468
1769250644896,164,36,37.05844702141307,36.07072471406038,36.45786410211613
1769250644900,146,18,19.8296514185552,17.99353578249948,19.290750287994285
1769250644904,129,1,3.175490613948573,1.2770743410979382,2.69232495463797
1769250644908,119,-9,-8.567842323661134,-9.301764809866178,-9.019729921175166
1769250644912,114,-14,-14.045621548045991,-13.825643449313205,-14.49508345680852
1769250644916,114,-14,-14.597879747827958,-14.206697156501354,-15.060265189815874
1769250644920,115,-13,-12.721290613639248,-12.730599207648051,-13.190078868484385
1769250644924,117,-11,-10.50821529786807,-11.077513830811489,-10.961551104595785
1769250644928,118,-10,-8.939715862042277,-9.900712903320972,-9.35568731616982
1769250644932,119,-9,-8.090745107902055,-9.17832997406952,-8.460369229031652
1769250644936,120,-8,-7.702897477094731,-7.848885190905308,-8.03320969126904
1769250644940,121,-7,-7.561542022878392,-7.107099091002481,-7.868113044169824
1769250644944,120,-8,-7.52928875778066,-7.744239513761101,-7.8240113222249805
1769250644948,120,-8,-7.4619610277569395,-8.15717378897897,-7.745300147306106
1769250644952,120,-8,-7.231519581936639,-7.909349128889018,-7.495076034718979
1769250644956,121,-7,-6.823830895235235,-7.047969800137569,-7.059894313959127
1769250644960,122,-6,-6.343431231008293,-6.0035108070383885,-6.551706779461749
1769250644964,122,-6,-5.8927414385181685,-5.772157558964136,-6.0781504944568585
1769250644968,122,-6,-5.475403803202989,-6.1887950926717945,-5.641066978303761
1769250644972,122,-6,-5.039575658470873,-5.73781383229889,-5.183840049650894
1769250644976,124,-4,-4.581460257825049,-4.292790162525279,-4.701488204267229
1769250644980,124,-4,-4.155323842108723,-3.7209691318315112,-4.25112559755276
1769250644984,124,-4,-3.784018214425103,-4.071776850335999,-3.857569237962214
1769250644988,124,-4,-3.407527386354829,-3.8793917834758513,-3.459450204970189
1769250644992,125,-3,-2.9429604594400116,-2.94950815698686,-2.9720271205415987
1769250644996,126,-2,-2.373300449631757,-2.1701386501402373,-2.378808862639649
1769250645000,126,-2,-1.7591936171276534,-1.7331327266812324,-1.7421963314599322
1769250645004,127,-1,-1.1783254322171774,-1.1754303375073525,-1.1401293376022694
1769250645008,127,-1,-0.6708540282446813,-0.6383523385945107,-0.6111987821591213
1769250645012,128,0,-0.2344736715179393,-0.2484253826491403,-0.1518270006163179
1769250645016,128,0,0.1536533119597611,0.1913282053676532,0.260169366929198
1769250645020,129,1,0.5252782061165815,0.884967964986296,0.6547850218276667
1769250645024,129,1,0.9200026939577544,1.1958779651950704,1.0709781545047
1769250645028,129,1,1.3683893076726266,1.066727023146968,1.5404919700048356
1769250645032,130,2,1.8614973288922116,1.9985538852860143,2.0556282160567347
1769250645036,131,3,2.3504009126515393,3.046565520435375,2.5671604419923586
1769250645040,131,3,2.793284466940909,2.928467065459815,3.032274926020841
1769250645044,131,3,3.1979956942976675,3.2580620197106853,3.4587440481834952
1769250645048,132,4,3.604048520156766,3.947759026443336,3.886739047570992
1769250645052,132,4,4.023782794445653,4.197990938862736,4.328661368924239
1769250645056,133,5,4.411033373409568,4.825149415312289,4.737593728411044
1769250645060,133,5,4.689430846484936,5.169718693853842,5.036719273944549
1769250645064,133,5,4.808511521598936,5.0261294097324125,5.1762262612208385
1769250645068,133,5,4.777200489720618,5.18130050318302,5.166172674385907
1769250645072,133,5,4.657395653767633,5.025968934839413,5.068763236358152
1769250645076,133,5,4.5373965057437875,4.948200673693708,4.97135177865473
1769250645080,133,5,4.506599373028616,5.136936115407933,4.962138811774602
1769250645084,133,5,4.631021810675854,4.975994699193864,5.106985062668889
1769250645088,133,5,4.923136585479451,5.342196792126685,5.419283395758939
1769250645092,134,6,5.320550374304386,5.812486345542829,5.837386378885307
1769250645096,134,6,5.701821760420948,6.226162764382567,6.23953767309942
1769250645100,135,7,5.940587767407023,6.839834498766879,6.498676789847014
1769250645104,134,6,5.955340990529741,6.292103468499992,6.5334045597186785
1769250645108,134,6,5.7132681106509935,6.041129455842485,6.311663394566048
1769250645112,134,6,5.20164457383,6.133381197527041,5.820880070093317
1769250645116,133,5,4.41743644476616,4.9207292765475845,5.057232759472093
1769250645120,132,4,3.3927542585860495,4.1507962467648865,4.052223662743026
1769250645124,131,3,2.219459447638025,3.0111663888587445,2.8981745210852146
1769250645128,129,1,1.0348790095337257,1.30489723658376,1.7333551014224982
1769250645132,129,1,-0.022950404814156,0.9298866907789752,0.696058684068921
1769250645136,128,0,-0.8530657232857846,0.1034901107777386,-0.1133676609481386
1769250645140,127,-1,-1.4056667908135905,-0.9837823133939256,-0.6458976940951627
1769250645144,127,-1,-1.6855186607317347,-0.8676427929177098,-0.9068427061997304
1769250645148,127,-1,-1.7524148934919557,-0.7818701288163323,-0.9562314520736124
1769250645152,127,-1,-1.7093360591739273,-0.98651423774418,-0.8964256342496574
1769250645156,127,-1,-1.6728226164411368,-0.9419474668918156,-0.8423308021829556
1769250645160,127,-1,-1.7276565040364744,-0.9340183208192516,-0.8774603073475755
1769250645164,127,-1,-1.8705250681856904,-0.9148161764456788,-0.9991752556124598
1769250645168,127,-1,-1.9712979691985688,-0.7017713232352287,-1.0793869158599845
1769250645172,127,-1,-1.809470956865164,-1.070920692982293,-0.8988250340157748
1769250645176,127,-1,-1.2074691897544907,-0.8175713829494213,-0.2795197976271275
1769250645180,129,1,-0.1782617162244932,0.951190140073078,0.7662847514845574
1769250645184,130,2,1.0481406636783337,2.1995644077530425,2.008738116469038
1769250645188,131,3,2.1611834215131775,3.225711316103271,3.137735624215034
1769250645192,132,4,2.9593551419905566,3.993747937052177,3.953051990781333
1769250645196,132,4,3.443202002240943,4.151671964996158,4.4560124697860815
1769250645200,133,5,3.762428065583802,4.971483446082101,4.795210972367215
1769250645204,133,5,4.082253470134319,5.2056492844013365,5.133740179750454
1769250645208,133,5,4.464494869770066,5.24101829350965,5.532387992660612
1769250645212,134,6,4.824802121064013,5.99900552190528,5.907525063566972
1769250645216,134,6,4.982133865174793,6.168764824596303,6.079407337599653
1769250645220,134,6,4.769102800787229,5.939859135528946,5.8814599322597205
1769250645224,133,5,4.131494698322352,5.277184765992724,5.2598177080113135
1769250645228,132,4,3.1522635885686925,4.167881265501251,4.297584326504338
1769250645232,131,3,1.9967249807796583,3.110959030317031,3.159818515124284
1769250645236,130,2,0.8337312804914163,2.057382684011571,2.014477685167848
1769250645240,129,1,-0.213245286557079,1.075803319778594,0.9838932120336285
1769250645244,128,0,-1.0788261164945134,0.1365014328307487,0.1328623140043281
1769250645248,127,-1,-1.7598870233972097,-0.6241653704532195,-0.5350697273699883
1769250645252,127,-1,-2.324020326849064,-1.1469804805918016,-1.086311440234847
1769250645256,126,-2,-2.9006135046479553,-1.5819093548920042,-1.6489292585520945
1769250645260,126,-2,-3.6296664776669982,-2.3755429837661612,-2.3622535027091125
1769250645264,124,-4,-4.579718700532336,-3.2994576735105428,-3.295589208552067
1769250645268,124,-4,-5.683927745038236,-4.238509260045522,-4.3842365494785565
1769250645272,122,-6,-6.746770732922148,-5.482237938103901,-5.434416722185436
1769250645276,122,-6,-7.536258265656406,-6.221550296050764,-6.213049405878401
1769250645280,121,-7,-7.914700329345547,-6.775509102607387,-6.578421472928172
1769250645284,121,-7,-7.915581186413222,-6.7897626983981185,-6.560810576065691
1769250645288,122,-6,-7.699235446014255,-5.8359085983393175,-6.32274868359211
1769250645292,122,-6,-7.425003738420877,-5.745257839403495,-6.03131628056866
1769250645296,122,-6,-7.169518112412726,-6.0645592156339365,-5.770411569228352
1769250645300,122,-6,-6.970807056297668,-5.826530740024915,-5.5770863925078435
1769250645304,122,-6,-6.8987574438220625,-5.7908189241058174,-5.509609904914536
1769250645308,122,-6,-6.944543837998993,-5.7807873652276935,-5.543972966657807
1769250645312,123,-5,-6.6650030218238205,-4.763903029990994,-5.23107437684334
1769250645316,126,-2,-4.854424013942011,-2.0703715003891325,-3.3759361193593365
1769250645320,130,2,0.2523309464741028,2.2512741954268014,1.765746924576026
1769250645324,138,10,9.95649007672588,10.090244543189453,11.480008451218987
1769250645328,151,23,23.665877163027012,23.427626820629424,25.17555974971539
1769250645332,167,39,38.14723770433491,39.02603921986996,39.633229662018024
1769250645336,179,51,48.42392591373208,51.1689245192798,49.89329136933011
1769250645340,182,54,50.167351886037395,54.00476607744864,51.639117482487215
1769250645344,172,44,42.14676859389674,44.27570109599874,43.64409979716928
1769250645348,155,27,27.03495647561525,27.2075363539565,28.575658809191133
1769250645352,138,10,9.980551018248018,10.263482915544376,11.567250824596853
1769250645356,125,-3,-4.053198232250088,-3.0171243270390065,-2.436813495986936
1769250645360,117,-11,-12.440417885099546,-10.64320203669016,-10.821391673718264
1769250645364,115,-13,-15.38346200595471,-13.06726481033991,-13.783224823379571
1769250645368,115,-13,-14.858445493219628,-12.401488865180507,-13.280253838036865
1769250645372,117,-11,-13.047300384321945,-11.216972421376605,-11.476225578945822
1769250645376,117,-11,-11.311889217593436,-10.507160812662129,-9.726151961002904
1769250645380,119,-9,-10.088552436644868,-9.105757187456687,-8.473777638950606
1769250645384,120,-8,-9.341721797779355,-7.602811187659591,-7.698793641516587
1769250645388,121,-7,-8.977314189737898,-6.806388005963636,-7.319076460315318
1769250645392,121,-7,-8.931735533727085,-6.920524906721971,-7.271724720299234
1769250645396,120,-8,-9.081367134230817,-7.681778176190011,-7.423959282878819
1769250645400,120,-8,-9.228201036835292,-7.986436594952062,-7.5679769679443725
1769250645404,120,-8,-9.210482270572635,-7.593226741571909,-7.539826315103424
1769250645408,121,-7,-8.993289151149929,-6.872673854482639,-7.309840346042673
1769250645412,121,-7,-8.635264695206107,-6.831847620786449,-6.94244610211117
1769250645416,121,-7,-8.193362196014167,-6.751313274136816,-6.495317475275451
1769250645420,122,-6,-7.683774357321713,-5.905438558836535,-5.98114928645701
1769250645424,122,-6,-7.1197011635761625,-5.598085134366163,-5.410175326797647
1769250645428,123,-5,-6.54721358639444,-4.907661703928332,-4.828989201688522
1769250645432,124,-4,-6.017834584611567,-3.759085557377527,-4.291722653041941
1769250645436,124,-4,-5.531668229647155,-3.8269002105906766,-3.799722061981543
1769250645440,124,-4,-5.033392459678529,-3.8016453667178873,-3.2963029495013294
1769250645444,125,-3,-4.478749920351897,-2.635808186894539,-2.7354624395235483
1769250645448,126,-2,-3.892708918983978,-1.9153912340768025,-2.1424368614451033
1769250645452,126,-2,-3.34623433517507,-1.6909509657615462,-1.5899107371121757
1769250645456,127,-1,-2.8801579130735084,-0.920926533212058,-1.1194618007854646
1769250645460,127,-1,-2.466209768626631,-0.6465473794358128,-0.7015134537842156
1769250645464,127,-1,-2.0458954707673085,-0.7737810984018718,-0.2757958592205015
1769250645468,128,0,-1.5935760597535693,0.2201060306391484,0.1831829423062012
1769250645472,129,1,-1.1224624710058555,1.2110694252091634,0.6601414549989588
1769250645476,129,1,-0.6309861400666659,1.1578570503362622,1.155427758026895
1769250645480,129,1,-0.0750854775603104,1.3549592613414547,1.7144443534292344
1769250645484,130,2,0.5810256852686404,2.205942462608675,2.374846410343328
1769250645488,131,3,1.2993425884623342,3.269839104021912,3.098268887780433
1769250645492,132,4,1.9790422706928616,4.169848236606102,3.7820144987834174
1769250645496,132,4,2.531896997198846,4.2158916221090985,4.3373947969308615
1769250645500,132,4,2.9304051267253164,4.3506179809741,4.738446992118079
1769250645504,133,5,3.189249599756219,5.19237055042685,5.001004079432576
1769250645508,133,5,3.3316812323758116,5.3241817647091745,5.147561924796687
1769250645512,133,5,3.390302084946662,5.099580703816452,5.2094244805940555
1769250645516,133,5,3.423284592909114,5.3504158518456455,5.244742370959856
1769250645520,133,5,3.504619221470767,5.22116888552626,5.328479618327244
1769250645524,133,5,3.689706221127419,5.339435161358384,5.516416778619682
1769250645528,134,6,3.9918280120979626,6.196714594295716,5.8211361476135055
1769250645532,134,6,4.38579644882383,6.227988925932164,6.216830097855502
1769250645536,134,6,4.818387627164342,6.28110406861441,6.650645959527496
1769250645540,135,7,5.208543724088268,7.285153171202282,7.042200037304809
1769250645544,135,7,5.453489391039644,7.318661716905082,7.288674952287587
1769250645548,135,7,5.458685358295874,7.1833372556918125,7.295042491307227
1769250645552,135,7,5.174334946124973,7.321047886471686,7.011530162534129
1769250645556,134,6,4.605988034362465,6.15759485942241,6.444267742321718
1769250645560,133,5,3.795273585579785,5.48282035527977,5.63503063300259
1769250645564,133,5,2.798764860450828,5.100000272339528,4.639647613848691
1769250645568,131,3,1.6840677352802889,3.422375633400278,3.5250383114172017
1769250645572,130,2,0.5282089247168748,2.124578911274978,2.368554611104475
1769250645576,129,1,-0.5980488146480298,1.351600349691528,1.2418176637150895
1769250645580,128,0,-1.644500447222538,0.352437001216431,0.1954416616625591
1769250645584,127,-1,-2.5749540809812523,-0.8057898870243148,-0.7345630632903775
1769250645588,126,-2,-3.3518730367717335,-1.6013046929587134,-1.5111407603672076
1769250645592,126,-2,-3.93660215266924,-1.882806899489148,-2.09629044824296
1769250645596,125,-3,-4.309511578622844,-2.5595565757709164,-2.47084151547159
1769250645600,125,-3,-4.494075777851239,-2.7642643449334185,-2.657952560091211
1769250645604,125,-3,-4.561000332472407,-2.6290702343158276,-2.7272734215868857
1769250645608,125,-3,-4.593987700688981,-2.803333457628229,-2.761536387662495
1769250645612,125,-3,-4.626690101478776,-2.625335551188713,-2.7943593049835687
1769250645616,125,-3,-4.596073096670335,-2.8079328875247445,-2.7637238593632167
1769250645620,125,-3,-4.361660259137389,-2.493024062957227,-2.5304147403349666
1769250645624,126,-2,-3.797786647495216,-1.8700875423385184,-1.9691899571771283
1769250645628,126,-2,-2.9039844054563364,-1.573786700677477,-1.078959281398745
1769250645632,128,0,-1.8450019286959525,0.2047651878251044,-0.023670187505274
1769250645636,129,1,-0.8697686243453646,1.362331446981968,0.9480834991228312
1769250645640,129,1,-0.1591158816338865,1.37595170178993,1.655662919329098
1769250645644,130,2,0.2758013380233092,2.260344267689577,2.0882473963069828
1769250645648,130,2,0.5639710466098833,2.317504560643879,2.3747930545178604
1769250645652,130,2,0.8495539156339977,2.3237051624612652,2.6585798322170304
1769250645656,131,3,1.1801352996748968,3.297316145486576,2.9859803516253196
1769250645660,131,3,1.4873125621677117,3.450713329031138,3.2882404983857363
1769250645664,131,3,1.6499192633175896,3.2076320273359435,3.4451516886978855
1769250645668,131,3,1.572993654965735,3.3777205749969292,3.363015493385251
1769250645672,131,3,1.2311295717091777,3.28548872980424,3.01687472009531
1769250645676,130,2,0.6669144257614106,2.359637319713669,2.4490767008273235
1769250645680,129,1,-0.0416248968902643,1.441939708605997,1.7372554403100808
1769250645684,129,1,-0.817695558921663,1.1893868631683056,0.957593581982782
1769250645688,128,0,-1.6007356306163243,0.4569253713950707,0.1699538325282841
1769250645692,127,-1,-2.346259815951136,-0.8226409020358973,-0.581287903393096
1769250645696,126,-2,-3.0388565077972975,-1.4509813135533802,-1.2802227018552834
1769250645700,126,-2,-3.7144370055717566,-1.7490332432223503,-1.962367296196685
1769250645704,125,-3,-4.453350889567095,-2.603104486479606,-2.707797888248047
1769250645708,124,-4,-5.33125949718597,-3.7188725566642793,-3.5915510847137053
1769250645712,123,-5,-6.360310095304897,-4.659537165822212,-4.625379891640271
1769250645716,122,-6,-7.457589939712815,-5.5379860273458625,-5.727323817933431
1769250645720,121,-7,-8.457217898822304,-6.679068878409775,-6.733287815238169
1769250645724,120,-8,-9.16948137182405,-7.624274709812382,-7.453961744622624
1769250645728,120,-8,-9.470576861488514,-7.698604097997565,-7.763217068918844
1769250645732,120,-8,-9.374867825165303,-7.657572371744436,-7.672074432519839
1769250645736,120,-8,-9.036801658439764,-7.485955571469142,-7.334694027856487
1769250645740,121,-7,-8.673046931762244,-6.740886235067251,-6.9731294873123915
1769250645744,121,-7,-8.456212461474005,-6.500226502173273,-6.767896282783297
1769250645748,121,-7,-8.454554967638956,-6.868199493348182,-6.789390857911866
1769250645752,120,-8,-8.633286123665087,-7.412171514668501,-6.9935922107798865
1769250645756,120,-8,-8.821570812829336,-7.742392878118438,-7.194138506968934
1769250645760,121,-7,-8.530281705748513,-6.4362492932354645,-6.893619779880553
1769250645764,124,-4,-6.708507909855939,-3.770753809105518,-5.049420794644998
1769250645768,128,0,-1.8199399973159425,0.3884796331259115,-0.1450571776123985
1769250645772,136,8,7.391000357764996,8.413305576326419,9.059020547723918
1769250645776,148,20,20.623468578666323,20.4114798135695,22.26097199040997
1769250645780,163,35,35.1397413482049,35.48148901285633,36.73532916399243
1769250645784,177,49,46.29994239279923,49.31851624499945,47.857969917372046
1769250645788,181,53,49.64061647424076,53.29960222396358,51.17731753326947
1769250645792,173,45,43.329996202342905,45.49136314574991,44.86709291368593
1769250645796,158,30,29.3187445251496,30.264655071345423,30.87506143898298
1769250645800,140,12,12.35050216103529,12.651255627334985,13.93208042940757
1769250645804,126,-2,-2.484516306970587,-1.8060724755237365,-0.8898856690611741
1769250645808,117,-11,-12.04426345850171,-10.42882685483857,-10.461637213971274
1769250645812,114,-14,-15.982559641686407,-13.697479221780808,-14.435261872687011
1769250645816,114,-14,-15.991965395476155,-13.559712111606723,-14.487691640541026
1769250645820,115,-13,-14.30101959654892,-12.517599201385575,-12.828327527270892
1769250645824,116,-12,-12.50382348894711,-11.706678149060348,-11.04113633717293
1769250645828,117,-11,-11.245002322638166,-10.401309546880928,-9.775514529971415
1769250645832,119,-9,-10.544196445605676,-8.75352795601985,-9.065938253552543
1769250645836,119,-9,-10.224508099645629,-8.43444323999024,-8.74865090749764
1769250645840,119,-9,-10.116038763810066,-8.706619477848415,-8.656200373197096
1769250645844,119,-9,-10.065546359388591,-8.479821688066886,-8.627800966138684
1769250645848,119,-9,-9.92622290606888,-8.575134755579503,-8.50725125646541
1769250645852,119,-9,-9.604629924632835,-8.541473719195672,-8.197486149546798
1769250645856,120,-8,-9.107678345448416,-7.59769767455175,-7.708893739881779
1769250645860,121,-7,-8.516921397918804,-6.599413770149717,-7.12871651535062
1769250645864,121,-7,-7.912135400787096,-6.5302865848557,-6.53859102399023
1769250645868,121,-7,-7.334328868528404,-6.514737470877959,-5.976478393462252
1769250645872,122,-6,-6.815926628226587,-5.5173741662577,-5.471439920535286
1769250645876,123,-5,-6.400123110707301,-4.638454921017202,-5.067124750996168
1769250645880,123,-5,-6.090623309299866,-4.542892194214055,-4.770105964866019
1769250645884,123,-5,-5.797299096521554,-4.58821356430101,-4.491313107129378
1769250645888,123,-5,-5.379235116070556,-4.3928464323844505,-4.088097371344771
1769250645892,124,-4,-4.766240182194709,-3.612258910959011,-3.488810817639868
1769250645896,125,-3,-4.026812706327697,-2.51078362245184,-2.76305558018855
1769250645900,126,-2,-3.3029444457729618,-1.6810112972885245,-2.0547134383066283
1769250645904,126,-2,-2.68652455849771,-1.4308143460485274,-1.4552288547617311
1769250645908,126,-2,-2.17160116098568,-1.4930553333324512,-0.9561334294875152
1769250645912,127,-1,-1.7096663960725609,-0.516729141928159,-0.5078153299039772
1769250645916,128,0,-1.2703890080447011,0.4772453780395972,-0.0818996437102089
1769250645920,128,0,-0.8330721940790482,0.2565322641519909,0.3399523740936911
1769250645924,128,0,-0.3526222854567256,0.7413499780288944,0.8031725885683445
1769250645928,129,1,0.2233923233950048,1.298580127432836,1.3624395651355017
1769250645932,129,1,0.8982408433524318,1.7646673636248218,2.021896347589486
1769250645936,131,3,1.6082733035277077,3.2130669275200723,2.716279232665854
1769250645940,131,3,2.272354750793899,3.5070698358831787,3.3627891608959306
1769250645944,131,3,2.8478659825963897,3.564454555967131,3.919583996114972
1769250645948,132,4,3.3309010150918548,4.439056218395024,4.385083782114993
1769250645952,132,4,3.7221361106845543,4.726192013334446,4.760818798344372
1769250645956,133,5,4.0246951309673396,5.201551139774249,5.0481473481000885
1769250645960,133,5,4.281950264500437,5.606836572119891,5.2881643137666074
1769250645964,133,5,4.587836763415816,5.434619882048512,5.574649746627903
1769250645968,133,5,5.021980241485114,5.623920121958373,5.989128347192618
1769250645972,134,6,5.563092634184904,6.565476206150499,6.511809838366754
1769250645976,135,7,6.085858921024455,7.37633413332421,7.016968844339523
1769250645980,135,7,6.4646833621996,7.475023382196295,7.377826477274419
1769250645984,135,7,6.681345734171729,7.577047192305876,7.575868004336686
1769250645988,135,7,6.821531917058572,7.496521806183464,7.697203665396355
1769250645992,135,7,6.964053819838327,7.737768419858715,7.820629195599253
1769250645996,136,8,7.074741790191074,8.201372380169063,7.9115095235488
1769250646000,135,7,7.002507493110442,7.723527436196463,7.818815243883559
1769250646004,135,7,6.5761227061905885,7.306325582748412,7.371990348227513
1769250646008,134,6,5.723761230588943,6.824122626664213,6.499588316247309
1769250646012,133,5,4.528820774961289,5.396004740258206,5.284846944869185
1769250646016,131,3,3.1799450131599585,3.599220208869946,3.9162326973722057
1769250646020,130,2,1.852487435345652,2.344247271866644,2.5688344403684344
1769250646024,129,1,0.6234908018692868,1.7199172778449188,1.3190390948943995
1769250646028,128,0,-0.5083952450749325,0.4203985167920272,0.1652345826573176
1769250646032,126,-2,-1.5387172020079456,-1.1598578292558115,-0.8871881577367224
1769250646036,126,-2,-2.4084953202652617,-1.8366917692370823,-1.778143570462003
1769250646040,125,-3,-3.031430587200991,-2.169643388869385,-2.421641195906053
1769250646044,125,-3,-3.355965424640638,-2.7597012948151627,-2.7674712335559875
1769250646048,124,-4,-3.408471939519337,-3.070200982346052,-2.842708803211657
1769250646052,125,-3,-3.290865051415565,-2.625664810518849,-2.7487370251734693
1769250646056,125,-3,-3.128871247991898,-2.3913857539432017,-2.6102337476260487
1769250646060,125,-3,-2.997240023234416,-2.516222792425195,-2.50113774652613
1769250646064,125,-3,-2.8748987746356365,-2.4818913963146674,-2.4003299249202343
1769250646068,125,-3,-2.664236271337796,-2.21705652653017,-2.2111884261255783
1769250646072,126,-2,-2.257702310105729,-1.5693160144783898,-1.82746660529992
1769250646076,126,-2,-1.6087917593340415,-1.303933494125705,-1.202914602975415
1769250646080,127,-1,-0.7711848120295844,-0.6801891284048682,-0.3902449800114603
1769250646084,128,0,0.1195196240240742,0.7978143352249321,0.4758193860916722
1769250646088,129,1,0.9222497749009602,1.4571281385532262,1.2542336562595329
1769250646092,129,1,1.5739636511394153,1.818694626075374,1.8818275072356316
1769250646096,130,2,2.1068450304413964,2.3293132388821376,2.390974281000389
1769250646100,130,2,2.5848570250631937,2.6929256913003763,2.8454418298068673
1769250646104,131,3,3.025700865105869,3.484093662667537,3.2619738730943135
1769250646108,131,3,3.37774289256514,3.761225118050516,3.588256615283191
1769250646112,131,3,3.5538922942787843,3.570611794907323,3.737776456913836
1769250646116,131,3,3.478269494505547,3.5907618317885963,3.6357816265592064
1769250646120,131,3,3.1176475439564135,3.447884145704987,3.2494002113031883
1769250646124,130,2,2.496094962593075,2.775232478849424,2.602310353841937
1769250646128,129,1,1.6892038505774865,1.469780246133548,1.7698922615417785
1769250646132,128,0,0.7952733155061408,0.919724542444902,0.8504948389652635
1769250646136,128,0,-0.0979860966969405,0.2491909473694837,-0.0684768554437282
1769250646140,126,-2,-0.9297825161739866,-1.1886104234227708,-0.9268765933835148
1769250646144,126,-2,-1.6696277998958151,-1.5342976778595787,-1.6944959989019766
1769250646148,125,-3,-2.3232600037590947,-2.234166265832118,-2.376517674611293
1769250646152,124,-4,-2.939248349400074,-3.298703741860713,-3.020441861571382
1769250646156,124,-4,-3.597176037729787,-3.5578742486606005,-3.7052565807068927
1769250646160,123,-5,-4.364778779715238,-4.316246876954764,-4.49933758441754
1769250646164,122,-6,-5.242576378314949,-5.401213048230175,-5.404646288880824
1769250646168,121,-7,-6.1415404988834394,-6.344317416113857,-6.333003254087438
1769250646172,120,-8,-6.9216710302025355,-7.12345935666897,-7.14352073548406
1769250646176,120,-8,-7.465501275465519,-7.779175468553246,-7.71624999899986
1769250646180,119,-9,-7.728903177677161,-7.976360485789032,-8.004783289590783
1769250646184,120,-8,-7.73686446213964,-7.798035632530696,-8.034728400848522
1769250646188,119,-9,-7.547881728278225,-7.856496960295924,-7.86948447206117
1769250646192,120,-8,-7.238515213614883,-7.603393327259832,-7.592418187753013
1769250646196,120,-8,-6.922379449873367,-7.317210500818238,-7.319761780095239
1769250646200,120,-8,-6.7426098506657794,-7.318903495009365,-7.187790202910898
1769250646204,120,-8,-6.74046641647044,-7.558126975011161,-7.223553631322876
1769250646208,120,-8,-6.572736615776227,-6.915540215215288,-7.073146400431963
1769250646212,123,-5,-5.234928193646073,-4.663528566054829,-5.735916107092245
1769250646216,126,-2,-1.1372015884122877,-1.1078097651219014,-1.6400342847469869
1769250646220,134,6,7.16366851848594,6.425537682105306,6.638700907830867
1769250646224,145,17,19.72163059193218,17.78108494541841,19.148435751083667
1769250646228,159,31,34.22621514867719,31.778441762756845,33.588838724591696
1769250646232,174,46,46.27730077310005,46.630209521344874,45.577064124772626
1769250646236,180,52,51.21316927505285,52.68618115724496,50.46582799983004
1769250646240,174,46,46.57705023626731,46.50830890820856,45.80529779854413
1769250646244,160,32,33.60038720414502,32.78951781904108,32.824632744253336
1769250646248,142,14,16.64043959010759,14.646013227531729,15.868901107842165
1769250646252,126,-2,0.9371092327771696,-1.1038236825386267,0.1598867899959648
1769250646256,117,-11,-9.836113479382638,-10.495524280314946,-10.642907615628731
1769250646260,112,-16,-14.786966749161994,-15.19607024429336,-15.64752078551644
1769250646264,112,-16,-15.347877095978989,-15.464089425503907,-16.272458074533418
1769250646268,113,-15,-13.81719327609934,-14.135489270014588,-14.79742571899766
1769250646272,114,-14,-12.002358054344032,-13.341209870281109,-13.018486723635585
1769250646276,115,-13,-10.687165655611604,-12.211764754689735,-11.721274408515262
1769250646280,116,-12,-9.895314265328995,-11.417266751479,-10.941623511498314
1769250646284,117,-11,-9.416350456349962,-10.240977620539343,-10.482629558922666
1769250646288,118,-10,-9.106299818169717,-9.326753569515189,-10.206294477081457
1769250646292,117,-11,-8.883094128739359,-10.199442743413758,-10.026006345971664
1769250646296,117,-11,-8.64588639470223,-10.24102610002206,-9.831231704042398
1769250646300,118,-10,-8.301188131700346,-9.384738299400755,-9.522408852307422
1769250646304,118,-10,-7.849938320606026,-9.19309088716603,-9.10189157949633
1769250646308,119,-9,-7.395957663238247,-8.429052987777247,-8.678675742209755
1769250646312,119,-9,-7.046789569040791,-8.023876088676948,-8.363139479000218
1769250646316,119,-9,-6.810140054508899,-8.440987180322757,-8.161522888390202
1769250646320,119,-9,-6.586612385269217,-8.065531182770357,-7.971851118596192
1769250646324,120,-8,-6.25040658725843,-7.5368875636995165,-7.668361385074612
1769250646328,120,-8,-5.732958572672512,-7.057431852537619,-7.184855429262568
1769250646332,121,-7,-5.0535841500104,-6.369727315456197,-6.541864122163283
1769250646336,121,-7,-4.3072107304952905,-6.084855123201575,-5.832569309875143
1769250646340,122,-6,-3.6289186505739206,-5.319693981589349,-5.189584692873125
1769250646344,123,-5,-3.128337396634292,-4.323079181393322,-4.722436010933965
1769250646348,123,-5,-2.8071792026192894,-4.198062073441213,-4.434840123130035
1769250646352,123,-5,-2.531417221872265,-4.278386734174816,-4.193991350772855
1769250646356,123,-5,-2.1178504850402837,-4.066668141473874,-3.8158734800653726
1769250646360,124,-4,-1.4813193063695649,-3.3515889183630807,-3.2143601328963385
1769250646364,125,-3,-0.7029748378328623,-2.215699332094335,-2.4713017673973026
1769250646368,126,-2,0.0520488535525278,-1.3231029843185145,-1.7530239774719134
1769250646372,126,-2,0.6800288396279845,-1.1227261736099496,-1.1625627606237194
1769250646376,126,-2,1.1981587102976028,-1.1742708369434371,-0.6805184065288497
1769250646380,127,-1,1.6804626757200951,-0.2390613025822819,-0.2321504691418293
1769250646384,128,0,2.17120857604959,0.751976545912385,0.2248014397793967
1769250646388,128,0,2.6698594915362226,0.6653553155248781,0.6876237503909024
1769250646392,128,0,3.1661280336467605,0.9840514761701268,1.1463513053180103
1769250646396,129,1,3.654317708088608,1.6857448349401432,1.5972623480223205
1769250646400,129,1,4.11707129583108,1.9866992304235391,2.0239211505976136
1769250646404,130,2,4.522219061058834,2.521263536974956,2.393262273050786
1769250646408,130,2,4.849788230151103,2.939979377103838,2.6843132370497917
1769250646412,130,2,5.116495097272951,2.733634308349393,2.9141542346487435
1769250646416,130,2,5.367319272079278,2.9467423574409612,3.128797205024884
1769250646420,131,3,5.648198041562496,3.7900568608359135,3.3743015726679637
1769250646424,131,3,5.990899179995538,3.715239310353807,3.681458518540448
1769250646428,131,3,6.409563822003154,3.805669727387968,4.063501642781728
1769250646432,132,4,6.886659770724594,4.87424512913964,4.5029291365666575
1769250646436,132,4,7.349126145201829,4.83624155786042,4.92751664554555
1769250646440,132,4,7.6641768864075965,4.934434284471682,5.2053403076664315
1769250646444,133,5,7.680177454574021,5.6088746116034125,5.184899729123222
1769250646448,132,4,7.301862305591134,4.925545311733037,4.770407316108506
1769250646452,131,3,6.546779400479877,3.803008068595553,3.978955858178029
1769250646456,130,2,5.53133309233743,2.8921145148291307,2.926862240824597
1769250646460,129,1,4.395861945559202,1.965462962928332,1.7545498690573575
1769250646464,128,0,3.23208806742086,0.546036565175315,0.5539359329859317
1769250646468,126,-2,2.0657881296263323,-0.8960279860695222,-0.6490803849149573
1769250646472,126,-2,0.8985416936881188,-1.4406624118552631,-1.853219888251962
1769250646476,124,-4,-0.2330814688462936,-2.752664002064817,-3.022221089227382
1769250646480,123,-5,-1.2427655741234136,-4.436551188898466,-4.069253079466665
1769250646484,122,-6,-2.049363242050003,-4.95481331249698,-4.912299259208854
1769250646488,122,-6,-2.6464321303443157,-5.397386299996684,-5.545148696523679
1769250646492,121,-7,-3.104330901635496,-5.9101207430782825,-6.039553318803031
1769250646496,121,-7,-3.4984220433233073,-6.233676467272716,-6.471654379044089
1769250646500,120,-8,-3.8421712093481855,-6.963877263798043,-6.853869651633193
1769250646504,120,-8,-4.090598181103303,-7.350102670168636,-7.139409318664943
1769250646508,120,-8,-4.192084094824633,-7.021635191856767,-7.2761313356933295
1769250646512,120,-8,-4.1185692604533966,-7.204146527157023,-7.237331163504772
1769250646516,120,-8,-3.847758905876056,-6.969230242022831,-7.002503881731616
1769250646520,121,-7,-3.3413896919702726,-6.126734172313199,-6.533788079960133
1769250646524,121,-7,-2.5715129211167023,-6.230802092258229,-5.802000758710628
1769250646528,122,-6,-1.5816309192732558,-5.05228498221577,-4.849323889051174
1769250646532,124,-4,-0.5082193445773557,-3.18064605911892,-3.812207478129483
1769250646536,124,-4,0.4842591329706855,-2.9501551993577464,-2.855872045037958
1769250646540,125,-3,1.304825040286324,-2.1019961411620804,-2.071534243835999
1769250646544,126,-2,1.977893902214666,-1.2521524536811577,-1.4343948584119577
1769250646548,126,-2,2.589870306289319,-0.9882381661234964,-0.8578847560809195
1769250646552,127,-1,3.1920827764928155,-0.2272958969280343,-0.2911125948490681
1769250646556,127,-1,3.740591090292438,0.1457446697367883,0.2212834173400155
1769250646560,128,0,4.116307709344754,0.8288957611673536,0.5599179079776468
1769250646564,128,0,4.201765698141786,0.8443943901382874,0.6079715960213876
1769250646568,127,-1,3.947098311547916,-0.0589821458342738,0.3168337945047821
1769250646572,127,-1,3.3803856869090834,-0.1446049212637783,-0.2848215369243858
1769250646576,126,-2,2.578462930381039,-0.8671028256078728,-1.1208825912928235
1769250646580,125,-3,1.6365033005172729,-2.1660561508809275,-2.0972770809453056
1769250646584,124,-4,0.6455653313716718,-3.0846392420851316,-3.1233117905209946
1769250646588,123,-5,-0.3306778996625987,-4.145959982298393,-4.1351462857001
1769250646592,122,-6,-1.2727249967077623,-5.011832831947175,-5.113259011390808
1769250646596,121,-7,-2.2003246685861906,-5.9538482649026,-6.077271225276965
1769250646600,120,-8,-3.1489394696709043,-7.068115785799405,-7.061755132825455
1769250646604,119,-9,-4.143737448119464,-8.116449956082105,-8.090722087382257
1769250646608,118,-10,-5.177430597901086,-9.137316760420704,-9.15699857721266
1769250646612,117,-11,-6.191004668418758,-9.955588468627578,-10.203475078577
1769250646616,116,-12,-7.07235786035918,-10.996065790751397,-11.120010021156787
1769250646620,115,-13,-7.698112101085995,-11.971062919640522,-11.782870126388431
1769250646624,115,-13,-8.009035196975947,-12.190816115380118,-12.129847564422011
1769250646628,115,-13,-8.057488700429465,-12.05011956177128,-12.210101378869556
1769250646632,115,-13,-7.972941990356766,-11.99697328088934,-12.15292226570904
1769250646636,115,-13,-7.8708521002742815,-11.934977442891109,-12.078208022502494
1769250646640,115,-13,-7.792563550143567,-11.967825775299591,-12.034367424728991
1769250646644,115,-13,-7.728483137207674,-12.201306453448568,-12.015722283637604
1769250646648,115,-13,-7.670352053406021,-12.001236839953132,-12.00876672135608
1769250646652,115,-13,-7.567364255286483,-12.01893606496943,-11.948720292498876
1769250646656,115,-13,-7.11272505526477,-11.87901101515886,-11.516327001412536
1769250646660,118,-10,-5.467283009245559,-8.956111685966905,-9.874318667019438
1769250646664,123,-5,-1.2403255646619322,-4.22350915073206,-5.649934011699663
1769250646668,129,1,6.918022607609254,2.0871540007987583,2.4862597359859535
1769250646672,140,12,19.13474824915504,12.897170263052995,14.65436314173232
1769250646676,154,26,33.24898557106116,27.287434422116707,28.70344909641029
1769250646680,168,40,44.92609425349845,40.880136763462374,40.316241015263934
1769250646684,174,46,49.41230897001783,46.98178023866075,44.753616635154174
1769250646688,168,40,44.09319044593918,40.850066872199406,39.40885243876238
1769250646692,152,24,30.158473762801307,25.100617836951187,25.47073491338734
1769250646696,133,5,12.152029557765491,6.099700928804364,7.471654507507072
1769250646700,117,-11,-4.326565468055609,-9.912006742971505,-9.0080225562846
1769250646704,107,-21,-15.256338275068458,-20.04286965889119,-19.963480508439208
1769250646708,103,-25,-19.602731404578485,-24.076391067756937,-24.361719930168928
1769250646712,104,-24,-18.945359062221755,-22.865809138090363,-23.767965998471304
1769250646716,107,-21,-15.944540135900166,-20.01849608523777,-20.822454164636905
1769250646720,109,-19,-12.80013073813668,-17.760186224699744,-17.712133468839074
1769250646724,111,-17,-10.549483909777743,-16.185607559262152,-15.475239274506372
1769250646728,112,-16,-9.277467308179816,-14.862633138041817,-14.209122258233304
1769250646732,114,-14,-8.700639032072592,-13.059897605935172,-13.645507127680627
1769250646736,114,-14,-8.558367002098015,-12.828224820512736,-13.531182817659602
1769250646740,113,-15,-8.664094726079597,-13.930226180185109,-13.674902477941568
1769250646744,113,-15,-8.831847027605145,-13.965438397607691,-13.879614907608929
1769250646748,113,-15,-8.882852725698148,-14.015720658519262,-13.959501320368291
1769250646752,113,-15,-8.719655511627884,-13.893384331724532,-13.81903756951849
1769250646756,114,-14,-8.352975707027063,-12.96178456824338,-13.475470768257006
1769250646760,114,-14,-7.852170776619055,-12.803995904784616,-13.001528592235482
1769250646764,114,-14,-7.291099373976589,-13.012654373017265,-12.468724101490404
1769250646768,115,-13,-6.737006721180929,-11.957297585506224,-11.940590015578447
1769250646772,116,-12,-6.243141063874097,-10.876587766112545,-11.470124518117036
1769250646776,116,-12,-5.807876170780006,-11.025903028595362,-11.058328632805972
1769250646780,116,-12,-5.350928309633428,-10.649543220504714,-10.626417606686095
1769250646784,117,-11,-4.773365503204045,-10.180162318635368,-10.074270943594456
1769250646788,117,-11,-4.062798118820998,-9.709585101446956,-9.387869492031784
1769250646792,119,-9,-3.3248437607539483,-8.103455126685903,-8.672974261954982
1769250646796,119,-9,-2.6904897101742,-7.78996074307729,-8.061763490170723
1769250646800,119,-9,-2.1910146524918543,-7.838012566883414,-7.5857275878289725
1769250646804,120,-8,-1.7325311995359467,-6.979732645951317,-7.149977880414497
1769250646808,120,-8,-1.1923380569220567,-6.847202433522083,-6.631203883354659
1769250646812,121,-7,-0.5328682224132248,-5.9531187303947615,-5.992594213667517
1769250646816,122,-6,0.1762677002756445,-4.897571749500228,-5.304954490666697
1769250646820,122,-6,0.834215138373406,-4.70475280873425,-4.669241390701705
1769250646824,123,-5,1.3962023004044877,-4.098474468612169,-4.1290574437800895
1769250646828,123,-5,1.8926579735627311,-3.6471344614690673,-3.652909864966716
1769250646832,124,-4,2.381546467787029,-3.1929305503469654,-3.183058030773163
1769250646836,124,-4,2.894549317106522,-2.542757589152502,-2.6889306605147745
1769250646840,125,-3,3.4244534937050597,-2.110976677340003,-2.1783991721663885
1769250646844,125,-3,3.949973998058684,-1.591294592158261,-1.6723203567744926
1769250646848,126,-2,4.463630588807893,-1.1615947447795447,-1.1773499342276006
1769250646852,126,-2,4.9777347198658,-0.6349232219563674,-0.6810124597247189
1769250646856,127,-1,5.50972953134362,-0.0600957250283741,-0.1664840512096309
1769250646860,127,-1,6.062127445730059,0.4127580513166321,0.3682447212173771
1769250646864,128,0,6.610381654092813,0.9522074074163112,0.8989437982392114
1769250646868,128,0,7.107685203664032,1.298909984214351,1.3795242388340885
1769250646872,129,1,7.5104464470888255,1.9536202852999107,1.7666354019780974
1769250646876,129,1,7.810411899682498,2.3751758953462883,2.0516829513495205
1769250646880,129,1,8.039421502536854,2.006416633259223,2.2661110891717584
1769250646884,129,1,8.22745483232547,2.4005626559937827,2.4395878989907636
1769250646888,130,2,8.344273236033562,2.8795397607063187,2.5415402194958983
1769250646892,129,1,8.27926399424829,2.39644836535658,2.4613698429039292
1769250646896,129,1,7.881129663601315,1.987134919123952,2.048426509918779
1769250646900,128,0,7.0340442062457775,1.389835290272721,1.1876301872030923
1769250646904,127,-1,5.728623951167799,0.097743289457751,-0.130147954512241
1769250646908,125,-3,4.086325664099082,-1.8523779665853444,-1.7836505318078468
1769250646912,123,-5,2.3173011495538236,-3.754052468636167,-3.5632706208383977
1769250646916,122,-6,0.6383095771772465,-4.931091653386128,-5.253042128033651
1769250646920,120,-8,-0.7957719247096682,-6.539382036010351,-6.698449503315727
1769250646924,119,-9,-1.91878710355722,-8.061266957319075,-7.8327394529448195
1769250646928,118,-10,-2.745006264027735,-8.542241529182562,-8.669449208181492
1769250646932,118,-10,-3.3358892731661713,-9.128253574812032,-9.270261466863152
1769250646936,117,-11,-3.7545502591161473,-9.470800784141838,-9.69888788334241
1769250646940,117,-11,-4.038971331758944,-9.968991660255329,-9.992891729709768
1769250646944,116,-12,-4.213749212856446,-10.642119978862445,-10.175757902014048
1769250646948,117,-11,-4.309100567669717,-9.853882969237851,-10.277641424309294
1769250646952,117,-11,-4.34212969520696,-9.87919268650515,-10.316925491673198
1769250646956,116,-12,-4.278257064911714,-10.592631191261724,-10.259970148885168
1769250646960,117,-11,-4.039153956677047,-9.89025080521423,-10.028068035140327
1769250646964,117,-11,-3.5721245960327868,-9.626703071553113,-9.56774066757296
1769250646968,118,-10,-2.9125186969596397,-8.895255029873319,-8.914106661577033
1769250646972,119,-9,-2.1713743076615692,-7.7540549125758735,-8.178251492816464
1769250646976,119,-9,-1.4583134032822975,-7.714225465740692,-7.469685256566705
1769250646980,120,-8,-0.8079788832681477,-6.722209160633999,-6.823087313688075
1769250646984,121,-7,-0.1676179285160704,-5.763614637601615,-6.186061717362487
1769250646988,121,-7,0.5452525051272363,-5.750574244095477,-5.476243169136835
1769250646992,122,-6,1.354712969698264,-4.834778768631772,-4.66930616461056
1769250646996,123,-5,2.1786087847010926,-3.6070334126374743,-3.847545095929868
1769250647000,124,-4,2.869735563848897,-2.804313672683053,-3.1586899707787404
1769250647004,124,-4,3.309689312339541,-2.6311568893868085,-2.7209351158968955
1769250647008,124,-4,3.460921189739007,-2.884155632118166,-2.5707982867509185
1769250647012,124,-4,3.3367429537352766,-2.646618866091762,-2.694701153947332
1769250647016,124,-4,2.9474648200362363,-2.7594646997688814,-3.08346158023822
1769250647020,123,-5,2.2914694300956104,-3.6383562906867866,-3.7394869259126704
1769250647024,122,-6,1.3859248846728238,-4.716807386671739,-4.644613305394393
1769250647028,121,-7,0.2898087492084469,-5.839522893683662,-5.738405764141209
1769250647032,120,-8,-0.89877694996724,-6.586337022920258,-6.923063568823806
1769250647036,119,-9,-2.0621692504532043,-7.851048339530296,-8.082828615551017
1769250647040,117,-11,-3.1018586622308137,-9.44407991560286,-9.120495164251132
1769250647044,117,-11,-3.99341284134978,-9.924061473054737,-10.010956446492878
1769250647048,116,-12,-4.815393491101397,-10.583530048663372,-10.830742797520664
1769250647052,115,-13,-5.704244834130721,-11.815560951177387,-11.714613321593038
1769250647056,114,-14,-6.745959773413329,-12.599563559420533,-12.7488857623557
1769250647060,113,-15,-7.87843513013928,-13.609605139809537,-13.874008867062908
1769250647064,112,-16,-8.886957879105914,-14.804947683139456,-14.877678895183076
1769250647068,111,-17,-9.522098932754664,-15.586045047600294,-15.509475651997246
1769250647072,111,-17,-9.6755000054842,-15.875630432968816,-15.65657414031194
1769250647076,111,-17,-9.475876472293944,-15.409633532993253,-15.44439098137637
1769250647080,112,-16,-9.203309369234232,-14.815019167920724,-15.156080033465086
1769250647084,112,-16,-9.074142526350537,-14.550498368717337,-15.016752939031136
1769250647088,112,-16,-9.087183975107544,-14.803227141996318,-15.03167576465578
1769250647092,111,-17,-9.073305297445138,-15.68351212682159,-15.027430773149128
1769250647096,111,-17,-8.85244602566302,-15.489351019592826,-14.809460558894568
1769250647100,113,-15,-8.220630800533504,-13.7696443489205,-14.16023866537306
1769250647104,115,-13,-6.645523721267312,-11.480733971334688,-12.547362818616012
1769250647108,119,-9,-2.98764819289836,-7.896635689278471,-8.847048643011242
1769250647112,125,-3,4.180729185589268,-1.533037721991552,-1.6521141659679823
1769250647116,135,7,15.448654610213843,8.399692038944453,9.6162242271723
1769250647120,148,20,29.25499474669567,21.354268452431416,23.403364441256286
1769250647124,162,34,41.581648460690765,35.5040157474963,35.7081310511959
1769250647128,171,43,47.41760310215084,44.06856635285598,41.53580936043682
1769250647132,166,38,43.42898385927187,39.5727998209655,37.56206275014696
1769250647136,151,23,30.096922754595965,24.18027454802598,24.26907455740929
1769250647140,131,3,11.735204026729058,4.630350895241116,5.961341444150967
1769250647144,114,-14,-5.7079491290255255,-12.77956911927134,-11.43170782964209
1769250647148,103,-25,-17.587454435813015,-23.48656714126361,-23.284159431837445
1769250647152,99,-29,-22.397066735547828,-27.743507724408047,-28.09606085058391
1769250647156,100,-28,-21.63308232338889,-26.469964502293127,-27.35174671418885
1769250647160,104,-24,-18.196168660610702,-22.691120234787096,-23.92961824354894
1769250647164,106,-22,-14.608060575979128,-20.543636263493937,-20.333517546625338
1769250647168,108,-20,-12.092995758978802,-18.64018406285163,-17.78497225646226
1769250647172,110,-18,-10.719736103649288,-16.560003043542935,-16.365760183904385
1769250647176,111,-17,-10.06029149846149,-15.596823153718828,-15.66688040313504
1769250647180,112,-16,-9.71359826027046,-14.570467693904105,-15.298572748717795
1769250647184,112,-16,-9.45711435628831,-14.64631860320147,-15.034527224996095
1769250647188,111,-17,-9.195198849241027,-15.509008870769566,-14.765404338383686
1769250647192,112,-16,-8.912592785133977,-14.595136512811594,-14.465272800469752
1769250647196,113,-15,-8.647240461067657,-13.546389010109518,-14.17270067733248
1769250647200,113,-15,-8.416435598587434,-13.585933750310526,-13.91318699226767
1769250647204,113,-15,-8.143258010015781,-13.640498063805758,-13.61581064860345
1769250647208,113,-15,-7.697584370321438,-13.452492024996657,-13.149526715674645
1769250647212,114,-14,-7.040353270411837,-12.62276313595873,-12.470972430386672
1769250647216,115,-13,-6.3085185102820605,-11.438354164845096,-11.714993300266425
1769250647220,116,-12,-5.719623749106695,-10.708740649542056,-11.10046964337858
1769250647224,116,-12,-5.373595742581519,-10.476002344757546,-10.729190067438346
1769250647228,116,-12,-5.153402469867169,-10.600593413552906,-10.48394631848504
1769250647232,116,-12,-4.831812285601883,-10.424735699603898,-10.136026861752134
1769250647236,117,-11,-4.2796947561552745,-9.578858559243464,-9.55604756301518
1769250647240,118,-10,-3.569450807423025,-8.555449960811618,-8.818131968472443
1769250647244,119,-9,-2.8819955035757805,-7.594497952920326,-8.104696739939683
1769250647248,119,-9,-2.329823398392791,-7.453747290882925,-7.5272168097440435
1769250647252,119,-9,-1.8794086833843768,-7.538314333766875,-7.049551044609562
1769250647256,120,-8,-1.426001821233708,-6.411986826534869,-6.56596173307138
1769250647260,121,-7,-0.9086422206877214,-5.705347524369181,-6.017348765913042
1769250647264,121,-7,-0.3425190422709461,-5.411763885224169,-5.421237249310566
1769250647268,122,-6,0.2324764857992405,-4.589803645918133,-4.817694045774438
1769250647272,122,-6,0.804653079712955,-4.382723353450767,-4.216748970967307
1769250647276,123,-5,1.3935761695905824,-3.519180566831388,-3.5975177598098713
1769250647280,124,-4,2.020135965755664,-2.5707821173999825,-2.9391774508363264
1769250647284,124,-4,2.6814193297867384,-2.5230766018812214,-2.245420785499153
1769250647288,125,-3,3.3479758871311063,-1.4216601814421694,-1.5464152741131256
1769250647292,126,-2,3.981260929592211,-0.5366070518138115,-0.8811338999461509
1769250647296,126,-2,4.555790496188307,-0.3174380693776504,-0.274920200684786
1769250647300,127,-1,5.063708635309894,0.252938462214594,0.2651576166989517
1769250647304,127,-1,5.499680119607253,0.6837801354921846,0.7344683313479379
1769250647308,128,0,5.855361275559134,1.418224089435601,1.124584249598023
1769250647312,128,0,6.142350544656075,1.637049156854239,1.446573686506516
1769250647316,128,0,6.416267804030502,1.5857183663806658,1.7557474812177931
1769250647320,129,1,6.761392425248611,2.314561569017799,2.1362427507799295
1769250647324,129,1,7.236031575348357,2.745597540238765,2.646143667524457
1769250647328,130,2,7.818002675196441,3.279611873238477,3.26326844953115
1769250647332,130,2,8.388762891601159,3.93940702896816,3.8694775982958154
1769250647336,131,3,8.77149034554106,4.204026724063863,4.288218251862085
1769250647340,131,3,8.809487898630461,4.804835833467723,4.3626619015992585
1769250647344,131,3,8.437561494749573,4.252304521300834,4.027737379937516
1769250647348,129,1,7.691323272778584,2.7874866724411396,3.319629311527553
1769250647352,129,1,6.652695257336484,2.537449391349267,2.320160489206475
1769250647356,128,0,5.395666732705783,1.5427925493458914,1.102033003933145
1769250647360,126,-2,3.982807497398042,-0.3931324405831877,-0.2731298593857671
1769250647364,125,-3,2.4887186612780647,-1.6198501666437652,-1.7298771157133062
1769250647368,123,-5,1.0030274126865448,-3.20972053296508,-3.176886523699056
1769250647372,122,-6,-0.3862813450442464,-4.516644462103416,-4.525685301744329
1769250647376,121,-7,-1.598375172038497,-5.293276993964426,-5.696520658489467
1769250647380,120,-8,-2.5542867590257483,-6.5733295612151075,-6.611566335264188
1769250647384,119,-9,-3.193083140962882,-7.379198572921569,-7.210035065571633
1769250647388,119,-9,-3.514979753224781,-7.416006406089899,-7.491857021313181
1769250647392,119,-9,-3.60638737615556,-7.307525558122553,-7.543411407956672
1769250647396,119,-9,-3.6057306133489697,-7.411221377177492,-7.502835439375374
1769250647400,119,-9,-3.627072347515581,-7.484548918121299,-7.483110703417717
1769250647404,119,-9,-3.695706848891904,-7.364751775128427,-7.508554466861672
1769250647408,119,-9,-3.732152539355014,-7.478907553975201,-7.500230325915239
1769250647412,119,-9,-3.587693713583658,-7.137893401728447,-7.311378392769644
1769250647416,120,-8,-3.118583249098495,-6.6023071760582015,-6.799778703623291
1769250647420,120,-8,-2.2737287856516573,-6.20058614251572,-5.913926260103441
1769250647424,122,-6,-1.147974655845593,-4.659358171292462,-4.746825187220215
1769250647428,123,-5,0.0505489282056258,-3.1290548870510095,-3.5051297616421007
1769250647432,124,-4,1.117376396228515,-2.4638817114205276,-2.393328220379747
1769250647436,125,-3,1.9725197151184488,-1.2476423644007832,-1.492587914529795
1769250647440,126,-2,2.6847383232042725,-0.4825256522502275,-0.7352563111391144
1769250647444,126,-2,3.3709838385501527,-0.4120538604810519,-0.0045189982883477
1769250647448,127,-1,4.051285030291371,0.7254291128201107,0.7201697942145966
1769250647452,128,0,4.589963217343966,1.6562548368425594,1.3034332617302098
1769250647456,128,0,4.784827181690612,1.716625884627622,1.5431178465475472
1769250647460,128,0,4.525958177915799,1.581145191518714,1.3295990305437588
1769250647464,127,-1,3.878454914608149,0.5231411516389759,0.7282918227764834
1769250647468,126,-2,3.023034381541565,-0.139747272742674,-0.0804423808643333
1769250647472,126,-2,2.12176969293965,-0.5006328742550028,-0.9352056501192016
1769250647476,124,-4,1.2259310709266225,-2.001897357959346,-1.784666002173101
1769250647480,124,-4,0.2877156449748954,-2.7398408010244797,-2.676019502340088
1769250647484,123,-5,-0.7466448256346792,-3.0518561880724606,-3.663152693034948
1769250647488,122,-6,-1.843932674095493,-4.618902721856337,-4.713696491367939
1769250647492,120,-8,-2.880874458671875,-5.928984839061875,-5.704498979852226
1769250647496,120,-8,-3.7471586073423175,-6.543720858048516,-6.524147880835163
1769250647500,119,-9,-4.456149249665224,-7.173738362523289,-7.185000485362936
1769250647504,119,-9,-5.138723745123639,-7.5504287397653504,-7.818293029918859
1769250647508,118,-10,-5.910653450256031,-8.154431787837993,-8.541228758751158
1769250647512,117,-11,-6.741835126883175,-9.29162826689954,-9.324891474839855
1769250647516,116,-12,-7.462878786804866,-10.19992264180239,-9.999823185824551
1769250647520,116,-12,-7.908530362506628,-10.424929411213451,-10.399244688911011
1769250647524,116,-12,-8.06026401794254,-10.322427454871717,-10.502144718777018
1769250647528,116,-12,-8.05436803951552,-10.301783813406312,-10.442971256090033
1769250647532,116,-12,-8.055626184912285,-10.153520827299602,-10.38805503054378
1769250647536,116,-12,-8.12026712054939,-10.24276627474804,-10.399891602133907
1769250647540,116,-12,-8.172839796746786,-10.419469123789636,-10.410244953017726
1769250647544,116,-12,-8.10640334560568,-10.225426157725762,-10.312275493340447
1769250647548,116,-12,-7.8765244314467795,-10.445785422616694,-10.050038611174974
1769250647552,116,-12,-7.411010183681595,-9.888452312053705,-9.535095510777772
1769250647556,119,-9,-6.287791387524196,-7.530746810143099,-8.339316085309132
1769250647560,122,-6,-3.4301282466028225,-4.04934701778655,-5.398473472416743
1769250647564,128,0,2.693134006286872,1.4081421057270895,0.7959664356025287
1769250647568,136,8,13.06388745012874,9.972462093459631,11.21118457817524
1769250647572,149,21,26.727781945097856,22.73912096132158,24.89613590680276
1769250647576,164,36,40.150784176184736,37.87733105814543,38.33282216373862
1769250647580,175,47,48.291588635918224,48.58632846871016,46.497125133232885
1769250647584,174,46,47.14353729608241,47.774285009788045,45.39390786837525
1769250647588,161,33,36.16052111915456,34.57430976347806,34.4805586539434
1769250647592,142,14,18.82032910791903,16.12050902960857,17.227681302977352
1769250647596,125,-3,0.8680328760084652,-1.4974533222384612,-0.6374589998427669
1769250647600,111,-17,-12.576199230602915,-14.903606234797277,-14.014527119414987
1769250647604,106,-22,-19.20445115478695,-20.598546234905587,-20.60446046574423
1769250647608,106,-22,-19.853343319640963,-19.974869802892613,-21.235609597387207
1769250647612,109,-19,-17.171379589797183,-17.32550520924911,-18.53677766228047
1769250647616,111,-17,-13.792362071631674,-15.121789115753604,-15.123160840525816
1769250647620,113,-15,-11.2033649904837,-13.200235846472903,-12.475331448189646
1769250647624,115,-13,-9.705577561053268,-11.303344901400326,-10.903172936665614
1769250647628,116,-12,-9.013822782982126,-10.149971372327917,-10.138609574262002
1769250647632,117,-11,-8.793408627145627,-9.213501920326683,-9.86020686662728
1769250647636,117,-11,-8.81151919885288,-9.176050119365742,-9.835798092465597
1769250647640,116,-12,-8.86505799293598,-10.150170768398832,-9.851848258601503
1769250647644,116,-12,-8.768129212353768,-10.246346727448996,-9.711148827244706
1769250647648,117,-11,-8.449008518644609,-9.179539681316022,-9.33916778806
1769250647652,118,-10,-7.994495222425214,-8.154313891778848,-8.828380026828606
1769250647656,118,-10,-7.547071033572467,-8.236327666813754,-8.327637143470243
1769250647660,118,-10,-7.161883942615603,-8.047854090931894,-7.893036037176618
1769250647664,119,-9,-6.77666512269756,-7.285303079143317,-7.458975182883422
1769250647668,119,-9,-6.3046581724785975,-7.111820733982095,-6.936027613010335
1769250647672,120,-8,-5.73176754760852,-6.179609442226312,-6.310723201951717
1769250647676,121,-7,-5.119861332093246,-5.223299738065364,-5.647321424696616
1769250647680,121,-7,-4.53350621948425,-4.9894741219405585,-5.011439394871642
1769250647684,122,-6,-3.984082146442907,-4.323849706464113,-4.413014707901716
1769250647688,122,-6,-3.4491667388610403,-3.9969358398668495,-3.8276242446440794
1769250647692,123,-5,-2.926372337298294,-3.309587512332416,-3.2529002301671466
1769250647696,124,-4,-2.441869303685549,-2.053945349701835,-2.716918721845704
1769250647700,124,-4,-2.003876382530043,-2.1114573514116746,-2.2289948570997637
1769250647704,124,-4,-1.5731921422385051,-2.1831893405387652,-1.7488229477333803
1769250647708,125,-3,-1.0975962861255215,-1.0376160926685996,-1.2227755334869987
1769250647712,126,-2,-0.5632320490354836,-0.3329732874049464,-0.6373893093730105
1769250647716,126,-2,0.0030027319811101,0.0701092528384048,-0.0208755708336334
1769250647720,127,-1,0.570178790288403,0.7552888991653799,0.5957397674518699
1769250647724,127,-1,1.122947602050969,1.03125171620946,1.1981610988750226
1769250647728,128,0,1.6507317583186438,1.772702199468653,1.7761254965466966
1769250647732,129,1,2.1424167670560825,2.859317896194706,2.3176792533091315
1769250647736,129,1,2.600750818852609,2.9323226852040603,2.825328451998253
1769250647740,129,1,3.04506047565571,2.910692286661651,3.319484096450645
1769250647744,130,2,3.4880713052115384,3.9499426762773178,3.813361182047661
1769250647748,131,3,3.923679547425844,4.867645240498514,4.299353689236898
1769250647752,131,3,4.3472748177937115,4.78123309971071,4.77121849319525
1769250647756,131,3,4.767969316336358,5.064712813200589,5.238807516653401
1769250647760,132,4,5.179892458281832,5.787764600013103,5.69871157417336
1769250647764,132,4,5.536243977565738,6.152570812832219,6.105369332661345
1769250647768,133,5,5.7873471871308295,6.666682979922478,6.407705505544042
1769250647772,133,5,5.95996612768295,7.022814544883751,6.630123358634798
1769250647776,133,5,6.1783397020111845,6.856578215790188,6.896154793427734
1769250647780,133,5,6.567943995780274,7.011672097835099,7.332725934022143
1769250647784,134,6,7.113999145138305,8.011857980525093,7.9266645034396035
1769250647788,135,7,7.621504141928585,8.794649462591744,8.482882391319169
1769250647792,135,7,7.838443838196424,8.967620953963264,8.748079706955671
1769250647796,135,7,7.637397130616999,8.912717604411574,8.594271916614582
1769250647800,134,6,7.085431105937003,7.995006167162682,8.089476320256928
1769250647804,133,5,6.342355135319025,7.0756757162927,7.394623391662904
1769250647808,133,5,5.499139588122853,6.743325565543778,6.600209562320908
1769250647812,132,4,4.521973801929603,6.085359700471043,5.67065778913728
1769250647816,131,3,3.3463525931532563,4.805050747542079,4.540690070645768
1769250647820,129,1,2.00558409888617,3.1486349420027464,3.245112989946283
1769250647824,128,0,0.656368994933203,1.9549215453542388,1.9427787316032863
1769250647828,127,-1,-0.5125277276021845,0.8744306978732764,0.8226708246536619
1769250647832,126,-2,-1.3886063335527723,0.0345192082750606,-0.0048446365888783
1769250647836,126,-2,-1.9697429083186664,-0.1525941657870273,-0.5399248990777121
1769250647840,125,-3,-2.3239356664480253,-0.8031708740264021,-0.850616137283261
1769250647844,125,-3,-2.53576780908136,-1.1247675447673389,-1.019276126029456
1769250647848,125,-3,-2.6787611828792026,-0.966510584993702,-1.1171857705157715
1769250647852,125,-3,-2.798204768927097,-1.123173538767635,-1.1894524189256883
1769250647856,125,-3,-2.8821767453130924,-0.9348885592796023,-1.2258554661585304
1769250647860,125,-3,-2.8427674015323907,-0.9789682240875264,-1.14022183975008
1769250647864,125,-3,-2.5514872867037557,-0.9536749141213956,-0.8044834517427819
1769250647868,126,-2,-1.9275080904135629,-0.065875299627248,-0.1371190130827724
1769250647872,127,-1,-1.012577278641611,0.968206717623462,0.8210503942176612
1769250647876,128,0,0.0366787127996042,2.063403008040623,1.9140399414000144
1769250647880,129,1,1.0397672535133036,3.027683449520702,2.9615014731641267
1769250647884,130,2,1.8968698065713656,4.077613958184951,3.8631849942433982
1769250647888,131,3,2.625832160267586,4.918710024002959,4.636309753097968
1769250647892,131,3,3.301852346969584,5.025400729597568,5.355811763657563
1769250647896,132,4,3.950279933167354,6.045360722105623,6.047116352487305
1769250647900,133,5,4.4907006222359485,7.105304849023617,6.629919753643587
1769250647904,133,5,4.787421323957548,6.986786135817862,6.968823354614976
1769250647908,133,5,4.758017646908547,7.082330796368894,6.9819272540008965
1769250647912,133,5,4.439158681949406,6.847255166495268,6.706004322521589
1769250647916,132,4,3.956741808993128,6.306630935857194,6.266279155462228
1769250647920,132,4,3.430623296929063,5.861074544108176,5.781934772783438
1769250647924,131,3,2.8890619818758063,5.259312740531988,5.281410017696806
1769250647928,131,3,2.2575466672096356,4.861136790005302,4.690863362567251
1769250647932,130,2,1.4335905493794787,4.056626146927568,3.907954818770712
1769250647936,129,1,0.3907938112783058,3.203708419541787,2.9058280435986688
1769250647940,128,0,-0.7780390251471214,1.9281459236698737,1.777208024934081
1769250647944,126,-2,-1.924093928368431,0.2898038297229167,0.6715852046909385
1769250647948,126,-2,-2.9563776017267527,-0.2031125059936498,-0.3196472808066115
