timestamp_ms,ecg_u8_raw,ecg_counts_raw_int,ecg_counts_filt_monitor,ecg_counts_filt_diagnostic,ecg_counts_filt_st
1769245490672,136,8,7.2015603100211845,7.533031390050421,7.436825973723447
1769245490676,135,7,7.113163418856898,6.797194600921595,7.3519667188849
1769245490680,136,8,7.022436187197135,7.533459756064892,7.266207922013228
1769245490684,136,8,6.91327702034567,7.754578067027089,7.1617383266504735
1769245490688,135,7,6.774121474570675,6.7935038957331075,7.025913157381618
1769245490692,135,7,6.605062618702639,6.669513097476169,6.859595128273243
1769245490696,135,7,6.382767038124178,6.747640453491838,6.6404615567528325
1769245490700,135,7,6.033625381351376,6.555111697019133,6.294671641459959
1769245490704,134,6,5.461485555152446,5.842423294463541,5.725495888803582
1769245490708,133,5,4.603813217243905,4.679697070950129,4.87075060326327
1769245490712,132,4,3.4634111771167992,3.896933784314928,3.733978539625983
1769245490716,131,3,2.1031418731093403,2.5096589883321645,2.3779611241915735
1769245490720,129,1,0.6230979642390562,0.8555980976897981,0.9019637630260092
1769245490724,128,0,-0.8674707618721578,-0.4193274055031311,-0.5852807538809994
1769245490728,126,-2,-2.280526204110773,-2.0253322858828797,-1.9954593663454236
1769245490732,125,-3,-3.570264145290954,-3.321140727568829,-3.2822774885123764
1769245490736,124,-4,-4.727517464941148,-4.269415390220759,-4.436535525430793
1769245490740,123,-5,-5.747892350305321,-5.286239120895051,-5.454034549818665
1769245490744,122,-6,-6.602640289145777,-6.278931831733493,-6.305744472989108
1769245490748,121,-7,-7.243564667651494,-7.07654863801799,-6.942881309998447
1769245490752,121,-7,-7.636021149127514,-7.25964508545785,-7.330969068156739
1769245490756,121,-7,-7.782053024221064,-7.265073240195313,-7.4732108605746355
1769245490760,121,-7,-7.71493999123449,-7.262756845773387,-7.40368874726087
1769245490764,121,-7,-7.48795165543655,-7.261406074506899,-7.174960612322066
1769245490768,121,-7,-7.1780029210310135,-7.034849795410833,-6.862537004538675
1769245490772,122,-6,-6.883122669372488,-6.282893294999128,-6.564079834042635
1769245490776,122,-6,-6.684737241554541,-6.168073663685915,-6.361927703219251
1769245490780,122,-6,-6.595614323822544,-6.353975240891358,-6.2696408688149745
1769245490784,122,-6,-6.55018746227048,-6.092620738404867,-6.221354276697639
1769245490788,122,-6,-6.4575998982121625,-6.1920925081631175,-6.125463249645023
1769245490792,122,-6,-6.271021595318787,-6.059388854521986,-5.935184155406851
1769245490796,123,-5,-6.009198322916194,-5.357112381151108,-5.670229034188783
1769245490800,123,-5,-5.718206735748267,-5.115411834179422,-5.3772226293788385
1769245490804,123,-5,-5.425809287572168,-5.290363947412305,-5.083028140830963
1769245490808,123,-5,-5.140115100812703,-4.9568170056355445,-4.794410102742706
1769245490812,124,-4,-4.878250080612443,-4.247556496581835,-4.528523151993111
1769245490816,124,-4,-4.672793913972668,-4.132252554779929,-4.319332510600401
1769245490820,124,-4,-4.545974378092579,-4.273712763289479,-4.190025258041016
1769245490824,124,-4,-4.491835588082342,-4.115095075393862,-4.134161811301624
1769245490828,124,-4,-4.489974563237286,-4.066907046395427,-4.1301859682550734
1769245490832,124,-4,-4.526989910543895,-4.1287031584583636,-4.164093874420052
1769245490836,124,-4,-4.5937707277002655,-4.165962416966507,-4.227168735870581
1769245490840,124,-4,-4.6596022702921935,-4.220041416884614,-4.289665225604432
1769245490844,124,-4,-4.654680746407518,-4.104056336187943,-4.282347201494607
1769245490848,124,-4,-4.492867777430503,-4.060403953397021,-4.11850123836845
1769245490852,124,-4,-4.131347132257417,-4.0783205869757975,-3.754225417214446
1769245490856,125,-3,-3.615622008406393,-3.1798738270781985,-3.235046943220548
1769245490860,126,-2,-3.054198901268807,-2.1329479647381735,-2.6708789710952603
1769245490864,126,-2,-2.537410109062102,-2.1788428559358435,-2.152891649290927
1769245490868,126,-2,-2.0846568694145287,-1.9163274472554988,-1.6992268687537142
1769245490872,127,-1,-1.6721099698196404,-1.2201871412134482,-1.2840269637563488
1769245490876,127,-1,-1.2918218406909463,-0.9564021441057232,-0.8991305265299165
1769245490880,128,0,-0.960130244487872,-0.329670698839964,-0.5629304152469656
1769245490884,128,0,-0.6714252834239987,0.0916905411855943,-0.2718190661483937
1769245490888,128,0,-0.3765742253241402,-0.1754979987360438,0.0236952714500824
1769245490892,128,0,-0.0415431002627437,0.0884902252269084,0.3598180719918757
1769245490896,129,1,0.2675591667135522,0.7769636204995529,0.6716723963733191
1769245490900,129,1,0.3841511432555919,0.9925798947035372,0.7915294664454122
1769245490904,129,1,0.1550735292504568,0.8287987327727468,0.564429128903535
1769245490908,128,0,-0.4348408680366571,0.1130074571216162,-0.0246338860118742
1769245490912,127,-1,-1.2535513335235828,-1.1675838431348011,-0.8414912049042891
1769245490916,126,-2,-2.1322415442015177,-1.9272115617200063,-1.7160654275283584
1769245490920,126,-2,-2.973264866544503,-2.2305350772675405,-2.5523330695187085
1769245490924,125,-3,-3.752491215064407,-2.909776053524177,-3.32892303328689
1769245490928,124,-4,-4.451696971452131,-4.072584199608546,-4.028081334418149
1769245490932,123,-5,-5.034006695315082,-5.010428359782795,-4.610616025917962
1769245490936,123,-5,-5.493277124852978,-4.981603646722898,-5.0682521708077255
1769245490940,123,-5,-5.891279079473246,-5.184180261642812,-5.463052156397823
1769245490944,122,-6,-6.310422677919794,-5.823464148083114,-5.87900948015898
1769245490948,122,-6,-6.766134881436573,-6.174542695390521,-6.332170021111529
1769245490952,121,-7,-7.180026905120317,-6.847773022230637,-6.743571541693148
1769245490956,121,-7,-7.447887907472,-7.1378570172024824,-7.008842282334004
1769245490960,121,-7,-7.53539777299339,-6.950459461190643,-7.094767151648057
1769245490964,121,-7,-7.509704945613259,-6.986028122110648,-7.069560079687813
1769245490968,121,-7,-7.480547944052244,-6.978702688490627,-7.041913262153392
1769245490972,121,-7,-7.5055309198467075,-7.010298905657693,-7.065998876456215
1769245490976,121,-7,-7.538522386965366,-6.963832473965181,-7.092444230928416
1769245490980,121,-7,-7.462903715063989,-7.046061448331994,-7.005497784425789
1769245490984,121,-7,-7.191283867777957,-6.826947159410346,-6.724606820207139
1769245490988,122,-6,-6.767807486353403,-6.089363516947358,-6.303136146296282
1769245490992,122,-6,-6.4005914613282355,-5.8766320817667,-5.9521582829657635
1769245490996,122,-6,-6.374521484404692,-6.077439702175597,-5.946625808778868
1769245491000,121,-7,-6.8218338162723375,-6.858142549690947,-6.400432138664052
1769245491004,121,-7,-7.3758826059765745,-6.961854978819454,-6.935519271519141
1769245491008,123,-5,-6.873181639721139,-4.898551194633677,-6.396441829365702
1769245491012,126,-2,-3.4642054629481684,-2.0339893336663786,-2.956800655981258
1769245491016,132,4,4.53496506145075,4.1056961085614745,5.047616633050599
1769245491020,144,16,17.234890822592856,16.059981304454354,17.725829493507728
1769245491024,159,31,32.135853461815316,31.16283409406204,32.592942814853224
1769245491028,174,46,44.56430762828291,46.04163375278014,44.993717775202136
1769245491032,181,53,49.79308109363852,53.052812015254744,50.212928711960814
1769245491036,175,47,45.65490380242621,46.96805942368253,46.08710209028696
1769245491040,161,33,33.83203087060145,33.23727921545634,34.29437789787385
1769245491044,146,18,18.872973796157236,17.958180726455772,19.37045533481336
1769245491048,133,5,5.66020922097395,5.372964295318644,6.18018183172048
1769245491052,126,-2,-2.919679630187579,-2.159030959929522,-2.401410062329666
1769245491056,122,-6,-6.731598755706031,-5.708517332494202,-6.235864751769336
1769245491060,122,-6,-7.475796419292333,-6.0360037159493025,-7.007822655775863
1769245491064,122,-6,-7.088010666963466,-5.81155663896188,-6.636518907469503
1769245491068,121,-7,-6.641413454375414,-6.795219484869434,-6.187506982727134
1769245491072,121,-7,-6.286179465075879,-6.985219243691272,-5.814948557753903
1769245491076,122,-6,-5.866403765499257,-5.725646488816098,-5.37506502741846
1769245491080,124,-4,-5.4335158880447825,-4.067480621197847,-4.931806779390001
1769245491084,124,-4,-5.216036084834231,-3.682157102279158,-4.717880356361018
1769245491088,123,-5,-5.2764476961901545,-4.959428344024722,-4.788698455578038
1769245491092,122,-6,-5.367793873228071,-5.714152104706444,-4.886002433928859
1769245491096,123,-5,-5.16988928757449,-4.950588094454392,-4.684916915447674
1769245491100,124,-4,-4.611470807182477,-3.79300790642244,-4.119385253708363
1769245491104,125,-3,-3.920641224160142,-2.9150990969299713,-3.4253308394912114
1769245491108,125,-3,-3.385682602050425,-2.684432407937183,-2.8926806481646103
1769245491112,125,-3,-3.1036232104706785,-2.9482901629030884,-2.6134129331915132
1769245491116,125,-3,-2.944869248101236,-2.650112451207967,-2.453173741963294
1769245491120,126,-2,-2.7047532078181593,-2.069478074482824,-2.2082813356954727
1769245491124,126,-2,-2.2613128378055687,-1.5760750915272297,-1.7615082013092618
1769245491128,127,-1,-1.625083677229736,-0.9727769253581936,-1.1258735805341444
1769245491132,127,-1,-0.9023757662056424,-0.6254049589592328,-0.4054659616350802
1769245491136,128,0,-0.2339968804210845,0.1067069144397809,0.2624344018562992
1769245491140,129,1,0.2704354918653475,1.156816571178363,0.768783336154919
1769245491144,129,1,0.5941942455998971,1.3245944848736315,1.094606571658633
1769245491148,129,1,0.8263627190844627,1.088675426469242,1.3273837001517048
1769245491152,129,1,1.0911661106932202,1.456941125861384,1.5921805381918008
1769245491156,130,2,1.445473293274394,1.9788238047616495,1.9474269966649336
1769245491160,130,2,1.8494988042802667,2.3932362765603954,2.35327823409401
1769245491164,131,3,2.245614444926737,3.1128248998108026,2.7505750422594915
1769245491168,131,3,2.6559406951310147,3.3527779194361544,3.1606411229751252
1769245491172,131,3,3.177750491683506,3.269574227670624,3.6818777963854066
1769245491176,132,4,3.8667504808694417,4.144122585340552,4.371478225649414
1769245491180,133,5,4.636571874815851,5.349558394392174,5.142734677539626
1769245491184,134,6,5.300664144884869,6.136436653289456,5.807404589175787
1769245491188,134,6,5.726502571020369,6.462449534848481,6.2325257859179235
1769245491192,134,6,5.943647000072881,6.144401120906853,6.449361349948985
1769245491196,134,6,6.101720748709696,6.322327498392547,6.609075256312029
1769245491200,135,7,6.338108094403641,7.22239070691425,6.8481958480911675
1769245491204,135,7,6.688908446690427,7.302592032031248,7.200536544990141
1769245491208,135,7,7.098430606958092,7.406222695501578,7.609341085249836
1769245491212,136,8,7.479356667159376,8.195266593653516,7.988378114710763
1769245491216,136,8,7.759510184099338,8.329083944291545,8.267429628121198
1769245491220,136,8,7.895327455192372,8.235505053177311,8.404069737300182
1769245491224,136,8,7.869385473153602,8.369543793143494,8.380318575305154
1769245491228,136,8,7.695720760015088,8.413443119075879,8.208468988620677
1769245491232,136,8,7.430639815148891,8.199216020703346,7.94368161695064
1769245491236,135,7,7.156348252638089,7.395348503553192,7.668824243088739
1769245491240,135,7,6.925531720822959,7.151174066751982,7.437922749487127
1769245491244,135,7,6.717036456699889,7.593259063632943,7.229911934786105
1769245491248,135,7,6.459923070593852,7.193176112903155,6.972940551427157
1769245491252,134,6,6.1033128900771665,6.512977111908919,6.61613270437384
1769245491256,134,6,5.650900715062832,6.0726474669900306,6.164343734920079
1769245491260,133,5,5.128243983223156,5.521723209423145,5.643444199973884
1769245491264,133,5,4.534426539610296,5.295988752873526,5.05095963502322
1769245491268,132,4,3.832652391487203,4.555631911109086,4.348513879104222
1769245491272,131,3,2.971582425786112,3.2044049714368996,3.485426359843049
1769245491276,130,2,1.9032749424540016,2.3931329594472865,2.416114393563433
1769245491280,129,1,0.6000470358022807,1.2404851504420504,1.114246361261546
1769245491284,127,-1,-0.9074826933876564,-0.3557937246378317,-0.3906751777305728
1769245491288,126,-2,-2.4911562749218454,-1.7134387279646202,-1.9726666018484948
1769245491292,124,-4,-3.945747102132646,-3.4741730570234335,-3.4273438714625555
1769245491296,123,-5,-5.092289060279368,-4.92902132114037,-4.574703030958706
1769245491300,122,-6,-5.893362354351123,-5.373452735798054,-5.376093686656462
1769245491304,122,-6,-6.467905626089503,-5.699850004698657,-5.950532437841623
1769245491308,121,-7,-6.974832383052595,-6.258148032419997,-6.45765715828922
1769245491312,121,-7,-7.467828765526255,-6.902904911832889,-6.9508995240141545
1769245491316,120,-8,-7.858320305352184,-7.48965753733044,-7.340473990033059
1769245491320,120,-8,-8.013841069039362,-7.762559994925676,-7.493654771975619
1769245491324,120,-8,-7.884835186966779,-7.276463977466611,-7.362661689390806
1769245491328,121,-7,-7.540485657714561,-6.529320369018025,-7.018683584846094
1769245491332,121,-7,-7.106707441443365,-6.662437594972002,-6.58715442007565
1769245491336,121,-7,-6.693386637551202,-6.634263252429976,-6.175284377767019
1769245491340,122,-6,-6.366865334827682,-5.682213117277227,-5.847795069201804
1769245491344,122,-6,-6.143135742739867,-5.2048488249429745,-5.621806991916134
1769245491348,122,-6,-5.9776076543591286,-5.568538890360686,-5.4546300868544595
1769245491352,122,-6,-5.780954644258178,-5.531617328033663,-5.257310713213023
1769245491356,123,-5,-5.479843449538703,-4.7756003811501895,-4.955779960864275
1769245491360,123,-5,-5.076543857131563,-4.526823343243224,-4.552104908221432
1769245491364,123,-5,-4.64987906698937,-4.255076799340921,-4.125677331010318
1769245491368,124,-4,-4.298843223204759,-3.456577540973085,-3.775631018870253
1769245491372,124,-4,-4.082053597643746,-3.554805560467495,-3.5594310022381164
1769245491376,124,-4,-3.999830655554685,-3.79318910276958,-3.475866307443228
1769245491380,124,-4,-4.014584330580018,-3.448139520244805,-3.487523947553311
1769245491384,124,-4,-4.06757172819221,-3.2879579977041473,-3.538034260068154
1769245491388,124,-4,-4.0778849262108245,-3.2967192233981835,-3.5484995410548392
1769245491392,124,-4,-3.963390164619925,-3.6800840025833184,-3.4358076351627913
1769245491396,124,-4,-3.703746743050417,-3.657248269103045,-3.176795411256154
1769245491400,125,-3,-3.37940151499894,-2.5774667255210852,-2.8508248580639077
1769245491404,125,-3,-3.107875786805121,-2.05586214768045,-2.5770795129734876
1769245491408,125,-3,-2.918405057510848,-2.453625260804025,-2.386486358479437
1769245491412,125,-3,-2.7063868877097104,-2.434957449903799,-2.1740123389444332
1769245491416,126,-2,-2.3340549065581495,-1.9529219341747817,-1.8006448362628975
1769245491420,126,-2,-1.7754166584110953,-1.226715214389965,-1.2405632323660467
1769245491424,127,-1,-1.153248536992726,-0.3447122248675938,-0.6178541260050592
1769245491428,127,-1,-0.6363577203351007,-0.0303951111426237,-0.1016188134906002
1769245491432,128,0,-0.304871672992588,0.1709185511643556,0.2295773669623737
1769245491436,128,0,-0.1040050439354737,0.4349028449379746,0.4322504475076121
1769245491440,128,0,0.0938985844839851,0.3993218709544519,0.6337908523062035
1769245491444,128,0,0.392346119263427,1.1101403808012276,0.9354706025358812
1769245491448,129,1,0.8131686764930002,1.6667719103570646,1.357289163937743
1769245491452,129,1,1.2899133117005206,1.4680826993206657,1.8333191463500065
1769245491456,130,2,1.6862215973430663,2.18720752286813,2.229195937569371
1769245491460,130,2,1.8339276673097324,2.5873447976398056,2.3777515488936123
1769245491464,129,1,1.600956141370431,2.0828601230832615,2.146197795543006
1769245491468,129,1,0.9635472910632872,1.75263243691529,1.510067004442684
1769245491472,128,0,0.02526938635218,0.4843331708356362,0.5736054608658436
1769245491476,127,-1,-1.03857158684029,-0.9014986322145796,-0.4869494288667089
1769245491480,126,-2,-2.060314244078249,-1.2652103262528611,-1.5047851249971371
1769245491484,125,-3,-2.9177656865769324,-1.9974403933170457,-2.359914411896953
1769245491488,124,-4,-3.534095417606847,-3.028345931619715,-2.976248758357147
1769245491492,124,-4,-3.8967776098629514,-3.6802261941725294,-3.3393991964017617
1769245491496,124,-4,-4.099265311611582,-3.783281085238917,-3.5408527430769
1769245491500,124,-4,-4.326293970448827,-3.3488778561231,-3.7657727280124336
1769245491504,123,-5,-4.739125604928066,-3.8280551173267794,-4.176952536924075
1769245491508,122,-6,-5.347632385216047,-5.0682423498109275,-4.78392062937574
1769245491512,122,-6,-5.9990661323670995,-5.587809957095074,-5.431822116751085
1769245491516,122,-6,-6.496374156337412,-5.928871733981036,-5.923132249817757
1769245491520,121,-7,-6.728881420184372,-6.163358387900401,-6.150399192109882
1769245491524,121,-7,-6.707970926383357,-5.924307928476445,-6.129387357203069
1769245491528,121,-7,-6.515291423503816,-5.82144956304349,-5.942054481704363
1769245491532,122,-6,-6.246839379059008,-5.811733519126601,-5.678082441398615
1769245491536,122,-6,-5.999785307001015,-5.7354898795064315,-5.425946289612522
1769245491540,122,-6,-5.8629873246267525,-5.3403534634420655,-5.272459697300478
1769245491544,122,-6,-5.8617092168500085,-4.649224593239577,-5.252850726738832
1769245491548,122,-6,-5.907077234469955,-4.937342095416919,-5.2943763948933125
1769245491552,122,-6,-5.870673822816595,-5.684521530703304,-5.27641720467369
1769245491556,122,-6,-5.776448717107466,-5.892076550019415,-5.2117885465853
1769245491560,121,-7,-5.853073861532727,-6.153564411677753,-5.3038924519732475
1769245491564,122,-6,-6.1582781459036795,-4.781514221109806,-5.59010827436755
1769245491568,123,-5,-5.892226768579319,-3.559430170210127,-5.274063263995272
1769245491572,126,-2,-3.0779807053049515,-2.1200263204162573,-2.408267104019065
1769245491576,133,5,4.642627455780289,5.532144188431429,5.329591658296872
1769245491580,144,16,18.121094119399093,16.55678346787566,18.77732394263311
1769245491584,160,32,34.8987844824106,33.304444820177814,35.49828206126261
1769245491588,176,48,49.17378420952224,50.09139457516397,49.73109935828128
1769245491592,184,56,54.35407916949866,54.50855831902528,54.90858006767131
1769245491596,180,52,47.059747793079936,54.58437894871193,47.64409477978267
1769245491600,165,37,29.79490894812743,34.74127400030644,30.421855130677756
1769245491604,123,-5,9.880705876121452,-0.3334232511503989,10.551652739866825
1769245491608,121,-7,-4.983545174282018,-8.328627235548602,-4.2766535052208265
1769245491612,121,-7,-11.17951060320154,-4.901905843921513,-10.465046306719756
1769245491616,121,-7,-10.279036174978916,-7.748788012100372,-9.598674028962645
1769245491620,122,-6,-6.578413259399662,-5.166689200361066,-5.952851455034212
1769245491624,122,-6,-3.7154800173398623,-3.955958399562395,-3.121180425843504
1769245491628,124,-4,-2.9476951922324535,-3.407799821341712,-2.336078898687895
1769245491632,124,-4,-3.5753694059841443,-3.0578449692308234,-2.9144857671543787
1769245491636,124,-4,-4.34926992305552,-4.145085843817469,-3.6453827733614146
1769245491640,124,-4,-4.5501793107872475,-3.109047641200805,-3.8340740726904863
1769245491644,123,-5,-4.205574511416091,-3.324555111031975,-3.503666061542646
1769245491648,124,-4,-3.694832595358884,-2.981001022964423,-3.0120444645585653
1769245491652,125,-3,-3.2897063574415393,-2.367898323194599,-2.6131429256849374
1769245491656,125,-3,-2.9926118453910027,-2.861407479645588,-2.306267048318716
1769245491660,125,-3,-2.6722803093187353,-2.1029241593309917,-1.968736083940401
1769245491664,125,-3,-2.2624403422829964,-1.4530371238842452,-1.5448883940019913
1769245491668,126,-2,-1.816569441808368,-0.8292879393884096,-1.0930677499841808
1769245491672,127,-1,-1.4120734038576024,-0.4703934129497948,-0.688048883262808
1769245491676,127,-1,-1.0518329974559968,-0.6629426542362062,-0.3265011262936372
1769245491680,127,-1,-0.676000468892995,-0.1404919959156307,0.0552740749958817
1769245491684,127,-1,-0.2462776292503045,0.5465253055004062,0.4941456457119337
1769245491688,128,0,0.2103440388265784,1.169926456697776,0.958963595735373
1769245491692,129,1,0.6381667288970114,1.5588763685857028,1.3921366995253743
1769245491696,129,1,1.006075037607217,1.47127207790279,1.7646616797518493
1769245491700,129,1,1.3165762682664286,1.788498222162132,2.08187734999298
1769245491704,129,1,1.5911994534572764,2.673680770573589,2.365084683432201
1769245491708,130,2,1.87749515125553,2.9587458192498777,2.659284667591906
1769245491712,130,2,2.2570864773799024,2.872039177089703,3.045096558069609
1769245491716,131,3,2.8005629102293303,3.2737100843323574,3.5948910780060492
1769245491720,131,3,3.49151293001493,4.070289651045778,4.2937833250467135
1769245491724,132,4,4.217807211430994,5.443560633314012,5.028436668525923
1769245491728,133,5,4.865474006221186,6.095357847452003,5.682934219177921
1769245491732,133,5,5.413981916073608,5.878107182032929,6.237433569464776
1769245491736,134,6,5.9182607514226975,6.311474720339379,6.749476126419062
1769245491740,134,6,6.40945504380798,7.19660239584025,7.250752162373686
1769245491744,135,7,6.852399593760268,8.272355847167045,7.703480764957774
1769245491748,135,7,7.208896806730904,8.283771318010277,8.067414403281468
1769245491752,135,7,7.501833696633669,7.748430041468088,8.366926788543784
1769245491756,136,8,7.781804872661981,8.534026586317612,8.655358425653926
1769245491760,136,8,8.046917164583487,9.112929663073228,8.93080843428401
1769245491764,136,8,8.231641197378174,9.298808186341777,9.125148452347698
1769245491768,136,8,8.276655580882336,9.334662112128417,9.177687284145495
1769245491772,136,8,8.1836230418326,8.68035902828599,9.091844737354386
1769245491776,136,8,7.995059861060257,8.765769329037349,8.912618245634983
1769245491780,136,8,7.7482004149925,8.945696387578915,8.677324498698429
1769245491784,135,7,7.472886182317297,8.475724184542642,8.413636929623795
1769245491788,135,7,7.220094538802976,8.197341218528898,8.17077706401551
1769245491792,135,7,7.051495102326924,7.8182901596089,8.010671885856095
1769245491796,135,7,6.9725730458029735,7.795169889825249,7.940226102622888
1769245491800,135,7,6.878128163890562,7.942575364425658,7.855220141693334
1769245491804,134,6,6.585343861646017,7.561654540125281,7.572832510117876
1769245491808,134,6,5.946871417253116,7.058561760117002,6.945262578205548
1769245491812,133,5,4.954010123630917,6.059539898198597,5.9635957416432195
1769245491816,132,4,3.7396436382762186,4.609782644554947,4.7608300902404
1769245491820,130,2,2.4742990480725737,3.253361456907795,3.5073356481354026
1769245491824,129,1,1.244085150501555,2.2497194736906247,2.288370634555501
1769245491828,128,0,0.0149169904116757,1.3968023746456706,1.0691385474051938
1769245491832,127,-1,-1.298175755015092,-0.2334185797183252,-0.2345428608058122
1769245491836,125,-3,-2.73365054967517,-1.9908361739782068,-1.6592010096640744
1769245491840,124,-4,-4.238023306674555,-3.06788188239259,-3.1505201957620654
1769245491844,122,-6,-5.683829396258914,-4.399653819137176,-4.58246943636155
1769245491848,121,-7,-6.9212420786397875,-5.950258252179465,-5.807246719419382
1769245491852,120,-8,-7.841060097480845,-6.8203552065037885,-6.715960534655304
1769245491856,120,-8,-8.426716624464214,-7.300716520587236,-7.290577183957663
1769245491860,119,-9,-8.758419495186137,-7.694295831412304,-7.610004935309324
1769245491864,119,-9,-8.951666997785093,-7.710775921745323,-7.79005471727061
1769245491868,119,-9,-9.070119659563533,-7.6840162962091805,-7.895613600701582
1769245491872,119,-9,-9.090602317757812,-7.958254046655901,-7.903803896437146
1769245491876,119,-9,-8.960601211023565,-8.146849487817471,-7.761074518054368
1769245491880,119,-9,-8.692448029079653,-7.683639774290008,-7.479118951911051
1769245491884,120,-8,-8.384888466780627,-6.773246107819442,-7.157626899201158
1769245491888,120,-8,-8.137193285252897,-6.539297254379787,-6.896891048735824
1769245491892,120,-8,-7.952901286745355,-7.090552777425488,-6.699696120283209
1769245491896,120,-8,-7.7475967275821,-6.901490574300612,-6.480195080492094
1769245491900,121,-7,-7.446817748021487,-5.84874445847687,-6.164270755620128
1769245491904,121,-7,-7.060073057401476,-5.605270354053694,-5.763242397885193
1769245491908,121,-7,-6.667580046215637,-5.637436076719211,-5.357906330650433
1769245491912,122,-6,-6.359001714830367,-4.987476877202748,-5.036382257142854
1769245491916,122,-6,-6.1829208598764565,-4.861798187653324,-4.8456798145336935
1769245491920,122,-6,-6.123803507750688,-4.873939634010325,-4.770579437793501
1769245491924,122,-6,-6.104964177318144,-4.49221453315115,-4.735907284499579
1769245491928,122,-6,-6.024946176771019,-4.7650301227572545,-4.640899467892682
1769245491932,122,-6,-5.822633652615978,-4.777932390736291,-4.423755311246131
1769245491936,123,-5,-5.528079394133807,-3.990458961015131,-4.11388707971713
1769245491940,123,-5,-5.246308705939707,-3.6812671340991994,-3.8168292981096057
1769245491944,123,-5,-5.078184799339893,-3.631098236656366,-3.634215247090771
1769245491948,123,-5,-5.050560046261706,-3.616250926063474,-3.5924124864414235
1769245491952,123,-5,-5.118349750052884,-3.8603924196179378,-3.6447461472385414
1769245491956,123,-5,-5.219549603505639,-3.838034628548633,-3.728368824383737
1769245491960,123,-5,-5.309299925999214,-3.7392209518296142,-3.7996368030430774
1769245491964,123,-5,-5.33724073464435,-3.557287918100535,-3.810407939088027
1769245491968,123,-5,-5.217674471014536,-3.6269864103978615,-3.675767560375848
1769245491972,123,-5,-4.864428130506275,-3.837421514672241,-3.3080330948138945
1769245491976,124,-4,-4.2793541416704155,-2.744929853827022,-2.7070998610153163
1769245491980,125,-3,-3.593463500573912,-1.777342171808812,-2.003732368322749
1769245491984,125,-3,-2.989799136471954,-1.4700157473137831,-1.382318130625733
1769245491988,126,-2,-2.565389086498314,-0.6699710341805722,-0.9409623233577128
1769245491992,126,-2,-2.264442554832365,-0.7754164007572233,-0.6234888691317936
1769245491996,126,-2,-1.9488503790580056,-0.7026670947789622,-0.290620815055861
1769245492000,127,-1,-1.5362450485918384,0.2310152981885684,0.1403748923522565
1769245492004,127,-1,-1.0713503655935253,0.6009373729204772,0.6237760218554156
1769245492008,128,0,-0.6695882829020003,1.26042104822047,1.0429847908661736
1769245492012,128,0,-0.4049057945745218,1.384781175238418,1.3242136238590805
1769245492016,128,0,-0.2639501059212699,1.1522544171236742,1.482231104961373
1769245492020,128,0,-0.2063931974918018,1.507907627178995,1.5583155239767923
1769245492024,128,0,-0.2517357094585672,1.3265887776074865,1.5321467298022655
1769245492028,128,0,-0.4880717682334361,1.6019130331917664,1.3139874012787156
1769245492032,128,0,-0.9915073163167284,1.0939980200976165,0.8275212985452496
1769245492036,126,-2,-1.7448275405638864,-0.5173764477267349,0.0917253019957988
1769245492040,126,-2,-2.6346068921823096,-0.7063412635877779,-0.7784541350421836
1769245492044,125,-3,-3.512529676321707,-1.4593545442773364,-1.6354689919540504
1769245492048,124,-4,-4.256807325133451,-2.52661671405079,-2.3596437965766217
1769245492052,124,-4,-4.806436456831854,-2.7488002899364554,-2.8909651928318603
1769245492056,123,-5,-5.179454960033707,-3.589482913320868,-3.246668313645935
1769245492060,123,-5,-5.47045760702755,-3.5807643908390427,-3.52020260816576
1769245492064,123,-5,-5.804212082074015,-3.5243967711727517,-3.835880561799477
1769245492068,122,-6,-6.2555149057363035,-4.4222764183741265,-4.268109550019888
1769245492072,122,-6,-6.793607926416624,-4.805162520359762,-4.785298674200915
1769245492076,121,-7,-7.299016805230215,-5.44395451180449,-5.267950273470861
1769245492080,121,-7,-7.635279011780349,-5.703838017599931,-5.581829260109498
1769245492084,121,-7,-7.718147231161347,-5.298107256342993,-5.645932357949566
1769245492088,121,-7,-7.550367660094316,-5.639056779240734,-5.463679067397793
1769245492092,121,-7,-7.226493669383053,-5.5135305845800495,-5.125746568070892
1769245492096,122,-6,-6.903814450187984,-4.666682943252407,-4.783503379335515
1769245492100,122,-6,-6.72210963415465,-4.449511206757267,-4.574021035185674
1769245492104,122,-6,-6.702485465185799,-4.457439413946666,-4.522564993972635
1769245492108,122,-6,-6.721207693202594,-4.466708847920135,-4.51515220172222
1769245492112,122,-6,-6.626104608154028,-4.606856644896058,-4.408223203630424
1769245492116,122,-6,-6.4228881393388235,-4.528789344660304,-4.206391238161816
1769245492120,122,-6,-6.325030129197157,-4.513806910614387,-4.109361914702349
1769245492124,122,-6,-6.483578656553646,-4.339379428353059,-4.249957526033534
1769245492128,123,-5,-6.453671655079474,-3.526622743117655,-4.175883998976376
1769245492132,125,-3,-4.800223337681676,-1.5037515668710224,-2.464407348245478
1769245492136,130,2,0.5955083614766723,3.4433289560344065,2.978607000095984
1769245492140,139,11,11.29281166212025,12.578162684935736,13.694412328458018
1769245492144,153,25,26.65917397373498,26.6499512331696,29.05194684333659
1769245492148,171,43,43.07599927412074,44.54536410822228,45.4498313883791
1769245492152,186,58,55.010622348031134,59.46950455756177,57.37511850832504
1769245492156,189,61,57.7188529797547,62.51963081767574,60.09651544453785
1769245492160,179,51,49.92509140945791,52.46820238554106,52.34186837753851
1769245492164,162,34,34.598957315794316,35.79110903191809,37.07341661366684
1769245492168,145,17,17.271040892749248,18.388281055673495,19.80397572279383
1769245492172,131,3,3.0938767736336423,4.790432138443362,5.665851918733693
1769245492176,124,-4,-5.411751441119863,-2.636435544907683,-2.829758178247123
1769245492180,121,-7,-8.718937935174003,-5.276112725201002,-6.14788030194384
1769245492184,121,-7,-8.987713822939174,-5.397912719202702,-6.428491251506393
1769245492188,121,-7,-8.313942967531005,-5.528512353337613,-5.748748251741055
1769245492192,120,-8,-7.730432054369667,-6.145654287968011,-5.135348631228898
1769245492196,121,-7,-7.312145420044539,-5.712896133987348,-4.672562622127248
1769245492200,122,-6,-6.8509461555601385,-3.997399626364206,-4.1699792435482195
1769245492204,124,-4,-6.335724225865542,-2.7361453367772,-3.6296557531199984
1769245492208,123,-5,-5.938636591615633,-3.1343193596702115,-3.222760647777634
1769245492212,123,-5,-5.7693511464816405,-3.490949309300595,-3.046235285137205
1769245492216,123,-5,-5.76353415949208,-3.314487294049683,-3.0237220787437114
1769245492220,123,-5,-5.773724997322631,-3.2247682351827676,-3.0067439204600497
1769245492224,124,-4,-5.6839658519393055,-2.576414102179258,-2.8879451778126555
1769245492228,124,-4,-5.423625393317616,-2.156034851419613,-2.604709649040486
1769245492232,124,-4,-4.942377293895204,-2.526424917394581,-2.1065054970987513
1769245492236,124,-4,-4.246552647002838,-2.1076540701515074,-1.393614162954388
1769245492240,126,-2,-3.4574620196475805,-0.3946031569679872,-0.5835324740710434
1769245492244,127,-1,-2.767111120422653,0.6474648456502747,0.1297803545410851
1769245492248,127,-1,-2.2886872737554027,0.6650920710644828,0.6296434298158577
1769245492252,127,-1,-1.9628020381225195,0.6689916009445811,0.9754063863946754
1769245492256,127,-1,-1.6376241927705937,0.8110167739224559,1.3214474312503874
1769245492260,128,0,-1.2331172775927106,1.7312881487866942,1.748531428125121
1769245492264,129,1,-0.801018569526421,2.6057453708281573,2.2026003315063423
1769245492268,129,1,-0.4272863855462753,2.718745834657023,2.5957426110669544
1769245492272,129,1,-0.1119283939480477,2.6878168252716828,2.929311651787694
1769245492276,129,1,0.2313913568351106,2.835895812008645,3.292655758082973
1769245492280,130,2,0.6760097494943376,3.806214487221439,3.759885269601546
1769245492284,131,3,1.216576424876517,4.5619750520368525,4.323263755440616
1769245492288,131,3,1.804913361312114,4.839521443258922,4.932051009131082
1769245492292,132,4,2.4206941820715873,5.582952387377048,5.5661093743740535
1769245492296,132,4,3.081062801123983,6.034570659013796,6.245051966734177
1769245492300,133,5,3.7859756889637497,6.648241838673162,6.970623213210059
1769245492304,134,6,4.48187041820771,7.8039821791609825,7.688435094375697
1769245492308,135,7,5.101504593248669,8.638641038707384,8.329089670726125
1769245492312,135,7,5.634505798403912,8.82591064971269,8.88152399022393
1769245492316,135,7,6.13367576582907,8.873449165719554,9.399882393507452
1769245492320,136,8,6.640166520853045,9.838938599929874,9.926398816586854
1769245492324,137,9,7.117538286704395,10.72011787765284,10.423886846619029
1769245492328,137,9,7.473741066521462,10.733000625049083,10.7991650720305
1769245492332,137,9,7.641351996333314,10.825086746963253,10.98524610854458
1769245492336,137,9,7.630375551744202,10.89870478498179,10.993581096427569
1769245492340,137,9,7.517881396410384,10.885527460769218,10.901667164162282
1769245492344,137,9,7.403705841301362,10.74792118306502,10.808164361589329
1769245492348,137,9,7.368519228076879,10.73599209443711,10.792384495211838
1769245492352,137,9,7.444812514054735,10.92639898039935,10.886769967846236
1769245492356,137,9,7.600903277818059,10.785321883009711,11.060744874164284
1769245492360,137,9,7.747893508847141,11.130172497165908,11.226221492824212
1769245492364,138,10,7.780038961293731,11.500682796418188,11.277149646195662
1769245492368,137,9,7.630119396903111,11.09784920437071,11.145714448338389
1769245492372,137,9,7.293141006445307,10.585623043685844,10.827094994744524
1769245492376,136,8,6.795368178266198,10.181017999020904,10.34809518282978
1769245492380,136,8,6.145619850603875,9.81490595909666,9.717314863158208
1769245492384,135,7,5.3234403317617955,8.840888130842789,8.913326345484435
1769245492388,134,6,4.30988213181559,7.876263205345929,7.916668068625394
1769245492392,133,5,3.1176903372502807,6.808223185689847,6.74082956744702
1769245492396,131,3,1.787122067082087,5.042913889191986,5.427385214307669
1769245492400,130,2,0.3619585926760873,3.9939728936019554,4.020534996003857
1769245492404,129,1,-1.1151004061605412,2.730984502409102,2.562004175195664
1769245492408,127,-1,-2.5804881320792035,1.0663438265721843,1.1141521752491423
1769245492412,126,-2,-3.941535927347374,-0.3456304092543245,-0.2305172772385035
1769245492416,124,-4,-5.113284834491082,-1.743894328737599,-1.386390083462989
1769245492420,124,-4,-6.070294066484167,-2.166992829291522,-2.3275348462724996
1769245492424,123,-5,-6.855051264523674,-3.0421948576683144,-3.096266602108953
1769245492428,122,-6,-7.529742761369958,-4.071971303282995,-3.75453432236808
1769245492432,122,-6,-8.115094737570592,-4.185039169107159,-4.323031333134189
1769245492436,121,-7,-8.56600802680993,-4.826085904620906,-4.757285278362918
1769245492440,121,-7,-8.802189032562547,-5.0688378269540095,-4.97777148042897
1769245492444,121,-7,-8.776646590591781,-5.030142323075962,-4.937496153022376
1769245492448,121,-7,-8.533891141716675,-5.0344597044691515,-4.680296312303427
1769245492452,122,-6,-8.202218927988305,-4.171399800703836,-4.333986976519505
1769245492456,122,-6,-7.911237113717927,-3.77434703425414,-4.028110249665602
1769245492460,122,-6,-7.701350940880031,-4.103677691298439,-3.80302346462095
1769245492464,122,-6,-7.509856649271176,-3.882346979498971,-3.596152626467356
1769245492468,123,-5,-7.244399960249005,-3.1443235760906645,-3.3158666953970535
1769245492472,123,-5,-6.873248712667283,-3.0015112733850016,-2.931141688713912
1769245492476,123,-5,-6.45967592473929,-2.878066775884572,-2.5049524325755823
1769245492480,124,-4,-6.121246650885526,-1.9818736847741425,-2.1538276445450393
1769245492484,124,-4,-5.944044795154197,-1.879337857582844,-1.9631984751903615
1769245492488,124,-4,-5.912311548230226,-2.148223651319636,-1.9174521305391516
1769245492492,124,-4,-5.912156111347255,-1.877386591298498,-1.9032391965301505
1769245492496,124,-4,-5.814415377203229,-2.0117564688116047,-1.7919812805019824
1769245492500,124,-4,-5.572502922805481,-1.754287721407651,-1.537626111997095
1769245492504,125,-3,-5.2550705876509,-1.0420467786017598,-1.2090608684815258
1769245492508,125,-3,-4.989267619053643,-0.9362255140922986,-0.9329320471173238
1769245492512,125,-3,-4.865657372968737,-0.9989949012568362,-0.798623954755074
1769245492516,125,-3,-4.879069629496809,-0.8955759169024353,-0.8000348040588943
1769245492520,125,-3,-4.937550244592438,-0.7658708884699075,-0.845406154684533
1769245492524,125,-3,-4.919148884366122,-0.9990889923299116,-0.8139903050171201
1769245492528,125,-3,-4.736961888948812,-0.8793437059290706,-0.6202597553270043
1769245492532,126,-2,-4.3796560177801656,-0.0120392551953867,-0.2535029946563395
1769245492536,126,-2,-3.914644612329846,0.1527002686314386,0.2196572884455117
1769245492540,126,-2,-3.463651924555634,0.2664501231063407,0.6792604118139625
1769245492544,127,-1,-3.161847522752277,1.0040813993895874,0.9911557796309812
1769245492548,127,-1,-3.1006379742571646,1.2283189024237495,1.0631421713699938
1769245492552,127,-1,-3.272789470135572,0.8892843253461675,0.9009992210050674
1769245492556,126,-2,-3.569105355206893,0.3354341325789035,0.613588553570129
1769245492560,126,-2,-3.848008670570622,0.1118733478618346,0.3432664894678717
1769245492564,126,-2,-4.023511509832734,0.2363010636665768,0.1765441491233394
1769245492568,126,-2,-4.092559694404745,0.0862904747636952,0.1161094431830141
1769245492572,126,-2,-4.0877639598246365,0.0512117434724848,0.1287497770246384
1769245492576,126,-2,-4.017420916126378,0.2712009395093892,0.2061401514479766
1769245492580,126,-2,-3.858583873341363,0.1669730393847248,0.3718086903757325
1769245492584,126,-2,-3.605564441336852,0.3055024751683532,0.6319410681383311
1769245492588,127,-1,-3.3135739107112396,1.0451180671182336,0.9311058911470844
1769245492592,127,-1,-3.079036896261016,1.1898363953099649,1.1722008778413495
1769245492596,127,-1,-2.9654190419129094,1.143571780916613,1.2915436684043338
1769245492600,127,-1,-2.9439378849188538,1.3770367353499124,1.318573222496271
1769245492604,127,-1,-2.90584308718981,1.1268338429239055,1.362898225638626
1769245492608,127,-1,-2.734594049160152,1.329112018570882,1.5410249864701062
1769245492612,128,0,-2.3743201912846787,1.946073517791236,1.9075865929669755
1769245492616,128,0,-1.843574821471892,2.446357001921917,2.442708919332763
1769245492620,129,1,-1.2035172782800558,3.126943023168229,3.085417623814653
1769245492624,129,1,-0.5286619307918308,3.4262122594618627,3.7629279110527674
1769245492628,130,2,0.0994637958478421,4.12682695560377,4.395066889936134
1769245492632,131,3,0.6053691142214608,5.170339394309782,4.905829452936308
1769245492636,131,3,0.959818634887286,5.323748807486635,5.264566782099317
1769245492640,131,3,1.2083143685082929,5.235767028430163,5.516367008544137
1769245492644,131,3,1.4378564886220595,5.456751071980236,5.748856379676936
1769245492648,132,4,1.7007622691988915,6.081614492756596,6.014570717925586
1769245492652,132,4,1.967418167956359,6.3581844456819345,6.28330525719626
1769245492656,132,4,2.1453731040639763,6.127237902503959,6.46223233823386
1769245492660,132,4,2.1367419934281653,6.522796358907368,6.453952061455953
1769245492664,132,4,1.887796905339097,6.2208666732448075,6.205623149476904
1769245492668,131,3,1.40814489415167,5.355077013785007,5.727383259094524
1769245492672,131,3,0.7620298520101914,5.204591586130536,5.083242103170175
1769245492676,130,2,0.0462089887097894,4.2707921701154286,4.369080235482105
1769245492680,129,1,-0.6348579120416269,3.491782843567558,3.688490663840136
1769245492684,129,1,-1.1972564958034873,3.2715800333986387,3.1252524453335746
1769245492688,128,0,-1.609511241764222,2.3857701475907445,2.7115198619228273
1769245492692,128,0,-1.9124062086512437,2.248270305685628,2.4072703350284623
1769245492696,128,0,-2.2023498281840355,2.255489238589519,2.1161504453909528
1769245492700,127,-1,-2.5749042636610233,1.6011334478423018,1.742035969410444
1769245492704,127,-1,-3.063610404523075,1.1678700825144916,1.2510541864826012
1769245492708,126,-2,-3.620751039266099,0.611995942394242,0.6914224162303204
1769245492712,126,-2,-4.152370156113756,0.0304602120658035,0.1580995682600336
1769245492716,125,-3,-4.574948069733384,-0.4302210966086379,-0.2650659315054394
1769245492720,125,-3,-4.8476111177781025,-0.6692073074466108,-0.5386282315892399
1769245492724,125,-3,-4.961165660803674,-0.5247038664920843,-0.6559557115040943
1769245492728,125,-3,-4.9118948300873395,-0.5735771882004079,-0.6143009168860709
1769245492732,125,-3,-4.706536140489538,-0.8018397306331739,-0.4175209199031413
1769245492736,125,-3,-4.399780146431875,-0.454446732329256,-0.1150994392816323
1769245492740,126,-2,-4.101914388652198,0.3296475585185658,0.1852913420419024
1769245492744,126,-2,-3.91049026121521,0.5920049487761525,0.3822194440311315
1769245492748,126,-2,-3.822279552495096,0.3567496446429986,0.4697519378951623
1769245492752,126,-2,-3.7368996249000985,0.3130068305490296,0.5405427149361829
1769245492756,126,-2,-3.5692936082140263,0.5262836978725753,0.6815741300748437
1769245492760,126,-2,-3.3255278965541044,0.3356000346247703,0.9007492112153082
1769245492764,126,-2,-2.9477444368657157,0.7317274292697769,1.2730959126695915
1769245492768,129,1,-1.9108979909253256,3.2085544987606625,2.328803275306361
1769245492772,132,4,1.1060127054122724,6.601871048228739,5.374697741410143
1769245492776,138,10,7.931856631860246,12.224829133818409,12.215801131271691
1769245492780,148,20,19.73134915314207,22.752841200449204,24.00177846487338
1769245492784,163,35,35.480495181848006,37.353646700671725,39.71249128374761
1769245492788,180,52,51.31773935388035,54.66877278482618,55.50359220873915
1769245492792,194,66,61.75012670193812,68.23084290879856,65.90029978806896
1769245492796,194,66,62.37970874366036,68.56774793343826,66.51613462582998
1769245492800,182,54,52.448991627764435,56.45881077126121,56.59620679680621
1769245492804,164,36,35.396725626675426,38.56653496246692,39.57155562642948
1769245492808,145,17,17.001626839279872,19.59362097452245,21.20355792846532
1769245492812,131,3,2.4068728778838544,5.365132589393248,6.616051943462625
1769245492816,124,-4,-6.041067665359099,-1.29737170653459,-1.8537864226006633
1769245492820,122,-6,-9.012244043170911,-3.6780250261002783,-4.868234959645319
1769245492824,121,-7,-8.800820548323708,-4.200992051860154,-4.701148231816699
1769245492828,122,-6,-7.596993915111686,-3.695269772363023,-3.5232666404652724
1769245492832,122,-6,-6.5524008600046,-3.2698527546080527,-2.4801818507563778
1769245492836,123,-5,-5.87829567851573,-2.556819276473569,-1.793296123750638
1769245492840,124,-4,-5.430820862157174,-1.3760494012684052,-1.3367247104154965
1769245492844,125,-3,-5.1218717553448565,-0.4278139324855901,-1.0350942254727569
1769245492848,125,-3,-4.939100722336303,-0.5020104839931712,-0.8751404736123036
1769245492852,124,-4,-4.81631866261176,-1.345131066348599,-0.7786124068089904
1769245492856,124,-4,-4.636991760567215,-1.423938940551362,-0.6171929522490924
1769245492860,125,-3,-4.358691302104864,-0.410080681308034,-0.3469862890023825
1769245492864,126,-2,-4.0488734993325295,0.6419866083155148,-0.043341496778215
1769245492868,126,-2,-3.7626106471802463,0.4460434399802067,0.2313701649124255
1769245492872,125,-3,-3.4356369498932,-0.2023207363213388,0.5417959752930528
1769245492876,126,-2,-2.953835154754165,0.4866329748429381,1.0071118437627833
1769245492880,127,-1,-2.3163741180146795,1.7731128098955642,1.630608702665056
1769245492884,128,0,-1.6813761857041958,2.493544931118704,2.252155596653612
1769245492888,128,0,-1.2339244530379472,2.636564880937956,2.6844320714884686
1769245492892,128,0,-1.0263833703417475,2.686687426975144,2.875899579675358
1769245492896,128,0,-0.9512030305468068,2.634422367952235,2.936302034474223
1769245492900,128,0,-0.8442380522853785,2.732820311274367,3.029931768372061
1769245492904,129,1,-0.5957268827423778,3.541657768386944,3.2643900130651233
1769245492908,129,1,-0.181235238836249,3.6919689146960946,3.662577045195705
1769245492912,129,1,0.3677756228074618,3.640922092778621,4.193990940226549
1769245492916,130,2,0.9954316193877188,4.799302281356159,4.804619463422719
1769245492920,131,3,1.6406561694256316,5.57749664195612,5.433758834162104
1769245492924,131,3,2.2579548108162184,5.80181909561166,6.034874423645642
1769245492928,132,4,2.8314748179405376,6.441084263777335,6.591410740200015
1769245492932,132,4,3.366066212054961,6.996450022518671,7.108615256283712
1769245492936,133,5,3.868307936510911,7.460536061818131,7.5938334010804525
1769245492940,133,5,4.344425056916764,8.021768620673715,8.053484054835181
1769245492944,134,6,4.8167989741699255,8.387532238706644,8.509318401450106
1769245492948,134,6,5.33224520585799,8.91805130811072,9.007243878956936
1769245492952,135,7,5.937356327137592,9.595772365540324,9.593587570872751
1769245492956,135,7,6.628161715201246,9.882801282889696,10.265098086032694
1769245492960,136,8,7.318407519534251,10.71922853896078,10.93643328735693
1769245492964,137,9,7.874398429151544,11.69115665210384,11.474055833513953
1769245492968,137,9,8.20976290481153,11.721380066632946,11.791228398587496
1769245492972,137,9,8.361771185497272,11.80732546724535,11.925194555613984
1769245492976,137,9,8.470169184498154,11.76471344698871,12.015889499017264
1769245492980,137,9,8.669070264320872,11.87201758670454,12.196854670309444
1769245492984,138,10,8.986941060555786,12.623752519324537,12.49527599621309
1769245492988,138,10,9.33511872321148,12.830058687189084,12.822120297836326
1769245492992,138,10,9.576963886417428,12.77583341160518,13.042309462102262
1769245492996,138,10,9.612458662516012,12.834203134720529,13.057874598507164
1769245493000,138,10,9.431214986034494,12.87977709742696,12.858665539126932
1769245493004,138,10,9.121931178665196,12.652264621692115,12.531704356388708
1769245493008,137,9,8.83057329118233,11.893903854517044,12.22140401177582
1769245493012,137,9,8.670494205631812,11.744994276825466,12.04096626584206
1769245493016,137,9,8.634936042238103,11.941162589621792,11.98419033118956
1769245493020,137,9,8.586393686733663,11.825018557837572,11.91395250262564
1769245493024,137,9,8.340579075143012,11.756716630478843,11.646459476387252
1769245493028,136,8,7.776366790554446,10.892441543106514,11.061542106654056
1769245493032,135,7,6.885979882248215,9.737392998605884,10.151937354999408
1769245493036,134,6,5.745845402637366,9.07614447924952,8.99305917087457
1769245493040,133,5,4.45409890575127,7.675374513983612,7.681249153947014
1769245493044,131,3,3.08068519536284,6.034451128471416,6.28592214021078
1769245493048,130,2,1.643882873702038,4.647446089985464,4.82666632040478
1769245493052,128,0,0.1200582816739048,3.0426564781075465,3.2812877237106277
1769245493056,127,-1,-1.506330995165225,1.831736601978132,1.6342841692516386
1769245493060,125,-3,-3.180260610403309,-0.0350684724976448,-0.0601074566074699
1769245493064,123,-5,-4.763922926429004,-2.1702910672771223,-1.6643993188941275
1769245493068,122,-6,-6.102962982877814,-3.095032275076158,-3.024137161891579
1769245493072,121,-7,-7.116758979035774,-4.155413562060323,-4.059009045438713
1769245493076,120,-8,-7.830048980136178,-4.925976167393965,-4.794280691148831
1769245493080,120,-8,-8.325948087234512,-5.194314327475467,-5.31277306936876
1769245493084,119,-9,-8.675273755172629,-5.966333536141391,-5.6841002220679435
1769245493088,119,-9,-8.902757259255297,-6.214651725540826,-5.932273909100594
1769245493092,119,-9,-8.998648275694729,-6.016177671327144,-6.0483758595320705
1769245493096,119,-9,-8.946634577577818,-5.978425149959534,-6.017493804572206
1769245493100,119,-9,-8.749719206502991,-6.107100002723878,-5.842761907245317
1769245493104,119,-9,-8.451338586305422,-5.950521429771281,-5.566491992270994
1769245493108,120,-8,-8.134082764501727,-5.208118669753691,-5.270697327460968
1769245493112,120,-8,-7.876274727801855,-4.949155749058581,-5.034371428764087
1769245493116,120,-8,-7.694405330547269,-4.999298299600138,-4.874497906860488
1769245493120,120,-8,-7.535098323172023,-5.0232507809987075,-4.736969521885451
1769245493124,120,-8,-7.332745773449254,-4.947068477828905,-4.55538360071157
1769245493128,121,-7,-7.068905436627039,-4.1979788992745535,-4.3119183709609885
1769245493132,121,-7,-6.769440557011447,-3.8508858847738847,-4.033761420164341
1769245493136,121,-7,-6.459352970659327,-4.096220421793281,-3.746079558631766
1769245493140,121,-7,-6.144477005898241,-3.804561333287057,-3.4536105528613734
1769245493144,122,-6,-5.837717131496383,-3.1491066249187174,-3.1685335462316044
1769245493148,122,-6,-5.580250293338373,-2.9218681875132786,-2.9323468629166376
1769245493152,122,-6,-5.421170634307458,-3.0615023432050577,-2.7945297335278245
1769245493156,122,-6,-5.3771270822479496,-2.8587256878471523,-2.7715434252551563
1769245493160,122,-6,-5.411704964952357,-2.917899723461367,-2.826832674117805
1769245493164,122,-6,-5.449021722672284,-3.064497276734469,-2.8849414546275463
1769245493168,122,-6,-5.412466957859548,-2.850236280227157,-2.869752762470331
1769245493172,122,-6,-5.2687165929281665,-3.168388635530897,-2.747829933261222
1769245493176,122,-6,-5.049338315310056,-2.6162061388778493,-2.5501214805526895
1769245493180,123,-5,-4.82909825046208,-2.135605142504563,-2.3508893498529835
1769245493184,122,-6,-4.672185922618446,-2.793340492714395,-2.2144182522018196
1769245493188,123,-5,-4.587478981919504,-2.0302617590536287,-2.1502543487465258
1769245493192,123,-5,-4.528545768537784,-1.977782221122682,-2.112469721299409
1769245493196,122,-6,-4.440874118171548,-2.7059599737907964,-2.0461073227130013
1769245493200,123,-5,-4.320514879852681,-2.0027780826376604,-1.946311904512229
1769245493204,123,-5,-4.226961277423152,-1.870088073471011,-1.8725633760553668
1769245493208,123,-5,-4.225809411181731,-1.8760884515326852,-1.8915040934877176
1769245493212,123,-5,-4.314216833815218,-2.106309226494977,-2.001002468796669
1769245493216,122,-6,-4.4131482255060135,-2.476702773874205,-2.121360608871976
1769245493220,123,-5,-4.442543640085114,-2.216381937761427,-2.1711475952758423
1769245493224,122,-6,-4.402593745525019,-2.560522513511766,-2.1501127745502053
1769245493228,123,-5,-4.371973131174363,-2.1449411555935405,-2.138185755349012
1769245493232,123,-5,-4.4192533850943345,-1.7818363405579367,-2.2055907795314726
1769245493236,122,-6,-4.523177779032784,-2.703318310688582,-2.33098809131559
1769245493240,122,-6,-4.5976289981473055,-3.011716448437355,-2.4263759104871783
1769245493244,122,-6,-4.59669570610954,-2.6012430999210925,-2.4445543022130636
1769245493248,123,-5,-4.571579548884334,-2.1671747554403646,-2.437555090877454
1769245493252,122,-6,-4.606261206638372,-2.5679971461818476,-2.4909348542637866
1769245493256,122,-6,-4.707228391065512,-2.959288741245768,-2.6115445423637884
1769245493260,122,-6,-4.774048119122903,-2.6397932164351228,-2.6980989699395317
1769245493264,122,-6,-4.683363138316566,-2.94913018657342,-2.626434586937007
1769245493268,122,-6,-4.403462116612911,-2.767723791419189,-2.3648753292767957
1769245493272,123,-5,-4.0317103035741155,-1.846664023468492,-2.011511536100005
1769245493276,123,-5,-3.7203765046341712,-1.6848755052924065,-1.7191931141996672
1769245493280,123,-5,-3.5605504996587767,-1.7997824574656274,-1.5786927179666457
1769245493284,123,-5,-3.5309192296423815,-1.801043633942612,-1.567785375597748
1769245493288,123,-5,-3.547397281651502,-1.8114119597661595,-1.6019618980076529
1769245493292,123,-5,-3.549703354337484,-1.756245345608338,-1.6214410602961566
1769245493296,123,-5,-3.538648301031613,-1.6953948547675224,-1.6277803374300888
1769245493300,123,-5,-3.541138968513162,-1.742201672287678,-1.6481116693980773
1769245493304,123,-5,-3.551299544475758,-1.8196677749942705,-1.676233765968443
1769245493308,123,-5,-3.5115359621269833,-1.7200056515579776,-1.6541038688956462
1769245493312,123,-5,-3.3549230641457712,-1.792133405495394,-1.5145866444091602
1769245493316,123,-5,-3.0710541823896635,-1.5752204639868004,-1.2474994445710084
1769245493320,124,-4,-2.7313776112495116,-0.8256148182646523,-0.9248113512952107
1769245493324,124,-4,-2.445097085170252,-0.6807180406911355,-0.6559146104192419
1769245493328,124,-4,-2.28445488791682,-0.8041405551263279,-0.5124830061035279
1769245493332,124,-4,-2.245751825365512,-0.6394031867723875,-0.4900870024688202
1769245493336,124,-4,-2.2703378921793513,-0.6567356080718054,-0.5301238398840196
1769245493340,124,-4,-2.294208838489122,-0.7080514862740799,-0.5693593650708757
1769245493344,124,-4,-2.284466110241244,-0.7264707908408965,-0.5754694145245054
1769245493348,124,-4,-2.245777545924773,-0.7227335652442801,-0.5529989915622269
1769245493352,124,-4,-2.202847868408231,-0.6278120037367367,-0.526190866722597
1769245493356,124,-4,-2.1751600170825256,-0.62415254323709,-0.5142176670229794
1769245493360,124,-4,-2.162423229433392,-0.6780374154714792,-0.5166980800938632
1769245493364,124,-4,-2.1505293421560867,-0.711471959066968,-0.5195469227568263
1769245493368,124,-4,-2.1293823949018984,-0.6789645760196885,-0.5128507402856346
1769245493372,124,-4,-2.1026307484071443,-0.5986528315760777,-0.5006021712347091
1769245493376,124,-4,-2.0798656764714165,-0.5938794290283562,-0.492596421913964
1769245493380,124,-4,-2.063216694741063,-0.6534636660173738,-0.490715253418571
1769245493384,124,-4,-2.0459060691037116,-0.6893689672823626,-0.4876763398256951
1769245493388,124,-4,-2.023144049550354,-0.6420078595960121,-0.4785232541469233
1769245493392,124,-4,-1.9990969616348464,-0.5655409567067322,-0.4678456549245313
1769245493396,124,-4,-1.9801600138680808,-0.5636254763640669,-0.4625619985108196
1769245493400,124,-4,-1.9648994336849437,-0.6305589063330581,-0.4611973103130862
1769245493404,124,-4,-1.946028432984152,-0.6660483183309776,-0.4558727539371203
1769245493408,124,-4,-1.9220946328650084,-0.6066741423520636,-0.4446963010831732
1769245493412,124,-4,-1.9012732577227849,-0.5315632018067373,-0.4360840366430831
1769245493416,124,-4,-1.889675935156952,-0.532480125712187,-0.4367940816603488
1769245493420,124,-4,-1.8794445400292912,-0.6083867574858071,-0.4393151186055721
1769245493424,124,-4,-1.855475989827987,-0.6439803028043474,-0.4282730965664909
1769245493428,124,-4,-1.81633598078608,-0.5696795801044754,-0.4016581605048295
1769245493432,124,-4,-1.7837310591826143,-0.4999132633405869,-0.380794130439005
1769245493436,124,-4,-1.784030609955176,-0.4984946378565238,-0.3921192339061168
1769245493440,124,-4,-1.815857705251037,-0.585318031778485,-0.4347517096474749
1769245493444,124,-4,-1.835702691602759,-0.6323416394176715,-0.4657985507497137
1769245493448,124,-4,-1.780505931725108,-0.5087815629073442,-0.4223713024486279
1769245493452,124,-4,-1.6146164983762223,-0.5139966838000833,-0.2682199269386285
1769245493456,124,-4,-1.362667607420016,-0.3854395639011936,-0.0271528502577731
1769245493460,125,-3,-1.091651295450819,0.3149929860074834,0.2339625950251169
1769245493464,125,-3,-0.8471534175689657,0.559214337580205,0.4689166191447993
1769245493468,125,-3,-0.6030329806864976,0.3039122527241826,0.7032980782019858
1769245493472,125,-3,-0.2840951634205146,0.7901459583842558,1.0122253511174275
1769245493476,126,-2,0.1514871960624004,1.3397960312248958,1.4375970563086788
1769245493480,126,-2,0.6503716683594538,1.6573507931702904,1.926117342392922
1769245493484,127,-1,1.0872018058842583,2.2791773713485957,2.3526966781282797
1769245493488,127,-1,1.358932267307886,2.600542267225478,2.614900221768453
1769245493492,127,-1,1.4723182419982732,2.6178303693951905,2.720141462445969
1769245493496,127,-1,1.5476984758247705,2.502543306983908,2.788797832149216
1769245493500,127,-1,1.729368631209227,2.6225620576695405,2.963993476105551
1769245493504,128,0,2.071216758606392,3.2973391510445227,3.2977398934947244
1769245493508,128,0,2.482167770010549,3.692177985364335,3.698171972782908
1769245493512,128,0,2.760920256791798,3.569738197293704,3.965470620643474
1769245493516,128,0,2.692386580796744,3.6035129255518026,3.8871249809066866
1769245493520,128,0,2.162165213838807,3.605634275037933,3.3501400202137614
1769245493524,127,-1,1.2393074799379158,2.3039694438497857,2.4229581415306676
1769245493528,125,-3,0.1705065763662496,0.8133715260525001,1.3503735933681231
1769245493532,125,-3,-0.7330244849045361,0.4541242638916967,0.4414741311354841
1769245493536,124,-4,-1.2566647421865302,-0.1714763969089914,-0.0901976231973966
1769245493540,124,-4,-1.3943552595257251,-0.5946601518238723,-0.2375357453480746
1769245493544,124,-4,-1.3464840570557302,-0.4319991074843214,-0.1985316206274383
1769245493548,124,-4,-1.397753711474747,-0.3823957599808494,-0.2565579678904284
1769245493552,124,-4,-1.7340204490308966,-0.3178404362487583,-0.5982138536429151
1769245493556,123,-5,-2.3170013016438804,-1.2966224477570991,-1.1862667798396118
1769245493560,122,-6,-2.92295569720165,-2.4730985607374834,-1.7966502869430911
1769245493564,122,-6,-3.323767629212053,-2.451451525945814,-2.200647749218548
1769245493568,122,-6,-3.452262622018313,-2.3397295470411876,-2.3323347250177138
1769245493572,122,-6,-3.40941113585993,-2.2739623559609603,-2.2953959346153723
1769245493576,122,-6,-3.3337893287815104,-2.2683500467638784,-2.2295043252737967
1769245493580,122,-6,-3.2806008245499636,-2.481370406738733,-2.1868427758829823
1769245493584,122,-6,-3.218924368484719,-2.370329190936765,-2.1305289720741825
1769245493588,122,-6,-3.1154919581821843,-2.388433298092653,-2.0235107667298973
1769245493592,122,-6,-2.9881982876208046,-2.1407784097149563,-1.8875672624767057
1769245493596,123,-5,-2.8665359361221983,-1.3242316734755373,-1.7634815269472222
1769245493600,123,-5,-2.7288280221546977,-1.4072651540228356,-1.639407228071933
1769245493604,122,-6,-2.532514599723716,-2.36053135597116,-1.4701633616140344
1769245493608,122,-6,-2.304364410285757,-2.401485601784754,-1.2660514369064488
1769245493612,123,-5,-2.0581849315742655,-0.9949533707436716,-1.0226607491529256
1769245493616,125,-3,-1.38900969405691,0.5446601468240382,-0.3307875783634877
1769245493620,127,-1,0.9672812231877668,2.8324153025148973,2.0588266474112538
1769245493624,133,5,6.958794190094508,8.4128293559553,8.070892494629051
1769245493628,142,14,18.045396118120006,17.8838848280605,19.150748764134384
1769245493632,156,28,33.54243298975919,31.811880660283837,34.617165952954934
1769245493636,174,46,49.786329964812765,49.7910952700592,50.82223722579597
1769245493640,189,61,61.22274967314437,64.70035746247967,62.22809200475668
1769245493644,191,63,63.157824179510754,66.49767291000214,64.15243000315354
1769245493648,179,51,54.436580453995774,54.828294609355645,55.44554155295188
1769245493652,162,34,38.14782753821619,37.8107646943426,39.19132709023521
1769245493656,144,16,19.88128919839159,19.882309547618572,20.962183184181345
1769245493660,129,1,4.815271783002481,4.731098545825565,5.914856931874618
1769245493664,121,-7,-4.465773673856329,-3.3551082204847953,-3.3771114486770992
1769245493668,118,-10,-8.3153759311741,-6.23741137509211,-7.2595946319774045
1769245493672,117,-11,-8.790472697443764,-7.1149694273054696,-7.769057877565731
1769245493676,117,-11,-8.004887612742221,-7.183068415228113,-6.9998976122767
1769245493680,117,-11,-7.165834400562119,-7.137269010527943,-6.152934208518314
1769245493684,118,-10,-6.5885062135757355,-6.420410551549909,-5.552882432803437
1769245493688,119,-9,-6.209893218556013,-5.07173862180837,-5.154302937640919
1769245493692,120,-8,-5.971954325976246,-4.319510816362984,-4.9114787188013915
1769245493696,119,-9,-5.858103985918578,-4.879889184835969,-4.806431476862779
1769245493700,119,-9,-5.794893297178798,-5.442651161547434,-4.754133598149435
1769245493704,119,-9,-5.660461752329729,-4.960742710098715,-4.622745774969446
1769245493708,120,-8,-5.389675479674872,-4.5191545793067975,-4.347018235723825
1769245493712,120,-8,-5.019167669590597,-3.8135136765424895,-3.970675975815389
1769245493716,121,-7,-4.620908523295196,-3.342237861323908,-3.570965483788057
1769245493720,120,-8,-4.228894893322835,-3.949267022804982,-3.1804557965606857
1769245493724,121,-7,-3.848998785059005,-3.323822190902266,-2.8005021499216634
1769245493728,122,-6,-3.5028008369555947,-2.158690285407754,-2.4512054752345875
1769245493732,122,-6,-3.2105365468149034,-2.07532234524216,-2.155162063143421
1769245493736,122,-6,-2.9306069474608223,-2.0905845777787597,-1.87287847634795
1769245493740,122,-6,-2.561008661087696,-2.0872087789023324,-1.5017583708515525
1769245493744,123,-5,-2.030651995415308,-1.166237377254493,-0.9692517961950652
1769245493748,124,-4,-1.3813850285746796,-0.2111684771143109,-0.3172116247793477
1769245493752,124,-4,-0.7452861686986345,-0.0131043221221189,0.3212714339998865
1769245493756,125,-3,-0.2409011730031336,0.9160441588110282,0.8274964644704434
1769245493760,125,-3,0.1085838257087363,0.9624104184347836,1.179396619947005
1769245493764,125,-3,0.3696587057122862,0.8232279950050736,1.4444214688518606
1769245493768,126,-2,0.6319670642052446,1.8971240654004649,1.7117139607836536
1769245493772,126,-2,0.9523434752560044,1.8911113315653836,2.0366794814878553
1769245493776,126,-2,1.344139586991329,2.085911521338025,2.4319026687531435
1769245493780,127,-1,1.7911176160144178,2.848387466213489,2.88158829154553
1769245493784,127,-1,2.259026531839664,2.979334074278371,3.3523073757004145
1769245493788,128,0,2.7045795835103155,3.821376483179211,3.801282202547589
1769245493792,128,0,3.090307675200593,4.006475518331777,4.191321920941762
1769245493796,128,0,3.4029817741682464,4.014838851616089,4.509271911396395
1769245493800,129,1,3.667613155330933,4.9959563181616256,4.779722159453883
1769245493804,129,1,3.9472812133432384,4.863023604223244,5.0650001593777265
1769245493808,129,1,4.315323802281948,5.017452423830644,5.438005055392265
1769245493812,130,2,4.801327753839212,5.858721791194233,5.928417453385159
1769245493816,130,2,5.347170548527868,6.200645209660622,6.4784477093488
1769245493820,131,3,5.817592903278055,6.886168427003773,6.953243857208022
1769245493824,131,3,6.06905005936531,7.009701352603742,7.209691122313775
1769245493828,131,3,6.0330567836033016,6.948561633776409,7.17951158720727
1769245493832,131,3,5.759446881656218,6.956622334526442,6.912399114942902
1769245493836,130,2,5.391008500708377,6.173266083237259,6.55088890261774
1769245493840,130,2,5.084466925969418,5.94209450758371,6.251446939353715
1769245493844,130,2,4.9306387584681985,6.050236733961157,6.104403670532642
1769245493848,130,2,4.926849776333993,5.931857405385195,6.106480554747521
1769245493852,130,2,5.008482230666801,6.0554016784847,6.193030379062094
1769245493856,130,2,5.098681338921152,6.101473585461806,6.28816888629996
1769245493860,130,2,5.135825241919617,6.075649321163627,6.3316004380178965
1769245493864,130,2,5.078131864343464,5.9748217743941145,6.281942558476722
1769245493868,130,2,4.911179982204786,6.064527258528377,6.123746005806132
1769245493872,130,2,4.664616866533933,5.973689028567355,5.885290398032893
1769245493876,129,1,4.406273612483499,5.238529800804055,5.634146701260417
1769245493880,129,1,4.188362853026623,4.975944782351297,5.423235802307054
1769245493884,129,1,3.981471307818896,5.152819288152388,5.223466257975372
1769245493888,129,1,3.666756370367786,4.925133560318865,4.915651770414517
1769245493892,128,0,3.1041309548771396,4.185811555119971,4.359836238472434
1769245493896,127,-1,2.2176866139966815,3.0648482836564783,3.481068578353608
1769245493900,126,-2,1.0351621307256993,2.1924891645894693,2.30763182569158
1769245493904,125,-3,-0.3281153447158935,1.0026143324138794,0.9541311694920364
1769245493908,123,-5,-1.7174753677287482,-0.8733398362826055,-0.4259644690419897
1769245493912,122,-6,-2.996835526914113,-1.95217560620178,-1.6970884285358134
1769245493916,121,-7,-4.092503794933236,-2.737671133306246,-2.7851054308974525
1769245493920,120,-8,-5.000140406813828,-3.9909551517229223,-3.684735659127674
1769245493924,119,-9,-5.754762346534541,-4.7081491623244425,-4.430383547531068
1769245493928,119,-9,-6.38648270376034,-5.154582817880123,-5.052550500249042
1769245493932,118,-10,-6.889171899777422,-5.566188947325515,-5.546024318284733
1769245493936,118,-10,-7.225135616358908,-6.111387247159214,-5.873215946480274
1769245493940,117,-11,-7.368785508048088,-6.559503514406589,-6.007606006832588
1769245493944,118,-10,-7.34956954852134,-6.071258273678841,-5.978127761528835
1769245493948,118,-10,-7.240010934995136,-5.764174249269313,-5.858099280940004
1769245493952,118,-10,-7.093711287996322,-5.845022167112816,-5.70209372728122
1769245493956,118,-10,-6.907282936141489,-5.852697161839849,-5.506532217654956
1769245493960,118,-10,-6.657023897420625,-5.703811290835878,-5.246844612242444
1769245493964,119,-9,-6.366263133869646,-4.949856312738248,-4.946074546830254
1769245493968,119,-9,-6.119047569927928,-4.745830554408396,-4.688555903984125
1769245493972,119,-9,-6.000319832621152,-4.869387003440759,-4.559255959674038
1769245493976,119,-9,-6.022850825914742,-4.725847443641826,-4.570781613860084
1769245493980,119,-9,-6.107024397278225,-4.8387989237932105,-4.643853650529996
1769245493984,119,-9,-6.128527281051591,-4.737260709500056,-4.654713957062801
1769245493988,119,-9,-6.001571264680945,-4.893264857076124,-4.517406752530805
1769245493992,119,-9,-5.740823915629056,-4.674798682456282,-4.245887773789539
1769245493996,120,-8,-5.448637231161915,-3.840957064175356,-3.9424344901596866
1769245494000,120,-8,-5.226123197990596,-3.734545744827782,-3.708853747697951
1769245494004,120,-8,-5.084548023767003,-3.7408169260417754,-3.556595118174292
1769245494008,120,-8,-4.947722455740008,-3.86425228239574,-3.408627489403991
1769245494012,120,-8,-4.744221110108066,-3.620529144472724,-3.1929703788089676
1769245494016,121,-7,-4.486847211236843,-2.852275595329889,-2.9232515619110333
1769245494020,121,-7,-4.253033118319838,-2.7029617319364703,-2.678036392695991
1769245494024,121,-7,-4.097236596768335,-2.6775232646390994,-2.511453330791092
1769245494028,121,-7,-3.998708878684686,-2.914371587886176,-2.4012786428165955
1769245494032,121,-7,-3.8934519651687545,-2.4716701593434287,-2.2829836143670454
1769245494036,122,-6,-3.742226721653666,-1.9860863046812776,-2.1185723115032493
1769245494040,121,-7,-3.5658713698464695,-2.516796764541424,-1.9303504496470087
1769245494044,122,-6,-3.4305204496866883,-1.788077058404144,-1.784383031414957
1769245494048,122,-6,-3.40684173473571,-1.780969200651664,-1.7498000402406628
1769245494052,121,-7,-3.5295508636095803,-2.5092607986149456,-1.8599053331629896
1769245494056,122,-6,-3.77118015363788,-1.9532599286106085,-2.0873826925739016
1769245494060,121,-7,-4.038060722690713,-2.4525818481744706,-2.340064990662027
1769245494064,121,-7,-4.199955042191272,-2.843699012765053,-2.488906999944653
1769245494068,121,-7,-4.156952292670664,-2.624228788217956,-2.433797511385768
1769245494072,121,-7,-3.9095329868697464,-2.6376839275046233,-2.174335783499801
1769245494076,122,-6,-3.5696221756866513,-1.7858625452937027,-1.8220812601425544
1769245494080,122,-6,-3.2886242986231817,-1.5353803852671677,-1.528571841490001
1769245494084,122,-6,-3.1576188302936865,-1.7631899045560542,-1.3847309163395614
1769245494088,122,-6,-3.1636543502765866,-1.583856470495757,-1.3771499903182107
1769245494092,122,-6,-3.2283532950981204,-1.686812415689118,-1.4274970342519973
1769245494096,122,-6,-3.279530551912922,-1.6615576480090604,-1.4643873318826122
1769245494100,122,-6,-3.2926521805492985,-1.6085784910956449,-1.464063271276126
1769245494104,122,-6,-3.283222171827841,-1.6514279740187494,-1.441971382090027
1769245494108,122,-6,-3.27540978110778,-1.6094355295773477,-1.4214817780558913
1769245494112,122,-6,-3.279875344781108,-1.6489444906616646,-1.4125147590791107
1769245494116,122,-6,-3.292817158185313,-1.6318811674846874,-1.411241576901498
1769245494120,122,-6,-3.3064525330766097,-1.5977887219429878,-1.4104963536215265
1769245494124,122,-6,-3.316707800660436,-1.6008046964809763,-1.406816752951232
1769245494128,122,-6,-3.323769595374748,-1.6020360384098078,-1.400405747362015
1769245494132,122,-6,-3.330021437174323,-1.6192554803054389,-1.3930897828194662
1769245494136,122,-6,-3.33878819286374,-1.6117274505185133,-1.3876656313775388
1769245494140,122,-6,-3.3520920475389673,-1.5708563836369254,-1.386243254176002
1769245494144,122,-6,-3.3665834116374773,-1.56422133729074,-1.3861435070318229
1769245494148,122,-6,-3.373202881923711,-1.588675494898715,-1.378898525688708
1769245494152,122,-6,-3.366341335960603,-1.586509285643266,-1.3587569355191027
1769245494156,122,-6,-3.356656734710978,-1.6022914426569626,-1.33553638483373
1769245494160,122,-6,-3.3702100896732365,-1.5325928311303247,-1.3345301705443218
1769245494164,122,-6,-3.423455673099775,-1.5315071268157907,-1.3722841496727525
1769245494168,122,-6,-3.489854112806073,-1.587827730159628,-1.4231708253772315
1769245494172,122,-6,-3.4949382688564214,-1.5179574744562334,-1.4135579671192169
1769245494176,122,-6,-3.3627241471546316,-1.6582167079587524,-1.2674575771135927
1769245494180,122,-6,-3.0867314188728208,-1.399063079492202,-0.9777897142083344
1769245494184,123,-5,-2.7589491554573016,-0.6218714524854776,-0.6360833138461894
1769245494188,123,-5,-2.515139298159675,-0.4385037012922783,-0.3779238881624418
1769245494192,123,-5,-2.434260846011054,-0.6148060254932626,-0.2821016532006173
1769245494196,123,-5,-2.478018622528233,-0.546312539389318,-0.310324655461679
1769245494200,123,-5,-2.5197537461524377,-0.4295786341589549,-0.3363993706224331
1769245494204,123,-5,-2.436649418965785,-0.5722529231523792,-0.2380824133716568
1769245494208,123,-5,-2.1962191244661606,-0.3870746180624036,0.016948085844153
1769245494212,124,-4,-1.8758180497073171,0.3427476676496457,0.3515198008198807
1769245494216,124,-4,-1.602121251496428,0.5600838155796974,0.6392519956602445
1769245494220,124,-4,-1.4609784242303987,0.4952078970039988,0.7947198956836352
1769245494224,124,-4,-1.451858029670794,0.5661241711974334,0.8188527608870053
1769245494228,124,-4,-1.5143720258509474,0.529286238098134,0.771963633221342
1769245494232,124,-4,-1.5864728591357158,0.4690897316813192,0.7154791835383267
1769245494236,124,-4,-1.6357013078275462,0.4747586028109236,0.6812602592585386
1769245494240,124,-4,-1.6440362492986835,0.6328453272402219,0.6873851359007468
1769245494244,124,-4,-1.5756772888777626,0.4792825377607046,0.7703711387984689
1769245494248,124,-4,-1.369764048121844,0.6750373342548044,0.9917388681552572
1769245494252,125,-3,-0.9707553758566824,1.3669507991617067,1.4068639999769394
1769245494256,125,-3,-0.3721431550521799,1.6095572003634364,2.0212443146732824
1769245494260,126,-2,0.3609856375012323,2.565277046292504,2.768776213745342
1769245494264,127,-1,1.1069239119543992,3.5767740066985607,3.5277917676242225
1769245494268,127,-1,1.7304378723208305,3.6658919973208497,4.16445596794997
1769245494272,128,0,2.132359427078892,4.3681927582452955,4.581276638851429
1769245494276,128,0,2.2907350430528344,4.706740826814379,4.756606116595971
1769245494280,128,0,2.2822488290237417,4.453181348809554,4.765694073398697
1769245494284,128,0,2.2607359857482754,4.797743440079826,4.760625587385685
1769245494288,128,0,2.3744903760852467,4.479404302815911,4.889160971812226
1769245494292,128,0,2.6538757087101916,4.567873580433114,5.1822744957353
1769245494296,129,1,2.9550247422853935,5.624851332921604,5.496744843565438
1769245494300,129,1,3.026349942862364,5.469237156462577,5.581360774628295
1769245494304,128,0,2.664238629308527,4.972899489822167,5.233209239563591
1769245494308,128,0,1.8432329806634449,4.224377168180267,4.427728964716412
1769245494312,126,-2,0.7327744890263583,2.962325060057963,3.3343845165441843
1769245494316,126,-2,-0.392837798969961,2.193226709088217,2.226250548279329
1769245494320,124,-4,-1.281804154984416,1.0021572698400238,1.3536352141294357
1769245494324,124,-4,-1.8008680666119374,0.4873557334800298,0.8491348269774373
1769245494328,124,-4,-1.9638327229292576,0.7526902186596063,0.6993566372690196
1769245494332,124,-4,-1.8950960562988255,0.49856614997948,0.7810319601645164
1769245494336,124,-4,-1.7624327043278796,0.6414093479147764,0.927552133793294
1769245494340,124,-4,-1.715495362287267,0.6784801128528126,0.9895644130354252
1769245494344,124,-4,-1.8421705720508448,0.7819324553061842,0.8784156399504817
1769245494348,124,-4,-2.143938647378409,0.6014606231700399,0.5919012961007608
1769245494352,123,-5,-2.5428802677594913,-0.410025015315937,0.2082929665960571
1769245494356,123,-5,-2.9259295873077753,-0.3287941995495504,-0.158606518017256
1769245494360,123,-5,-3.198884074420009,-0.3686903153041867,-0.4150649135422273
1769245494364,122,-6,-3.3136770722550537,-1.0550969054237074,-0.5149504058048255
1769245494368,123,-5,-3.2641044852984833,-0.5515651257599221,-0.4536178954841818
1769245494372,123,-5,-3.0733801747178062,-0.1895530689186557,-0.2529158341822066
1769245494376,123,-5,-2.7926089683578903,-0.5416095058560639,0.0407745523328921
1769245494380,123,-5,-2.501942975193238,-0.0918163595402901,0.3515516335977422
1769245494384,124,-4,-2.283956211800686,0.7344855474071008,0.5948652436182371
1769245494388,124,-4,-2.1653726409267993,0.6814811644970753,0.7346659812310785
1769245494392,124,-4,-2.090132070394419,0.6557950443914566,0.8174446042793482
1769245494396,124,-4,-1.9867907761038783,0.5953530332389294,0.9150794999441558
1769245494400,123,-5,-1.861035860774903,-0.1330473222182666,1.0354548759291324
1769245494404,124,-4,-1.7096920425162123,0.7898046703793513,1.1991982756203203
1769245494408,126,-2,-1.1477512419209015,2.725063045350532,1.7976461643037491
1769245494412,128,0,0.9920526585223222,4.616896272634881,3.986125307765249
1769245494416,133,5,6.515919389081386,9.70032707300979,9.54863035586591
1769245494420,142,14,16.821449937036004,18.7970139006724,19.866831681514277
1769245494424,155,27,31.3696765942569,31.918843035632474,34.402842992880004
1769245494428,172,44,46.845006369089035,48.68218442993841,49.85603314954449
1769245494432,186,58,58.05358550849347,62.680830274862515,61.05021184121782
1769245494436,189,61,60.42961322985815,65.66952735133309,63.43181549318785
1769245494440,179,51,52.62952032756462,55.78076803440563,55.661436780669
1769245494444,162,34,37.388863181256525,38.94005356367221,40.46883035232118
1769245494448,145,17,20.015296142443656,21.6765145043065,23.14551285845094
1769245494452,131,3,5.591332125618965,7.8113395229259055,8.754571551030576
1769245494456,123,-5,-3.26404093040039,-0.315802446862635,-0.095125528778615
1769245494460,120,-8,-6.859113545896895,-3.150390426198163,-3.705517707945519
1769245494464,120,-8,-7.250062884225799,-3.095277248563142,-4.114689790348083
1769245494468,120,-8,-6.5503196714602225,-3.332321268408457,-3.418079957648062
1769245494472,119,-9,-5.901338243396921,-4.117510261873688,-2.7496703502767623
1769245494476,120,-8,-5.499009183262896,-3.3467158861132384,-2.312153840799779
1769245494480,121,-7,-5.195249364533684,-2.0296732455247284,-1.9735873871851428
1769245494484,122,-6,-4.942124109223033,-1.2128937826873214,-1.6998798576567076
1769245494488,122,-6,-4.790302518517248,-1.1929289078997494,-1.54304184843309
1769245494492,121,-7,-4.70392819598255,-2.20649416577454,-1.4564368802523169
1769245494496,121,-7,-4.540608216106111,-2.2232008146252378,-1.2857301853696457
1769245494500,122,-6,-4.2132947676240775,-1.0409239485286292,-0.94136261805414
1769245494504,123,-5,-3.792020432620105,-0.2311279749229449,-0.5001304311996027
1769245494508,123,-5,-3.411438381789514,-0.0778955157281124,-0.1037253456885616
1769245494512,123,-5,-3.1147740271397857,-0.3447198013781749,0.2041004592484201
1769245494516,123,-5,-2.8259903434987588,0.0128043226867675,0.5035461117024855
1769245494520,124,-4,-2.4622176554360378,0.743998210169821,0.8803812630671013
1769245494524,124,-4,-2.038129631995192,1.045252659237896,1.3190500852750828
1769245494528,125,-3,-1.649313131067403,1.669435274006172,1.7216789301174744
1769245494532,125,-3,-1.3684442453758434,1.961855198390244,2.015025092918595
1769245494536,125,-3,-1.1703684155595488,1.7270105182808395,2.2256573535002593
1769245494540,125,-3,-0.9543364164265098,2.1081477106858992,2.4555023826129183
1769245494544,126,-2,-0.6271577529861467,2.6894719950569246,2.7970646340516705
1769245494548,126,-2,-0.1642386171845697,3.098955682182662,3.273330827266198
1769245494552,127,-1,0.3905233544841662,3.548409407762969,3.839978107375254
1769245494556,127,-1,0.9621162076919398,4.194927984313976,4.423252359558556
1769245494560,128,0,1.4826527359804902,4.692739287471596,4.956617774933672
1769245494564,128,0,1.917737560941419,5.110671110240352,5.405554362471076
1769245494568,129,1,2.2799570022718254,5.780518190197454,5.7813774361172685
1769245494572,129,1,2.6202614409868445,5.824384527671042,6.134304782218626
1769245494576,129,1,2.990807501844534,6.055583997790471,6.517134879797588
1769245494580,130,2,3.402330430980867,6.783543815755369,6.941577363235174
1769245494584,130,2,3.8196349656586097,7.136632769282708,7.372346002104555
1769245494588,131,3,4.206566558879781,7.746802029420737,7.772294616383604
1769245494592,131,3,4.572357361035687,7.920222819690742,8.150155741107426
1769245494596,131,3,4.961813053827651,8.009964551424133,8.551393877826317
1769245494600,132,4,5.39549144501038,8.82710022166209,8.997514053550884
1769245494604,132,4,5.829827974064676,9.20119146044521,9.445052362398712
1769245494608,133,5,6.190135404868465,9.647969851227646,9.818614473579384
1769245494612,133,5,6.446874075077384,10.137554197167916,10.088114154606457
1769245494616,133,5,6.652487172814275,9.776389913660392,10.306126720360345
1769245494620,133,5,6.8947664036586485,10.1073717602495,10.560763405390318
1769245494624,134,6,7.211028486438198,10.998729921836482,10.889335067477942
1769245494628,134,6,7.546297131495633,10.823290529195116,11.236806371826011
1769245494632,134,6,7.79187878316814,11.10244270243635,11.494676891120289
1769245494636,135,7,7.869236033560121,11.75521559013207,11.584555952030575
1769245494640,134,6,7.790569083853361,11.226709250781134,11.51856157965578
1769245494644,134,6,7.643879144894179,10.884373861682866,11.384610634410464
1769245494648,134,6,7.5105460480500446,10.987907577888931,11.263965636444944
1769245494652,134,6,7.388371643416215,11.010097650531272,11.1541399002881
1769245494656,134,6,7.190367712967143,10.83468547473326,10.968042246001914
1769245494660,133,5,6.814313742103609,10.243183706809466,10.603829951956216
1769245494664,133,5,6.21604077305853,9.84202986087984,10.017771707416935
1769245494668,132,4,5.428004602327047,9.122813522072107,9.24235966830279
1769245494672,131,3,4.515927947927576,7.895701023498234,8.343088547484864
1769245494676,130,2,3.5138367239595834,6.977146936230639,7.353680926628596
1769245494680,129,1,2.396283979258931,6.179626231986765,6.248269511338378
1769245494684,128,0,1.116369042805034,4.8714407615047355,4.979761491102228
1769245494688,126,-2,-0.3262724996619548,3.2225940618746756,3.5484115652559134
1769245494692,125,-3,-1.8547298625149835,1.755730963936989,2.0322317196689905
1769245494696,123,-5,-3.346582685241774,0.2176024060729466,0.5539288225622689
1769245494700,122,-6,-4.689410683358351,-1.0658365504962903,-0.7752316677879914
1769245494704,121,-7,-5.8110226138371,-1.8339889931051756,-1.8844763158369413
1769245494708,120,-8,-6.680575606737503,-3.0022773456652825,-2.742936946733918
1769245494712,119,-9,-7.308809244849042,-4.027596943299812,-3.3599924307169253
1769245494716,119,-9,-7.75121763990734,-3.902798517452565,-3.790298988545972
1769245494720,119,-9,-8.086355473954866,-3.981355268214844,-4.112945025867048
1769245494724,118,-10,-8.368543267821384,-4.815749786443999,-4.382887047642585
1769245494728,118,-10,-8.600893006176616,-5.0225550987703,-4.602960083367835
1769245494732,118,-10,-8.756048277007999,-4.935575082749088,-4.745449882417956
1769245494736,118,-10,-8.812537895262466,-4.99434197357731,-4.789313157109987
1769245494740,118,-10,-8.766868379341343,-4.830149392978025,-4.731533736566739
1769245494744,118,-10,-8.626745400337562,-4.941846632451179,-4.579439975659228
1769245494748,118,-10,-8.410043029243477,-4.8364958970093905,-4.3503637643781685
1769245494752,119,-9,-8.146812909545684,-4.103750538548057,-4.074767189500486
1769245494756,119,-9,-7.868114951843663,-3.783747037982608,-3.784455948935744
1769245494760,119,-9,-7.592860243988851,-4.013251404657762,-3.4978936340628657
1769245494764,119,-9,-7.335280093596732,-3.7110877386308863,-3.227978958637118
1769245494768,120,-8,-7.117892937870169,-3.021522830833547,-2.9970098369474094
1769245494772,120,-8,-6.954825752493141,-2.907451559765305,-2.8205600276997393
1769245494776,120,-8,-6.818681246974724,-2.911941620386217,-2.672478928894156
1769245494780,120,-8,-6.648019476932756,-2.8924574448928295,-2.490813523911839
1769245494784,120,-8,-6.408972953088222,-2.7424490769690513,-2.240264285117337
1769245494788,121,-7,-6.144546768398327,-2.0051459743767186,-1.9632849540828683
1769245494792,121,-7,-5.94407125490223,-1.8345098710768424,-1.7498749385090293
1769245494796,121,-7,-5.854204503143272,-2.000439403960253,-1.6474359017805775
1769245494800,121,-7,-5.823306504291519,-1.7262286727444356,-1.6042842852314043
1769245494804,121,-7,-5.740049060537345,-1.9060241518874612,-1.508588169875508
1769245494808,121,-7,-5.532622153518718,-1.7908306133738705,-1.2884321487255543
1769245494812,122,-6,-5.235442704442882,-1.0048231200361388,-0.9788079769497108
1769245494816,122,-6,-4.96185139077736,-0.8096967006489795,-0.6935822376689798
1769245494820,122,-6,-4.811934051064049,-0.8601443708174283,-0.5324292781500506
1769245494824,122,-6,-4.802014530667151,-0.7655145533433214,-0.5105456030208066
1769245494828,122,-6,-4.870320009774392,-0.8770183931146995,-0.5655246544758366
1769245494832,122,-6,-4.937076663010821,-0.9025721241435792,-0.6182291488337683
1769245494836,122,-6,-4.959023494242575,-0.8472589849431182,-0.6268179667684124
1769245494840,122,-6,-4.9410101886759685,-0.8116534268382898,-0.5971034877309851
1769245494844,122,-6,-4.912880754114488,-0.7611564688132093,-0.5584972963375994
1769245494848,122,-6,-4.903307153590493,-0.8667580636698786,-0.5380245045602625
1769245494852,122,-6,-4.928740624615125,-0.8716966334193508,-0.550641152423013
1769245494856,122,-6,-4.988200243239211,-0.8301190202567756,-0.595526894298855
1769245494860,122,-6,-5.050761122633624,-0.8141192407964026,-0.6436412996811787
1769245494864,122,-6,-5.04964793819819,-0.6994621535586867,-0.630052693766582
1769245494868,122,-6,-4.914136662551394,-0.9278308169992746,-0.4839626314854581
1769245494872,122,-6,-4.636165024956046,-0.7521875637680577,-0.1954469332529114
1769245494876,123,-5,-4.309230813503535,0.0765943900067727,0.1437022035077695
1769245494880,123,-5,-4.077131906582087,0.3158524661015347,0.3897355192940797
1769245494884,123,-5,-4.017203956894889,0.2119299438608304,0.4639615259045646
1769245494888,123,-5,-4.065060226125682,0.1725566993929628,0.4292865843933611
1769245494892,123,-5,-4.063430347675844,0.1939182732726698,0.4425606339609818
1769245494896,123,-5,-3.9050062032304913,0.1510933517804131,0.6120644927511654
1769245494900,123,-5,-3.6450832219763663,0.2972192394523514,0.883888343630546
1769245494904,124,-4,-3.470012879676835,1.2505747287345883,1.0720375823153625
1769245494908,124,-4,-3.5299504915231883,1.180040659144356,1.0255669312257591
1769245494912,123,-5,-3.784448959987621,0.1883859855034861,0.7841956055757642
1769245494916,123,-5,-4.017533341995993,0.2182100500090205,0.5638931489171197
1769245494920,123,-5,-4.020579031820072,0.2336686626180597,0.5734932090752785
1769245494924,123,-5,-3.77582551519197,0.3802107375721069,0.8306686823906428
1769245494928,124,-4,-3.47193786734045,1.067403624847601,1.1465245708697882
1769245494932,124,-4,-3.337961637891371,1.3397934678300945,1.2921539672276656
1769245494936,124,-4,-3.445255583846738,1.0934851241771977,1.1970175131943186
1769245494940,123,-5,-3.654879766595304,0.3726659900970563,1.0009347922669838
1769245494944,123,-5,-3.7504793531207574,0.3029686109217655,0.919839591335372
1769245494948,124,-4,-3.622230902365871,1.136931657231372,1.0617157562817294
1769245494952,124,-4,-3.3359611397983513,1.3663567642807597,1.359554620122827
1769245494956,124,-4,-3.0533672478162703,1.032130124646485,1.6527507827651782
1769245494960,124,-4,-2.8988869722010056,1.52092917778917,1.8188692951880507
1769245494964,125,-3,-2.877061557577384,2.1321308171135236,1.854001942709515
1769245494968,124,-4,-2.884218886619545,1.3643913216174934,1.861018732893992
1769245494972,124,-4,-2.8012080834238784,1.1823238591122425,1.958046204487351
1769245494976,125,-3,-2.597373544618654,2.222527657867675,2.174824069740753
1769245494980,125,-3,-2.3545520700488813,2.3943633743346,2.428936600586482
1769245494984,125,-3,-2.1917481745126532,2.2379945682709383,2.602117369874019
1769245494988,125,-3,-2.169755449132035,2.3426168488612884,2.635580501486249
1769245494992,125,-3,-2.2575253845184893,2.197987621872456,2.5616657738930515
1769245494996,125,-3,-2.3629834048685017,2.2518659954360736,2.4714367030516695
1769245495000,125,-3,-2.3836355157196847,2.398493939130957,2.465062075277645
1769245495004,125,-3,-2.251679780080914,2.2371932021304892,2.609058545900099
1769245495008,125,-3,-1.9712364151840365,2.4190178639672744,2.90001094017783
1769245495012,126,-2,-1.6311580752879946,3.1115114324760285,3.2506765290918853
1769245495016,126,-2,-1.3657893427830996,3.3926373980299065,3.5278490564312115
1769245495020,126,-2,-1.271388581428499,3.2764806180297157,3.6354942320621504
1769245495024,126,-2,-1.3342385111591222,3.3728138291646257,3.586765913413578
1769245495028,126,-2,-1.4274051970699722,3.354632044670191,3.507588270413521
1769245495032,126,-2,-1.3854082540625514,3.1418314640188365,3.5626197032049327
1769245495036,126,-2,-1.1113313081156737,3.4680700006240124,3.848634696602008
1769245495040,127,-1,-0.6430756654370109,4.150962428009325,4.328121762139804
1769245495044,127,-1,-0.1269538049645224,4.600529235025706,4.855272429976788
1769245495048,128,0,0.2855566744900208,5.102893019451855,5.279145006858306
1769245495052,128,0,0.5392402666786338,5.448469744807953,5.545172413698125
1769245495056,128,0,0.6975335051088392,5.183287295905814,5.717148912719569
1769245495060,128,0,0.8776065463380398,5.437925845013096,5.911574207383554
1769245495064,129,1,1.1610463265224182,6.388116020605079,6.208518142919799
1769245495068,129,1,1.5451281048723646,6.300998983589817,6.604326905623308
1769245495072,129,1,1.9452399407073075,6.315109477782381,7.014915218336089
1769245495076,130,2,2.227761103652644,7.3262306441531555,7.3078126264216605
1769245495080,130,2,2.2621556624042034,7.2996281647661165,7.3533043672841
1769245495084,129,1,1.9772467835534304,6.598383071637723,7.080737999008713
1769245495088,129,1,1.391652429854647,6.068884769610252,6.508746927076058
1769245495092,128,0,0.6075911569185912,5.628864075069493,5.738438834874595
1769245495096,128,0,-0.2168633480041557,4.984162296871329,4.926435282528862
1769245495100,126,-2,-0.9148356260978964,3.6987482575520625,4.239644499083839
1769245495104,126,-2,-1.3812667401481864,3.2291037128079068,3.7846034311239687
1769245495108,126,-2,-1.6283083137851857,3.4417146258268656,3.549855415635486
1769245495112,126,-2,-1.7648462181673,3.3396271491367013,3.4253807839043215
1769245495116,126,-2,-1.9072954341670303,3.20916078806498,3.293597382946172
1769245495120,125,-3,-2.1090931261271373,2.604772662482378,3.1017481406789167
1769245495124,125,-3,-2.3701444718609848,2.236832572635964,2.851653000076497
1769245495128,125,-3,-2.6836852927415764,2.55845613598442,2.5507462615776806
1769245495132,125,-3,-3.040207546581554,2.1813060295760476,2.207763014626537
1769245495136,124,-4,-3.3854740015880456,1.4250036934972945,1.8759585746806655
1769245495140,124,-4,-3.6072825872404506,1.4225560945554194,1.6668249274560611
1769245495144,124,-4,-3.5969864593927516,1.3993715454997355,1.6880072480656083
1769245495148,124,-4,-3.341874707249159,1.4775152915130576,1.9513140829933864
1769245495152,125,-3,-2.9631758370383023,2.2352567243198243,2.336572298238556
1769245495156,125,-3,-2.6561917517654146,2.45386059433988,2.652424164986551
1769245495160,125,-3,-2.5664217810062837,2.367739992859287,2.757637672443344
1769245495164,125,-3,-2.6849529237985617,2.505132489525471,2.660647449102537
1769245495168,125,-3,-2.839343230229305,2.3701583495165033,2.526251166493115
1769245495172,125,-3,-2.805844836008254,2.38408134088737,2.5681114155778637
1769245495176,125,-3,-2.490276943824828,2.3406893821929353,2.8774478174977984
1769245495180,125,-3,-2.031772489731188,2.489843123954002,3.324956991426311
1769245495184,126,-2,-1.6490393782329644,3.413373587208252,3.7092947229364097
1769245495188,127,-1,-1.1906578142348925,4.475190851430649,4.193109727780553
1769245495192,129,1,0.332277247875135,6.30866617427007,5.759501761018325
1769245495196,133,5,4.707069727955202,10.46740259132497,10.175206876413736
1769245495200,141,13,13.61334513482128,18.355601944998934,19.09946504668866
1769245495204,153,25,27.13393884632809,30.61336003005865,32.610003311415554
1769245495208,169,41,42.68068028915296,46.269485541021425,48.131006415375545
1769245495212,184,56,55.427068414682125,61.5847924811132,60.855196105957134
1769245495216,191,63,60.448013501647374,68.18430424146631,65.87209781368452
1769245495220,184,56,55.40241620620214,61.59552758768281,60.846265897060334
1769245495224,169,41,41.93937768714411,46.34980228582414,47.423118946809105
1769245495228,151,23,24.80497833318924,28.468583967491615,30.335565271680135
1769245495232,136,8,9.28565877348797,13.519559118906844,14.851195959054625
1769245495236,127,-1,-1.2679378008357365,4.317327667682139,4.306775090523082
1769245495240,122,-6,-6.381532173767176,-0.3820276528743775,-0.8219901034076513
1769245495244,121,-7,-7.667610627756154,-1.7221970698537523,-2.131215409699906
1769245495248,121,-7,-7.239259032674145,-1.4735451037046987,-1.714286291282371
1769245495252,121,-7,-6.500523074132144,-1.5518571357184916,-0.9651366262117
1769245495256,121,-7,-5.891099687280686,-1.5794277973655857,-0.3278939536410554
1769245495260,122,-6,-5.342662137026636,-0.3764365333607182,0.2513375696800684
1769245495264,124,-4,-4.7937750997442,1.1966274867423174,0.8197584324749645
1769245495268,124,-4,-4.329704389835564,1.6601729476784133,1.2878412216917243
1769245495272,124,-4,-4.0277105950909995,1.2517470193465816,1.5863587627573357
1769245495276,123,-5,-3.845435217860238,0.7321144770921575,1.7699550833313085
1769245495280,124,-4,-3.698298031665024,1.3245197647913909,1.928208640716571
1769245495284,125,-3,-3.570367025438386,2.5112047471547743,2.0714951514638926
1769245495288,125,-3,-3.4899073148310915,2.344402363308836,2.163528007025618
1769245495292,124,-4,-3.4292374059195274,1.5497518991399954,2.230689542661247
1769245495296,124,-4,-3.294161557813674,1.5335391077410334,2.372094106289535
1769245495300,125,-3,-3.015073428491001,2.4949246882007037,2.6607519162471416
1769245495304,126,-2,-2.599100786314529,3.4157463674810256,3.087561509535489
1769245495308,126,-2,-2.078287955519864,3.376891270823509,3.617113512907811
1769245495312,126,-2,-1.4535380026647715,3.5839113612377593,4.248533905638547
1769245495316,127,-1,-0.730433478705615,4.501230540842859,4.978802637422839
1769245495320,128,0,0.0085455684008231,5.570838318877304,5.726579402875377
1769245495324,129,1,0.6154137856497919,6.35465602888309,6.342498114934743
1769245495328,129,1,0.982804959181352,6.430336848355083,6.717754541114242
1769245495332,129,1,1.1329949765635412,6.558932649115144,6.875127157821273
1769245495336,129,1,1.196699938846295,6.537761879583551,6.946860346146151
1769245495340,129,1,1.3102448210582125,6.570489611281303,7.069664849295117
1769245495344,130,2,1.5360315232832265,7.371669217037786,7.304612936306864
1769245495348,130,2,1.868071311074709,7.422106126135732,7.644236930342917
1769245495352,130,2,2.286594557724519,7.581658297471252,8.068826236801694
1769245495356,131,3,2.7869524430105512,8.53289555022188,8.575242492964549
1769245495360,131,3,3.3582520738754686,8.609723839378477,9.15396724117278
1769245495364,132,4,3.954181599205464,9.325921279538411,9.758536753809924
1769245495368,133,5,4.50661315733519,10.51932153761147,10.319355530635695
1769245495372,133,5,4.97713342176496,10.44508634035734,10.796905120553571
1769245495376,133,5,5.387043107415231,10.739659521139645,11.212983415993282
1769245495380,134,6,5.784780087177625,11.383860795757752,11.61735644450378
1769245495384,134,6,6.185913112050408,11.591609610137214,12.02601403514466
1769245495388,135,7,6.556555934737359,12.2557076698946,12.404179965332728
1769245495392,135,7,6.858295974093528,12.726944750125014,12.712602486407004
1769245495396,135,7,7.098052850463807,12.477629980200666,12.958601139244614
1769245495400,135,7,7.321923886522273,12.655141825742316,13.189228377010208
1769245495404,136,8,7.562268286385001,13.346840791401036,13.43681633194588
1769245495408,136,8,7.800963194513269,13.49555468635845,13.682224865569378
1769245495412,136,8,7.983059465620784,13.524955002444289,13.870049279439232
1769245495416,136,8,8.054729843523674,13.682228358805858,13.947264395945336
1769245495420,136,8,7.989166720620509,13.470532683662176,13.88794872380291
1769245495424,136,8,7.796058947349595,13.53554730773033,13.70157229170469
1769245495428,136,8,7.52326081405726,13.331629023450995,13.435202136199344
1769245495432,135,7,7.243355265477676,12.688561808398036,13.16136749963777
1769245495436,135,7,7.017345755851839,12.568626256457124,12.941724486577131
1769245495440,135,7,6.857562293348508,12.54609840212774,12.78865746689715
1769245495444,135,7,6.724761283566038,12.529909131007646,12.661946151067532
1769245495448,135,7,6.557683828918399,12.287596361591048,12.499625579366704
1769245495452,134,6,6.29393513866639,11.818712459033351,12.24004580186505
1769245495456,134,6,5.860665237872251,11.38609891680487,11.81177815450728
1769245495460,133,5,5.169282361170003,10.788585442815098,11.126588445914926
1769245495464,133,5,4.155987421173691,10.25842830526356,10.119736470084971
1769245495468,131,3,2.84497968883478,8.603066695192052,8.814654203825702
1769245495472,129,1,1.3602188288573105,6.507106879021146,7.335457400173915
1769245495476,128,0,-0.1421992541918402,5.705934975961089,5.838401392041451
1769245495480,127,-1,-1.5602936242148262,4.4850746740811385,4.425142524322171
1769245495484,125,-3,-2.878156577717407,2.5598872027288597,3.1116632235574504
1769245495488,124,-4,-4.133550636351265,1.3479405909789055,1.8608977524866464
1769245495492,123,-5,-5.354708836054037,0.7481819602246187,0.6448812484728297
1769245495496,122,-6,-6.507167520187243,-0.5079787052203706,-0.5023094525696226
1769245495500,120,-8,-7.494495354262817,-2.3174789422122783,-1.4844135598208492
1769245495504,120,-8,-8.225008253950039,-2.597084440888959,-2.209696780296172
1769245495508,120,-8,-8.68540613079403,-2.5044258288904584,-2.665249709955547
1769245495512,119,-9,-8.946930820433247,-3.354251859875537,-2.922708261050377
1769245495516,119,-9,-9.10515494632729,-3.4380594516854366,-3.077190016902321
1769245495520,119,-9,-9.217386385233771,-3.336364789957224,-3.185168408519186
1769245495524,119,-9,-9.283245018032687,-3.621852756132714,-3.2461205105017448
1769245495528,119,-9,-9.266958977144393,-3.415044130160909,-3.224829947182375
1769245495532,119,-9,-9.137667895673676,-3.460801764869333,-3.090912336341915
1769245495536,119,-9,-8.89955333108406,-3.314444847423531,-2.848609297802048
1769245495540,120,-8,-8.589992468567536,-2.449139477154593,-2.5351103692706634
1769245495544,120,-8,-8.250269871138293,-2.518383392996147,-2.191402914666456
1769245495548,120,-8,-7.900472215597746,-2.4850230747447593,-1.8374009475255528
1769245495552,121,-7,-7.541813318786798,-1.388529407115886,-1.4745688897700835
1769245495556,121,-7,-7.177387990740364,-1.3770006905634695,-1.106372745284577
1769245495560,121,-7,-6.8296755221966015,-1.3923601572792057,-0.7551770328356655
1769245495564,122,-6,-6.5400588801207515,-0.5492557934876254,-0.4619390871970141
1769245495568,122,-6,-6.342995601236312,-0.462196377984851,-0.2609894161284103
1769245495572,122,-6,-6.2280279197537105,-0.3802343741245568,-0.1419819405644711
1769245495576,122,-6,-6.128018634981254,-0.3904649915864073,-0.0377944049426699
1769245495580,122,-6,-5.956108279107119,-0.380614076907861,0.1382781071759766
1769245495584,123,-5,-5.663478929141885,0.4577157985816611,0.4345741234629847
1769245495588,123,-5,-5.270541179976513,0.5344106232693777,0.8304531810679645
1769245495592,123,-5,-4.854699874453331,0.6445291733650267,1.2489457292469388
1769245495596,124,-4,-4.50933455114939,1.584252361178549,1.597219747791367
1769245495600,124,-4,-4.29595222706671,1.6423980082478953,1.813881560063456
1769245495604,124,-4,-4.215308686093226,1.4356601828481683,1.8981124888384255
1769245495608,124,-4,-4.21885219667165,1.5827034541984442,1.8984412228003331
1769245495612,124,-4,-4.2496277129164675,1.594154153665003,1.871517329663444
1769245495616,124,-4,-4.274080024947894,1.6451988795505543,1.8503232686897229
1769245495620,124,-4,-4.2834842601605,1.5810851325848176,1.8434185661527565
1769245495624,124,-4,-4.280227985270941,1.4934441081014458,1.8489800639233964
1769245495628,124,-4,-4.270538810173377,1.5543021818599656,1.861441399792332
1769245495632,124,-4,-4.263770653275406,1.6131983853309535,1.871444516489197
1769245495636,124,-4,-4.267397214921835,1.6423764140087689,1.8709663989990304
1769245495640,124,-4,-4.279122796979785,1.5742243322480345,1.861980858132338
1769245495644,124,-4,-4.288194120429196,1.5080830980495694,1.855499015315776
1769245495648,124,-4,-4.287571291091164,1.5517334996168095,1.8589188124859797
1769245495652,124,-4,-4.282194908183489,1.6201748980219444,1.8671898639290068
1769245495656,124,-4,-4.281973331175948,1.640470115871421,1.8699748592705523
1769245495660,124,-4,-4.2885598739625035,1.5730921943140097,1.865507848835842
1769245495664,124,-4,-4.293968632923719,1.5126415238722166,1.8622044520404184
1769245495668,124,-4,-4.2929441212736705,1.5565448036499512,1.865788762076237
1769245495672,124,-4,-4.291416436163173,1.6217147980810345,1.8702601829182488
1769245495676,124,-4,-4.297991352988726,1.640488311917227,1.866469668110907
1769245495680,124,-4,-4.30918435676371,1.5736013012417325,1.8574687906114753
1769245495684,124,-4,-4.309972199762443,1.510259935661688,1.8583534061412672
1769245495688,124,-4,-4.293047708409028,1.568733134548232,1.876865779057498
1769245495692,124,-4,-4.274715134865918,1.614959250598056,1.8971081136772023
1769245495696,124,-4,-4.284659395852009,1.645507586828804,1.8895133975088003
1769245495700,124,-4,-4.3333152425600705,1.5770150993708447,1.843422716893624
1769245495704,124,-4,-4.386048891140893,1.4893735096475431,1.793052715180762
1769245495708,124,-4,-4.372609191175824,1.6164487862338373,1.8084106399373812
1769245495712,124,-4,-4.233519555352954,1.5490137332299776,1.949160793238256
1769245495716,124,-4,-3.97135887440606,1.7354771218591305,2.2130460206238
1769245495720,125,-3,-3.661423558667234,2.467873501114843,2.5247133809456046
1769245495724,125,-3,-3.4052553753602197,2.609756255053515,2.7823033418890164
1769245495728,125,-3,-3.2648092721556092,2.492634418925442,2.9238768324097353
1769245495732,125,-3,-3.2348888032010175,2.6757793716568323,2.9550670906423453
1769245495736,125,-3,-3.2695442074813963,2.614559136407279,2.922161385935569
1769245495740,125,-3,-3.3253133835672575,2.5667837349861857,2.868521917419214
1769245495744,125,-3,-3.378451438393189,2.5447808591516123,2.8174746367860504
1769245495748,125,-3,-3.4089802133195968,2.5199176481535046,2.788559827611137
1769245495752,125,-3,-3.379948249647994,2.695162544417988,2.818632143894221
1769245495756,125,-3,-3.2461495792264636,2.54908659164115,2.9532988033800183
1769245495760,125,-3,-2.995344427027237,2.6628030929727933,3.205227969416605
1769245495764,126,-2,-2.6814579909932825,3.426257208701499,3.5203141809664613
1769245495768,126,-2,-2.405562705266358,3.654810039894248,3.796974963543252
1769245495772,126,-2,-2.2528785223543712,3.557161673069016,3.950087045121065
1769245495776,126,-2,-2.2414640186662966,3.6763520894739106,3.962363398234107
1769245495780,126,-2,-2.3212392043741827,3.542964256767024,3.88426264410796
1769245495784,126,-2,-2.4092600928831898,3.513635958794056,3.7980689124538296
1769245495788,126,-2,-2.425626447087937,3.6222611328941663,3.782750269397625
1769245495792,126,-2,-2.3143859738544372,3.5280899657084186,3.894215375849245
1769245495796,126,-2,-2.054066786082112,3.7746705263399334,4.154791142733101
1769245495800,127,-1,-1.659300764760255,4.353097800334312,4.550476029842179
1769245495804,127,-1,-1.168238747660237,4.7819790981109165,5.042732104209332
1769245495808,128,0,-0.6216411731334288,5.2855512597849295,5.589874420165058
1769245495812,128,0,-0.053177699401631,5.926238977288561,6.157901309368874
1769245495816,129,1,0.4997018712604419,6.328019117069549,6.710111167763738
1769245495820,129,1,0.9825589408242044,6.795076895819347,7.1931654502165205
1769245495824,130,2,1.338186697769396,7.366276635127003,7.550140183253005
1769245495828,130,2,1.5506577355197342,7.639901509177292,7.7643332161409155
1769245495832,130,2,1.6752042558299132,7.670676605198455,7.890039895017693
1769245495836,130,2,1.8026604024297828,7.45379465799996,8.017719825085464
1769245495840,130,2,1.9685783179183096,7.777553775721165,8.18290047398527
1769245495844,131,3,2.0876674701711417,8.268920686033603,8.300394987845698
1769245495848,130,2,1.9851585864249857,7.834775698220138,8.196095460525598
1769245495852,130,2,1.511583258284216,7.416013020942272,7.721791066120433
1769245495856,129,1,0.6581849599524281,6.72055461349397,6.869494305726526
1769245495860,128,0,-0.4065756302239729,5.4922128499374026,5.8069730114175915
1769245495864,127,-1,-1.4064835889770808,4.520329154419753,4.808758315344414
1769245495868,126,-2,-2.097212319208159,3.650564221153614,4.117905564288233
1769245495872,126,-2,-2.393650647580805,3.528552885005789,3.819611744709979
1769245495876,126,-2,-2.4034926181673257,3.678531425844777,3.807430065323812
1769245495880,126,-2,-2.345662947183471,3.432438707256523,3.8637235240510055
1769245495884,126,-2,-2.409622757237399,3.64094651802042,3.7992343782276214
1769245495888,126,-2,-2.648647357032759,3.489411363272821,3.559889918743883
1769245495892,125,-3,-2.975175242679523,2.7054426268964926,3.2327504170761996
1769245495896,125,-3,-3.253890753552213,2.490154398338433,2.9537104745234415
1769245495900,125,-3,-3.411154166908823,2.580676795477556,2.797145533742674
1769245495904,125,-3,-3.4658911256684446,2.5197868452754197,2.743527083189778
1769245495908,125,-3,-3.4653329238520434,2.5804381233949805,2.743608686422923
1769245495912,125,-3,-3.4068956989130426,2.654455878653785,2.7984117824138917
1769245495916,125,-3,-3.240180449496425,2.4732404423129335,2.959468786854134
1769245495920,125,-3,-2.9519986464351673,2.6223080499467737,3.243974279108986
1769245495924,126,-2,-2.6344535953861623,3.4270114584655675,3.563765648940597
1769245495928,126,-2,-2.4380972899731717,3.7247817453711938,3.7679171922971832
1769245495932,126,-2,-2.4340340848736783,3.472592973912608,3.7787960240646488
1769245495936,126,-2,-2.5253011680120157,3.65638692865274,3.684327416219744
1769245495940,126,-2,-2.520511261903796,3.396419949974775,3.672530332946774
1769245495944,125,-3,-2.3094383545716077,2.6451213411084957,3.8618460635368512
1769245495948,126,-2,-1.9078162326816832,3.532687944086258,4.252463830031708
1769245495952,128,0,-1.174130479011425,5.6417367527295745,4.996983097697633
1769245495956,130,2,0.6652853227560893,7.5045151699636765,6.86479805734564
1769245495960,134,6,5.15457884686519,11.472651541716758,11.381781947054815
1769245495964,142,14,13.904107682323186,19.627717612982963,20.13884085305701
1769245495968,154,26,27.17054028961084,31.479879297285983,33.386016076526964
1769245495972,169,41,42.66349858012197,46.79785627983893,48.8428334999485
1769245495976,185,57,55.74662681374842,62.248375687403446,61.8909941897276
1769245495980,192,64,61.40226611105041,69.76250614595334,67.52798530447104
1769245495984,187,59,56.94453704703231,64.21498349498111,63.07488358305958
1769245495988,171,43,43.654891117395486,48.852568233468574,49.81090825891346
1769245495992,153,25,26.139581111915582,30.398072407250044,32.33031477588909
1769245495996,137,9,9.851177989788807,14.601801998572926,16.066865802528767
1769245496000,127,-1,-1.5223985606504744,4.5816487968889925,4.693096231536399
1769245496004,122,-6,-7.219109149425378,-0.6621617679286391,-1.0294955268760342
1769245496008,120,-8,-8.754653001283891,-2.134975639346921,-2.600966601275031
1769245496012,121,-7,-8.325495326769426,-1.8029050494508132,-2.197169195675418
1769245496016,120,-8,-7.483689441616109,-2.171986400987942,-1.358795011642265
1769245496020,121,-7,-6.765769002959047,-1.7066084845611282,-0.6263910029318787
1769245496024,122,-6,-6.113219966897921,-0.3378194943292252,0.044243612227083
1769245496028,123,-5,-5.44219612517021,0.5665033270394568,0.7233681501008666
1769245496032,124,-4,-4.862488894863024,1.3761753868184607,1.2970123348472806
1769245496036,124,-4,-4.527293363738584,1.6997406554191137,1.618160444744901
1769245496040,124,-4,-4.428451703993523,1.301268967044564,1.705293496034678
1769245496044,123,-5,-4.396680923955101,0.7877177418511989,1.733837022254808
1769245496048,124,-4,-4.274362014095474,1.346715126972477,1.8591158696783665
1769245496052,125,-3,-4.039371056203611,2.612388555052729,2.0959272201645356
1769245496056,125,-3,-3.7581282367437994,2.3991852667380487,2.3734258440894056
1769245496060,124,-4,-3.4710237275177005,1.5922894669032193,2.653577689586138
1769245496064,125,-3,-3.1618981976291103,2.5278044905953987,2.957437737980615
1769245496068,126,-2,-2.809191871106531,3.573504077148766,3.307956275935188
1769245496072,126,-2,-2.416440860051529,3.353842464066474,3.6992299240774074
1769245496076,126,-2,-1.992388100082209,3.6364866071427806,4.120412966249209
1769245496080,127,-1,-1.5347642381222146,4.324366841278866,4.573983591294646
1769245496084,127,-1,-1.045075979102154,4.817794650061394,5.0596254329817425
1769245496088,128,0,-0.5457643887386712,5.26100531142707,5.555403533635989
1769245496092,128,0,-0.0730308644314772,5.624308427451723,6.024720876157852
1769245496096,129,1,0.348420355875328,6.360504517711142,6.44233145228457
1769245496100,129,1,0.7244802564884691,6.540398984211981,6.814261736581254
1769245496104,129,1,1.085261304717393,6.661973602210674,7.171436476789836
1769245496108,130,2,1.4587510144621645,7.335226774619175,7.542219148378235
1769245496112,130,2,1.854621220196744,7.586349421320846,7.935323057928878
1769245496116,131,3,2.276300376663124,8.29479642175546,8.352807304686394
1769245496120,131,3,2.7365458597097385,8.657760672346518,8.807586051286432
1769245496124,131,3,3.240335719808942,8.490353902348591,9.306477050384547
1769245496128,132,4,3.7505076033295506,9.521466091116034,9.813489790118004
1769245496132,133,5,4.197761995933651,10.358094920384634,10.258145295395238
1769245496136,133,5,4.550259384504955,10.46951340231417,10.606741389954458
1769245496140,133,5,4.863813128367081,10.513910942871115,10.915249077032865
1769245496144,133,5,5.234992132615014,10.57374581195036,11.282057820334348
1769245496148,134,6,5.6986868705009135,11.466129655383156,11.74265318154056
1769245496152,135,7,6.190259789724261,12.338373279733872,12.230794646630848
1769245496156,135,7,6.615081485680251,12.493201797742614,12.650507384450004
1769245496160,135,7,6.936584488312378,12.45608049257403,12.966270809481564
1769245496164,135,7,7.183895682201988,12.634013818791386,13.209229475817985
1769245496168,136,8,7.3931330532821775,13.353466988140797,13.41566277578004
1769245496172,136,8,7.569613112341075,13.452556347298051,13.58904333085058
1769245496176,136,8,7.706233095502247,13.316067990544587,13.720937346002762
1769245496180,136,8,7.811618975484657,13.667032685973536,13.820743692870064
1769245496184,136,8,7.902443471505418,13.356064294375086,13.906772882240332
1769245496188,136,8,7.976447955921824,13.628517585347804,13.977108479180869
1769245496192,137,9,8.011026862542675,14.14530163852715,14.007949331880624
1769245496196,136,8,7.991710900993864,13.579339547897588,13.983898864652886
1769245496200,136,8,7.927520233076133,13.434177827828073,13.914537302252851
1769245496204,136,8,7.828056888219734,13.502967781438317,13.810539215260444
1769245496208,136,8,7.674534700402446,13.50695652622588,13.65320155580704
1769245496212,136,8,7.425696492585969,13.189673687645248,13.400420904803346
1769245496216,135,7,7.0496192635744315,12.550214543935104,13.01964966711048
1769245496220,135,7,6.540096763738174,12.430477488437422,12.504909325226222
1769245496224,134,6,5.899560885089308,11.467026278432208,11.85937002452427
1769245496228,133,5,5.111334693284748,10.534635251070712,11.06679811940549
1769245496232,133,5,4.13821772122208,10.096561408025988,10.089637167979042
1769245496236,131,3,2.958631900484787,8.669890477449604,8.905612958407684
1769245496240,130,2,1.6060609272230426,7.243744191785868,7.548120549593873
1769245496244,128,0,0.1652924723135682,5.658791667512087,6.102527838490969
1769245496248,127,-1,-1.2744466717473135,4.285074741507396,4.658404329657321
1769245496252,126,-2,-2.660198136176411,3.3122651106033354,3.2684065999183263
1769245496256,124,-4,-3.973439273263568,1.47969587875434,1.9506938441589767
1769245496260,123,-5,-5.200289484232554,0.3369068659720504,0.7191370868436922
1769245496264,122,-6,-6.309778482189566,-0.3698227514494396,-0.3952107213375679
1769245496268,121,-7,-7.258022464438753,-1.8356132721341565,-1.3484384001977832
1769245496272,120,-8,-8.012156152865076,-2.500121775484299,-2.107500064054755
1769245496276,120,-8,-8.572118900906377,-2.784314576696815,-2.672017115789485
1769245496280,119,-9,-8.96704831999437,-3.406039815656264,-3.071010842154063
1769245496284,119,-9,-9.22594372012922,-3.639729846618184,-3.333827537134681
1769245496288,119,-9,-9.3503787695146,-3.6622607397988167,-3.462689665749489
1769245496292,119,-9,-9.319201613247,-3.6341190395194456,-3.4367308451061493
1769245496296,119,-9,-9.12870891297273,-3.738126161922159,-3.2516894828884197
1769245496300,119,-9,-8.834579724478655,-3.4194311561615116,-2.9624344073654925
1769245496304,120,-8,-8.544505505404382,-2.7009124446698323,-2.676631848223006
1769245496308,120,-8,-8.347766818696467,-2.6327716350470167,-2.4842265558667
1769245496312,120,-8,-8.240225561252243,-2.6828509988981715,-2.3813276728055977
1769245496316,120,-8,-8.12413091342744,-2.738660174588168,-2.2696804635109293
1769245496320,120,-8,-7.890644346591192,-2.413152505599764,-2.040132576269051
1769245496324,121,-7,-7.507454982751484,-1.7785988220304398,-1.6609349181403417
1769245496328,121,-7,-7.033556422227095,-1.5656972588846862,-1.1918812282910816
1769245496332,122,-6,-6.560961497083414,-0.8022434281006108,-0.724943994055292
1769245496336,122,-6,-6.147929076452882,-0.6231807870434967,-0.317403077978204
1769245496340,122,-6,-5.79989669522688,-0.5881652402602091,0.0261892336076536
1769245496344,123,-5,-5.496439343654359,0.3852599116503654,0.3261065925899462
1769245496348,123,-5,-5.222732605902389,0.2016514935831885,0.5962266295281324
1769245496352,123,-5,-4.977025933235595,0.4265676896584667,0.8375837413379466
1769245496356,124,-4,-4.760866984003202,1.1060230267555622,1.0487318957663985
1769245496360,123,-5,-4.572447790899188,0.6541575851814008,1.232097642130844
1769245496364,124,-4,-4.411145160383784,1.0945871890235392,1.3887572052610273
1769245496368,124,-4,-4.283915927767952,1.4604549787583163,1.5117034172209851
1769245496372,124,-4,-4.2017297824884485,1.1320365759002766,1.589687993267841
1769245496376,124,-4,-4.168445664954844,1.369666267178835,1.6187153516199158
1769245496380,124,-4,-4.173793233829052,1.374217682804321,1.6090380626948333
1769245496384,124,-4,-4.195995789799813,1.2859261768418446,1.582414471519484
1769245496388,124,-4,-4.2121135314960565,1.2894982698529112,1.561847525549112
1769245496392,124,-4,-4.21081688998786,1.2082603036388295,1.5588062568305583
1769245496396,124,-4,-4.198169603513204,1.3208731224667734,1.5672230077671454
1769245496400,124,-4,-4.189166003638983,1.3441750238968897,1.5719122069631255
1769245496404,124,-4,-4.19161509126776,1.2896561941452682,1.564981667691841
1769245496408,124,-4,-4.199261508625843,1.2418281995110991,1.5529035567194418
1769245496412,124,-4,-4.201379410482468,1.215619029615997,1.546651370408382
1769245496416,124,-4,-4.196282585272028,1.294384555745339,1.5478071232258293
1769245496420,124,-4,-4.191932528227968,1.3204802690627535,1.5480390190870623
1769245496424,124,-4,-4.194184845800646,1.2731773703552012,1.5413450324178468
1769245496428,124,-4,-4.199126686961934,1.2137348517875703,1.5319363514406548
1769245496432,124,-4,-4.199347112478728,1.207315610409451,1.5275820927073287
1769245496436,124,-4,-4.194579155812994,1.2733395067066915,1.5284828183215002
1769245496440,124,-4,-4.191754570170969,1.2981103172580823,1.5273002008937229
1769245496444,124,-4,-4.194911970181408,1.250644940065856,1.519800427749738
1769245496448,124,-4,-4.199558104087808,1.1909550504538369,1.510764461245993
1769245496452,124,-4,-4.199339571107478,1.1927001633113807,1.506935273312448
1769245496456,124,-4,-4.195223018917124,1.254659232146042,1.5073140136440308
1769245496460,124,-4,-4.193916830028915,1.2752535729447527,1.504767942065539
1769245496464,124,-4,-4.197797890003953,1.2261659097345268,1.496636759856881
1769245496468,124,-4,-4.201029000507291,1.169374915832644,1.4889549084473006
1769245496472,124,-4,-4.198052625635862,1.174277819456063,1.487706490815072
1769245496476,124,-4,-4.192816268791146,1.238002265913463,1.4891327387748
1769245496480,124,-4,-4.194927034443818,1.2506847830740222,1.4834551865266763
1769245496484,124,-4,-4.206200718567878,1.201285789770132,1.4685588698378904
1769245496488,124,-4,-4.2149506091441395,1.1482723950487594,1.4558941639595375
1769245496492,124,-4,-4.207292127142956,1.1510177733389026,1.4592038793594035
1769245496496,124,-4,-4.184622911339681,1.2262763645324193,1.4771675280389691
1769245496500,124,-4,-4.168344008562819,1.2207885517813692,1.4888808746238542
1769245496504,124,-4,-4.18433485471497,1.177903028771273,1.4691653349057825
1769245496508,124,-4,-4.236591121171259,1.1308141983544364,1.4141553021342208
1769245496512,124,-4,-4.288369514536701,1.1102916186895229,1.3596815431135192
1769245496516,124,-4,-4.269532592079864,1.2466198889793798,1.374674830268778
1769245496520,124,-4,-4.118780902533979,1.1382197736613435,1.5202855176751902
1769245496524,124,-4,-3.841037614089422,1.2307454218706018,1.7927400352429066
1769245496528,125,-3,-3.5282377824588433,2.0057509047639956,2.1012906597354006
1769245496532,125,-3,-3.3036815802537793,2.2129607649616827,2.322706961245968
1769245496536,125,-3,-3.221025518785387,2.0801310914580378,2.4025134641524057
1769245496540,125,-3,-3.2095563402883114,2.283745486550866,2.4107140329095342
1769245496544,125,-3,-3.1284176202544067,2.011492318736907,2.488062726610739
1769245496548,125,-3,-2.8915862516333593,2.1766265258073743,2.7207515611732536
1769245496552,126,-2,-2.551869552232434,3.011690525167989,3.0559841144829356
1769245496556,126,-2,-2.2632499150558174,3.218417103433488,3.3398289482808763
1769245496560,126,-2,-2.152322463194038,3.134267083704822,3.4461649909552774
1769245496564,126,-2,-2.210865130720016,3.066444634764194,3.3838065338549823
1769245496568,126,-2,-2.295037845612544,3.0866191893943373,3.296677774021664
1769245496572,126,-2,-2.222810981555779,3.0454216820032576,3.3663627245333436
1769245496576,126,-2,-1.8905392223574804,3.147696539057101,3.6958684542790534
1769245496580,127,-1,-1.324691648608166,4.181065310027577,4.258008781095507
1769245496584,128,0,-0.6400991194823824,4.928059517341801,4.937494732068568
1769245496588,128,0,0.0452170139721239,5.200504908053042,5.616818980169124
1769245496592,129,1,0.6580693177495052,5.843954748728042,6.224228063797523
1769245496596,129,1,1.156547988155785,6.345040365492498,6.718925233592965
1769245496600,130,2,1.505582364194364,6.909153307885877,7.065646695569428
1769245496604,130,2,1.690807494120894,7.155893929219931,7.248921563675378
1769245496608,130,2,1.7516504753859672,6.9152115172881325,7.307114443258219
1769245496612,130,2,1.7754183798133187,7.052167779932223,7.32689958259656
1769245496616,130,2,1.832350337866799,7.141118124894472,7.378372521811393
1769245496620,130,2,1.8980308216002144,7.004594108682362,7.437749244335647
1769245496624,130,2,1.8350410652318192,7.070024799052379,7.369003336783135
1769245496628,130,2,1.4700493474223812,6.880650074166972,7.000048001444568
1769245496632,129,1,0.7291772840659405,6.070969711582402,6.257003240010883
1769245496636,128,0,-0.2671714599311534,5.060511128529443,5.2589540094478675
1769245496640,127,-1,-1.2411454234821906,4.025329072156754,4.282216364091799
1769245496644,126,-2,-1.9248959967345889,3.0245149818064068,3.5940133571410025
1769245496648,126,-2,-2.2433636777273147,2.814195034159999,3.2697838910515755
1769245496652,126,-2,-2.3629802800152966,3.1512738868933585,3.143880211558087
1769245496656,126,-2,-2.5542363642968393,2.8663678379628212,2.9467097025093403
1769245496660,125,-3,-2.974049916128978,2.2305113208237404,2.5223576980855498
1769245496664,125,-3,-3.5450385694200612,1.700986822828995,1.94884813241596
1769245496668,124,-4,-4.023791168547124,1.1016268835951886,1.469049333464278
1769245496672,124,-4,-4.192803568753451,0.7982977647550107,1.298428476851326
1769245496676,124,-4,-4.018665179616282,1.1772147958065555,1.4677502205758317
1769245496680,125,-3,-3.6589559538467458,1.8864204480076363,1.818376997880752
1769245496684,125,-3,-3.3319006347136586,1.9571792085297448,2.134836701215997
1769245496688,125,-3,-3.1701891219119744,1.7913291896787094,2.2903766713406495
1769245496692,125,-3,-3.1670823917299655,2.034368957849779,2.2959705375124804
1769245496696,125,-3,-3.2194479125046236,1.9018636393583224,2.2515535566008937
1769245496700,125,-3,-3.2029660728273948,2.1150699176908248,2.2706798126171495
1769245496704,126,-2,-3.0380872580467724,2.660466518931204,2.422810850607882
1769245496708,125,-3,-2.7446796130111144,2.024483973506319,2.6894239353811233
1769245496712,125,-3,-2.4393345840878893,1.7252527679043317,2.969041930204619
1769245496716,126,-2,-2.1500947980093548,3.1724104772621766,3.251826815615353
1769245496720,128,0,-1.409787012895089,4.791813554750842,4.01087068596603
1769245496724,130,2,1.0875908253688484,6.923221352487881,6.539342534016456
1769245496728,136,8,7.233987970283799,12.709054343583087,12.706025752286092
1769245496732,146,18,18.38261239840388,22.958007217491613,23.847457580820407
1769245496736,160,32,33.833615299823435,36.91250395118006,39.26518446470051
1769245496740,177,49,50.07279403101498,54.00777759370342,55.461529727437025
1769245496744,192,64,61.74565227225363,68.64944899761718,67.1008747647027
1769245496748,195,67,64.20335646604727,71.88482308080107,69.54590796100754
1769245496752,185,57,56.10738516253788,61.63352785885813,61.460616750300815
1769245496756,167,39,40.26933109386114,44.126679209978676,45.65066374101568
1769245496760,149,21,22.096633661134504,25.720608453517297,27.508957194459914
1769245496764,134,6,6.75156847651093,10.93294572744379,12.17898482674425
1769245496768,126,-2,-3.074870428314787,2.6652623362574563,2.3398029795293276
1769245496772,122,-6,-7.571575495876653,-1.2054721833233932,-2.1928052737317216
1769245496776,120,-8,-8.625476497151084,-3.071907132902786,-3.2862414341851736
1769245496780,120,-8,-8.23035754848351,-3.264286786968579,-2.9134795403580735
1769245496784,120,-8,-7.558023561821861,-3.0983366254013474,-2.238858544083783
1769245496788,121,-7,-6.951970690423531,-2.4080729314886273,-1.615706132976575
1769245496792,122,-6,-6.3918566121929,-1.1050566571441758,-1.041729312629852
1769245496796,123,-5,-5.861008381401419,-0.3164286780688705,-0.5124745363130732
1769245496800,123,-5,-5.408955628331885,-0.0892244678733229,-0.0759722985714432
1769245496804,123,-5,-5.066583043415998,-0.3640447622209519,0.2483548248949771
1769245496808,123,-5,-4.817891103837021,-0.1844114295832684,0.4867926026583564
1769245496812,124,-4,-4.643199563250573,0.6598063645211818,0.6599200396297098
1769245496816,124,-4,-4.528705056679658,0.8044688434616996,0.7746117090896139
1769245496820,124,-4,-4.418492049037798,0.7237554130725261,0.8802959127206726
1769245496824,124,-4,-4.2041198019027615,0.714773765868757,1.0852883762078136
1769245496828,124,-4,-3.8114876831107054,0.7146663753937244,1.468269157129784
1769245496832,125,-3,-3.298303985289259,1.705625455902351,1.9748749493092603
1769245496836,126,-2,-2.824639400735087,2.6941810116109584,2.444030017760341
1769245496840,126,-2,-2.494279863426992,2.73001801789228,2.7690446111575246
1769245496844,126,-2,-2.2320266023158037,2.624416412056318,3.024268423032103
1769245496848,126,-2,-1.845594633153355,2.7632812661907105,3.4035715274922023
1769245496852,127,-1,-1.2212562106448608,3.5859131053219855,4.021784438733946
1769245496856,128,0,-0.4503361166621369,4.778224118591178,4.786463571246483
1769245496860,129,1,0.2435546085771922,5.519026936093102,5.472438602326458
1769245496864,129,1,0.6960208536273462,5.7826747919162464,5.915936882651459
1769245496868,129,1,0.9205880190944786,5.526594955201748,6.132885589987422
