timestamp_ms,ecg_u8_raw,ecg_counts_raw_int,ecg_counts_filt_monitor,ecg_counts_filt_diagnostic,ecg_counts_filt_st
1769169333272,128,0,0.5766318408074826,0.0934517644749081,-0.6934323398953227
1769169333276,128,0,0.5581780073082251,-0.288210005058874,-0.7135131918890415
1769169333280,127,-1,0.4648396535253863,-0.8627125677871978,-0.8083230040027175
1769169333284,128,0,0.4712183491101681,-0.3004151304709566,-0.8032291385284533
1769169333288,128,0,0.7041096780627595,-0.1894000445743349,-0.5720388862636444
1769169333292,128,0,1.1344909059825543,-0.1261354159615949,-0.1442682099394923
1769169333296,129,1,1.5845274533383629,0.9298549205233112,0.3025913881234102
1769169333300,129,1,1.8427721332915197,0.9703432767385136,0.5579561200013536
1769169333304,129,1,1.80355075086127,0.825825248981995,0.5168811875554415
1769169333308,129,1,1.528302143007113,0.7316664596157592,0.2411051519299141
1769169333312,128,0,1.1858097974460322,-0.0681782370571023,-0.1008759901702118
1769169333316,128,0,0.92465830886616,-0.0656834380870375,-0.3615319107525719
1769169333320,128,0,0.7819479707926764,-0.0311185874288788,-0.5052185129242069
1769169333324,128,0,0.690115870752319,-0.1675029695749703,-0.6000857635984753
1769169333328,128,0,0.5509161720853002,-0.2600436236329362,-0.7430765615279598
1769169333332,127,-1,0.2994203088436871,-1.0689017240965992,-0.9968501040914336
1769169333336,127,-1,-0.0762824915508872,-1.0378467932754578,-1.3723910273304147
1769169333340,127,-1,-0.5327622312926787,-1.0336337519822885,-1.827573491681914
1769169333344,126,-2,-0.9658038449481114,-2.168695330370072,-2.260034954493908
1769169333348,126,-2,-1.2280656705251614,-2.2477683286257215,-2.5229105186598355
1769169333352,126,-2,-1.1919092962537472,-2.050098892849041,-2.487768500038244
1769169333356,126,-2,-0.8227567120838868,-2.068188304950936,-2.11933861227375
1769169333360,127,-1,-0.2028580144558064,-0.9341998675394028,-1.499947188462255
1769169333364,128,0,0.5132231643047274,-0.3017806440555727,-0.7845206375660476
1769169333368,128,0,1.171769907438701,-0.0847712628119026,-0.1268314578235705
1769169333372,129,1,1.6687197513288965,0.7963930535986766,0.3692899687272095
1769169333376,129,1,1.9572567348253491,1.0867624859581644,0.6573821768573994
1769169333380,129,1,2.033556637715186,0.9606430541026916,0.7341134192136292
1769169333384,129,1,1.9252260166069384,0.7867246415475637,0.6272814079098378
1769169333388,129,1,1.6947088362748266,0.8523358088778895,0.3985339118296525
1769169333392,129,1,1.4476253304627322,0.8615290610934652,0.1522333111998849
1769169333396,128,0,1.3101103725274763,0.0430135753180379,0.0143015891757755
1769169333400,128,0,1.3556339645285047,0.0359927851917809,0.0592166138270743
1769169333404,129,1,1.5333612309837723,0.7102471456737547,0.2368616654815368
1769169333408,129,1,1.683982760546143,0.9416863279908402,0.3876945680934808
1769169333412,129,1,1.6503924099725396,0.7876045723557863,0.3545312209638482
1769169333416,128,0,1.3859189238641074,0.1265507370348443,0.0913356652173109
1769169333420,128,0,0.9671320330073644,-0.0099991366697089,-0.3251499990663231
1769169333424,128,0,0.5168137575571389,-0.2724957838132742,-0.7732168146441163
1769169333428,127,-1,0.1105514868574483,-1.0205314052579335,-1.1784234116632968
1769169333432,127,-1,-0.2717743628806393,-1.281129483569914,-1.560729393549919
1769169333436,126,-2,-0.7281270803984801,-1.7296619293335709,-2.017038708278505
1769169333440,126,-2,-1.3607072388534425,-2.19308372277987,-2.648891172993016
1769169333444,125,-3,-2.1911709206470062,-3.042818918205949,-3.4779420974830706
1769169333448,124,-4,-3.1287466427961608,-4.263811141907245,-4.413411064798994
1769169333452,123,-5,-4.021288151059586,-5.021609944169867,-5.303079353520008
1769169333456,122,-6,-4.7460915653598015,-5.937651384815489,-6.02487359422738
1769169333460,122,-6,-5.260816069368072,-6.03126050723692,-6.537763538147077
1769169333464,122,-6,-5.582640564711999,-6.108697000267087,-6.859387681795638
1769169333468,121,-7,-5.74239489220172,-7.286303398221554,-7.019160559352861
1769169333472,121,-7,-5.769943364674215,-6.888508696758252,-7.04508296893505
1769169333476,122,-6,-5.702356623075524,-6.137148545021701,-6.974061352125792
1769169333480,121,-7,-5.574532946522497,-6.753930363966511,-6.842413292484906
1769169333484,122,-6,-5.398625821892651,-6.419203486477436,-6.663470597939479
1769169333488,122,-6,-5.173551272795986,-5.929025555529061,-6.436313014042733
1769169333492,122,-6,-4.926729774320948,-6.270410686010982,-6.188289608222813
1769169333496,122,-6,-4.737375605054489,-5.713396675938621,-5.998766691492861
1769169333500,123,-5,-4.698331109385361,-5.170522952449427,-5.959913890094772
1769169333504,122,-6,-4.837780064665335,-5.993441356101642,-6.0973404286849435
1769169333508,122,-6,-5.072111509084374,-6.332762227262643,-6.324587709358605
1769169333512,122,-6,-5.235600327070132,-5.880519356867275,-6.476769831379378
1769169333516,122,-6,-5.166831151387129,-6.0649765255625985,-6.398704993082327
1769169333520,122,-6,-4.803924354013914,-5.822155539364861,-6.036276902850395
1769169333524,123,-5,-4.24151833745578,-5.285451111093898,-5.4864354874700005
1769169333528,123,-5,-3.68133657799334,-5.090974337900683,-4.943538872738
1769169333532,124,-4,-3.2065028221966188,-4.054967610934724,-4.476399127294674
1769169333536,125,-3,-2.4196406398471013,-2.942536435108013,-3.675641687611241
1769169333540,127,-1,-0.1872392041128288,-0.8543309890174715,-1.408416919623746
1769169333544,133,5,5.149118706832525,4.710122769898593,3.967180693797708
1769169333548,142,14,14.893367971720595,13.975437515481858,13.731811851734363
1769169333552,155,27,28.697427272802827,26.849925757076605,27.52389756993078
1769169333556,169,41,43.60132971749956,41.2197565802987,42.39024068641991
1769169333560,181,53,54.32071682465091,52.966086077587065,53.06855902881005
1769169333564,184,56,55.159686066588506,55.8970760563091,53.885168394918395
1769169333568,172,44,42.8319777756952,43.72566651944744,41.564354965058655
1769169333572,146,18,18.56838833257472,18.046042728586592,17.333926338723703
1769169333576,114,-14,-11.946670331189424,-13.983099980694616,-13.134384755021808
1769169333580,84,-44,-40.93453699440303,-43.80053900806634,-42.07993636557294
1769169333584,65,-63,-61.78061642239018,-63.224280171152174,-62.9057265227869
1769169333588,57,-71,-71.30853274115452,-71.04328795046335,-72.44358665615961
1769169333592,58,-70,-70.06632893093374,-70.12051880024386,-71.23339656144344
1769169333596,66,-62,-61.0241006252557,-61.82235288201509,-62.22430933298904
1769169333600,79,-49,-47.86114393401064,-48.99242291240351,-49.075965111868186
1769169333604,93,-35,-33.7829862009158,-35.08061178739142,-34.988378744874346
1769169333608,106,-22,-21.0764375566611,-22.13993399382537,-22.257925482139743
1769169333612,116,-12,-11.096638984502668,-12.035296613445196,-12.254822269287564
1769169333616,123,-5,-4.347345181981869,-4.9177813073354235,-5.492835884399128
1769169333620,127,-1,-0.5664112425751782,-0.9231483606186373,-1.7101635706513263
1769169333624,128,0,1.071936710405471,-0.1797875609697337,-0.0740826199572766
1769169333628,128,0,1.57313626083476,0.0512310583781672,0.4282615562994547
1769169333632,129,1,1.707775906573513,0.7741351432704131,0.5690066278391366
1769169333636,129,1,1.8257972883738356,1.32602904367522,0.6934443381931286
1769169333640,130,2,1.9847856021947832,1.7825125762316376,0.8545392491165393
1769169333644,129,1,2.192317778426832,1.1445151490859806,1.0611735612965434
1769169333648,129,1,2.5000936381964745,0.7466881495283064,1.3706910622155115
1769169333652,130,2,2.919510011726264,2.1009144469936674,1.79734775310038
1769169333656,131,3,3.3540000335995277,3.03757295155207,2.2411265785907872
1769169333660,131,3,3.682167618585893,3.003527274898153,2.5752649835361674
1769169333664,131,3,3.8899807390523895,3.0096525907283027,2.7847771055409702
1769169333668,131,3,4.0725717621599715,2.8127739259067304,2.9687360051807454
1769169333672,131,3,4.298174970022893,3.135657471202965,3.1990154072585852
1769169333676,132,4,4.507507427387514,3.951265710374903,3.415551059609996
1769169333680,132,4,4.579653129256057,4.134531092227055,3.4938350356957897
1769169333684,132,4,4.487353580628445,3.85927794916038,3.4049711736820485
1769169333688,131,3,4.3493084189046485,2.998385502025047,3.269677534465344
1769169333692,131,3,4.310074062084628,2.9358124878663427,3.2349613744318644
1769169333696,132,4,4.388157595213087,4.193572859027322,3.318923789861754
1769169333700,132,4,4.465850836424346,3.8701722663537503,3.401705500345365
1769169333704,131,3,4.41991002806564,3.1698516746094803,3.3593721022135044
1769169333708,132,4,4.244076010696299,3.669377004873349,3.1870058532843304
1769169333712,131,3,4.052387978961957,3.285943878483848,3.000025947446578
1769169333716,131,3,3.9826041613413263,2.8341117111431946,2.936192706701519
1769169333720,131,3,4.09472660591862,3.2685050434604825,3.054300869970433
1769169333724,132,4,4.346583783103426,3.7744003190553066,3.310814527322082
1769169333728,132,4,4.653322108601431,4.072373063827816,3.62072165743774
1769169333732,132,4,4.95856715751882,3.9009442861168937,3.929094419946977
1769169333736,132,4,5.246107877386209,4.189383906354871,4.221201835213528
1769169333740,133,5,5.503809549372175,4.977930442985882,4.4846189129590375
1769169333744,133,5,5.703840081047274,5.027691699589704,4.689972355050927
1769169333748,133,5,5.821639164217651,4.881485259326343,4.811984377317164
1769169333752,133,5,5.858279617632955,5.047826379705708,4.852499246202841
1769169333756,133,5,5.83846989820022,5.080706472715629,4.837183207185646
1769169333760,133,5,5.795445512430553,5.069794986699473,4.799287587129878
1769169333764,133,5,5.7601636654352,4.986775079154389,4.769105279076903
1769169333768,133,5,5.753908609195091,4.905736745853271,4.767350280934082
1769169333772,133,5,5.779807867497384,5.045024425142342,4.797038685808662
1769169333776,133,5,5.819196048647166,5.07198560636875,4.839917603469829
1769169333780,133,5,5.839692437169124,5.090382721792212,4.864430431639628
1769169333784,133,5,5.812303061613954,5.0099189223112495,4.842172787957076
1769169333788,133,5,5.73034103637171,4.851318382215218,4.765932318431322
1769169333792,133,5,5.622386904734697,5.150361325896251,4.662871576256138
1769169333796,133,5,5.543884359799071,4.909315156860961,4.587771465209137
1769169333800,132,4,5.534290242162411,4.32490142987445,4.581169072985289
1769169333804,133,5,5.565647790044357,4.748445845411166,4.616564304068807
1769169333808,133,5,5.545996074910202,5.15685645255709,4.601939362717102
1769169333812,133,5,5.39938957841827,4.821145185365257,4.4601280154628835
1769169333816,132,4,5.147900280475234,4.250235441950222,4.212638778084927
1769169333820,132,4,4.900731437046877,4.002156684444312,3.9692568606906464
1769169333824,132,4,4.754249336231101,4.06460086446559,3.8269246635881102
1769169333828,132,4,4.703941981686054,3.886020409101952,3.7809359598391863
1769169333832,132,4,4.652166923891386,4.055072577655004,3.733216996859232
1769169333836,132,4,4.495098968282047,4.0645897464410385,3.580025889946731
1769169333840,131,3,4.199595225739239,3.15627586269275,3.2885817258000123
1769169333844,131,3,3.802661296729126,2.9466630148784856,2.8956627867641593
1769169333848,131,3,3.349305826912201,3.00464756758046,2.44556258699538
1769169333852,130,2,2.8363027642787424,1.9375336430814292,1.9351652950306888
1769169333856,129,1,2.2106749791694575,1.2034998508633303,1.3127912504638568
1769169333860,129,1,1.4271607326907247,1.0108432625935035,0.534055298909257
1769169333864,128,0,0.5288044903139562,0.1060824343806281,-0.3587744995328434
1769169333868,127,-1,-0.3222485245300464,-1.1434151548653393,-1.205018274089245
1769169333872,126,-2,-0.9243840452506622,-1.9125941232523456,-1.8037190729742787
1769169333876,126,-2,-1.1891007388774897,-1.9307283894312712,-2.0661246526069292
1769169333880,126,-2,-1.234352133950822,-1.8615730370501624,-2.1096613362737067
1769169333884,126,-2,-1.3183653247068143,-1.9897368492058125,-2.1918745765892873
1769169333888,126,-2,-1.6532695722133075,-2.0620736503398236,-2.523958435822294
1769169333892,125,-3,-2.245841386735875,-2.9607351441693583,-3.11199420501632
1769169333896,124,-4,-2.8901885377025662,-3.9229466520439136,-3.750521001296844
1769169333900,124,-4,-3.3118591399468715,-3.8247646335661822,-4.166762104315238
1769169333904,124,-4,-3.349284054277865,-4.040291165048757,-4.2007960128152195
1769169333908,124,-4,-3.046993089321887,-3.97621531374125,-3.897303392469665
1769169333912,125,-3,-2.611740614021665,-3.044195125290083,-3.4616691674669835
1769169333916,125,-3,-2.2741484226106676,-2.85103571749524,-3.122832501375916
1769169333920,125,-3,-2.1529869646945303,-2.892798139238616,-2.9986175556407964
1769169333924,125,-3,-2.210126193386903,-2.948537639505798,-3.051070515245828
1769169333928,125,-3,-2.312032298967689,-3.083326477533032,-3.147848052306733
1769169333932,125,-3,-2.33521138179122,-2.88640548996745,-3.167007340066654
1769169333936,125,-3,-2.2357465324845096,-3.063611605040951,-3.065527170229037
1769169333940,125,-3,-2.048710611941527,-2.6236010621616512,-2.8779942743193914
1769169333944,126,-2,-1.8405003068534784,-2.244488454016091,-2.6690830779405044
1769169333948,125,-3,-1.6618242861244956,-2.752818692669525,-2.487830451186432
1769169333952,126,-2,-1.5285728423557017,-2.2193553015139074,-2.350256587004574
1769169333956,126,-2,-1.4213965754814464,-1.7431623063591584,-2.239098103616467
1769169333960,126,-2,-1.2938762626965243,-1.917772251031929,-2.109602967706982
1769169333964,126,-2,-1.1053321736374633,-1.9671661731908816,-1.9202372779350303
1769169333968,126,-2,-0.876098138914062,-1.9762140066611136,-1.6892934761453926
1769169333972,127,-1,-0.7045960824343298,-1.0503992350789548,-1.514939338622571
1769169333976,127,-1,-0.6965085069689114,-0.8528548144856838,-1.504523169359208
1769169333980,126,-2,-0.863003167411974,-1.856688633687382,-1.6700053633952685
1769169333984,126,-2,-1.1034882621255253,-1.9736267866046215,-1.9094083977287637
1769169333988,126,-2,-1.2962843483194038,-1.98603792138478,-2.0995248808853426
1769169333992,126,-2,-1.3929804741862803,-2.0470209168134823,-2.1924892527408093
1769169333996,126,-2,-1.4175060991109307,-1.8232063955140552,-2.214258629782308
1769169334000,126,-2,0.323309770478728,-2.741498399756823,-2.6367922587586565
1769169334004,126,-2,0.3315218385671236,-2.740600806272412,-2.62892632632665
1769169334008,126,-2,0.3478349053162655,-2.823229936889754,-2.613680843707609
1769169334012,126,-2,0.3531350661032162,-2.8265504506935537,-2.60822165899691
1769169334016,126,-2,0.3248985183287887,-2.7846684436634543,-2.634177044177294
1769169334020,126,-2,0.2666253827937218,-2.74498073313155,-2.6891619869748844
1769169334024,126,-2,0.2371606907688013,-2.68431658148321,-2.716288304755664
1769169334028,126,-2,0.3362765403355949,-2.902839074640412,-2.616498357718979
1769169334032,126,-2,0.6329801618465765,-2.692439942563259,-2.3195479855046814
1769169334036,127,-1,1.0916148993831682,-1.951505258993982,-1.859312126550557
1769169334040,127,-1,1.5777077200508316,-1.5141037266333313,-1.3698269122865363
1769169334044,128,0,1.9594170071404315,-0.9337352313326336,-0.9841651111392964
1769169334048,128,0,2.2173978316851297,-0.6044841078383824,-0.7230976789783607
1769169334052,128,0,2.4492180754484543,-1.0045944587632216,-0.4891771651579086
1769169334056,128,0,2.7505214518028827,-0.633083114245917,-0.1857483045194684
1769169334060,129,1,3.087792430986158,0.2195193773914179,0.1544725314723587
1769169334064,129,1,3.300444077161934,0.3009435383252967,0.3708110012119414
1769169334068,129,1,3.244131896835645,0.2609329980085625,0.3184456231778869
1769169334072,129,1,2.942902562228179,0.0434856207788717,0.0212339011829308
1769169334076,128,0,2.603299433739375,-0.5911741800755955,-0.313998239289981
1769169334080,128,0,2.4664785172043446,-0.8800578843825301,-0.4456996916810184
1769169334084,128,0,2.6193584707132667,-0.5086209835400333,-0.2871635299055037
1769169334088,129,1,2.925573347873216,0.0593536370488255,0.0241304424023243
1769169334092,129,1,3.131091773716142,0.2666161215641343,0.2330930281078312
1769169334096,129,1,3.041004600444791,0.1919124570604458,0.1453403005837872
1769169334100,128,0,2.6084311122094586,-0.6706957427575206,-0.2838323809114054
1769169334104,127,-1,1.8823898041382203,-1.668890172844909,-1.003719548560985
1769169334108,127,-1,0.9144833198382832,-1.780221444758205,-1.9635366552632552
1769169334112,126,-2,-0.2503800720775575,-2.858122502388024,-3.1207706986537014
1769169334116,124,-4,-1.503880273463949,-4.695275863087065,-4.368245981545771
1769169334120,123,-5,-2.6444161958039483,-5.755849305394301,-5.503361166497462
1769169334124,122,-6,-3.459179020731762,-6.57366537579091,-6.312104260970456
1769169334128,122,-6,-3.852312156187024,-6.848774792723884,-6.698847108982765
1769169334132,122,-6,-3.9005938307294463,-6.762746143010438,-6.741219391936648
1769169334136,122,-6,-3.7923658102743376,-6.787882823896013,-6.627414036708111
1769169334140,122,-6,-3.705647428361949,-6.651091455058065,-6.534276585339891
1769169334144,122,-6,-3.715165806722363,-6.662546122491397,-6.535790240140799
1769169334148,122,-6,-3.7816786439390726,-6.752421327034823,-6.593338171744462
1769169334152,122,-6,-3.817075882474913,-6.814742111042051,-6.620147534801534
1769169334156,122,-6,-3.7742777095133833,-6.7538153890123995,-6.56986444955281
1769169334160,122,-6,-3.698975458615082,-6.639181452020016,-6.487849912180583
1769169334164,122,-6,-3.704514575834538,-6.700159693128968,-6.486791138295574
1769169334168,122,-6,-3.882133448936429,-6.651148779738806,-6.657585770073553
1769169334172,122,-6,-4.210464329411307,-6.937425615486809,-6.978313660393524
1769169334176,121,-7,-4.542357597115242,-7.582600830726733,-7.300353384416362
1769169334180,121,-7,-4.695181124721786,-7.8313449894735,-7.439880110291919
1769169334184,121,-7,-4.580052183923232,-7.474633231872602,-7.309833317277002
1769169334188,122,-6,-4.26413917092326,-6.854434413141587,-6.98288043911668
1769169334192,122,-6,-3.920043524297858,-6.723738907984338,-6.636873283640923
1769169334196,122,-6,-3.706882916463665,-6.753373807828172,-6.430003379923748
1769169334200,122,-6,-3.639954495328849,-6.708390706916777,-6.368356366760349
1769169334204,122,-6,-3.45076899689837,-6.522609295705232,-6.171035490974414
1769169334208,124,-4,-2.44294141213135,-4.857657959469559,-5.135605924292014
1769169334212,127,-1,0.5273137879925303,-1.5985526463553643,-2.1252422655286978
1769169334216,133,5,6.7054803799688525,4.050834961691679,4.088084043753294
1769169334220,142,14,16.610497090854462,13.582300376080603,14.00647435952905
1769169334224,154,26,29.02063319839096,25.134073794865028,26.403708601508896
1769169334228,165,37,40.4974269838047,36.55540498706254,37.85239425066485
1769169334232,173,45,46.155581758925386,43.98497579925153,43.48656480079333
1769169334236,169,41,41.7058389751702,40.456104124773184,39.033408937789005
1769169334240,153,25,25.80791456654393,24.127821181452532,23.158920515987035
1769169334244,127,-1,1.2706504971720003,-1.4456874115661908,-1.3334810855215506
1769169334248,99,-29,-25.812009428671157,-29.8634832329084,-28.36465661772294
1769169334252,76,-52,-48.5969705003312,-52.50985201744945,-51.11017319196437
1769169334256,64,-64,-62.240167008095106,-64.94525849192209,-64.73969755540416
1769169334260,61,-67,-65.37619700951197,-67.38678455555907,-67.88817659559479
1769169334264,67,-61,-59.80500796200572,-61.89177665370387,-62.34131117131248
1769169334268,77,-51,-48.9774475754397,-51.44552569704486,-51.5300509380327
1769169334272,90,-38,-36.35724711263744,-38.933491991777544,-38.90541208563606
1769169334276,101,-27,-24.443983367352672,-27.53857311763856,-26.96813336452408
1769169334280,111,-17,-14.594389650537392,-17.771745414229265,-17.0865447312301
1769169334284,119,-9,-7.297641450282969,-9.522553742396282,-9.76257327723191
1769169334288,124,-4,-2.4935097132909467,-4.811187880212254,-4.942029722262918
1769169334292,126,-2,0.2368179129815169,-2.579778358586911,-2.2037667992777923
1769169334296,128,0,1.5368920961397867,-0.841102728155644,-0.8977559194069185
1769169334300,128,0,2.0937503274657825,-0.4623223967871201,-0.3319654901885931
1769169334304,128,0,2.4253432497644094,-0.7796252721894228,0.0122451038550495
1769169334308,129,1,2.7543240485448264,0.4125379699337788,0.3548739308180106
1769169334312,130,2,3.0571804066176047,1.2684988001724609,0.6697931708436764
1769169334316,129,1,3.2389221313376404,0.2636048697498658,0.862290148776232
1769169334320,129,1,3.281068493090058,0.541672116790243,0.9163466551217696
1769169334324,130,2,3.2649817117265845,1.1476145687177255,0.9146381207661864
1769169334328,129,1,3.3048808503043734,0.5433392233991245,0.9699861311535348
1769169334332,130,2,3.4758726582921406,1.1230623809536524,1.1552433644741815
1769169334336,130,2,3.780376823813433,1.453566169488842,1.4721026413818006
1769169334340,130,2,4.153097270170865,1.3763657679622665,1.856286550302142
1769169334344,131,3,4.494864218984672,2.3026960388213795,2.2099703401643778
1769169334348,131,3,4.722422215384077,2.4212598751386345,2.450544806940196
1769169334352,131,3,4.80906548302514,2.216553044006097,2.5513103501094903
1769169334356,131,3,4.789754476153861,2.4433976739988044,2.54682129159264
1769169334360,131,3,4.730484671425135,2.3593911841023947,2.5022198265605664
1769169334364,131,3,4.688625912177401,2.3565453084779517,2.47394319385426
1769169334368,131,3,4.687719342701218,2.3645195747870043,2.485380275394649
1769169334372,131,3,4.711877495703634,2.282395587264764,2.521612406983258
1769169334376,131,3,4.719222585030948,2.4226108684063634,2.542058178960352
1769169334380,131,3,4.67472388591722,2.3914658029454645,2.512100847412022
1769169334384,131,3,4.590679797926112,2.3234977387816143,2.443196714107731
1769169334388,131,3,4.543767693437078,2.4268298385992724,2.4108099220963077
1769169334392,131,3,4.639887182738685,2.2042510115265292,2.5204752670123716
1769169334396,131,3,4.937083900328314,2.561593652162607,2.830925186990406
1769169334400,132,4,5.384855986942938,3.2556859887973877,3.292368673803873
1769169334404,132,4,5.84105306493034,3.465480457605512,3.7624320313808943
1769169334408,133,5,6.16551899830019,4.3113143581213045,4.100245838183461
1769169334412,133,5,6.313732231896948,4.302165457316119,4.2614593760877995
1769169334416,132,4,6.345651744282918,3.5301923253083016,4.3072979995301415
1769169334420,133,5,6.349095880117261,4.257629460843546,4.3262217566987955
1769169334424,133,5,6.367510106779585,4.527436318259032,4.360395287375596
1769169334428,133,5,6.4049002399533705,4.199961462669624,4.411945919171819
1769169334432,133,5,6.475890517161531,4.494465925452614,4.4953575536833785
1769169334436,133,5,6.61784284963959,4.312872901997583,4.649791925789343
1769169334440,133,5,6.845747102684998,4.511389912963374,4.891833958517192
1769169334444,134,6,7.1137276264050895,5.2890266772625765,5.175240040359285
1769169334448,134,6,7.340703887398406,5.424274116194278,5.417248555740055
1769169334452,134,6,7.4753687194758545,5.336214831719714,5.565567979883589
1769169334456,134,6,7.525456068038633,5.439808275536609,5.628529668194771
1769169334460,134,6,7.5207420060754835,5.443623642788307,5.637126796389732
1769169334464,134,6,7.458832574662277,5.319694174056938,5.589458798114351
1769169334468,134,6,7.301524292148313,5.455680759584782,5.446843603168869
1769169334472,134,6,7.03008276682977,5.292634366801791,5.18992514173275
1769169334476,133,5,6.697888154016616,4.5291470766012365,4.872004340152781
1769169334480,133,5,6.416219144235167,4.341490569824058,4.604497594548466
1769169334484,133,5,6.278374278357955,4.4444585276319195,4.480485110039026
1769169334488,133,5,6.289640259968626,4.343414630218965,4.505025451134937
1769169334492,133,5,6.360651590259855,4.4382260024671325,4.589187653669115
1769169334496,133,5,6.365795878237177,4.400125945331955,4.608070220092166
1769169334500,133,5,6.225466853510682,4.472412064110818,4.482075910527475
1769169334504,133,5,5.956880897336588,4.320676298796799,4.227794407166842
1769169334508,132,4,5.6514614015261815,3.493934170436043,3.936339084041915
1769169334512,132,4,5.389090658727252,3.297867085099746,3.6877731569576766
1769169334516,132,4,5.16402364732135,3.5919485502920416,3.4763585893239144
1769169334520,132,4,4.895574426542494,3.239197528738361,3.221242563274673
1769169334524,131,3,4.510072005557505,2.6207049451377347,2.8490415494545434
1769169334528,131,3,4.008095270702615,2.1559422644582096,2.3608462884544714
1769169334532,130,2,3.4573569942782445,1.708741506069225,1.8241906115760511
1769169334536,130,2,2.930570841839145,1.160407948336936,1.3110178676248916
1769169334540,129,1,2.4471292848174553,0.7010094744323039,0.8405325218825924
1769169334544,129,1,1.9609192634483144,0.1740924267633444,0.3673767747580303
1769169334548,128,0,1.402189667874877,-0.4045175064231165,-0.17767212494197
1769169334552,128,0,0.7483690092427064,-0.6641131208895392,-0.8177922189532398
1769169334556,127,-1,0.069914385326105,-1.5096638343790496,-1.483348200247887
1769169334560,126,-2,-0.4999390271938759,-2.552999487344356,-2.0407168828574687
1769169334564,126,-2,-0.8602543769211288,-2.623952015464829,-2.387732975820079
1769169334568,126,-2,-1.0155436342133424,-2.530200049031606,-2.528608084039183
1769169334572,126,-2,-1.0499810343093312,-2.5624094410843363,-2.5488000226807275
1769169334576,126,-2,-1.0305389132440386,-2.5526730680864156,-2.516745360687369
1769169334580,126,-2,-0.9488371445095888,-2.530039055339742,-2.423936646740636
1769169334584,126,-2,-0.7703106960255386,-2.624382856909693,-2.2340810869170196
1769169334588,126,-2,-0.5347507603597856,-2.520018583465151,-1.9855879080832233
1769169334592,127,-1,-0.3800030974522435,-1.5470045361872424,-1.8168820900926557
1769169334596,127,-1,-0.4342211453018278,-1.5338879075929277,-1.8577322088330184
1769169334600,126,-2,-0.6773989351087808,-2.5581403736641137,-2.0885470903104215
1769169334604,126,-2,-0.9276276166485312,-2.5741596625086256,-2.3263204870118415
1769169334608,126,-2,-0.9816533585381269,-2.576920027747766,-2.3671182142925433
1769169334612,126,-2,-0.7771317103325042,-2.449350629659592,-2.1495364138892015
1769169334616,127,-1,-0.4288696862117931,-1.6000751694252011,-1.7897253103899162
1769169334620,127,-1,-0.1225093021703531,-1.4816410378014693,-1.4731192296305036
1769169334624,127,-1,0.0239115018836573,-1.6525624748746812,-1.315900222310314
1769169334628,127,-1,0.0157059501355563,-1.4943793739223534,-1.3112988517558402
1769169334632,127,-1,-0.0627836936792716,-1.5042923749038244,-1.375672834640025
1769169334636,127,-1,-0.1265543812638265,-1.5155480162803157,-1.4261482536172476
1769169334640,127,-1,-0.1386436442830441,-1.5361765300049703,-1.4269975734744669
1769169334644,127,-1,-0.114942620903419,-1.615896595003158,-1.393293921882912
1769169334648,127,-1,-0.0999815115913198,-1.5143917934004356,-1.367833013375248
1769169334652,127,-1,-0.1285147996581555,-1.463649551091356,-1.384562040947128
1769169334656,127,-1,-0.1892947953488184,-1.526374633715442,-1.4328364275700285
1769169334660,127,-1,-0.2171613169111164,-1.4925564007176093,-1.4484898695630797
1769169334664,127,-1,-0.1307124336934373,-1.6803161472316024,-1.3505557148319447
1769169334668,127,-1,0.1065148338257131,-1.4343578859904025,-1.1025405793439305
1769169334672,128,0,0.4552042973000572,-0.5189515470033509,-0.7435875331242341
1769169334676,128,0,0.8297454554767572,-0.4445924446996743,-0.3587822593783148
1769169334680,128,0,1.1584456981741094,-0.529825780842322,-0.0190811840952125
1769169334684,129,1,1.42316253785769,0.3108821258499759,0.257360465421392
1769169334688,129,1,1.6578478710282738,0.6257907542181852,0.5035304213857956
1769169334692,129,1,1.9124963159989676,0.3871728025451197,0.7687732398821547
1769169334696,129,1,2.198662538887069,0.7534542503095167,1.0650386710348907
1769169334700,130,2,2.4548147387896804,1.2384166144087652,1.331288233373278
1769169334704,130,2,2.5748870019766477,1.562293274533193,1.4612952581365652
1769169334708,130,2,2.486718637627855,1.3806938843861123,1.3828407332774884
1769169334712,129,1,2.2050488780367914,0.6262172653307297,1.111337739520602
1769169334716,129,1,1.807459123849816,0.6042775584992419,0.7248526342136475
1769169334720,129,1,1.3658191356946343,0.3442833873784338,0.2945031269775106
1769169334724,128,0,0.9020486444671344,-0.4944316033193485,-0.1591633696989673
1769169334728,128,0,0.3940527016268831,-0.5936911138533032,-0.6586609417347105
1769169334732,127,-1,-0.1940539429803804,-1.3501570480914786,-1.2387934443739703
1769169334736,126,-2,-0.8875931758147675,-2.394064615957361,-1.9234328421276912
1769169334740,126,-2,-1.6851496150995886,-2.6477305435990863,-2.710848481112749
1769169334744,125,-3,-2.5401995504064656,-3.4862829136785263,-3.5554191912195874
1769169334748,124,-4,-3.352169469453208,-4.623960462204401,-4.357395485420087
1769169334752,123,-5,-3.995271323102746,-5.256906887616359,-4.990987841654383
1769169334756,123,-5,-4.381760365469586,-5.486196588854163,-5.368267963629724
1769169334760,123,-5,-4.51170933608717,-5.521962364755814,-5.489573554209133
1769169334764,123,-5,-4.468931583068129,-5.6110142568983274,-5.439006949838965
1769169334768,123,-5,-4.3715076579464895,-5.50675683394152,-5.334297970191632
1769169334772,123,-5,-4.314818646655462,-5.324745374733938,-5.269883517792732
1769169334776,123,-5,-4.33712683434962,-5.416584825639351,-5.283119206375923
1769169334780,123,-5,-4.417447323428084,-5.556506625032649,-5.3529581635046455
1769169334784,123,-5,-4.498322638330212,-5.584288299976696,-5.423291689189827
1769169334788,123,-5,-4.516558320470455,-5.524799700756597,-5.433097921104269
1769169334792,123,-5,-4.431110893541497,-5.276436133639505,-5.3422521984518
1769169334796,123,-5,-4.249715405399112,-5.4367025831777305,-5.15648514160147
1769169334800,123,-5,-4.045125979532478,-5.525654702108669,-4.944909028250493
1769169334804,124,-4,-3.9265554751762393,-4.603997931749128,-4.8149718778005095
1769169334808,124,-4,-3.955569893704742,-4.510735177976492,-4.830297510127592
1769169334812,123,-5,-4.07737168661777,-5.250177126867155,-4.940602830859124
1769169334816,123,-5,-4.161626049414376,-5.445277266998774,-5.01987321821076
1769169334820,123,-5,-4.127774631732841,-5.491868820846338,-4.9892125348339995
1769169334824,124,-4,-3.991735861896097,-4.665325821704625,-4.860750358783683
1769169334828,124,-4,-3.708425150289015,-4.384138283343491,-4.579137483770581
1769169334832,124,-4,-2.887596573417439,-4.411852206436417,-3.7430197081961656
1769169334836,127,-1,-0.6284791827556568,-1.1808485994715177,-1.4507430198397726
1769169334840,133,5,4.277552588750262,4.178993948719987,3.4917038147896715
1769169334844,140,12,12.667850532179065,11.730407340208629,11.900915294266037
1769169334848,151,23,24.02229791200589,22.222127883416977,23.24661271347303
1769169334852,161,33,35.727929146225655,33.02101801742123,34.923852386364615
1769169334856,171,43,43.3589110864452,42.40568900714433,42.52546943156547
1769169334860,172,44,42.3249530672821,43.543595976602944,41.47789401288809
1769169334864,159,31,30.244239621489346,30.386219634212004,29.407382989450127
1769169334868,136,8,8.599953382926408,7.462545809666198,7.795531631685293
1769169334872,109,-19,-17.508318979178366,-19.113654042338908,-18.26901619962983
1769169334876,85,-43,-41.475953304221306,-43.55753949741425,-42.198993730336795
1769169334880,69,-59,-57.91380505251511,-59.263137883874016,-58.620784578038766
1769169334884,64,-64,-64.46222186294493,-64.81626055359082,-65.178967271684
1769169334888,66,-62,-61.938208017433,-62.19127218954405,-62.68064578916428
1769169334892,75,-53,-53.147049050046746,-53.50927382539581,-53.91365275179355
1769169334896,86,-42,-41.334527907835984,-42.19116697198941,-42.1096558272893
1769169334900,98,-30,-29.135985648004233,-30.620911088161748,-29.900618539536445
1769169334904,109,-19,-18.270091875125622,-19.47500867079301,-19.012501352451352
1769169334908,118,-10,-9.6797284982457,-10.46551924136233,-10.400169037360762
1769169334912,124,-4,-3.7091716035227913,-4.301220257343393,-4.41701781516328
1769169334916,128,0,-0.1713348803188394,-0.3738656048364066,-0.8772533306738917
1769169334920,129,1,1.5549258970571622,0.5511691863597101,0.8463463031799268
1769169334924,129,1,2.252524302893346,0.3903422954949676,1.5441837305157045
1769169334928,130,2,2.5165375105512373,1.7428262971427892,1.81347482267802
1769169334932,131,3,2.589352678506517,2.453201352346207,1.892646161681235
1769169334936,130,2,2.4919222979405986,1.921412941024524,1.798564222798111
1769169334940,130,2,2.2661486892707243,1.2397350207408366,1.5739608526499147
1769169334944,129,1,2.0682152823979085,0.7391142496484886,1.378781913954313
1769169334948,130,2,2.066571259503068,1.4296616799884865,1.3828322711569905
1769169334952,130,2,2.3084400243743444,1.750841361767801,1.6309397504193703
1769169334956,130,2,2.6996998861774775,1.676310559184372,2.0262227242133264
1769169334960,131,3,3.0895838829753863,2.4500098199227267,2.4177194198219687
1769169334964,131,3,3.3655080995772453,2.603228786531666,2.694724061160998
1769169334968,131,3,3.4918096233900453,2.5234818849018725,2.823395265541683
1769169334972,131,3,3.492108765861089,2.7299927331100515,2.8278178958315334
1769169334976,131,3,3.4147344285995604,2.6582654099775382,2.7554643522330164
1769169334980,131,3,3.3160245372531905,2.5243435531426512,2.661244461831323
1769169334984,131,3,3.261478180033541,2.518338079877927,2.6095733484032047
1769169334988,131,3,3.317442566023178,2.652126903838799,2.6668409800292165
1769169334992,131,3,3.514931952287335,2.5930466225960216,2.8653458091784234
1769169334996,131,3,3.806413630678827,2.829737579742587,3.158958679575115
1769169335000,132,4,4.067798771223735,3.3535581298973747,3.4235437103737905
1769169335004,132,4,4.173403545982069,3.7074524760474663,3.5319521026101772
1769169335008,132,4,4.0929187210141045,3.509513271017728,3.452980961352144
1769169335012,131,3,3.9140962806175055,2.6878395060327325,3.275355708165809
1769169335016,131,3,3.761860023835029,2.8368280504921732,3.1254599777350287
1769169335020,132,4,3.7001581918698423,3.242541645688881,3.0670907425938148
1769169335024,131,3,3.7187388439932767,2.9778297258755377,3.0884170490998852
1769169335028,132,4,3.799462858709111,3.1318358036827343,3.1703118886053456
1769169335032,131,3,3.966059189893736,3.1909174074835147,3.337157608113123
1769169335036,132,4,4.2542409189513615,3.2547382869523975,3.625964514127066
1769169335040,132,4,4.641863251729769,3.8726887997288566,4.0149901870772915
1769169335044,133,5,5.028781092425935,4.398932817394867,4.403354594635473
1769169335048,133,5,5.302898270000037,4.662919087054042,4.6783066997243745
1769169335052,133,5,5.4338639485015205,4.781209294263495,4.809986950353934
1769169335056,133,5,5.502815603160331,4.537248462433507,4.880560372135695
1769169335060,133,5,5.640416667522899,4.7154168020785034,5.02062441035485
1769169335064,134,6,5.932114627707747,5.505876827666122,5.314130074827155
1769169335068,134,6,6.3646316498489055,5.629195589058766,5.746566136280314
1769169335072,134,6,6.833522244813902,5.822033000692544,6.213987574798876
1769169335076,135,7,7.190226090677108,6.476502695686583,6.569373104886694
1769169335080,135,7,7.30888405296463,6.803392607519809,6.687888576292839
1769169335084,135,7,7.150800502921054,6.441131369670943,6.5309496345248785
1769169335088,134,6,6.788205931159296,5.7086013999754455,6.170292792013764
1769169335092,134,6,6.367075529393087,5.799441795799792,5.750811860325085
1769169335096,134,6,6.035869701802514,5.426240011294813,5.419764502140929
1769169335100,133,5,5.88249602965529,4.944201344159403,5.26498908786708
1769169335104,134,6,5.901055757909612,5.261747504718806,5.281969894630928
1769169335108,133,5,5.99926178400424,4.977655149460954,5.3796539060840916
1769169335112,134,6,6.054685848023591,5.501662426739115,5.435195274575431
1769169335116,134,6,5.994804780404071,5.733763076700853,5.3748674199306565
1769169335120,133,5,5.8333216961318,4.657032016989813,5.212358204691765
1769169335124,133,5,5.620240209665069,4.548071642591161,4.998747953325778
1769169335128,133,5,5.359592167338668,4.77306870418189,4.738240623729267
1769169335132,133,5,4.994503320769514,4.648699242611233,4.372786330637121
1769169335136,132,4,4.474908641583945,3.663456212025876,3.8516474231345126
1769169335140,131,3,3.819650452257179,2.6677199235724247,3.19444754376319
1769169335144,131,3,3.104053402812043,2.623155881529035,2.477452172968837
1769169335148,130,2,2.4014944610276743,1.6765949592393627,1.7740405510239083
1769169335152,129,1,1.7450751699034992,0.795930170648279,1.1168920390089396
1769169335156,129,1,1.1350280607257826,0.5004300507898902,0.5059975332045609
1769169335160,128,0,0.5737677558348602,-0.1455435906708897,-0.0564864105959779
1769169335164,128,0,0.0934878958120333,-0.55216473061267,-0.5386265517212268
1769169335168,127,-1,-0.2556538841978919,-1.1123084658661428,-0.8900091678049789
1769169335172,127,-1,-0.4561225118387724,-1.4004527465830114,-1.0924110429230025
1769169335176,127,-1,-0.563679310897403,-1.3080267048834842,-1.2013960620197968
1769169335180,127,-1,-0.6836791350917821,-1.3009509686287557,-1.3229815029416707
1769169335184,127,-1,-0.8911776563695495,-1.417227844495019,-1.5327758043095323
1769169335188,126,-2,-1.1706164109060155,-2.1608597533208895,-1.814725971007365
1769169335192,126,-2,-1.436356789696607,-2.4081664596514116,-2.082300890176666
1769169335196,126,-2,-1.6079042977148583,-2.2284918893405594,-2.2550820334535673
1769169335200,126,-2,-1.6595112076712024,-2.4253189390108716,-2.3083431493023285
1769169335204,126,-2,-1.6060851443913802,-2.2265717310357607,-2.257538567570446
1769169335208,126,-2,-1.4626371319947582,-2.333290866235916,-2.1170668405840707
1769169335212,126,-2,-1.229162514966379,-2.2460302909922047,-1.886141119091462
1769169335216,127,-1,-0.9072214934226815,-1.3497996144242426,-1.566405356882926
1769169335220,127,-1,-0.52068465431741,-1.3380542807590126,-1.182283804029165
1769169335224,127,-1,-0.1219542492707419,-1.2378309789639117,-0.7863313667522231
1769169335228,128,0,0.2196278247248946,-0.3298462741327852,-0.447694753624571
1769169335232,128,0,0.4467218381019137,-0.2207009831825359,-0.2235873342794251
1769169335236,128,0,0.5455257149997687,-0.3892734568265894,-0.1276392857161514
1769169335240,128,0,0.5513410547301776,-0.2709857848364644,-0.1242865238209534
1769169335244,128,0,0.5207629327473409,-0.2839768456848448,-0.157058393472398
1769169335248,128,0,0.4974527890203589,-0.2553207483274515,-0.1829407618855968
1769169335252,128,0,0.4980994379991244,-0.2802443838876755,-0.1857308661632489
1769169335256,128,0,0.5176604380432829,-0.3387594664968376,-0.1701740475116308
1769169335260,128,0,0.5397336173365384,-0.2914327068861519,-0.1518699120522408
1769169335264,128,0,0.5470370801898703,-0.2503873407915016,-0.1475986235741495
1769169335268,128,0,0.5339425313624869,-0.2514578129306377,-0.1631961257343928
1769169335272,128,0,0.5154636064127927,-0.2817251486679313,-0.1842597419224722
1769169335276,128,0,0.5200260397364993,-0.3289473242025762,-0.1828170705311542
1769169335280,128,0,0.5632971900737964,-0.2937026198233302,-0.1432352029176433
1769169335284,128,0,0.6209953076828668,-0.2107250917519892,-0.0895754844020346
1769169335288,128,0,0.6278443915154841,-0.2774966458951592,-0.0869285078959364
1769169335292,128,0,0.5140530688984934,-0.2282438227403405,-0.2049356441857066
1769169335296,128,0,0.2584537004386503,-0.4014289057590634,-0.464378012042147
1769169335300,127,-1,-0.0827943749031351,-1.182654971199039,-0.8085962066073091
1769169335304,127,-1,-0.3952716334245987,-1.3267559332749297,-1.1233215064998552
1769169335308,127,-1,-0.5556874250939474,-1.096049373536936,-1.2863475657122012
1769169335312,127,-1,-0.4791571723695487,-1.4378395398103,-1.213742022147386
1769169335316,127,-1,-0.1517830524565563,-1.1486928399345793,-0.8912960025149631
1769169335320,128,0,0.3546523955239651,-0.4487688695957035,-0.3896793907183783
1769169335324,128,0,0.901960071577964,-0.0263760141135779,0.1534448865288606
1769169335328,129,1,1.3464792984125766,0.6359529282401629,0.5939707008345445
1769169335332,129,1,1.609177099113171,0.8247548457339897,0.8524169992755616
1769169335336,129,1,1.7017939863781577,0.6176252207172668,0.9408898190552448
1769169335340,129,1,1.6916093163249075,0.7617012546329256,0.9273498863804056
1769169335344,129,1,1.6448631555014763,0.826103035558882,0.8779375521128967
1769169335348,129,1,1.6011759722229262,0.772427059596131,0.8312016160645946
1769169335352,129,1,1.585379267939402,0.7452514368549362,0.8109193513125023
1769169335356,129,1,1.6186682470019766,0.6662588736019632,0.8383379033977822
1769169335360,129,1,1.700845334266854,0.7425218618421988,0.914574682720108
1769169335364,129,1,1.7819902495379896,0.8608405615037604,0.9912972021964792
1769169335368,129,1,1.767994177271664,0.7669370298688227,0.9747256932604532
1769169335372,129,1,1.5784641225862572,0.7735103797735072,0.782880061626086
1769169335376,129,1,1.216150467831124,0.6363316677790789,0.4164535553919634
1769169335380,128,0,0.7707637993130353,-0.2261484350126112,-0.0349291392668272
1769169335384,127,-1,0.3252167321335834,-1.132814017217867,-0.4862174964521524
1769169335388,127,-1,-0.1552012091644969,-1.2319082343808647,-0.9705553477554776
1769169335392,127,-1,-0.815987562264127,-1.1821460479653156,-1.6345652057960864
1769169335396,126,-2,-1.7637141313271778,-2.424761567074661,-2.5868734929456543
1769169335400,124,-4,-2.9214800563608616,-4.143419344248967,-3.7504298534192904
1769169335404,123,-5,-4.052590950807788,-5.201951972150969,-4.886305466914097
1769169335408,122,-6,-4.934029896194132,-6.146607323606722,-5.770349712154126
1769169335412,122,-6,-5.500744977080225,-6.232063669962051,-6.339236718617346
1769169335416,122,-6,-5.829795743100013,-6.360540662593565,-6.672606472710647
1769169335420,121,-7,-6.016934176742848,-7.204076226143744,-6.866557193214897
1769169335424,121,-7,-6.096926932341619,-7.117671407762578,-6.953627473846019
1769169335428,121,-7,-6.07619600759858,-7.232052016594913,-6.9379983240079115
1769169335432,121,-7,-6.002922310248715,-7.11150692717066,-6.867808428959802
1769169335436,122,-6,-5.966823419050197,-6.461456561280679,-6.8344363505427435
1769169335440,121,-7,-6.020319994327783,-7.091356360994276,-6.8915952054415595
1769169335444,121,-7,-6.1144419380122885,-7.225468447929986,-6.990341589793183
1769169335448,121,-7,-6.128194299921264,-7.105408560100907,-7.009395039009725
1769169335452,121,-7,-5.966032365518396,-7.226877088347917,-6.853319105273487
1769169335456,122,-6,-5.63034279959389,-6.309818711191233,-6.5239683548370895
1769169335460,122,-6,-5.210758632571409,-6.219983239670578,-6.108785072327227
1769169335464,122,-6,-4.813771407753849,-6.115347203345621,-5.712125315031071
1769169335468,123,-5,-4.497003369564006,-5.167961909151176,-5.393127096507108
1769169335472,123,-5,-4.255302887035224,-5.190854797109351,-5.152769583793348
1769169335476,123,-5,-4.063917444903019,-5.277415984068804,-4.97272076206982
1769169335480,123,-5,-3.9278842866592623,-5.258960103344425,-4.8580900918202845
1769169335484,123,-5,-3.833448339160415,-5.062434917423059,-4.785721313818945
1769169335488,124,-4,-3.5286587346594143,-4.210957368105894,-4.4889940215087965
1769169335492,125,-3,-2.228775658344262,-3.1283396628638447,-3.173862489561352
1769169335496,129,1,1.4595195188021046,0.6992027344127698,0.5467030037033265
1769169335500,137,9,9.074921924037426,8.781628092890948,8.18973241101558
1769169335504,148,20,21.239264358719257,19.92579590687229,20.354204339572536
1769169335508,162,34,36.41927877713093,33.79512929749331,35.50037681877021
1769169335512,176,48,50.37979806223386,47.93170126823403,49.40794457982406
1769169335516,185,57,57.16471878706548,56.59349794960804,56.14587252931506
1769169335520,181,53,51.63211825412634,52.91772569326287,50.59230762221933
1769169335524,161,33,32.33986538464456,32.69493535203789,31.31226234910133
1769169335528,129,1,2.9490750085172284,1.0140775746441664,1.9601168481720608
1769169335532,97,-31,-28.95483968614083,-31.30298683759313,-29.897311170186853
1769169335536,71,-57,-55.0572217796728,-57.07651656280376,-55.969326361609134
1769169335540,57,-71,-69.67985002081804,-71.29530702587914,-70.59487456122062
1769169335544,56,-72,-71.52859325790007,-71.95051519635034,-72.47940538683746
1769169335548,65,-63,-63.21968320248071,-63.338436049116254,-64.2209706731528
1769169335552,78,-50,-49.317366233709734,-49.961449995910314,-50.359078611155425
1769169335556,93,-35,-34.22692074516482,-35.474504956922665,-35.28227277383953
1769169335560,105,-23,-20.952937070459328,-22.888913265592578,-21.995156891509893
1769169335564,116,-12,-10.903374909708411,-12.344613369584655,-11.920707966700906
1769169335568,123,-5,-4.287976485795783,-4.9513921654102395,-5.287832699409982
1769169335572,127,-1,-0.5976905788367164,-1.3600618423085271,-1.5978461610784216
1769169335576,128,0,1.028323170957168,-0.0930175070280685,0.0141945127616418
1769169335580,128,0,1.4950723268664134,-0.1963446782687761,0.4657705223390993
1769169335584,128,0,1.4894138265245438,-0.0421664808613688,0.4524882805885508
1769169335588,129,1,1.3753353081621995,0.8373952875610162,0.3369466990910605
1769169335592,129,1,1.300268073538538,0.7809726460814206,0.2598144602725161
1769169335596,128,0,1.3642253429591364,-0.1557641505408655,0.3179242467833227
1769169335600,128,0,1.65129023732632,-0.1724642137402474,0.5981511271579636
1769169335604,129,1,2.125502682578156,1.0147383822889378,1.067995160620503
1769169335608,130,2,2.587888556099984,1.7639612842796892,1.5280261188374176
1769169335612,130,2,2.814236764351484,1.8850797158750572,1.7513153949563205
1769169335616,130,2,2.7523930586865952,1.7423494895291525,1.6849292563613474
1769169335620,129,1,2.5678464951179834,0.9309962576311112,1.4961535375636286
1769169335624,129,1,2.4892398288051845,0.9499556083756766,1.4148380008307424
1769169335628,130,2,2.615445149633722,1.8337014196490709,1.5384272352085606
1769169335632,130,2,2.8653165821033983,1.8585178686875163,1.7837007658883004
1769169335636,130,2,3.0837140749606404,1.7597132156374788,1.995829974317382
1769169335640,130,2,3.1736675810328827,1.9426695353237196,2.0803060639783486
1769169335644,130,2,3.1443169870090943,1.92799357118961,2.047893475832584
1769169335648,130,2,3.072068088756146,1.8955918062571049,1.9740726658935364
1769169335652,130,2,3.0333654486573147,1.815252482969497,1.933087674883164
1769169335656,130,2,3.057227942564231,1.8166370646087864,1.9527236418279093
1769169335660,130,2,3.1159189497141284,1.9016777597966363,2.0058326947831713
1769169335664,130,2,3.1519079766981495,1.963912482260169,2.036492307353051
1769169335668,130,2,3.1246696811155465,1.9043867186682315,2.0054484691288574
1769169335672,130,2,3.050357796184026,1.807349638894829,1.9289108492920064
1769169335676,130,2,3.0086179278676233,1.868699209747359,1.885428050191921
1769169335680,130,2,3.106308697002832,1.8196067170192205,1.9805023617898216
1769169335684,130,2,3.4121892311611735,2.0992911347106418,2.2823301660842508
1769169335688,131,3,3.899326535625308,2.7477374117261286,2.7645696384043887
1769169335692,131,3,4.4373853650411945,3.0435407938955157,3.2979599916297224
1769169335696,132,4,4.853481022622983,3.5889359769311535,3.7101409937769585
1769169335700,132,4,5.0338787341928315,4.16212370249047,3.8871885979709138
1769169335704,132,4,4.9970405343121165,3.712254368883294,3.847476737683876
1769169335708,131,3,4.876209374697564,3.198448181586929,3.724502103763989
1769169335712,132,4,4.82423718935702,3.6005125085714225,3.6707758857762647
1769169335716,132,4,4.925264616510684,4.0386326652582625,3.7692180364184873
1769169335720,132,4,5.177175044089142,3.7613465178139336,4.016986304229789
1769169335724,132,4,5.526322419355531,4.0597740040899986,4.361285040774046
1769169335728,133,5,5.9022963838969424,4.95985653455648,4.733281119495036
1769169335732,133,5,6.234462917614189,4.7597059875908,5.06300905798536
1769169335736,133,5,6.463623023606875,4.992808543308331,5.2904074474379135
1769169335740,134,6,6.558738005792036,5.738216931656901,5.382967166840798
1769169335744,133,5,6.52860951990546,5.150504243023456,5.34909439863551
1769169335748,133,5,6.408852334086581,4.854415758270463,5.225614487891509
1769169335752,133,5,6.230067860799896,4.905499218554587,5.044336651096454
1769169335756,133,5,6.008884821411417,4.854115376814928,4.821455660472085
1769169335760,133,5,5.781100669841048,4.891425298395296,4.5914909306880975
1769169335764,132,4,5.627315024959573,4.021639864881083,4.43482560411941
1769169335768,132,4,5.633877287284248,3.979341037168727,4.438605252326746
1769169335772,133,5,5.816025946311394,4.831006022417989,4.618260509704816
1769169335776,133,5,6.0883712052256955,4.906324753513598,4.887768616838132
1769169335780,133,5,6.314616054273713,4.9014883725200855,5.110750173494113
1769169335784,133,5,6.384117886758468,4.982990316292113,5.1773834836533155
1769169335788,133,5,6.2554650690719145,5.0680623841894805,5.046766544136392
1769169335792,133,5,5.9542765024826885,4.718496185480365,4.744080796850804
1769169335796,132,4,5.54005906500908,4.077145755523718,4.328186013123323
1769169335800,132,4,5.062350881220318,3.719229748357903,3.8484099312887072
1769169335804,131,3,4.5341603171048055,3.202545831243648,3.3178082952499217
1769169335808,131,3,3.943227806814344,2.847781923849784,2.7242756470668885
1769169335812,130,2,3.2861259162162177,1.9530486765922832,2.064788746975152
1769169335816,129,1,2.587713619068092,0.884148396851986,1.3645363479588546
1769169335820,129,1,1.892301105022527,0.8916830900680845,0.667544369257345
1769169335824,128,0,1.2452986705935334,0.099400585874289,0.0187248510129209
1769169335828,127,-1,0.6800966078902508,-1.1043789015775194,-0.5483969753993062
1769169335832,127,-1,0.2102954425856535,-1.0043896558675982,-1.019718416569142
1769169335836,127,-1,-0.166693349797145,-1.201210483252949,-1.3978824293185037
1769169335840,126,-2,-0.4525366382482927,-1.9640939470848684,-1.6851341682742973
1769169335844,126,-2,-0.638700522497728,-2.04570083846669,-1.8732710941678776
1769169335848,126,-2,-0.7222749508311268,-1.95170540566842,-1.9591364976184535
1769169335852,126,-2,-0.7290160743728618,-2.1227614742383927,-1.9678519966672177
1769169335856,126,-2,-0.7123399839765714,-2.090070032363594,-1.9522470299445325
1769169335860,126,-2,-0.720228287643845,-2.0208825023694676,-1.960402978156841
1769169335864,126,-2,-0.7523112642635397,-2.0156784601797657,-1.992892399410183
1769169335868,126,-2,-0.746189270150516,-1.9282506555420056,-1.9881334003547075
1769169335872,126,-2,-0.6207776211028107,-2.169125009374384,-1.864671054125387
1769169335876,126,-2,-0.3548004791966352,-1.992636403684735,-1.6001280943229532
1769169335880,127,-1,-0.0272578535145353,-1.1170553004662953,-1.2731534374318358
1769169335884,127,-1,0.233974065087793,-0.8957359545636643,-1.012381543570839
1769169335888,127,-1,0.3553353414553259,-1.0371519209005753,-0.8920337890401647
1769169335892,127,-1,0.3691383752528794,-1.0468840670008372,-0.8794612071387261
1769169335896,127,-1,0.3616095496648799,-1.100256837182188,-0.8876619420359391
1769169335900,127,-1,0.374545465853058,-0.9888040522292232,-0.8746856108591912
1769169335904,127,-1,0.3617569883673397,-1.004039914965305,-0.8874436504377987
1769169335908,127,-1,0.241531715593201,-0.9130673032637852,-1.0084678939522769
1769169335912,127,-1,-0.0104577698303758,-1.1552828728865996,-1.2619455969242244
1769169335916,126,-2,-0.3229120589686562,-1.9840685753902896,-1.5753667203699957
1769169335920,126,-2,-0.5827765220660039,-2.0842525343329035,-1.834688853765969
1769169335924,126,-2,-0.7218455737525582,-1.889288971798002,-1.9722223204208376
1769169335928,126,-2,-0.7494711849613263,-2.007988191842494,-1.998879578913648
1769169335932,126,-2,-0.7153460029373504,-2.0427856350173546,-1.9653119725780173
1769169335936,126,-2,-0.6608157476780242,-2.082536560970786,-1.9124219496929689
1769169335940,126,-2,-0.6094139407076423,-1.9841591370213367,-1.8625251545721129
1769169335944,126,-2,-0.5860781410550961,-1.950602214144172,-1.8394983089246897
1769169335948,126,-2,-0.621275932076053,-1.9547000724526309,-1.8734033095667075
1769169335952,126,-2,-0.7195311727330326,-2.0369974041803047,-1.969268922524712
1769169335956,126,-2,-0.8181736088412943,-2.1281207003359,-2.0657339485141013
1769169335960,126,-2,-0.787708726091599,-1.872170904907988,-2.0344880854357563
1769169335964,126,-2,-0.5044310186068119,-2.096430083147486,-1.7517898448129676
1769169335968,126,-2,0.0403031808704344,-1.7407019225655955,-1.2079147506590882
1769169335972,128,0,0.691155563622025,-0.2616735413441284,-0.5572962498491686
1769169335976,128,0,1.2106997481726334,0.1200936962991916,-0.0371275266116126
1769169335980,128,0,1.442949425180334,-0.1022518092365392,0.196619008841869
1769169335984,128,0,1.422003748948257,0.124919269839118,0.177886605624703
1769169335988,128,0,1.3366726048521418,0.0957596159602743,0.0948671632718252
1769169335992,128,0,1.3852998477505734,-0.1374067483622942,0.1452309132210797
1769169335996,128,0,1.6346331923113984,0.0835579148523497,0.3956001840822776
1769169336000,129,1,1.9871301430361212,0.8824174076022325,0.7487079644165922
1769169336004,129,1,2.2771951744921366,1.2146444209614158,1.03930917304457
1769169336008,129,1,2.409643840094109,0.9834833312205488,1.1727522173344045
1769169336012,129,1,2.416816051746004,1.0009136274626829,1.1819451190656256
1769169336016,129,1,2.3925537163273978,0.9761637129956116,1.1606255770977938
1769169336020,129,1,2.380231183315491,0.9632726593684005,1.1511713300598367
1769169336024,129,1,2.3241852180394913,1.2165019889877238,1.0969735493694843
1769169336028,129,1,2.1181948756322697,0.9313465413448878,0.8920063203747124
1769169336032,128,0,1.6920718734810745,0.1350303220057969,0.4671776463177691
1769169336036,128,0,1.0588171876988834,-0.2092548916612728,-0.1638335117968239
1769169336040,127,-1,0.2969984249643262,-0.7874509182496856,-0.922768462367566
1769169336044,126,-2,-0.5046000202048888,-2.045629150744013,-1.7213702474651864
1769169336048,125,-3,-1.2967966413702672,-2.7650769835324347,-2.510631946451656
1769169336052,125,-3,-2.077756367936199,-3.15235155722924,-3.288875245180292
1769169336056,124,-4,-2.8529223445940204,-3.936987114838016,-4.061701176947366
1769169336060,123,-5,-3.5915345428270937,-4.998931280887024,-4.79797806658272
1769169336064,122,-6,-4.233462957847142,-5.869695173320845,-5.436993368028919
1769169336068,122,-6,-4.738077107558468,-5.860714930403745,-5.938304616586352
1769169336072,122,-6,-5.11360837371696,-6.097807435631202,-6.31084293304654
1769169336076,121,-7,-5.396645131184089,-6.935036285860345,-6.591125791849222
1769169336080,121,-7,-5.612559515252382,-7.010491393024369,-6.8037113462401235
1769169336084,121,-7,-5.7528875254864245,-6.83031170655146,-6.939946468394857
1769169336088,121,-7,-5.777272934821731,-6.880812496377806,-6.960158040084878
1769169336092,121,-7,-5.642332465858489,-7.071847476928182,-6.821344388811103
1769169336096,121,-7,-5.353311385412378,-6.926323651025736,-6.528557320766904
1769169336100,122,-6,-4.9978331580195325,-6.030862057338077,-6.169664716255993
1769169336104,122,-6,-4.7124837033197915,-5.763006174926237,-5.881956175140987
1769169336108,122,-6,-4.5958910727363325,-5.9597091123841786,-5.763684145847563
1769169336112,122,-6,-4.64335057668898,-5.9466995596083745,-5.807983949224375
1769169336116,122,-6,-4.754895154425317,-6.065442389390794,-5.91257563553785
1769169336120,122,-6,-4.798403090145245,-5.866518481560056,-5.9453959571768715
1769169336124,122,-6,-4.679864870605519,-5.902224204208371,-5.816096692161015
1769169336128,122,-6,-4.390995507811346,-5.8128586242557345,-5.522436228790172
1769169336132,123,-5,-4.016089628792308,-5.051023350538811,-5.153107143764636
1769169336136,123,-5,-3.6713940835887207,-4.98361034793626,-4.821786446434162
1769169336140,123,-5,-3.354278709868746,-4.907191727833517,-4.5144790132795265
1769169336144,124,-4,-2.72033648624683,-3.864646597676388,-3.872834064299474
1769169336148,126,-2,-0.8920952933691821,-1.8044423528787104,-2.0146255484111397
1769169336152,131,3,3.4862153154073594,2.938616784237416,2.404283088163459
1769169336156,139,11,11.706528963897313,11.072417278233091,10.653687164391606
1769169336160,150,22,23.949512549276157,22.035093864117144,22.897355604061666
1769169336164,163,35,38.19991534584506,35.23988379015893,37.1205263196172
1769169336168,176,48,50.00777468944446,48.09668797524805,48.889752237351175
1769169336172,182,54,53.79078969224946,54.03048786500764,52.64409815366313
1769169336176,174,46,45.41019025693139,45.974135798708936,44.26048600968043
1769169336180,152,24,24.63891656381973,24.058325601126604,23.516495746960608
1769169336184,122,-6,-4.105694406058037,-5.769101194545517,-5.178914684988264
1769169336188,92,-36,-33.392302294752454,-35.92956469830031,-34.413951074618865
1769169336192,70,-58,-55.880360281290464,-57.803374734697215,-56.87029247078106
1769169336196,60,-68,-67.14547419865096,-68.09891213303672,-68.13581317206575
1769169336200,60,-68,-66.8191037328377,-67.74789287487596,-67.83656372468909
1769169336204,70,-58,-57.79383080181984,-57.97611906225328,-58.84580267079866
1769169336208,83,-45,-44.33039183609421,-44.7294739773114,-45.40315545938957
1769169336212,96,-32,-30.264411459473298,-32.07150544962994,-31.333058006353316
1769169336216,108,-20,-18.087080658654024,-19.770146478390497,-19.130327433005956
1769169336220,118,-10,-8.916974334629487,-10.111600432942684,-9.928239105348972
1769169336224,124,-4,-2.891184469304699,-3.595943090751077,-3.879375771292964
1769169336228,128,0,0.4488678616259762,-0.1334529873094869,-0.5312186021548202
1769169336232,128,0,1.8760642737869109,0.3372426707664653,0.8946751954318981
1769169336236,129,1,2.2219532251695036,0.8790348213384569,1.2397651352051589
1769169336240,129,1,2.145387312277953,1.2672672716105216,1.1681065051077464
1769169336244,129,1,2.0245751961894025,1.044953004320246,1.0561044345479145
1769169336248,129,1,2.0112968001012916,1.2320412154754163,1.051411306992888
1769169336252,129,1,2.1531009060582007,0.9841322650151784,1.2000865812945325
1769169336256,129,1,2.4622555802943675,1.253774453592714,1.5158896103408384
1769169336260,130,2,2.9075562591575,1.9431973139596528,1.9691479349004395
1769169336264,130,2,3.39766672418129,2.3444866935944098,2.468098311389623
1769169336268,131,3,3.81579752480923,2.9856400008682007,2.8944610687468644
1769169336272,131,3,4.087873896464395,3.1817109115939446,3.1737737259395717
1769169336276,131,3,4.21882802530462,3.146357586156794,3.312308373089238
1769169336280,131,3,4.265635112745615,3.0102758018128193,3.3683138276779405
1769169336284,131,3,4.286790683623253,3.350148352481119,3.399556813121361
1769169336288,132,4,4.324636200183138,3.9412238636896935,3.4464366282490615
1769169336292,131,3,4.415260279613932,3.2647150609771405,3.54453416159491
1769169336296,131,3,4.57522791403369,3.0929848174808843,3.711900654832423
1769169336300,132,4,4.764735616172941,4.050342401589846,3.909876727086278
1769169336304,132,4,4.89108736457266,4.384969158829738,4.045208908406672
1769169336308,132,4,4.874851346966111,3.8328045941876714,4.037725816390861
1769169336312,131,3,4.711953674476151,3.4842765336937984,3.883761107065604
1769169336316,132,4,4.469597882769041,3.8029273355826327,3.651083594663752
1769169336320,131,3,4.234873299320845,3.4252097302982736,3.426363930346869
1769169336324,131,3,4.069076272307036,2.9927624946038054,3.2700873702845583
1769169336328,131,3,3.989924952536376,3.24083950556897,3.1997996203162375
1769169336332,131,3,3.977057519152984,3.12539748997396,3.1956129930665673
1769169336336,131,3,3.992378486311719,3.1151379717318526,3.2199549276702415
1769169336340,131,3,4.00366653114293,3.2124913744465973,3.240797702394843
1769169336344,131,3,3.998200380023256,3.1383517255005984,3.2452770086101657
1769169336348,131,3,3.9812180722242263,3.1841277609255254,3.238355855122762
1769169336352,131,3,3.9644633072652353,3.141638830153718,3.2315904904867985
1769169336356,131,3,3.954711536387938,3.1465952251915126,3.231721950494607
1769169336360,131,3,3.9500484814230625,3.1907480495212632,3.2368822552445367
1769169336364,131,3,3.944658004043117,3.172784547966715,3.2413259857847483
1769169336368,131,3,3.935724331212235,3.175995884439123,3.2423407505137476
1769169336372,131,3,3.9252396852553537,3.151597927285632,3.2420257028002957
1769169336376,131,3,3.916064733349282,3.161683783233353,3.2432469248011304
1769169336380,131,3,3.908108338472801,3.1912852532322247,3.2457691944055127
1769169336384,131,3,3.899319402467417,3.189977605051446,3.247370265630968
1769169336388,131,3,3.889288497437711,3.176012881480718,3.247624826356397
1769169336392,131,3,3.8799322425143656,3.1620939248555127,3.248610630100475
1769169336396,131,3,3.872273871331553,3.170337309023506,3.251515155141591
1769169336400,131,3,3.86423227011629,3.19967333509983,3.254261676554999
1769169336404,131,3,3.85319707385778,3.201860492053245,3.2541087408720566
1769169336408,131,3,3.840336801280824,3.177242199473329,3.252097883786532
1769169336412,131,3,3.8304436682559433,3.1755279677196833,3.252969145559323
1769169336416,131,3,3.8263354495171855,3.1730027872600024,3.2595398436899634
1769169336420,131,3,3.823999747442432,3.2139292673887785,3.267858481573462
1769169336424,131,3,3.814784762827316,3.2118195286353743,3.269453586663997
1769169336428,131,3,3.793861266206727,3.1742243886954737,3.2597343487509196
1769169336432,131,3,3.767756841122834,3.199849515485067,3.245281577254758
1769169336436,131,3,3.753487873812845,3.160428902095943,3.242808165679314
1769169336440,131,3,3.766305962213087,3.2403368712920746,3.267085519734945
1769169336444,131,3,3.799824235141533,3.2247224014566997,3.311464373236188
1769169336448,131,3,3.8108217125454846,3.1391175746572153,3.332875399656344
1769169336452,131,3,3.7258480914708096,3.3004497359123666,3.2583347692910576
1769169336456,131,3,3.476109426084422,3.0134658536119483,3.019654074094081
1769169336460,130,2,3.0422928474235644,2.467838110176282,2.5979673595712462
1769169336464,130,2,2.4769247564752916,1.9647413454003184,2.0455745653701505
1769169336468,129,1,1.8860079445091769,1.444043469048081,1.4674383295885265
1769169336472,129,1,1.3774602156936204,1.0034481061777147,0.9704518548329713
1769169336476,128,0,1.0005318904141505,0.3090926703298541,0.603917626043352
1769169336480,128,0,0.709933921174374,0.2344695089273686,0.3236390318791433
1769169336484,128,0,0.3871152088778437,0.1593360960968703,0.0120726302853062
1769169336488,127,-1,-0.0804366300798122,-0.6727596685094905,-0.4432916596579723
1769169336492,127,-1,-0.7114614088809132,-0.9321873656375026,-1.0619863964513645
1769169336496,126,-2,-1.4040053094782747,-1.6792324351238526,-1.742600251842466
1769169336500,125,-3,-1.998144695870106,-2.8075304794038742,-2.324859104425763
1769169336504,125,-3,-2.382143875879486,-2.7508331771011916,-2.6964351369556887
1769169336508,125,-3,-2.5514505227472477,-2.7464312449136834,-2.853016145793399
1769169336512,125,-3,-2.5717455541570517,-2.8709950026299644,-2.8612238727572863
1769169336516,125,-3,-2.495275060428979,-2.671242800558981,-2.7737192545010796
1769169336520,125,-3,-2.3255853922819503,-2.8608272115756073,-2.5933401765993125
1769169336524,125,-3,-2.063066244605144,-2.6310562910039224,-2.3194588154300124
1769169336528,126,-2,-1.7655472033317046,-1.8833214690819,-2.009621963308373
1769169336532,126,-2,-1.540013135511341,-1.705531141222158,-1.771246124280811
1769169336536,126,-2,-1.4621697243435914,-1.804476385928379,-1.6805301665828951
1769169336540,126,-2,-1.5031326111983272,-1.7434798658819932,-1.708941572786372
1769169336544,126,-2,-1.5384638748334425,-1.6990863641091425,-1.7323096386222114
1769169336548,126,-2,-1.4405494717773355,-1.8447379879570975,-1.6229157721707708
1769169336552,126,-2,-1.1830009064645577,-1.6731383739680572,-1.3538109521210735
1769169336556,127,-1,-0.8673800845513064,-0.8607031970781015,-1.0261514745061326
1769169336560,127,-1,-0.6390768255245842,-0.6303281747693812,-0.7855250020583164
1769169336564,127,-1,-0.5596011229223308,-0.8402431270154549,-0.6938271308160499
1769169336568,127,-1,-0.5526892191844143,-0.6621444231602773,-0.6747872495892914
1769169336572,127,-1,-0.4772456283181223,-0.852490913824904,-0.5870204700374018
1769169336576,127,-1,-0.2589609318613022,-0.6596094382324408,-0.3562198887323484
1769169336580,128,0,0.0437136264317719,0.2031139624672826,-0.0412794403304423
1769169336584,128,0,0.2981442834856033,0.3161602645563059,0.224908744520788
1769169336588,128,0,0.4172447718760674,0.2172720909875722,0.3557036744733305
1769169336592,128,0,0.4228223542692239,0.2683286742659146,0.3735372284328955
1769169336596,128,0,0.4007952758910251,0.2393194844801587,0.3642208723852842
1769169336600,128,0,0.4029749583489804,0.3297167348465638,0.3787754225270916
1769169336604,128,0,0.3906795714271317,0.1996516339389487,0.3779723477344759
1769169336608,128,0,0.2698028793573161,0.3519927646294124,0.2680428901363376
1769169336612,128,0,-0.0129658930677596,0.1562978650791532,-0.0032996208866248
1769169336616,127,-1,-0.3951655615077372,-0.6571770334794661,-0.3726916426955872
1769169336620,127,-1,-0.7110122592563324,-0.7199495837007116,-0.6744981102439155
1769169336624,127,-1,-0.7847243572564296,-0.7757504244376313,-0.7343432338997544
1769169336628,127,-1,-0.5359720800919574,-0.6105745944627889,-0.473495661769131
1769169336632,128,0,-0.0288655386796153,0.0963304057880376,0.0436247242677079
1769169336636,128,0,0.558972611802247,0.4560547840265723,0.6407408531425551
1769169336640,129,1,1.026040320461081,1.1463912423974851,1.118243610158581
1769169336644,129,1,1.249080631854082,1.4073173427851324,1.3538445300947837
1769169336648,129,1,1.2455633716011478,1.186126080034353,1.3644345441189134
1769169336652,129,1,1.161025363706688,1.3492551658466418,1.2939486690977782
1769169336656,129,1,1.1849375774699484,1.1921021638251226,1.330429863713241
1769169336660,129,1,1.4408458202833774,1.44755332007909,1.5972061560454338
1769169336664,130,2,1.9140989255569325,2.1138589275106168,2.080679895530921
1769169336668,130,2,2.4606173712584343,2.500858403020058,2.638041475834936
1769169336672,131,3,2.891531722513238,3.0538512341876456,3.0807077641278915
1769169336676,131,3,3.0774160978646203,3.489978843267526,3.278560426776454
1769169336680,131,3,2.996309471969738,3.186248809680758,3.209132715672262
1769169336684,130,2,2.68952353382602,2.353013352262729,2.9139637684547495
1769169336688,130,2,2.175498541413632,2.3312998141454138,2.4116040590858923
1769169336692,130,2,1.4208677041005302,2.1762209137126396,1.6682211793168922
1769169336696,128,0,0.4044743987304786,0.4580944777071658,0.6626055647009774
1769169336700,127,-1,-0.7999630302273135,-0.83724700469507,-0.530653605491465
1769169336704,126,-2,-2.014262820000803,-1.545773076076131,-1.7327665570451352
1769169336708,125,-3,-3.028688196046522,-2.8093399615205614,-2.7346191747998647
1769169336712,124,-4,-3.6991553070199985,-3.62778518368625,-3.3932797978705027
1769169336716,124,-4,-4.008004957586298,-3.7192098070647615,-3.691655628125328
1769169336720,124,-4,-4.056197501082533,-3.6627101906931574,-3.7303933633428574
1769169336724,124,-4,-3.995034555264842,-3.6753724844244338,-3.659837494925506
1769169336728,124,-4,-3.945074672571336,-3.7094551216586984,-3.599438737672567
1769169336732,124,-4,-3.953335099945559,-3.6696816563683,-3.5957816965612657
1769169336736,124,-4,-4.001543003292079,-3.685365007066703,-3.631384571004324
1769169336740,124,-4,-4.0423336668482115,-3.6653431666094294,-3.6603308888348742
1769169336744,124,-4,-4.03803284163576,-3.663224231571767,-3.645712111576158
1769169336748,124,-4,-3.9904749042809566,-3.71477184922683,-3.5887808672309265
1769169336752,124,-4,-3.951940595081067,-3.633254250239808,-3.5407630875701215
1769169336756,124,-4,-4.0009097013887205,-3.7109831785744865,-3.5799816028058515
1769169336760,124,-4,-4.180868816260046,-3.6204508462445606,-3.75049319773494
1769169336764,124,-4,-4.4428254108135725,-3.691950207971188,-4.002737300231587
1769169336768,123,-5,-4.655725929598937,-4.680260606411339,-4.2033807646320325
1769169336772,123,-5,-4.697535291961864,-4.64520281231204,-4.22943787444181
1769169336776,124,-4,-4.5478026734526384,-3.674464904870056,-4.064358569896221
1769169336780,124,-4,-4.2903326317728645,-3.65020982833874,-3.798924722630188
1769169336784,124,-4,-4.0323470431339015,-3.627224136094517,-3.5433241568494465
1769169336788,124,-4,-3.814774643759611,-3.748782801258678,-3.332307301799165
1769169336792,124,-4,-3.5269237586957978,-3.561780079449285,-3.0428524226216194
1769169336796,126,-2,-2.7705768532404615,-1.7363683221684858,-2.267491356234813
1769169336800,128,0,-0.7183684683167937,0.4317510159690325,-0.1806529555044562
1769169336804,132,4,3.7895481132579256,4.3327642133195745,4.3640932055124155
1769169336808,140,12,11.659236942800604,12.283713347668742,12.255504466786212
1769169336812,150,22,22.562480918087285,22.45322538733892,23.15567987396623
1769169336816,161,33,34.1468556908582,33.220394699648814,34.71718147825156
1769169336820,170,42,42.213706949698334,42.560318565264815,42.757714775252666
1769169336824,172,44,42.22070467307161,44.1477030494561,42.75218737825163
1769169336828,161,33,31.55311967134047,33.47594947413106,32.09519014284984
1769169336832,140,12,11.245604871938534,12.197870152073587,11.820162150970578
1769169336836,113,-15,-14.04328625368126,-14.534652117727871,-13.424636661573183
1769169336840,89,-39,-37.9256575989057,-38.627100769766905,-37.26708727267717
1769169336844,73,-55,-54.94146167024301,-54.581227763439536,-54.26188302253844
1769169336848,66,-62,-62.46261308133244,-61.67920948969514,-61.786617158202766
1769169336852,68,-60,-60.98561825520181,-59.617334465133546,-60.330465991583125
1769169336856,76,-52,-53.05860952535528,-51.69143167199272,-52.42543154765458
1769169336860,86,-42,-41.79107379830713,-41.52743205290703,-41.16593410089649
1769169336864,98,-30,-29.810936313687723,-29.64691402384027,-29.17457752381268
1769169336868,109,-19,-18.927054609807257,-18.62987126682507,-18.266626721490955
1769169336872,118,-10,-10.208333350583114,-9.643212615633376,-9.523594387992874
1769169336876,125,-3,-4.0966527391580385,-2.686119497737528,-3.397124188435425
1769169336880,128,0,-0.447966679791361,0.4705306563236222,0.2560067375319099
1769169336884,129,1,1.350169748397767,1.3535625972155323,2.0548750910920655
1769169336888,130,2,2.0836824464332113,2.4288377827669105,2.7921216964450664
1769169336892,131,3,2.374247716167809,3.298614011625493,3.0904198345258154
1769169336896,131,3,2.526645912115623,3.419188110558786,3.25097369888529
1769169336900,131,3,2.620363907559348,3.3577182543227297,3.350409319661951
1769169336904,131,3,2.6893103499523887,3.494189771489839,3.4233400170748243
1769169336908,131,3,2.805872726970687,3.302037551767393,3.544630253551137
1769169336912,131,3,3.0316508469112393,3.4458825909228414,3.7769170150609
1769169336916,132,4,3.3389275879336644,4.295871927263043,4.091224203255828
1769169336920,132,4,3.613919487195361,4.488450283043617,4.372173578591187
1769169336924,132,4,3.746328481289253,4.381026347951114,4.509539105744279
1769169336928,132,4,3.7184650868633686,4.432063229434549,4.486912862231135
1769169336932,132,4,3.6195060535220938,4.325033302799244,4.394005516554203
1769169336936,132,4,3.5845964487418365,4.442755199836092,4.3651257320965176
1769169336940,132,4,3.7080465828190503,4.355188251733912,4.493638537708778
1769169336944,132,4,3.9845820281582593,4.530584388268068,4.7742865521353055
1769169336948,133,5,4.315114833456576,5.304352723697128,5.108628684467824
1769169336952,133,5,4.575992153351593,5.4578353154214945,5.373534088235284
1769169336956,133,5,4.700870567778403,5.33893508444541,5.502815645343168
1769169336960,133,5,4.7104114948506375,5.46386379455428,5.5169376560873875
1769169336964,133,5,4.67331703084813,5.446671488544046,5.484162384616791
1769169336968,133,5,4.64291724630049,5.391266022582644,5.457572047018001
1769169336972,133,5,4.625316918531573,5.4028717622125395,5.443545039149051
1769169336976,133,5,4.599471287215551,5.4037856301484455,5.421443197729005
1769169336980,133,5,4.565506636552235,5.418552876493519,5.391307744553449
1769169336984,133,5,4.573472493944037,5.507663258089036,5.402718008992022
1769169336988,133,5,4.696215078236934,5.336450791796852,5.528311628345555
1769169336992,133,5,4.959677208377345,5.488546487805527,5.79422523176949
1769169336996,134,6,5.295639981510897,6.325511746871118,6.132430450879602
1769169337000,134,6,5.573706512746291,6.5261283121057305,6.412674390003991
1769169337004,134,6,5.693831619070651,6.400567431415074,6.535244377042457
1769169337008,134,6,5.659375310860002,6.470738751433194,6.503658941651102
1769169337012,134,6,5.572266213836297,6.354826162770833,6.419318325107917
1769169337016,134,6,5.561217232487158,6.486873950463497,6.410268149649116
1769169337020,134,6,5.697433170300437,6.3871881291993295,6.547917106008106
1769169337024,134,6,5.953257647678005,6.544741952161608,6.805373252139412
1769169337028,135,7,6.234278667258299,7.35964559836848,7.088209710188591
1769169337032,135,7,6.464372050729893,7.456181555047705,7.319412545387962
1769169337036,135,7,6.6472285211335045,7.424626092615822,7.50244716201813
1769169337040,135,7,6.836450110363831,7.455514456844608,7.692023482723721
1769169337044,135,7,7.042703169859415,7.495747099578191,7.899683639117319
1769169337048,136,8,7.18938954153666,8.417997662107947,8.048004448990412
1769169337052,136,8,7.18050650357483,8.423680277535034,8.039576327209506
1769169337056,135,7,7.007915148950499,7.467269728278624,7.866382134174613
1769169337060,135,7,6.773353018746527,7.439751949377918,7.631582336974936
1769169337064,135,7,6.602889938251211,7.511526487373461,7.461813428000611
1769169337068,135,7,6.550719758952506,7.414504928904666,7.410267548921098
1769169337072,135,7,6.581673765096953,7.468403482226205,7.440746465091806
1769169337076,135,7,6.626402094097387,7.42827481067856,7.484111739685262
1769169337080,135,7,6.643918145441163,7.50203408511732,7.500291186248749
1769169337084,135,7,6.64187834811834,7.451107642868374,7.497429896596847
1769169337088,135,7,6.6503125884089735,7.474896036258979,7.50538574765812
1769169337092,135,7,6.677338689782159,7.471959956775982,7.531891577873009
1769169337096,135,7,6.684297607786612,7.3961496074843,7.537893646645227
1769169337100,135,7,6.6022999961436675,7.607648687838256,7.45407987745125
1769169337104,135,7,6.377392183099387,7.283321884740128,7.226436740858486
1769169337108,134,6,6.002685484314751,6.714575205707407,6.8488552033975525
1769169337112,134,6,5.5081981320459565,6.2236670039543585,6.352475788054578
1769169337116,133,5,4.927739447726955,5.674109720038319,5.771288119582846
1769169337120,133,5,4.287413988091037,5.365769158595878,5.130209951372747
1769169337124,132,4,3.624368438517709,4.476997035376662,4.465001886148418
1769169337128,131,3,2.9951635697562775,3.6158435579721586,3.83201985473661
1769169337132,131,3,2.4431163236820086,3.25675879129722,3.27562336793149
1769169337136,130,2,1.9533760384153545,2.7523498708234477,2.782211366683544
1769169337140,130,2,1.453793766293606,2.2242864130548092,2.2800581809957783
1769169337144,129,1,0.8801324480303259,1.678907427075277,1.7042376827357693
1769169337148,129,1,0.2569536160016201,1.408660222285708,1.0782792674120003
1769169337152,128,0,-0.2858537711343549,0.4745029047740347,0.531903322863892
1769169337156,127,-1,-0.5973346335011285,-0.4057519859001973,0.2167817566776576
1769169337160,128,0,-0.6278911186994582,0.3376059553309883,0.182738024014799
1769169337164,128,0,-0.4731197349174327,0.6452214710516406,0.3333687835356458
1769169337168,128,0,-0.2954039786483871,0.3934501456860297,0.5058185423694402
1769169337172,128,0,-0.2050193807475184,0.570392937731454,0.5907398811265127
1769169337176,128,0,-0.209395814496442,0.4743018138799155,0.582002645111299
1769169337180,128,0,-0.2518986084467478,0.4749181499486455,0.5362902061703636
1769169337184,128,0,-0.2791757869524609,0.5381029856980273,0.5057080745020726
1769169337188,128,0,-0.2757588092794778,0.4914313457947126,0.504552295286348
1769169337192,128,0,-0.2551334395239932,0.5356677716000862,0.5193153026436836
1769169337196,128,0,-0.2347888578816899,0.4874229804514516,0.5334470500271932
1769169337200,128,0,-0.2224652600619823,0.4900092909866592,0.5401235933768797
1769169337204,128,0,-0.2179721799481182,0.5288344914895304,0.5396940358237236
1769169337208,128,0,-0.2187442530809078,0.5234275256211052,0.5341859316103662
1769169337212,128,0,-0.220502426867051,0.5350206417591137,0.527236313103747
1769169337216,128,0,-0.2162620852375365,0.4930412959733347,0.5255853608385228
1769169337220,128,0,-0.2004317474878889,0.4944310778275915,0.535040095054197
1769169337224,128,0,-0.1766392243053254,0.538649675142168,0.5523871401717034
1769169337228,128,0,-0.1598988711669824,0.5359017024374577,0.562919351974142
1769169337232,128,0,-0.1664289250128716,0.5489996008232385,0.5504155138602073
1769169337236,128,0,-0.1956516326990705,0.4939462519648407,0.5151318925687829
1769169337240,128,0,-0.2183886252916655,0.4883147273487218,0.4859199787555741
1769169337244,128,0,-0.1851249986431711,0.5792160227614666,0.512420706808903
1769169337248,128,0,-0.0555051492353344,0.4908573244933325,0.635499439545123
1769169337252,128,0,0.1713865098495421,0.655846167604619,0.8561348770276336
1769169337256,129,1,0.4567342612518941,1.359331135273855,1.134704724170266
1769169337260,129,1,0.7561165719191345,1.6679860523394674,1.4261829349233686
1769169337264,129,1,1.0487388779499445,1.3830473717405891,1.7105814851825207
1769169337268,129,1,1.3266961954675027,1.7260869026886123,1.981355636005071
1769169337272,130,2,1.569693349012912,2.4472555572092065,2.218138787746926
1769169337276,130,2,1.7562388458101108,2.5532558933952805,2.397943720178026
1769169337280,130,2,1.9028857531067829,2.5323907803262844,2.5365642011838685
1769169337284,130,2,2.0683273507235,2.474919419161896,2.693705880024636
1769169337288,130,2,2.30051524283992,2.710419370807515,2.918491212188225
1769169337292,131,3,2.5852200322915495,3.436034215212757,3.196283703020873
1769169337296,131,3,2.8555100661685504,3.615167777372511,3.4588391296027323
1769169337300,131,3,3.043330727122418,3.4716539086019265,3.63775892448158
1769169337304,131,3,3.1092032518402153,3.5376697091581804,3.694518418122442
1769169337308,131,3,3.0292342950102964,3.6892242405935503,3.606169923236759
1769169337312,131,3,2.7766860722664464,3.4342105256976643,3.346024465989171
1769169337316,130,2,2.331199159076106,2.6942423300724188,2.8931356158089887
1769169337320,130,2,1.706120225906117,2.34791789692689,2.2601813600930867
1769169337324,129,1,0.9617802989069102,1.7264109489106667,1.507200508136402
1769169337328,128,0,0.1822030095755726,0.4646477501824522,0.7185786255531006
1769169337332,127,-1,-0.5755745504287137,-0.2800729580636262,-0.0480683924543344
1769169337336,127,-1,-1.31423863406502,-0.5923765054064093,-0.7954171522802304
1769169337340,126,-2,-2.0709303784074744,-1.3404071738866117,-1.5610031688027082
1769169337344,125,-3,-2.8547673330924788,-2.5731716357780887,-2.3538742632429512
1769169337348,124,-4,-3.6115127207115254,-3.2342206360390855,-3.119284381306166
1769169337352,124,-4,-4.247002545765825,-3.544857486565429,-3.762967469571965
1769169337356,123,-5,-4.682093922634757,-4.326635681268103,-4.206263185526591
1769169337360,123,-5,-4.896300747524035,-4.562862513125282,-4.429189213044915
1769169337364,123,-5,-4.936214713192173,-4.362627672556925,-4.478580329260873
1769169337368,123,-5,-4.88673626124742,-4.411571488466008,-4.439290765995948
1769169337372,123,-5,-4.825910530753061,-4.3737299152880365,-4.388779221600718
1769169337376,123,-5,-4.796373391899668,-4.446728860104411,-4.368620450369799
1769169337380,123,-5,-4.806972947677242,-4.461640799504952,-4.387097700258213
1769169337384,123,-5,-4.845298460916148,-4.411054343589403,-4.432753621160872
1769169337388,123,-5,-4.878563516438845,-4.3986557953066505,-4.474792942042965
1769169337392,123,-5,-4.851366061822772,-4.317834237467478,-4.458762683785803
1769169337396,123,-5,-4.708832452264533,-4.525011127759148,-4.328126807256834
1769169337400,123,-5,-4.444619410351168,-4.330934794640864,-4.07337250837109
1769169337404,124,-4,-4.125501961344693,-3.5541745307790644,-3.7597314903332912
1769169337408,124,-4,-3.852050834022322,-3.237936313309561,-3.4900068573036513
1769169337412,124,-4,-3.687517801496836,-3.4380977889825814,-3.332587111211936
1769169337416,124,-4,-3.629405650551195,-3.4288451635370496,-3.289550663437738
1769169337420,124,-4,-3.637820266203022,-3.346639763947478,-3.32071900044046
1769169337424,124,-4,-3.637623182246615,-3.6188885647875897,-3.343470347349557
1769169337428,124,-4,-3.4040685225240765,-3.0555916214948016,-3.121419226157168
1769169337432,126,-2,-2.3634606426324427,-1.6886553341116963,-2.0738528043558735
1769169337436,128,0,0.4907420661314829,0.9226623942245724,0.799813894530673
1769169337440,135,7,6.297807794119127,7.26357062944783,6.621042113632733
1769169337444,143,15,15.539453453021212,15.81786642734446,15.854430974294749
1769169337448,153,25,27.052389598220316,25.527710463858146,27.333876852444806
1769169337452,164,36,37.55430802674807,36.73170685193958,37.790274882041885
1769169337456,171,43,42.40491846263693,43.55159613412553,42.601966149430645
1769169337460,167,39,37.632435290029946,39.554044693102824,37.810037256614734
1769169337464,151,23,22.206198577760375,23.56470793101845,22.38725700462337
1769169337468,126,-2,-0.947084322923616,-1.304469857851013,-0.7447299842720647
1769169337472,100,-28,-25.99487288371302,-27.397449043379908,-25.7658864767591
1769169337476,80,-48,-46.728662668093655,-47.263793382829085,-46.48447339169165
1769169337480,69,-59,-59.03006658180937,-58.53015454472455,-58.794722011776365
1769169337484,66,-62,-61.95646539134914,-61.2397358911114,-61.75345489638829
1769169337488,71,-57,-57.20452022529731,-56.48409102413206,-57.04303747551098
1769169337492,80,-48,-47.69394981156606,-47.25443172865992,-47.56500534364514
1769169337496,91,-37,-36.260065749302335,-36.41433757544827,-36.14452801192611
1769169337500,102,-26,-25.009428911908973,-25.40012432387617,-24.890785633495614
1769169337504,112,-16,-15.276891517188602,-15.285267619918658,-15.149781733026868
1769169337508,120,-8,-7.793778474674841,-7.499060760131851,-7.664104891514519
1769169337512,125,-3,-2.775140793804081,-2.211311754568457,-2.6533617852596323
1769169337516,128,0,0.0615954558526219,0.482918236048458,0.1687040250591198
1769169337520,128,0,1.3697266750089074,0.7777763780711568,1.4628908239507017
1769169337524,129,1,1.882262805915123,1.5625095605723751,1.9665441060411273
1769169337528,130,2,2.123640618557718,2.695182457412254,2.2019845198740073
1769169337532,130,2,2.323430054038584,2.5772543121087375,2.3938369947209175
1769169337536,130,2,2.53233495332789,2.697845408109213,2.591156280786546
1769169337540,130,2,2.7636621718011884,2.6160887068834815,2.8103629653734132
1769169337544,130,2,3.0278352592044047,2.720118333213929,3.0654807396610537
1769169337548,131,3,3.2956797121990453,3.610387021962021,3.327133735406521
1769169337552,131,3,3.496896340680019,3.596066588194145,3.5217123273871103
1769169337556,131,3,3.577621264873342,3.736983742629553,3.5932218288693765
1769169337560,131,3,3.5439277811507903,3.5731786126272884,3.5492241131970284
1769169337564,130,2,3.4369706093048515,2.804746640589445,3.4337080561220747
1769169337568,131,3,3.2839157773366257,3.544859143173977,3.274150953610618
1769169337572,131,3,3.1019989969677564,3.649564712259204,3.0853243375330424
1769169337576,130,2,2.9459154954289084,2.7087274662929306,2.9202818894063847
1769169337580,130,2,2.9083825121150535,2.61331486233635,2.873127318939037
1769169337584,130,2,3.04296879554072,2.815373543111838,2.9996450271901987
1769169337588,131,3,3.299030346187714,3.5057861283806573,3.249122767364019
1769169337592,131,3,3.5589046119962613,3.752098421154069,3.5018613871335176
1769169337596,131,3,3.7411484938331663,3.5553208648817827,3.6752840980449815
1769169337600,131,3,3.8531703322227138,3.8533062033706114,3.7780060286710553
1769169337604,131,3,3.9420695571759694,3.543866836554465,3.85908649917007
1769169337608,131,3,4.014355662184661,3.814215631824354,3.925315427100065
1769169337612,132,4,4.027060795009903,4.459679643321977,3.932028031657078
1769169337616,131,3,3.960754713360285,3.838939059565349,3.8582740551656913
1769169337620,131,3,3.8798016462398577,3.634436618703909,3.768905815729349
1769169337624,131,3,3.8967677585204834,3.7259381524144306,3.778153194184105
1769169337628,131,3,4.073879933158995,3.6972324305187056,3.9488302225192977
1769169337632,132,4,4.370494012771363,4.531402766029933,4.239198132094122
1769169337636,132,4,4.6906206557220536,4.8626638832589455,4.5522213476946165
1769169337640,132,4,4.971070882025623,4.553704537565237,4.825186398259179
1769169337644,132,4,5.2168037330212504,4.8909437370407245,5.0641230397565415
1769169337648,133,5,5.465290470790002,5.477734699550599,5.306466620996715
1769169337652,133,5,5.7363176747799045,5.799260473532784,5.571195509136594
1769169337656,133,5,6.012430412394293,5.629692982470078,5.8408280093278835
1769169337660,133,5,6.2502664372125585,5.769458661292369,6.072618113170844
1769169337664,134,6,6.413049591910014,6.743540054401531,6.229650917747658
1769169337668,134,6,6.508777078016469,6.553916872448985,6.319209094271478
1769169337672,133,5,6.592951033442421,5.820395224516744,6.396932104447471
1769169337676,134,6,6.7133259950067,6.567785571239395,6.5114729438194185
1769169337680,134,6,6.84867967836449,6.911020866877493,6.64179017165998
1769169337684,134,6,6.9159473179317,6.554748872165806,6.70392878931985
1769169337688,134,6,6.843554144086781,6.797933690952126,6.62555650582094
1769169337692,134,6,6.633915240704353,6.563590666718018,6.409499075372495
1769169337696,133,5,6.3532749508282365,5.860734864963817,6.1232372308958185
1769169337700,133,5,6.065784884966254,5.641604182044963,5.831541391562974
1769169337704,133,5,5.787314087396317,5.81441458241659,5.54936515568776
1769169337708,133,5,5.508499303603875,5.576571086743637,5.265936279902423
1769169337712,132,4,5.2484537671530935,4.782256809586618,5.000294162080906
1769169337716,132,4,5.0606129146404175,4.678937367055418,4.807170215767695
1769169337720,132,4,4.976838994893689,4.8334957999813435,4.719290546858221
1769169337724,132,4,4.9566171094373015,4.623406180013359,4.695482965742477
1769169337728,132,4,4.900724829820372,4.803194360360445,4.635281266759372
1769169337732,132,4,4.71461490447018,4.556272086512166,4.443902113613408
1769169337736,131,3,4.359728929260415,3.939893925444643,4.083910275458839
1769169337740,131,3,3.854753039755283,3.570580618129159,3.575232296692543
1769169337744,130,2,3.2461149802085068,2.9031203177397273,2.9642497363127225
1769169337748,130,2,2.589957256937611,2.539622300312069,2.3058716999368905
1769169337752,129,1,1.9534937801101648,1.844252054640291,1.6663024701729614
1769169337756,128,0,1.4052640795018196,0.6781506973257386,1.1141190429578651
1769169337760,128,0,0.9806200105977054,0.8184518997060198,0.6851936923819368
1769169337764,128,0,0.6548157134703227,0.7068980953223154,0.3552094188452815
1769169337768,127,-1,0.3583686192187978,-0.3025426445234527,0.0552321397060631
1769169337772,127,-1,0.0271835171847811,-0.2189436041021343,-0.278266630783182
1769169337776,127,-1,-0.3473070383819481,-0.3068104120424335,-0.6540089644268691
1769169337780,126,-2,-0.7014191072286571,-1.1470759501521348,-1.009302286713846
1769169337784,126,-2,-0.9365581719981824,-1.3364448782660072,-1.246554098810412
1769169337788,126,-2,-0.996981577181946,-1.2373084859867935,-1.3102641960173869
1769169337792,126,-2,-0.931230926160106,-1.2434025296620774,-1.2483042899969037
1769169337796,126,-2,-0.8800362915030362,-1.2880160901585276,-1.2002874390468006
1769169337800,126,-2,-0.9866176869651272,-1.1354940037296,-1.3087226910675598
1769169337804,126,-2,-1.2878240979424285,-1.359133368343142,-1.610640027611804
1769169337808,125,-3,-1.6699401490881434,-2.183666924584323,-1.9930361648810837
1769169337812,125,-3,-1.934626964219869,-2.274274411489108,-2.258199621333585
1769169337816,125,-3,-1.9341436118989,-2.2459101690351897,-2.258739681141912
1769169337820,125,-3,-1.6728487807336254,-2.155123150807232,-1.999181687365544
1769169337824,126,-2,-1.296848363323878,-1.3424455772985715,-1.625557825151975
1769169337828,126,-2,-0.985885050012842,-1.1597193825918444,-1.3170521034282177
1769169337832,126,-2,-0.8388734855304891,-1.3007987406701051,-1.1715919213593562
1769169337836,126,-2,-0.8386534751876102,-1.183360394845934,-1.171326492833845
1769169337840,126,-2,-0.9025963282934722,-1.2304964344401452,-1.234011727865465
1769169337844,126,-2,-0.9561447780939598,-1.240840018379111,-1.2863828170653104
1769169337848,126,-2,-0.9691164499191643,-1.2373682446580925,-1.2994104416542842
1769169337852,126,-2,-0.9468700659204078,-1.2089500864542573,-1.2785635433367215
1769169337856,126,-2,-0.9073808609161892,-1.244804213226122,-1.2408229948494476
1769169337860,126,-2,-0.8717504322042818,-1.192607333636993,-1.205912957776252
1769169337864,126,-2,-0.8669061609777238,-1.2216225413115889,-1.2000616904090249
1769169337868,126,-2,-0.9198054843170536,-1.291134773476391,-1.2508845140564793
1769169337872,126,-2,-1.0344015042734966,-1.0554086165173309,-1.363862575587493
1769169337876,126,-2,-1.174859060315534,-1.47685155517765,-1.5040873221680031
1769169337880,125,-3,-1.2881078380546973,-1.8581363418785304,-1.6179107247235025
1769169337884,126,-2,-1.357385183142446,-1.638169808139982,-1.6872791293658322
1769169337888,125,-3,-1.427320196544796,-1.763513339240997,-1.756239611883172
1769169337892,126,-2,-1.5559542508174478,-1.627579254893477,-1.8831842960433127
1769169337896,125,-3,-1.7301348915731252,-1.8431435049883764,-2.0553337986006506
1769169337900,125,-3,-1.8337073736321152,-2.5068212097348,-2.1565506683592903
1769169337904,125,-3,-1.7123646113649027,-1.9981151294947088,-2.0328091236802397
1769169337908,126,-2,-1.2842758085281158,-1.3210042973744924,-1.6029879040899422
1769169337912,126,-2,-0.6076720638837212,-1.1297662791652543,-0.9255567465636088
1769169337916,127,-1,0.1397786349492199,-0.2139975685583667,-0.1774846180258346
1769169337920,128,0,0.7526528433137563,0.7526794012318363,0.4366641753919917
1769169337924,128,0,1.1044200642376192,0.8452245691035227,0.7906300086898301
1769169337928,128,0,1.2016484315024882,0.7826339610010874,0.8908045787967684
1769169337932,128,0,1.151019681181711,0.8483164021704597,0.8435755151252534
1769169337936,128,0,1.072471167247126,0.7923177805419095,0.7685079829794448
1769169337940,128,0,1.0310626366224114,0.7651459079971505,0.7302805985426247
1769169337944,128,0,1.030660755352692,0.8383078334072583,0.7325511693626807
1769169337948,128,0,1.0518951981484648,0.8159501827530443,0.7560023126752066
1769169337952,128,0,1.0847650031376896,0.8369159390344945,0.7909705763984406
1769169337956,128,0,1.1235432941220016,0.8323581054186703,0.8323031851566401
1769169337960,128,0,1.1366909215954997,0.7039923341463016,0.8489379132380614
1769169337964,128,0,1.0551572339862845,0.937995387393748,0.7717138395610679
1769169337968,128,0,0.8059174307746257,0.7158286133342162,0.5268541603749493
1769169337972,127,-1,0.3660928273630467,-0.0203975864126338,0.090697049230552
1769169337976,127,-1,-0.2174358896720221,-0.2977055911928072,-0.4899410811492462
1769169337980,126,-2,-0.8689758222434789,-1.1801747004699783,-1.1385617357093225
1769169337984,125,-3,-1.5496529103740522,-2.138362702266883,-1.815366836045488
1769169337988,125,-3,-2.2795620189715677,-2.2216223993458506,-2.5403896845932756
1769169337992,124,-4,-3.086252746817576,-2.999360028563178,-3.341979621053015
1769169337996,123,-5,-3.931257306519672,-4.369015812892327,-4.182393848883253
1769169338000,122,-6,-4.700626852752461,-5.041093767348732,-4.947802946812764
1769169338004,122,-6,-5.280375189723935,-5.335018808574183,-5.523916897245041
1769169338008,121,-7,-5.647183683448059,-5.943547697470096,-5.88682279541221
1769169338012,121,-7,-5.889170002968547,-6.279653063832933,-6.1240203392328905
1769169338016,121,-7,-6.132449218671493,-6.053034671542059,-6.361722424089872
1769169338020,121,-7,-6.4278423959587245,-6.367084411406157,-6.65167610122495
1769169338024,120,-8,-6.696722305184548,-7.0115678408317725,-6.915884248294111
1769169338028,120,-8,-6.7983324939285845,-7.223434355050299,-7.013104307038919
1769169338032,120,-8,-6.667350044289734,-6.987805056307741,-6.877117805659062
1769169338036,121,-7,-6.388602971558092,-6.307304786275855,-6.592561331197032
1769169338040,121,-7,-6.130561219754644,-6.125851530599933,-6.3285179047041495
1769169338044,121,-7,-6.001034887714315,-6.239532691602936,-6.1936005000169265
1769169338048,121,-7,-5.963383576798267,-5.9774917387160045,-6.151606146938937
1769169338052,121,-7,-5.887565296429223,-6.20154677898774,-6.072041343050257
1769169338056,121,-7,-5.682589055284114,-6.089146441133725,-5.862269623263825
1769169338060,122,-6,-5.385563572679263,-5.311723405714874,-5.557369573262985
1769169338064,122,-6,-5.126328722329412,-5.080560290792318,-5.286870949570993
1769169338068,122,-6,-5.005701338443602,-5.073055990526799,-5.154908043773053
1769169338072,122,-6,-5.0062392509556375,-5.120670433083116,-5.150204489139595
1769169338076,122,-6,-5.012671934503331,-5.1266416715369765,-5.161729031371401
1769169338080,122,-6,-4.890962264456574,-5.286820123053996,-5.051790363411433
1769169338084,122,-6,-4.4807518022091255,-5.0879996937979,-4.647687694848885
1769169338088,124,-4,-3.4021509658711717,-3.032611173920392,-3.5563654610703272
1769169338092,127,-1,-0.7862176695917231,-0.1440499093172982,-0.906521942734464
1769169338096,132,4,4.722393308194274,4.928751136990924,4.643499557083339
1769169338100,142,14,14.338215254109134,14.658486868796576,14.285907462388998
1769169338104,154,26,27.931484968259944,26.99359459669262,27.87565552814785
1769169338108,168,40,42.92013989841503,40.90865224420014,42.83363724784722
1769169338112,181,53,54.27029568397117,53.94178084425513,54.144703045554664
1769169338116,185,57,56.19535800759236,57.83972722919106,56.04456737061493
1769169338120,174,46,44.997849690777976,46.6864369064695,44.85054326435369
1769169338124,149,21,21.42856609858607,21.937567600262017,21.31561706208772
1769169338128,117,-11,-9.050611520061372,-10.073795130150485,-9.109633756098305
1769169338132,87,-41,-38.43935200451548,-40.03632335961195,-38.44650869001122
1769169338136,67,-61,-59.56377141523185,-60.04797652984925,-59.54349619946706
1769169338140,59,-69,-68.72831188975876,-68.35279593323779,-68.715009148505
1769169338144,61,-67,-66.40723079794145,-65.88378597079085,-66.42593705464586
1769169338148,72,-56,-56.049667847001544,-55.31930065454533,-56.10291724921341
1769169338152,85,-43,-42.05628601142541,-41.76500777490705,-42.1257075099287
1769169338156,99,-29,-28.105721273810182,-28.39175137659608,-28.16531507314362
1769169338160,110,-18,-16.43261071442643,-16.968144619430536,-16.463689148027317
1769169338164,119,-9,-7.931595549573674,-8.271683472338553,-7.93096275555145
1769169338168,125,-3,-2.5829960925604283,-1.9664670312947632,-2.56122441675016
1769169338172,128,0,0.1855969980885223,0.9211686266335748,0.2137084188715285
1769169338176,128,0,1.2418608025992557,0.8693245289034717,1.2677999413179335
1769169338180,128,0,1.4735234951512737,0.900125185796762,1.4985688309310048
1769169338184,129,1,1.5082762223080932,1.805276055006512,1.5382615644064703
1769169338188,129,1,1.5937621953810304,2.0454467303976247,1.6319356174256534
1769169338192,129,1,1.715035029303499,1.855090387289264,1.7604394335204436
1769169338196,129,1,1.8138695531625235,2.001095704774432,1.8649652396613303
1769169338200,129,1,1.912802538667389,1.7680602284028062,1.9704133021124195
1769169338204,129,1,2.086745371781115,1.955727055995533,2.1529159791757073
1769169338208,130,2,2.3776470694317284,2.9238778345010603,2.4528234541505043
1769169338212,130,2,2.7581224180805424,2.9553209934522315,2.840646343894379
1769169338216,130,2,3.156409996004406,2.960645467647014,3.244594737703089
1769169338220,131,3,3.4953590780211803,3.792150157640669,3.589120182800748
1769169338224,131,3,3.7193395464813546,3.974383152749562,3.819706530043605
1769169338228,131,3,3.812427335807135,3.8902317091812457,3.920266650528096
1769169338232,131,3,3.80410428315473,4.0243904347319805,3.919645835253851
1769169338236,131,3,3.752257849859177,3.8983987868454175,3.8753539539121578
1769169338240,131,3,3.7107814621992143,3.8746771143390073,3.841120586975179
1769169338244,131,3,3.7041828492988023,3.917065707624564,3.8412344666439178
1769169338248,131,3,3.724627240834708,3.93925000029748,3.8676941502027273
1769169338252,131,3,3.747645684885465,4.015284944271778,3.896350275086297
1769169338256,131,3,3.75041914546687,3.906549831598025,3.9052852868721666
1769169338260,131,3,3.721955336996293,3.8918319687461578,3.88423740670158
1769169338264,131,3,3.6692750465066504,3.920581594992987,3.8397804684898778
1769169338268,131,3,3.625563605634165,3.927151512891613,3.80359358170398
1769169338272,131,3,3.648577696787492,4.073385640126366,3.8324441934646782
1769169338276,131,3,3.788999630336544,3.83842123178684,3.9778286420716937
1769169338280,131,3,4.03946685079665,3.9970311932977705,4.234124061043353
1769169338284,132,4,4.319264346511177,4.822347125293377,4.52115190767679
1769169338288,132,4,4.5345228380757545,5.030469605247768,4.74386009503515
1769169338292,132,4,4.667898105879618,5.0083695671646025,4.883750567607634
1769169338296,132,4,4.7976361550692115,4.894404745897092,5.0193360265492695
1769169338300,132,4,5.012440640454739,4.980550083770218,5.240172183613972
1769169338304,133,5,5.308597612205268,5.823029215199347,5.542541562019467
1769169338308,133,5,5.580587218622876,6.078757999333425,5.820321947991067
1769169338312,133,5,5.714263968777401,5.952132114949429,5.959451800459493
1769169338316,133,5,5.687752119279908,5.995360577007588,5.9388606910629544
1769169338320,133,5,5.591195642492934,5.857453293139419,5.848977393639189
1769169338324,133,5,5.560710581654156,5.97712819036098,5.825227345164526
1769169338328,133,5,5.685586868437593,5.93882758565982,5.956172226003591
1769169338332,133,5,5.95342850515642,6.118477832555398,6.229400503775384
1769169338336,134,6,6.267061015290317,6.851328537436409,6.5480954097173845
1769169338340,134,6,6.518214750299738,6.993187012775571,6.804229035359223
1769169338344,134,6,6.657783898563939,6.867256298886885,6.948903087152363
1769169338348,134,6,6.7046236700978215,7.050757922063114,7.001244867978556
1769169338352,134,6,6.694858968555199,7.055559621736175,6.9974158371631905
1769169338356,134,6,6.630967653997323,6.895552610040988,6.939445672017478
1769169338360,134,6,6.4835831498728185,6.9968159606214355,6.797316361814936
1769169338364,134,6,6.240023960617227,6.83404182044804,6.558179456573951
1769169338368,133,5,5.9437432156116845,6.141503650961069,6.266158961913955
1769169338372,133,5,5.679064901240527,5.958105043830108,6.00646124445129
1769169338376,133,5,5.515879084310991,6.025686243385309,5.849039611093017
1769169338380,133,5,5.470004499254732,5.868540033769352,5.80882973502438
1769169338384,133,5,5.510061536362263,5.974073851964019,5.85357052328675
1769169338388,133,5,5.588665480315207,6.037151132416036,5.9358759602289455
1769169338392,133,5,5.658682174135546,6.055529926663945,6.009413799205583
1769169338396,133,5,5.66458319572523,5.973303829964482,6.0193997989033
1769169338400,133,5,5.535423370761446,5.895986714678006,5.894842360705318
1769169338404,133,5,5.2074686381132835,5.989683917227801,5.571417121113306
1769169338408,132,4,4.665934022834556,5.028612289759459,5.034078243678076
1769169338412,131,3,3.963897909090847,4.078494450912322,4.33614945990098
1769169338416,131,3,3.1974529138922154,3.9803482579448057,3.5738060560641407
1769169338420,130,2,2.460707476518067,2.872137721563887,2.840896649855467
1769169338424,129,1,1.813451780743191,2.0548642626002636,2.1972000223967836
1769169338428,129,1,1.2727011884568034,1.97861140884011,1.660086948635754
1769169338432,128,0,0.8252644352822205,1.1391081697127634,1.2164230077001523
1769169338436,128,0,0.4520697976139076,0.9456116539318078,0.8466214774857499
1769169338440,128,0,0.1448610016224607,0.8962639130479285,0.5420723826208409
1769169338444,127,-1,-0.1026870720729293,0.0724114782127849,0.2969560997808578
1769169338448,127,-1,-0.3200561892993572,-0.0453572184150815,0.0825888011496853
1769169338452,127,-1,-0.5618501296277054,0.2150138099214424,-0.1556598760223657
1769169338456,127,-1,-0.8640159618615173,-0.1626770470564564,-0.4544765376984985
1769169338460,126,-2,-1.1933368009904104,-0.9391866764594666,-0.7810012712382988
1769169338464,126,-2,-1.4527364719650353,-1.1144342572731627,-1.0378799824833402
1769169338468,126,-2,-1.5464222632169091,-0.8106619748137968,-1.1290597282198354
1769169338472,126,-2,-1.4452093122972407,-1.018669349691419,-1.0253222029922102
1769169338476,126,-2,-1.1995037687780714,-0.9085274436066226,-0.7771007490488493
1769169338480,127,-1,-0.8970080015625248,-0.1756689745399587,-0.4723454114132424
1769169338484,127,-1,-0.6013503404046265,0.1242475208660946,-0.1750385280011701
1769169338488,127,-1,-0.3230031216207172,-0.0197188628079163,0.1045527807251305
1769169338492,127,-1,-0.0489179587285544,0.1975017228433951,0.3802192458000706
1769169338496,128,0,0.2060316656528578,0.8945878049720499,0.6373672575650978
1769169338500,128,0,0.3935244477423811,1.033325316111484,0.8270942636299825
1769169338504,128,0,0.4855098934960646,0.9292441375730056,0.9207680298897852
1769169338508,128,0,0.5248935051094543,1.1980892662062923,0.9614919622480952
1769169338512,128,0,0.6093231592810295,0.9912635639066316,1.0475059019918642
1769169338516,128,0,0.8147751162915335,1.1063876554347782,1.2547917227388348
1769169338520,129,1,1.1280514705245326,1.8571728873736113,1.5693303620161692
1769169338524,129,1,1.4485569250456904,2.0935880089121377,1.8898818157591073
1769169338528,129,1,1.6523095200970075,2.093139293626167,2.093027446429841
1769169338532,129,1,1.6607335872718796,2.062367110493872,2.1014849479008375
1769169338536,129,1,1.472248090959085,2.0867934077679653,1.9142692289355216
1769169338540,129,1,1.1562584757620098,1.8521916451900784,1.600247594378077
1769169338544,128,0,0.8219324907876455,1.1543488461901057,1.2677179108326353
1769169338548,128,0,0.5709946829674228,1.0285551358980949,1.0177765752396035
1769169338552,128,0,0.4546019209672216,1.1531407868533772,0.901158197797838
1769169338556,128,0,0.4590410185827323,0.9985072312126306,0.9041928320081496
1769169338560,128,0,0.5231450868552487,0.9577235229615676,0.9666359251492946
1769169338564,128,0,0.5713281182152181,1.074990481400133,1.014176171281124
1769169338568,128,0,0.5520196414448868,1.1214655375450042,0.9956260066646986
1769169338572,128,0,0.4750115467364741,1.0678549995791673,0.9198643877755284
1769169338576,128,0,0.4244388530376584,1.1020489618782363,0.8698414683984953
1769169338580,128,0,0.5187848278217184,0.8600407669701887,0.9637512414917726
1769169338584,128,0,0.8271178052569785,1.203513602081193,1.271167519271006
1769169338588,129,1,1.3031098796075309,2.0096328749138577,1.7460392003900729
1769169338592,129,1,1.7999083619198786,2.1846642349622414,2.24118251090585
1769169338596,130,2,2.161986211350025,3.006788649156862,2.600995957783831
1769169338600,130,2,2.318459609869259,2.964246061107169,2.755568733432059
1769169338604,129,1,2.30424099371179,2.1132968531359455,2.740996755737197
1769169338608,130,2,2.2116409643542507,3.123451412842043,2.649315020132448
1769169338612,130,2,2.135109485095393,3.0784464616276397,2.573253501156079
1769169338616,129,1,2.1448106723954132,2.1277078271896053,2.581676716156415
1769169338620,130,2,2.2693778691460293,2.8717897298284596,2.703401406830872
1769169338624,130,2,2.475057039903457,3.207576011094056,2.9056767141928748
1769169338628,130,2,2.665063176500948,3.049266825052057,3.092767541363195
1769169338632,130,2,2.7164807295664932,3.1687344334346395,3.142470737193757
1769169338636,130,2,2.5409422660636496,3.055288980796362,2.9662299082487062
1769169338640,130,2,2.138518953520629,2.946365024904848,2.563048649594549
1769169338644,129,1,1.605642490546586,2.166627870221844,2.028575506673914
1769169338648,128,0,1.0719005588844417,1.0833030812328222,1.4926113945171582
1769169338652,128,0,0.601771293942142,1.161802157769684,1.020032475368298
1769169338656,128,0,0.1485218806541723,1.094786834446176,0.5639600900265401
1769169338660,127,-1,-0.3948199219643624,-0.1227044407954822,0.0173346987209345
1769169338664,126,-2,-1.0990630655107307,-0.6754436508258173,-0.6901142242739275
1769169338668,126,-2,-1.9416167894940508,-1.152058078679397,-1.5351773429389388
1769169338672,124,-4,-2.8222929374494834,-2.5056418983009325,-2.4176156909046704
1769169338676,124,-4,-3.626225946394032,-3.289818554800902,-3.223090362093603
1769169338680,123,-5,-4.2820929837904425,-3.6658747282356208,-3.881121886959921
1769169338684,123,-5,-4.775134661288438,-4.14407678261195,-4.377580584993662
1769169338688,122,-6,-5.11904712397853,-4.669997917710606,-4.725837391126482
1769169338692,122,-6,-5.328606589114741,-4.951917278439178,-4.939387731700308
1769169338696,122,-6,-5.420660032538487,-4.873122948934277,-5.033995810734753
1769169338700,122,-6,-5.42801445066857,-4.998549663801512,-5.042806124981293
1769169338704,122,-6,-5.397204685984692,-4.875293150519272,-5.014126136142076
1769169338708,122,-6,-5.366411074653833,-4.833190992272343,-4.987914183660406
1769169338712,122,-6,-5.346229096901056,-4.882083389523371,-4.974549751115016
1769169338716,122,-6,-5.324087564017342,-4.816709001767558,-4.958468192746752
1769169338720,122,-6,-5.284821729327167,-5.146388683691163,-4.920739905392275
1769169338724,122,-6,-5.2156886978556365,-4.611325364797661,-4.847975288084533
1769169338728,123,-5,-5.083266487492867,-4.159277777401902,-4.711344847430407
1769169338732,122,-6,-4.824468657256679,-4.4999735093894415,-4.4551727687814715
1769169338736,123,-5,-4.401582727272496,-4.189746442429383,-4.046329801714171
1769169338740,123,-5,-3.875401549213219,-3.7873559165396777,-3.5424953856072148
1769169338744,124,-4,-3.347387560126581,-2.8943670647697486,-3.0338488462899447
1769169338748,125,-3,-2.679578673456162,-1.9417306112132853,-2.3688043084245303
1769169338752,126,-2,-1.1355082132495475,-0.6024719177084241,-0.8053498604818622
1769169338756,131,3,2.695094546879636,3.822006303789663,3.0567204376321677
1769169338760,138,10,10.34541204968498,11.325528099992663,10.729014313750788
1769169338764,149,21,22.29879650212384,21.92393513002699,22.67676033965127
1769169338768,162,34,36.75500605336714,35.35226559003323,37.098180620859864
1769169338772,176,48,49.29960982707534,49.05713286153389,49.59405019904949
1769169338776,183,55,54.19965822644738,56.192716797569744,54.45304642755582
1769169338780,176,48,47.035713385222266,48.91315462228008,47.27299071305635
1769169338784,155,27,27.2526707811587,28.28418266785488,27.505095804223096
1769169338788,126,-2,-1.0172069506488717,-1.0051595662483208,-0.7260815299492163
1769169338792,95,-33,-30.496614085163586,-31.633055485189143,-30.16319774880868
1769169338796,73,-55,-53.80872827624182,-53.96328231518305,-53.452464102421835
1769169338800,61,-67,-66.30808373921968,-65.86800325261902,-65.96131345860306
1769169338804,60,-68,-67.30137688239049,-66.78733619317569,-66.99143010989225
1769169338808,69,-59,-59.375445674556275,-57.95569085748915,-59.1106422108337
1769169338812,81,-47,-46.60744596209648,-45.693689019816816,-46.375177260165984
1769169338816,94,-34,-32.80730669733055,-32.94893198213223,-32.58358580906038
1769169338820,106,-22,-20.56163652473914,-20.85751124851004,-20.325429165037846
1769169338824,116,-12,-11.131250800838544,-10.794380196322464,-10.875340164844726
1769169338828,123,-5,-4.777153677854221,-3.969503784883079,-4.509364948011098
1769169338832,126,-2,-1.1166801410915277,-0.6780669270318062,-0.851400022509574
1769169338836,128,0,0.5931052167687239,1.013089247530489,0.8460257834269924
1769169338840,128,0,1.1797987582333147,1.256016924935668,1.420033459390302
1769169338844,128,0,1.2947342118538216,1.1048050294843954,1.527638325375143
1769169338848,129,1,1.2847025331904738,2.1576322045007896,1.5140601298915926
1769169338852,129,1,1.2616775026187468,2.206435100080322,1.4868172342573789
1769169338856,128,0,1.26386739690665,1.1061439711067933,1.4828541660557453
1769169338860,128,0,1.336784436329577,1.242823701892988,1.5500396956090288
1769169338864,129,1,1.4985927675600954,2.090889332843598,1.7081090137550454
1769169338868,129,1,1.700631146709763,2.2233912357946988,1.9069330155943416
1769169338872,129,1,1.8627861285726803,2.1206834250911952,2.0643430594062124
1769169338876,129,1,1.9390019959798468,2.2123719594826574,2.1344217048425103
1769169338880,129,1,1.937379666286381,2.1624035896304123,2.127079280090305
1769169338884,129,1,1.891481553020005,2.1741567181548915,2.0769955434627603
1769169338888,129,1,1.833253981241324,2.1831203206928973,2.015420978558454
1769169338892,129,1,1.796610016695872,2.1342975231439847,1.9747463871962867
1769169338896,129,1,1.829933345213326,2.249294216784048,2.0027278836477236
1769169338900,129,1,1.9801044496397644,2.1080744802942832,2.1471050020521707
1769169338904,129,1,2.248362478232283,2.2778615344427635,2.4103057628188544
1769169338908,130,2,2.5660345247659384,3.074522143934897,2.723701434528276
1769169338912,130,2,2.830523837356678,3.2646827917546486,2.9837052184643
1769169338916,130,2,2.9758729607624206,3.1267446158126244,3.123779745328839
1769169338920,130,2,3.009059523324757,3.2451246202226347,3.151477481132618
1769169338924,130,2,2.9817800217374204,3.1666658269881935,3.1194413892645056
1769169338928,130,2,2.937972751356097,3.179697729170777,3.0718161022466077
1769169338932,130,2,2.8947118287365323,3.2070326367754403,3.024938893352636
1769169338936,130,2,2.867603516973176,3.157014689276695,2.993485892222261
1769169338940,130,2,2.8989858029595843,3.276824227456001,3.0196223612763378
1769169338944,130,2,3.042749898110292,3.107080117572681,3.158010501527042
1769169338948,130,2,3.3099177450521995,3.2861612378706457,3.4204544868465816
1769169338952,131,3,3.6336863281847376,4.095420953295547,3.739970957845677
1769169338956,131,3,3.903424350984495,4.2933141587252015,4.005166893633221
1769169338960,131,3,4.043213980505032,4.157804355446934,4.140002933392559
1769169338964,131,3,4.05946502731277,4.231263485813021,4.151614982036885
1769169338968,131,3,4.017894214208573,4.183652405413398,4.106209546787682
1769169338972,131,3,3.983452826020017,4.195136358543265,4.068257817226965
1769169338976,131,3,3.981148108072017,4.236499083420626,4.061894993096259
1769169338980,131,3,3.999996615072217,4.210224344222287,4.075886066156899
1769169338984,131,3,4.019705469974261,4.212492178764996,4.090527722901674
1769169338988,131,3,4.030177123334878,4.193207418458524,4.09647038592622
1769169338992,131,3,4.0329150149185935,4.209866861076659,4.095379506003852
1769169338996,131,3,4.033260230733223,4.238818780527642,4.092112756559209
1769169339000,131,3,4.035103833358438,4.2270968310619645,4.0900113011106685
1769169339004,131,3,4.040206860681506,4.209967855151985,4.09077601708712
1769169339008,131,3,4.048087304649268,4.200196118801857,4.094342121995872
1769169339012,131,3,4.055525033907806,4.218820299265344,4.09789223449957
1769169339016,131,3,4.05881750327455,4.249703293575089,4.097690081701374
1769169339020,131,3,4.058742507894683,4.237195103791139,4.0940921439035565
1769169339024,131,3,4.062026212793134,4.210335849233399,4.093430680319515
1769169339028,131,3,4.074587621453378,4.208443993986755,4.1016346184225325
1769169339032,131,3,4.091933486433449,4.222585171215905,4.114670052210356
1769169339036,131,3,4.098861611643368,4.2675159312552315,4.117935011739728
1769169339040,131,3,4.083705451906294,4.242151729740912,4.100011188600726
1769169339044,131,3,4.05646900894587,4.211237212004278,4.070448944696489
1769169339048,131,3,4.05094218635081,4.2227879036690465,4.062079740398113
1769169339052,131,3,4.09903994821651,4.211972034124352,4.106165307932903
1769169339056,131,3,4.188289883616538,4.306352221524223,4.1906275120220515
1769169339060,131,3,4.2362387004746545,4.224562514489128,4.234200818735822
1769169339064,131,3,4.11763675655401,4.23017130788306,4.1124665942803915
1769169339068,131,3,3.745166616054297,4.229580300264582,3.737854015902685
1769169339072,130,2,3.1477522123506674,3.1922553903644557,3.1384446664572927
1769169339076,129,1,2.4706585483871897,2.3712715260481865,2.458955990716296
1769169339080,129,1,1.8802707258730929,2.158855259125195,1.865730108723532
1769169339084,128,0,1.446094535396892,1.3229280662470424,1.4283738585291426
1769169339088,128,0,1.099988801886306,1.137969903977636,1.0787449762403412
1769169339092,128,0,0.708297365570288,1.3073119199574177,0.6833395661237853
1769169339096,127,-1,0.1936090520200051,0.2711583755374128,0.1654239506538041
1769169339100,126,-2,-0.4001388501858747,-0.7312233683774587,-0.4303617305042657
1769169339104,126,-2,-0.9454330279462896,-0.7594837103744658,-0.9768490997133624
1769169339108,126,-2,-1.3208315763176226,-0.802768759965975,-1.3537354963843529
1769169339112,125,-3,-1.4775997106541023,-1.6848401250246474,-1.5127055802545202
1769169339116,125,-3,-1.4538363586657272,-1.7677527200691772,-1.4913801346248463
1769169339120,126,-2,-1.3389515411368669,-0.6231516507792321,-1.3791049002822229
1769169339124,126,-2,-1.2097760823136443,-0.9127594032320876,-1.2530665474965004
1769169339128,125,-3,-1.091455074628703,-1.6003144119895254,-1.1378739108166631
1769169339132,126,-2,-0.981702445897656,-0.8852721822856957,-1.0300384805855776
1769169339136,126,-2,-0.896609807348004,-0.5527912619268637,-0.9454593672930376
1769169339140,126,-2,-0.8655166388389197,-0.8039679881633147,-0.9146296549181784
1769169339144,126,-2,-0.8784580563894994,-0.7531737626206236,-0.9287200943404432
1769169339148,126,-2,-0.8614182039321927,-0.703619983794426,-0.9138137136134616
1769169339152,126,-2,-0.7255972993137143,-0.8213108716570331,-0.7804204634041259
1769169339156,126,-2,-0.4516823267000253,-0.5421620128383186,-0.5085532799407553
1769169339160,127,-1,-0.125161808360827,0.1537400327187523,-0.1835112842067683
1769169339164,127,-1,0.1212349469172181,0.3382085289642942,0.0618455073410863
1769169339168,127,-1,0.2133588509160618,0.1999807376655331,0.1532282425969021
1769169339172,127,-1,0.1965608728907712,0.2812898511761852,0.1358338820045748
1769169339176,127,-1,0.1980332685531919,0.3900849603711928,0.1367107236329217
1769169339180,127,-1,0.3201319125128938,0.2122436436685946,0.2582650656458063
1769169339184,127,-1,0.5500868885411413,0.3243880278526626,0.4876944161591232
1769169339188,128,0,0.7638737743882036,1.2094223493948726,0.7004681576655598
1769169339192,128,0,0.8259235075514424,1.2859918357403044,0.7607504081934509
1769169339196,127,-1,0.6925627619380237,0.4116198687834926,0.6258332112839071
1769169339200,127,-1,0.4221373782230861,0.1805505485154718,0.3553642155206165
1769169339204,127,-1,0.1023088911489579,0.4021635528777708,0.0367333460586465
1769169339208,127,-1,-0.2102411544734901,0.1107462883490557,-0.2749885689288323
1769169339212,126,-2,-0.487285334059405,-0.5657051455416089,-0.5523062648662664
1769169339216,126,-2,-0.7028275614180818,-0.7395275160914296,-0.7683385242171924
1769169339220,126,-2,-0.8303124357376475,-0.6535408464293178,-0.895686553708829
1769169339224,126,-2,-0.8592265552938264,-0.7456902994993827,-0.9242596223063432
1769169339228,126,-2,-0.8074508969854356,-0.7380869441885594,-0.8726958659047844
1769169339232,126,-2,-0.7234005775056976,-0.6780473075895214,-0.7891128191022042
1769169339236,126,-2,-0.6782559566402767,-0.6320976889322794,-0.7436155568018238
1769169339240,126,-2,-0.7392477606759433,-0.7381926475166467,-0.8031284159134019
1769169339244,126,-2,-0.9234934807607118,-0.6633682668071718,-0.9858153167836864
1769169339248,126,-2,-1.164913710219631,-0.7868783328983378,-1.2265925248228184
1769169339252,125,-3,-1.34144310369527,-1.6275038348594737,-1.4028830626908706
1769169339256,125,-3,-1.360614614662116,-1.645476315494557,-1.4210275642949055
1769169339260,126,-2,-1.2248240791853158,-0.7503437238109457,-1.2834605056582924
1769169339264,126,-2,-1.0024669850742491,-0.5940570289848619,-1.059697950581746
1769169339268,126,-2,-0.7392261433540733,-0.8826478333899338,-0.7956882882016401
1769169339272,126,-2,-0.4170571737984815,-0.4614131293636742,-0.4723729390459431
1769169339276,127,-1,-0.003804252732265,0.1447323751865372,-0.0570277565697719
1769169339280,127,-1,0.4741509173037337,0.5013440232242267,0.4230730272233483
1769169339284,128,0,0.9197839408748684,1.157044681393716,0.8697771584041764
1769169339288,128,0,1.2223315081693893,1.3941365045797127,1.1726180003074949
1769169339292,128,0,1.3274713767785071,1.2838345218182543,1.2788608984550391
1769169339296,128,0,1.2686503734233132,1.3851824646815474,1.2230506156862102
1769169339300,128,0,1.1509308164963683,1.2867663434512702,1.1095773139959224
1769169339304,128,0,1.1059288257379354,1.3708874135651945,1.0683347212408674
1769169339308,128,0,1.2329697533829225,1.2395212848147144,1.1975966351426737
1769169339312,128,0,1.5416964938797713,1.415629375098176,1.507302660045457
1769169339316,129,1,1.9293544979574724,2.2960908124606796,1.8956776375031503
1769169339320,129,1,2.222959864500957,2.340782587702314,2.190710950328278
1769169339324,129,1,2.2696765234690304,2.3751177967509545,2.240303651966716
1769169339328,129,1,2.01465991615893,2.237811419633812,1.9896816743731232
1769169339332,128,0,1.5159327097867614,1.4381760143211495,1.4958041351864089
1769169339336,128,0,0.8941519075621953,1.2690102893030422,0.8777371837469601
1769169339340,127,-1,0.2523883130919272,0.380883732748468,0.2379984801622323
1769169339344,126,-2,-0.3874791363606698,-0.6437081031467498,-0.4004023532710883
1769169339348,126,-2,-1.0880904938010807,-0.7093437176789552,-1.0985564879582592
1769169339352,125,-3,-1.9235314868386408,-1.6074735489438543,-1.9301235310267333
1769169339356,124,-4,-2.8769755044791836,-2.6929515217886686,-2.8789410224453045
1769169339360,123,-5,-3.802696334193461,-3.6298956729257914,-3.800018269028594
1769169339364,122,-6,-4.503122366891669,-4.631667665554506,-4.496170877539273
1769169339368,122,-6,-4.8639594977955465,-4.678684524275227,-4.853374367405953
1769169339372,122,-6,-4.931199067428187,-4.625503446145887,-4.917684007676961
1769169339376,122,-6,-4.866537018989568,-4.686587407858529,-4.85026407864761
1769169339380,122,-6,-4.824234802673762,-4.597000122719761,-4.804479856788992
1769169339384,122,-6,-4.849450140139394,-4.683770611086193,-4.825062456910569
1769169339388,122,-6,-4.869169281056683,-4.572576984408648,-4.839348095152837
1769169339392,122,-6,-4.773611980138865,-4.738386166585633,-4.738176935480128
1769169339396,122,-6,-4.521918418919906,-4.561672472467302,-4.481248993822501
1769169339400,123,-5,-4.187394285074603,-3.702588881436408,-4.142492647627225
1769169339404,123,-5,-3.905493677710851,-3.5736372083988663,-3.8577197341383695
1769169339408,123,-5,-3.7732912551278264,-3.6490614655118945,-3.7232762366040872
1769169339412,123,-5,-3.788676079216494,-3.6497396962076536,-3.735168588268981
1769169339416,123,-5,-3.868623449061719,-3.667963425277687,-3.8085068026317
1769169339420,123,-5,-3.912121500209708,-3.54571113488057,-3.8420030867774897
1769169339424,123,-5,-3.8540413573528705,-3.7627947747436297,-3.772937025899573
1769169339428,123,-5,-3.686701024570977,-3.368583891349081,-3.5984337338245456
1769169339432,124,-4,-3.4534839454110093,-2.9869732001275953,-3.36626720079207
1769169339436,123,-5,-3.217968657362235,-3.2701935001764704,-3.1394203923617185
1769169339440,124,-4,-2.9891318735306305,-2.976641483819801,-2.9190141770694527
1769169339444,124,-4,-2.57213029451015,-2.288535681498022,-2.4988801537407332
1769169339448,126,-2,-1.3754735594695078,-0.8118201899973116,-1.2812152117682296
1769169339452,129,1,1.654853494506952,2.438372524684598,1.78260251966351
1769169339456,135,7,7.718162988946439,8.373042375644975,7.876227900529145
1769169339460,144,16,17.353657303517874,17.320032081401422,17.522755435133462
1769169339464,155,27,29.44825220686353,28.526947765609965,29.603569782438072
1769169339468,167,39,40.75685337408805,40.31931789724568,40.882363309955686
1769169339472,174,46,46.60759479704067,47.37250186764179,46.704848446792795
1769169339476,171,43,42.81710228311383,44.36713523689912,42.90436832139589
1769169339480,156,28,27.921184968981667,29.312256174482112,28.02474023317351
1769169339484,131,3,4.371813921319145,4.503268659199253,4.51375903147618
1769169339488,104,-24,-22.15710844269602,-22.656852236163022,-21.969468811425227
