timestamp_ms,ecg_u8_raw,ecg_counts_raw_int,ecg_counts_filt_monitor,ecg_counts_filt_diagnostic,ecg_counts_filt_st
1770451233992,125,-3,-2.499753356547862,-3.5008495309291523,-3.610206312426568
1770451233996,125,-3,-2.340424644719367,-3.0734467589351717,-3.4532170374100133
1770451234000,125,-3,-2.347247533827887,-3.099288018193316,-3.460750793124494
1770451234004,125,-3,-2.594337012136024,-3.2390472888772073,-3.7065377943183666
1770451234008,125,-3,-3.0064903665102127,-3.663442121458795,-4.116158848051532
1770451234012,124,-4,-3.3660495397316437,-4.319095929016131,-4.4733253905534
1770451234016,124,-4,-3.434959682201262,-4.218660029125727,-4.541198936451502
1770451234020,124,-4,-3.1151821417901697,-4.007505058121534,-4.222149725171854
1770451234024,125,-3,-2.5290507960471285,-3.3023076170940477,-3.637807323421375
1770451234028,126,-2,-1.953306106449668,-2.616524039681587,-3.063448784618807
1770451234032,126,-2,-1.646728331236165,-2.3716476693875226,-2.756486659869831
1770451234036,126,-2,-1.6917305676972374,-2.1811068284557757,-2.7988589940937025
1770451234040,125,-3,-1.9629327930699063,-3.0725320790770247,-3.0660384999013144
1770451234044,125,-3,-2.239162721919151,-3.2321830446625115,-3.3388501737478964
1770451234048,126,-2,-2.3652627066457397,-2.688326686596974,-3.463932863085965
1770451234052,125,-3,-2.3446690906550804,-3.3013965264211693,-3.444437192054723
1770451234056,125,-3,-2.3133138723247963,-3.2667451321188476,-3.4138916161966377
1770451234060,125,-3,-2.42555696830674,-3.0021366386272046,-3.524656358715908
1770451234064,125,-3,-2.722708888541653,-3.314929404925387,-3.818425497062228
1770451234068,125,-3,-3.071657990346389,-3.6074788166686504,-4.163719090639583
1770451234072,124,-4,-3.23892773977641,-4.367771709930052,-4.327783655625505
1770451234076,124,-4,-3.0653600166614754,-4.248571718006478,-4.151380635735851
1770451234080,125,-3,-2.5963118252740127,-2.994037645585577,-3.6804040115888537
1770451234084,126,-2,-2.044910205880862,-2.3703165495113767,-3.1286274351498995
1770451234088,126,-2,-1.629091813713329,-2.5102580684225586,-2.7128458873076124
1770451234092,126,-2,-1.4409445165028805,-2.4931840093238113,-2.522659431096377
1770451234096,126,-2,-1.442195341837201,-2.14713083703274,-2.518987607612156
1770451234100,126,-2,-1.5371773925021968,-2.1032318087314374,-2.608370399591835
1770451234104,126,-2,-1.634598295015143,-2.281928439944193,-2.7022544748407347
1770451234108,126,-2,-1.674935715274943,-2.5471977536469637,-2.741366380356367
1770451234112,126,-2,-1.6438452123935403,-2.517705262706208,-2.709253716045109
1770451234116,126,-2,-1.570257058497742,-2.090111948063794,-2.632942147689172
1770451234120,126,-2,-1.492915652304982,-2.2440873546829203,-2.551179733266802
1770451234124,126,-2,-1.4131410905287949,-2.0698742268391452,-2.4666313903905417
1770451234128,127,-1,-1.2841772370024254,-1.8040941820227736,-2.333704477859295
1770451234132,126,-2,-1.062139000663226,-2.2283616959412567,-2.10877963416333
1770451234136,127,-1,-0.7771661518106123,-1.4473039610798015,-1.821678303904387
1770451234140,127,-1,-0.548774411459346,-0.8683481456910256,-1.5912831213842749
1770451234144,127,-1,-0.5151051459234024,-1.464723605849889,-1.5547125830631114
1770451234148,127,-1,-0.727941401219055,-1.3838118863098183,-1.762915827613615
1770451234152,127,-1,-1.095194871855867,-1.656162073912336,-2.1242601450906555
1770451234156,126,-2,-1.414255465682901,-2.0956351303202925,-2.437729159326685
1770451234160,126,-2,-1.484395868009585,-2.1525502823059455,-2.503710857992182
1770451234164,126,-2,-1.2390352529389794,-2.274073604385392,-2.2553803931539123
1770451234168,127,-1,-0.8073264052171958,-1.4393285343266582,-1.8211861958183817
1770451234172,128,0,-0.4421679273435019,-0.7424354210048341,-1.4537200388592082
1770451234176,127,-1,-0.3545913049405935,-0.9249386976883728,-1.3635098879935337
1770451234180,127,-1,-0.5843129864488852,-1.437832427651185,-1.5890723812624072
1770451234184,126,-2,-1.0032404229851526,-1.906065035089368,-2.0016791269684493
1770451234188,127,-1,-1.4212554736175431,-1.8504559067071331,-2.412600570208422
1770451234192,126,-2,-1.688276144522959,-2.314489901481224,-2.674255416072249
1770451234196,126,-2,-1.732559159270927,-2.382200491548888,-2.7158394725163646
1770451234200,126,-2,-1.5569050258614838,-2.0038833026577896,-2.5383496788911093
1770451234204,126,-2,-1.2299930626858775,-2.3136499486709345,-2.2079165648421193
1770451234208,127,-1,-0.8674058886906106,-1.4705634503959848,-1.8398377364897829
1770451234212,128,0,-0.578881889581915,-0.6615242451885399,-1.5460547146603556
1770451234216,127,-1,-0.4057478309099964,-1.1071789690356408,-1.3694812227204902
1770451234220,127,-1,-0.3156529380249142,-1.2449714438080657,-1.2764621169732857
1770451234224,127,-1,-0.2688844754272339,-1.1172069624975585,-1.224935157139269
1770451234228,128,0,-0.2725420675193948,-0.6242562123650162,-1.221948445022641
1770451234232,128,0,-0.3460319378004557,-0.5494269106361326,-1.289284112719157
1770451234236,127,-1,-0.445254858301124,-1.1918006775414418,-1.384630940057889
1770451234240,127,-1,-0.4629359504573114,-1.2361685096429806,-1.399947858104336
1770451234244,127,-1,-0.3321728805490043,-1.059339415209756,-1.2662347883864309
1770451234248,128,0,-0.122337401488185,-0.760735932562722,-1.0517962290354643
1770451234252,128,0,-0.0058735661524473,-0.3272441894092507,-0.9298091667927773
1770451234256,128,0,-0.1069227482027206,-0.4966957911621859,-1.0257716197480105
1770451234260,127,-1,-0.3725448529256054,-0.9126124816561492,-1.2872157103240878
1770451234264,127,-1,-0.5966913918967347,-1.4033024692767453,-1.5074209376558994
1770451234268,127,-1,-0.5826203182746561,-1.4376478051098212,-1.4888490641280774
1770451234272,128,0,-0.2946852739483734,-0.59524715954217,-1.1958621017270858
1770451234276,128,0,0.1368442917168078,-0.2935032098146243,-0.7594018145245656
1770451234280,128,0,0.5494184506883275,-0.0794491177476999,-0.3426335749886079
1770451234284,129,1,0.8849240110264989,0.7018031498669735,-0.0037205204452874
1770451234288,129,1,1.2026490930667586,0.4851860397769214,0.3172451921062771
1770451234292,129,1,1.5662795291464615,0.4667647287204448,0.6847307500062627
1770451234296,130,2,1.9298012661852704,1.6482339223230806,1.0527640161305984
1770451234300,130,2,2.155417356834663,1.9670881926835455,1.28283177326317
1770451234304,130,2,2.160361549846327,1.6254304411105918,1.2918579608614005
1770451234308,130,2,2.044203929509168,1.5814695874127749,1.1800723858070248
1770451234312,130,2,2.0585365722081534,1.3483334241169609,1.1996393722469485
1770451234316,130,2,2.4338190798610353,1.7625182667463617,1.580370148279156
1770451234320,131,3,3.207309508675376,2.8688945977839113,2.35812222639482
1770451234324,132,4,4.184994693863618,3.6642369128242582,3.3382275474962446
1770451234328,133,5,5.053424249347339,4.614900830381087,4.208050488719052
1770451234332,134,6,5.548640258012983,5.22208973985634,4.705216661709837
1770451234336,133,5,5.567550322289318,4.958072969214204,4.727779712016213
1770451234340,133,5,5.168330292806367,4.587626406998999,4.333899300945252
1770451234344,132,4,4.492823380003886,3.99340287385855,3.6642755984055193
1770451234348,132,4,3.6878586347361617,3.2563304161366204,2.8642489028874056
1770451234352,131,3,2.873290020467272,2.5797582165012223,2.052987637312587
1770451234356,130,2,2.141596384040974,1.6202551771126057,1.3235924110068094
1770451234360,129,1,1.5493996432635573,0.8559200195058692,0.7338159252984011
1770451234364,129,1,1.0949924973708471,0.7941378013039246,0.2823801861658214
1770451234368,129,1,0.7126108360217716,0.3723509722140591,-0.0969268260946079
1770451234372,128,0,0.3043179603917449,-0.4560710699744418,-0.5025421832593662
1770451234376,128,0,-0.2049559556032028,-0.4281750191150644,-1.0094117570844312
1770451234380,127,-1,-0.8223270099413678,-1.0486144672710505,-1.6238935449610674
1770451234384,126,-2,-1.4800139099094447,-2.3636360635965845,-2.277472875762032
1770451234388,126,-2,-2.070479838858352,-2.427509014470477,-2.8630011420223775
1770451234392,126,-2,-2.4961872534230505,-2.677808589671188,-3.2847026858983774
1770451234396,125,-3,-2.704500766594787,-3.2189880060856044,-3.4915159872291515
1770451234400,125,-3,-2.7058735116353296,-3.242008025895112,-3.4934570413495365
1770451234404,125,-3,-2.577518664391667,-3.2252347310371423,-3.3653722626855247
1770451234408,126,-2,-2.4330426835593766,-2.516305400922361,-3.218283764695339
1770451234412,126,-2,-2.3532612269673256,-2.6351533814640304,-3.1320784551044736
1770451234416,125,-3,-2.3249212209857304,-3.2330728221942273,-3.095660842208914
1770451234420,126,-2,-2.2449774496510466,-2.2737282351664856,-3.011038733182012
1770451234424,126,-2,-1.9959557318473504,-2.1751977839703907,-2.765100201970058
1770451234428,126,-2,-1.538439828434912,-2.6002783196152075,-2.3170405874683704
1770451234432,127,-1,-0.9302816191279708,-1.5054874578357578,-1.716809686706657
1770451234436,128,0,-0.187575007924049,-0.412459939492399,-0.9719147532170218
1770451234440,129,1,0.9856946257845745,0.923242533185462,0.2155619509343351
1770451234444,132,4,3.3730708314262445,3.595846866372143,2.622334833884178
1770451234448,136,8,8.018004061703309,7.653692656149175,7.281162059296768
1770451234452,143,15,15.51489948635399,14.22247326152292,14.779075211529824
1770451234456,152,24,25.19020775768736,23.883135556702452,24.442272649397236
1770451234460,163,35,34.82927312787205,34.593570837045995,34.06215345383273
1770451234464,170,42,41.368450471118734,41.93210219073856,40.584503916416686
1770451234468,171,43,42.296002046848,42.30039058514245,41.506599255552494
1770451234472,165,37,36.93321791020921,36.50688727152999,36.15356699320751
1770451234476,155,27,26.79778142805909,26.600518550136652,26.038671577572927
1770451234480,142,14,14.849103309416002,13.804705649973975,14.110900283824524
1770451234484,131,3,4.107326692846833,2.8148525983576747,3.380326253700571
1770451234488,125,-3,-3.5374253899502204,-3.571597376779791,-4.267256020835788
1770451234492,121,-7,-7.723297945616942,-7.587555827269502,-8.46701464260099
1770451234496,119,-9,-9.196932341778016,-9.320859748695373,-9.957269338443062
1770451234500,119,-9,-9.053259456836257,-9.319388462623348,-9.823843578219352
1770451234504,119,-9,-8.177802504428048,-9.03655158529343,-8.947657174130008
1770451234508,121,-7,-7.101959560150851,-7.756857342731136,-7.8626828249373615
1770451234512,122,-6,-6.115043541398283,-6.362728149504833,-6.865761285978394
1770451234516,123,-5,-5.37713276971051,-5.60776027451263,-6.123725026555603
1770451234520,123,-5,-4.934191347157066,-5.033512655115767,-5.683742294495873
1770451234524,123,-5,-4.71459289403602,-5.315740843777423,-5.4699358762100765
1770451234528,123,-5,-4.593807296114501,-5.5140688635415795,-5.352698125898934
1770451234532,124,-4,-4.491601027389469,-4.536681381472797,-5.2503587277152
1770451234536,124,-4,-4.401228566603314,-4.523952165780058,-5.158463965497954
1770451234540,123,-5,-4.329357841402378,-5.061408699335155,-5.08637126476432
1770451234544,124,-4,-4.232505886606251,-4.34225961703711,-4.99116050208484
1770451234548,124,-4,-4.032377301876636,-4.454847966630447,-4.7932726043795935
1770451234552,124,-4,-3.697582748773381,-4.615791691555904,-4.460097095504453
1770451234556,125,-3,-3.3033156351541626,-3.4470302698035797,-4.06701962434818
1770451234560,125,-3,-2.99510917330362,-3.1424879858713157,-3.760667346121738
1770451234564,125,-3,-2.8783681926111986,-3.29166539875206,-3.6465988663482154
1770451234568,125,-3,-2.936772398879252,-3.4590762941068105,-3.7070880958617782
1770451234572,125,-3,-3.051973146885753,-3.6819917216443785,-3.8226190614591857
1770451234576,125,-3,-3.090321241084131,-3.3236377564305255,-3.860491434783519
1770451234580,125,-3,-2.9710219371333357,-3.3300551704756214,-3.742239418171898
1770451234584,125,-3,-2.679235839659351,-3.0648549998385355,-3.454148621835624
1770451234588,126,-2,-2.252129507616873,-2.6950292514639353,-3.032004642477254
1770451234592,126,-2,-1.76568109087378,-2.477814013725841,-2.549342674417236
1770451234596,127,-1,-1.3101854407238085,-1.4953244987191532,-2.0953515944744
1770451234600,127,-1,-0.9391128510880792,-1.2213083755168048,-1.7244719955052314
1770451234604,127,-1,-0.6229122444152582,-1.112985633354656,-1.408950297897111
1770451234608,128,0,-0.2654661960096955,-0.6957721408323828,-1.0538474694812143
1770451234612,128,0,0.2081775847949571,-0.4628761066905483,-0.5843099579756569
1770451234616,129,1,0.7616113007502807,0.4741009999763963,-0.0358873047026611
1770451234620,129,1,1.2394665173539137,0.7913223946761077,0.4375224840716191
1770451234624,129,1,1.4631014452229074,0.9148460503356444,0.6584417179418862
1770451234628,130,2,1.366464504375244,1.2214300886037048,0.5605781384065102
1770451234632,129,1,1.0702777271404038,0.6607080679786486,0.2631187858061197
1770451234636,129,1,0.8240076716671719,0.2788992626268022,0.0141784052948295
1770451234640,128,0,0.8391044634021795,0.0416035639690283,0.0251191892726123
1770451234644,129,1,1.1379160954138952,0.6315202667426905,0.3190804370297533
1770451234648,130,2,1.5507218659527084,1.526359713536983,0.7271906120485352
1770451234652,130,2,1.8710235087817064,1.3434034320400248,1.0435735972049638
1770451234656,130,2,2.034965706527205,1.5581500160250512,1.204578455584587
1770451234660,130,2,2.171468416519411,1.798052470381288,1.338631123533217
1770451234664,130,2,2.487082408183106,1.8220310259415025,1.6513984873067398
1770451234668,131,3,3.0863390171109493,2.4002253120429415,2.2468630279551327
1770451234672,132,4,3.8769380869998864,3.4034100578155324,3.0327283409691175
1770451234676,133,5,4.639426191918327,4.540797906419564,3.789917909538363
1770451234680,133,5,5.200995087340546,4.760619129439794,4.346394842206794
1770451234684,133,5,5.559737870070882,4.898410151521334,4.701181661536956
1770451234688,134,6,5.8553900539804955,5.290598157145429,4.994154214852971
1770451234692,134,6,6.229212668512893,5.5214410680489205,5.365353992487377
1770451234696,135,7,6.707847870121635,6.414765084165794,5.839877588454709
1770451234700,135,7,7.200814869735096,6.870117135899324,6.327123775331211
1770451234704,135,7,7.5868296949146306,6.826613216140565,6.707305648810386
1770451234708,136,8,7.802387520236042,7.297503772645926,6.918210987763833
1770451234712,136,8,7.87316519858977,7.575772009503966,6.985182538959952
1770451234716,136,8,7.882911984868194,7.271941273344394,6.990853411416655
1770451234720,135,7,7.907047755711112,7.091171626160047,7.010354100944278
1770451234724,136,8,7.957638912883589,7.55401942142175,7.056354161823289
1770451234728,136,8,7.985717683464515,7.581649240399121,7.080240211361597
1770451234732,136,8,7.939604511350979,7.302593418448062,7.029898650007546
1770451234736,136,8,7.817865134031489,7.47734320529945,6.903265351555392
1770451234740,135,7,7.655094561389384,6.983460302194965,6.734927081434413
1770451234744,135,7,7.44780653593212,6.537261900906625,6.522042789148222
1770451234748,135,7,7.09875378843139,6.725268883802888,6.167896508142858
1770451234752,135,7,6.454313883013969,6.0292772740361,5.51874791310491
1770451234756,133,5,5.421548807922748,4.834875630994919,4.481237991853529
1770451234760,132,4,4.06399796913618,3.5824836604715204,3.118827171606582
1770451234764,130,2,2.583741249957268,1.9231324990511216,1.6339880380113172
1770451234768,129,1,1.196484973434934,0.3897382304068807,0.2427224690175871
1770451234772,128,0,0.0020825362414549,-0.7294752343517681,-0.9556603863024258
1770451234776,127,-1,-1.0426399556240722,-1.2968081335712742,-2.005524018086115
1770451234780,126,-2,-2.038398745033258,-2.393351959259214,-3.0079721594670112
1770451234784,124,-4,-3.041583701530717,-4.012835709327687,-4.018065907659143
1770451234788,124,-4,-4.041358014013227,-4.755477689445494,-5.023235790144856
1770451234792,123,-5,-5.006024164988585,-5.553373087543809,-5.991708397785456
1770451234796,122,-6,-5.91598046260525,-6.481891545343244,-6.905425616771732
1770451234800,121,-7,-6.743635687939982,-7.212633318642264,-7.737905540244229
1770451234804,120,-8,-7.423627023581202,-8.17137926744024,-8.423241275301685
1770451234808,120,-8,-7.86820862023726,-8.647257280672603,-8.872616385881951
1770451234812,120,-8,-8.022251702240716,-8.638491219873838,-9.03103140034477
1770451234816,120,-8,-7.906284198193387,-8.412593261683728,-8.920208580149083
1770451234820,120,-8,-7.615296477108189,-8.266323544753849,-8.63561877722292
1770451234824,120,-8,-7.285462599772803,-8.113523455109316,-8.312350367914078
1770451234828,121,-7,-7.050145804749192,-7.745067823323135,-8.082408087407915
1770451234832,121,-7,-6.989843619314596,-7.531245583402117,-8.026203682319903
1770451234836,121,-7,-7.088709138290579,-7.529856398083995,-8.12879011702301
1770451234840,120,-8,-7.236477809825836,-8.131019383489566,-8.280513853548642
1770451234844,120,-8,-7.297158357232443,-8.25242981533212,-8.345551650705612
1770451234848,121,-7,-7.199562828151858,-7.635740809303249,-8.253155200362356
1770451234852,121,-7,-6.973657790614847,-7.635177706172375,-8.033680257335776
1770451234856,121,-7,-6.709914468879434,-7.429748601229809,-7.77676872890722
1770451234860,121,-7,-6.488680948420531,-7.205552914171155,-7.560945852218173
1770451234864,121,-7,-6.332466935124199,-7.200874782053807,-7.40791710378609
1770451234868,122,-6,-6.195228654749868,-6.706589540965641,-7.273096004105217
1770451234872,122,-6,-5.984634166484342,-6.562633519772442,-7.066399592233781
1770451234876,122,-6,-5.619788660356727,-6.507687672252812,-6.7074554720485375
1770451234880,122,-6,-5.1084738874999704,-6.089525929492293,-6.202522744462768
1770451234884,123,-5,-4.5816750698938,-5.359092887394807,-5.681172069846175
1770451234888,124,-4,-4.2251969267227185,-4.543335149453231,-5.329370287658903
1770451234892,124,-4,-4.140886644467729,-4.749406370551947,-5.24963339019835
1770451234896,123,-5,-4.260796390911036,-5.297165354278403,-5.37374239870491
1770451234900,123,-5,-4.400108644448022,-5.302106314214973,-5.516328305857344
1770451234904,123,-5,-4.39600190896423,-5.155481691279842,-5.515244512098005
1770451234908,124,-4,-4.2026931946135875,-4.76889185844405,-5.326174930743481
1770451234912,124,-4,-3.879315323773466,-4.509442844786408,-5.008511741050105
1770451234916,124,-4,-3.5188534999510384,-4.5342917368516025,-4.653789454399968
1770451234920,124,-4,-3.193535981785858,-4.061608622295049,-4.332972798366859
1770451234924,125,-3,-2.93846953208523,-3.410625328966882,-4.081585156875029
1770451234928,125,-3,-2.7566967148114614,-3.5401036061346893,-3.9037190076429655
1770451234932,125,-3,-2.636970106074137,-3.7116490883109696,-3.7881245899055567
1770451234936,125,-3,-2.5766513927128933,-3.345922848048103,-3.7314539721624858
1770451234940,125,-3,-2.5834172940149167,-3.2230150847175003,-3.7414517153455806
1770451234944,125,-3,-2.6450735322631043,-3.3033214660789176,-3.806819397272412
1770451234948,125,-3,-2.7062987892667145,-3.607116934438952,-3.87261146666946
1770451234952,125,-3,-2.6968589723045393,-3.702238718867208,-3.867838916823264
1770451234956,125,-3,-2.594103697144076,-3.2761640047724674,-3.768856617782475
1770451234960,125,-3,-2.4522244488691327,-3.3630210649834966,-3.629774572921552
1770451234964,125,-3,-2.358991962496108,-3.1201098142874457,-3.5393373880141046
1770451234968,126,-2,-2.356568515944904,-2.8309533167922147,-3.5407151871280766
1770451234972,125,-3,-2.4053970081224025,-3.4768413741218267,-3.594194024683744
1770451234976,125,-3,-2.4318769153798736,-3.4645089875761315,-3.6249202138694976
1770451234980,125,-3,-2.4108943510022893,-3.2329215009038466,-3.60689140960508
1770451234984,125,-3,-2.388316566992056,-3.183106257686051,-3.586465060757765
1770451234988,126,-2,-2.4120413593824037,-2.864142605191487,-3.612597344150915
1770451234992,125,-3,-2.450658127470847,-3.345007876655548,-3.654127539789207
1770451234996,125,-3,-2.40222444842321,-3.6830886807953984,-3.6086933375223382
1770451235000,125,-3,-2.1955176159081473,-2.9531723017225846,-3.405177952839001
1770451235004,126,-2,-1.880669168399797,-2.4965123526860227,-3.094251663089836
1770451235008,126,-2,-1.6192608143670382,-2.576461422209753,-2.8370593507869777
1770451235012,126,-2,-1.5840763465840757,-2.550115685361414,-2.8049498630181944
1770451235016,126,-2,-1.8443011619284608,-2.5997810764199647,-3.0666119546854262
1770451235020,125,-3,-2.307390334447281,-2.909872049616618,-3.530804487506483
1770451235024,125,-3,-2.7591655875743264,-3.675386721552753,-3.9846909939997617
1770451235028,124,-4,-2.994753518840556,-4.2942455479373285,-4.2231025887283185
1770451235032,125,-3,-2.955470206925787,-3.8803032382773144,-4.186308165061758
1770451235036,125,-3,-2.753021415171444,-3.2707739217944147,-3.98594735680345
1770451235040,125,-3,-2.5522085545767386,-3.1905683589833296,-3.787586235272859
1770451235044,125,-3,-2.425724464876464,-3.4959388966196796,-3.664111979588083
1770451235048,125,-3,-2.3216689207701995,-3.3547005596120645,-3.5629093976313015
1770451235052,126,-2,-2.159389288673475,-2.953715413166832,-3.402590171897808
1770451235056,125,-3,-1.938927443861115,-3.0718642351180714,-3.1831369300827452
1770451235060,126,-2,-1.7485817321929993,-2.4889613237960644,-2.9934380872268473
1770451235064,126,-2,-1.6662526986557942,-2.130145162033939,-2.9121492850024255
1770451235068,126,-2,-1.660130191500675,-2.759841991448331,-2.9077435489644623
1770451235072,126,-2,-1.6014644843859451,-2.5624979703125543,-2.8510976926785663
1770451235076,126,-2,-1.3922531577929198,-2.41122987126609,-2.6437761617374096
1770451235080,126,-2,-1.086454630678774,-2.2316044602629024,-2.3398351992489044
1770451235084,127,-1,-0.8768379163528983,-1.2820540435656411,-2.1323058596312494
1770451235088,127,-1,-0.945686915395818,-1.7106770105215778,-2.2030344206353596
1770451235092,126,-2,-1.3097463435781984,-2.5443188015299656,-2.567765781994281
1770451235096,126,-2,-1.7938761466518298,-2.478927304475228,-3.0511381466399796
1770451235100,125,-3,-2.148958548678743,-3.147893010726939,-3.405299109847174
1770451235104,125,-3,-2.214679837499977,-3.355758756471527,-3.47157286016635
1770451235108,126,-2,-2.0097419268960133,-2.643426487160379,-3.268994121579162
1770451235112,126,-2,-1.6980218538741014,-2.6025647837010557,-2.9600979812035524
1770451235116,126,-2,-1.467768706189117,-2.4472620177829354,-2.7313980367300266
1770451235120,126,-2,-1.4127575807970696,-2.1572758702964174,-2.6761617018262114
1770451235124,126,-2,-1.491578512537079,-2.371740658991672,-2.753974263785937
1770451235128,126,-2,-1.583762872064664,-2.600802255801893,-2.845633172149899
1770451235132,126,-2,-1.5963598312124132,-2.6634658621532745,-2.858595696099118
1770451235136,126,-2,-1.5362474072594976,-2.390952197390857,-2.7993610904145254
1770451235140,126,-2,-1.4877309304188846,-2.199279305006314,-2.751656950044942
1770451235144,126,-2,-1.518561694868701,-2.349383388264937,-2.7827256640355498
1770451235148,126,-2,-1.6056455198575272,-2.591744826001337,-2.869244710805846
1770451235152,126,-2,-1.6503851726369396,-2.7102792649520904,-2.913023615345807
1770451235156,126,-2,-1.5656798119865052,-2.328304771095767,-2.827800458150562
1770451235160,126,-2,-1.3555239353532147,-2.2667336191043512,-2.617934006558225
1770451235164,126,-2,-1.1227664782892988,-2.2818076810119106,-2.385770977245582
1770451235168,127,-1,-0.9982674532009777,-1.6322287580287909,-2.2614981968457064
1770451235172,127,-1,-1.0405308257119168,-1.7193255554988665,-2.303337202302338
1770451235176,126,-2,-1.1841260039770671,-2.2833436480182763,-2.4457018437922673
1770451235180,126,-2,-1.2864765049304352,-2.3500199268734865,-2.5459919741497696
1770451235184,126,-2,-1.2366750741698636,-2.157645487144074,-2.494072388771106
1770451235188,127,-1,-1.029600342412473,-1.7724303429160022,-2.2862530874483777
1770451235192,127,-1,-0.7480044448580734,-1.5815597616230566,-2.005835614271521
1770451235196,127,-1,-0.4874384287030824,-1.4101019078700603,-1.746890246486176
1770451235200,127,-1,-0.2971556634025218,-1.2610742494608584,-1.5562194523551809
1770451235204,127,-1,-0.1679659975704475,-1.1918503579906354,-1.423703733356174
1770451235208,128,0,-0.0451846945971754,-0.791687425840259,-1.2964651863828416
1770451235212,128,0,0.1544795643488845,-0.5123921582124108,-1.0941140567224514
1770451235216,128,0,0.508268617701136,-0.5182637686495501,-0.7405331999048563
1770451235220,128,0,1.023384439620037,-0.1455946305007689,-0.2269483393833011
1770451235224,129,1,1.5887560129650078,0.7159925015158795,0.3379495703918358
1770451235228,130,2,2.01743033379058,1.258894336957104,0.768145118373486
1770451235232,130,2,2.184949910275064,1.498164766334641,0.9384762781760432
1770451235236,130,2,2.157484623421226,1.403294596469452,0.9141559938842824
1770451235240,129,1,2.182173984658231,0.9797175258496024,0.9420000840163
1770451235244,130,2,2.5236516423865254,1.5530513177205982,1.2865246567361632
1770451235248,131,3,3.2696503622037234,2.4518415964589733,2.034919864650397
1770451235252,132,4,4.25713217499927,3.308992779126469,3.0234427238307813
1770451235256,133,5,5.166277425171547,4.580258035527975,3.932236574673224
1770451235260,133,5,5.698010313798371,4.820068069729862,4.463260100081617
1770451235264,133,5,5.7056725022062835,4.661696930791359,4.471480980799253
1770451235268,133,5,5.2149092568986575,4.398769240058751,3.9837014140353224
1770451235272,132,4,4.365237726862754,3.3161342750095772,3.1392160236063793
1770451235276,131,3,3.3491089971002896,2.617587072517235,2.1288272387533267
1770451235280,130,2,2.382444425311336,1.7594566698898535,1.1664196684441817
1770451235284,129,1,1.673681053685543,0.7116532837164703,0.4594702328166224
1770451235288,129,1,1.3490120562942995,0.3843023772864748,0.1349051617332644
1770451235292,129,1,1.3586348227375964,0.2922465204060439,0.1445267495704483
1770451235296,129,1,1.4556005499556046,0.6966491855329312,0.242521254756119
1770451235300,129,1,1.311603452359238,0.6282962139412354,0.1007253814923869
1770451235304,128,0,0.7188849581520061,-0.1233144364228873,-0.4888991217535882
1770451235308,128,0,-0.2658879926994932,-0.8131006587618546,-1.4695999196113303
1770451235312,126,-2,-1.3537205544815685,-2.486993671982893,-2.552086982894093
1770451235316,125,-3,-2.2135993349941536,-3.5333087965198047,-3.406111078773586
1770451235320,125,-3,-2.6718950713577385,-3.1369160229824127,-3.860438479868759
1770451235324,125,-3,-2.7725530918515973,-3.3399120857912297,-3.960989387565967
1770451235328,125,-3,-2.687452131168501,-3.6291121611610815,-3.8782000458591335
1770451235332,125,-3,-2.5879024857066804,-3.611463683610872,-3.7787783250573304
1770451235336,125,-3,-2.568476858820161,-3.4899864636388465,-3.7537367274644424
1770451235340,125,-3,-2.62293390009207,-3.1064885721487063,-3.798076994539383
1770451235344,125,-3,-2.647624597939709,-3.426487647558452,-3.8136373987323697
1770451235348,125,-3,-2.486039771623235,-3.4963301756699767,-3.64949452968065
1770451235352,126,-2,-2.02156464732491,-2.756842416028193,-3.1903004914773088
1770451235356,126,-2,-1.2534031339796865,-2.3631731301279664,-2.430349341719116
1770451235360,127,-1,-0.2501052412735134,-1.204082778292406,-1.4294732606154752
1770451235364,129,1,1.052188277707944,0.6455183739008366,-0.1174035519665204
1770451235368,131,3,3.079234937338073,2.481445264957536,1.9298540611055175
1770451235372,135,7,6.623722901139219,6.212102619254554,5.494863239585372
1770451235376,140,12,12.434224822466357,11.724449387751434,11.31466699769917
1770451235380,147,19,20.488796795476738,18.646496444744425,19.36310897592433
1770451235384,156,28,29.415831468495735,27.875866615199236,28.27442689565458
1770451235388,165,37,36.63165197637267,36.20805256293378,35.47575525216572
1770451235392,168,40,39.38315938207565,39.499329649719826,38.22255999477731
1770451235396,165,37,36.18944434952117,36.39885993753677,35.03682371813841
1770451235400,155,27,27.740306518615732,26.925759183616805,26.60603080664486
1770451235404,143,15,16.594813021951484,14.611489642249362,15.483026308759184
1770451235408,133,5,5.867868359754507,4.459911665298194,4.774175058275397
1770451235412,126,-2,-2.2022444914742394,-2.660932880124764,-3.2893987981051027
1770451235416,121,-7,-6.930503837887381,-7.446048416178666,-8.02365292624014
1770451235420,119,-9,-8.887967140538114,-9.175537582241212,-9.993141705270835
1770451235424,119,-9,-9.09665750184396,-9.337166772961968,-10.210213123145516
1770451235428,119,-9,-8.378036464071368,-9.60210151503457,-9.489943031716544
1770451235432,120,-8,-7.195880177000406,-8.585323088292022,-8.296736258765453
1770451235436,122,-6,-5.853546515884224,-6.525592720352891,-6.940368883745264
1770451235440,123,-5,-4.674481147993294,-5.06752574081762,-5.751371606512215
1770451235444,124,-4,-3.9534831997129634,-4.481113450809734,-5.027115682010992
1770451235448,124,-4,-3.781217138406542,-4.459589158905257,-4.855233814516453
1770451235452,124,-4,-3.977234163873618,-4.731136471547121,-5.050119881509841
1770451235456,123,-5,-4.228661421169318,-5.368724679274406,-5.296197408414837
1770451235460,123,-5,-4.312107714762218,-5.196092006471042,-5.371716938074557
1770451235464,124,-4,-4.201812801193455,-4.3740822324620225,-5.254823915693547
1770451235468,124,-4,-3.995585805420208,-4.551926941058184,-5.045428356505015
1770451235472,124,-4,-3.7739203751427137,-4.659456010549777,-4.822337520812403
1770451235476,124,-4,-3.54558955120644,-4.411761807295427,-4.591085728282074
1770451235480,124,-4,-3.3008616865372837,-4.158256713834251,-4.340820745366285
1770451235484,125,-3,-3.068995592026531,-3.4154595673396457,-4.102485050533373
1770451235488,125,-3,-2.9012634282670966,-3.4897063321311954,-3.929228986799082
1770451235492,125,-3,-2.811083275872759,-3.759355578883346,-3.834447759520539
1770451235496,125,-3,-2.7491419668685113,-3.258292999315888,-3.767731791525117
1770451235500,125,-3,-2.639154521149627,-3.349630437003966,-3.652538204744935
1770451235504,125,-3,-2.4365382878426542,-3.2038823314435403,-3.4451177393854895
1770451235508,126,-2,-2.162206076481999,-2.681114878385902,-3.166923944638085
1770451235512,126,-2,-1.89098203979948,-2.6166402038000753,-2.8920260863973546
1770451235516,126,-2,-1.7038786855132908,-2.3218179256059575,-2.7000790535325185
1770451235520,126,-2,-1.6305912435806709,-2.367649621036228,-2.6204794657529034
1770451235524,126,-2,-1.6133021575022386,-2.108820547471926,-2.5966984291908215
1770451235528,127,-1,-1.5215309636400112,-1.8273621850287365,-2.499591969748588
1770451235532,126,-2,-1.2298383669288788,-2.438004820710798,-2.2034928962832847
1770451235536,127,-1,-0.7173077356339532,-1.4987583706830525,-1.686336858367456
1770451235540,128,0,-0.0997586220314733,-0.2062300485902645,-1.06365662356964
1770451235544,128,0,0.4528744706298019,-0.2288374489253868,-0.5060710426026058
1770451235548,129,1,0.8451215634482738,0.2440612629977518,-0.1092635889499589
1770451235552,129,1,1.1086221114593462,0.5581529366041696,0.1592147090610969
1770451235556,129,1,1.3377706050375182,0.4265298663762118,0.3944932125915072
1770451235560,129,1,1.585622497367157,0.9446468640209114,0.6491165093083464
1770451235564,130,2,1.8256363398586464,1.5759219331262633,0.8951285645491243
1770451235568,130,2,2.0040955305076693,1.480830223020872,1.0780904109836935
1770451235572,130,2,2.1114599381987453,1.3090886498505303,1.1893466900746872
1770451235576,130,2,2.1939448963178423,1.6664378651948408,1.2766502199547962
1770451235580,130,2,2.305952544911129,1.7172133589227228,1.394976746871658
1770451235584,130,2,2.46658666072253,1.8028301045423052,1.562575571208375
1770451235588,131,3,2.665644758919724,2.2838801040232957,1.767893199646276
1770451235592,131,3,2.90274244324121,2.4843334680273093,2.0100034510097875
1770451235596,131,3,3.207093385685065,2.510830766588308,2.318853882277327
1770451235600,131,3,3.6108817442124073,2.837492949789813,2.727745254356961
1770451235604,132,4,4.109249837793458,3.742186017903351,3.2320966813487217
1770451235608,133,5,4.6604419156152765,4.3029824966536525,3.789582796745689
1770451235612,133,5,5.229746136243712,4.529948057553877,4.365052675921923
1770451235616,134,6,5.825907198092374,5.392268343373441,4.967341047007043
1770451235620,134,6,6.487624298874366,6.014098281939713,5.635250856189796
1770451235624,135,7,7.230573664460707,6.527966039939789,6.384177478978156
1770451235628,136,8,8.001663331942021,7.566926931566483,7.160632865982885
1770451235632,137,9,8.681580019861173,8.262649188209263,7.845358909702472
1770451235636,137,9,9.13906894307776,8.627731398183474,8.307833847143021
1770451235640,137,9,9.300560305019864,8.825352142059947,8.475356205620958
1770451235644,137,9,9.190018597595785,8.657291312287049,8.371979812727828
1770451235648,137,9,8.917597874218966,8.531547908409749,8.10701538522122
1770451235652,137,9,8.623402198034638,8.229958931390414,7.819718646312929
1770451235656,136,8,8.400912348745468,7.715526583427229,7.603455783372709
1770451235660,136,8,8.240786268455256,7.69204653450177,7.449040353500433
1770451235664,136,8,8.037359733622413,7.828759564489075,7.250619177872217
1770451235668,136,8,7.65991131463717,7.366953468611458,6.8775580000519065
1770451235672,135,7,7.032356427806838,6.396392580114845,6.25498588235379
1770451235676,134,6,6.161190728216522,5.553022339132397,5.390870664410377
1770451235680,133,5,5.11329791989705,4.828341331757667,4.3519481632448755
1770451235684,132,4,3.987341999997929,3.729939737252015,3.234871217882544
1770451235688,131,3,2.8924213853927596,2.4631211683232164,2.1467540697625287
1770451235692,130,2,1.909156555337308,1.3345844766779296,1.167990449690499
1770451235696,129,1,1.0333519809103606,0.5732161390160453,0.2958254796040773
1770451235700,128,0,0.1546742895485655,-0.1627195653602287,-0.5782139724259795
1770451235704,127,-1,-0.8818769928689152,-1.3026571125543815,-1.6080386776925604
1770451235708,126,-2,-2.1540622494777715,-2.437786878474137,-2.8717475305152975
1770451235712,125,-3,-3.56776044971721,-3.8054991066457458,-4.276740938385745
1770451235716,123,-5,-4.876169594421289,-5.25989255802528,-5.577627564599083
1770451235720,122,-6,-5.824678178953648,-6.368982679188117,-6.519909676716818
1770451235724,121,-7,-6.328031648836631,-7.049575294189934,-7.017539392319169
1770451235728,122,-6,-6.535223055433432,-6.681660828169119,-7.219119522165486
1770451235732,122,-6,-6.713540825594898,-6.5455702503361355,-7.392061771300658
1770451235736,121,-7,-7.044731142288058,-7.532613800227073,-7.717637477715434
1770451235740,120,-8,-7.510787173839461,-8.122367643546063,-8.176718760810974
1770451235744,120,-8,-7.953108910228215,-8.255009989738467,-8.610440709465855
1770451235748,120,-8,-8.223107353451557,-8.495148613283698,-8.871529525401176
1770451235752,120,-8,-8.28429147868847,-8.659780848472275,-8.925188887348831
1770451235756,120,-8,-8.20323539919103,-8.486977075991023,-8.83856779541919
1770451235760,120,-8,-8.069625566164323,-8.120067469453744,-8.700455845982383
1770451235764,120,-8,-7.927720244429608,-8.303317367598034,-8.553396222930601
1770451235768,120,-8,-7.770792072134275,-8.379141307277274,-8.389388170613623
1770451235772,121,-7,-7.579202447698243,-7.790136595668203,-8.189135882895574
1770451235776,121,-7,-7.342224445363894,-7.34935317304273,-7.943569782688128
1770451235780,121,-7,-7.043252996639335,-7.26686555678438,-7.637261138405871
1770451235784,121,-7,-6.652043032965427,-7.158852714054101,-7.239638379863864
1770451235788,122,-6,-6.159581288429022,-6.48046347868375,-6.740887522708014
1770451235792,123,-5,-5.623630761909184,-5.700866883397384,-6.198720981992486
1770451235796,123,-5,-5.167804079630025,-5.419105437855714,-5.736994946139287
1770451235800,123,-5,-4.9249864237950325,-5.219142205128312,-5.488099620266053
1770451235804,123,-5,-4.965670376945865,-5.197082392055047,-5.521608319259721
1770451235808,123,-5,-5.253646806858545,-5.411071807086686,-5.801188029843282
1770451235812,123,-5,-5.650181411363415,-5.7866236052721725,-6.189102875068643
1770451235816,122,-6,-5.969683614504865,-6.2904213124744714,-6.500975899438448
1770451235820,122,-6,-6.065513547558111,-6.4024318602347146,-6.590607357717842
1770451235824,122,-6,-5.89702767577396,-5.956272640448797,-6.416722709153752
1770451235828,123,-5,-5.532467947540151,-5.668389230003411,-6.046270658549158
1770451235832,123,-5,-5.086708631039279,-5.494025246856778,-5.5931975443154816
1770451235836,124,-4,-4.638891631077234,-4.587955796388508,-5.137039542778675
1770451235840,124,-4,-4.188530444895887,-4.123997134389682,-4.6786536324508265
1770451235844,124,-4,-3.6876997133321976,-4.210092721032434,-4.170931711166816
1770451235848,125,-3,-3.1318837262935912,-3.412300645022664,-3.609028454479913
1770451235852,126,-2,-2.627120555278608,-2.7161452469788427,-3.0983582043379303
1770451235856,126,-2,-2.350824084350814,-2.386405284075781,-2.8160751068234964
1770451235860,126,-2,-2.4198445156803725,-2.3101649097506582,-2.8786579413789024
1770451235864,125,-3,-2.7796849889284365,-3.038260298453761,-3.230815318710525
1770451235868,125,-3,-3.218001363611572,-3.548358173798254,-3.659961211227047
1770451235872,125,-3,-3.492682290497384,-3.587111241614175,-3.925348821824374
1770451235876,125,-3,-3.470799840267902,-3.48347153392331,-3.89619989361572
1770451235880,125,-3,-3.186218293212788,-3.2489035054346314,-3.6070593493312617
1770451235884,125,-3,-2.8021936999473613,-3.037092652142844,-3.2194203202482337
1770451235888,126,-2,-2.5191385268055817,-2.6053643444054626,-2.931149684270193
1770451235892,126,-2,-2.4722891448784083,-2.4436710610109533,-2.876549558956624
1770451235896,126,-2,-2.659547034291226,-2.7019608180119064,-3.0547091242262105
1770451235900,125,-3,-2.9402438662849035,-2.9618809126556536,-3.326752408856026
1770451235904,125,-3,-3.1193336442107165,-3.3588292055399425,-3.498499812208943
1770451235908,125,-3,-3.0711308348482373,-3.2592566526962328,-3.4440997716961133
1770451235912,126,-2,-2.8144727221474173,-2.750594390400873,-3.181928370715781
1770451235916,126,-2,-2.4825219287176834,-2.4472217116799397,-2.844673688051481
1770451235920,126,-2,-2.218232961023524,-2.1287695342413753,-2.574579842504235
1770451235924,126,-2,-2.08599466800408,-2.282978978770299,-2.4353761518464454
1770451235928,126,-2,-2.0619311332263908,-2.2334845936352243,-2.4034455103575905
1770451235932,127,-1,-2.0871748359320743,-1.845138784220873,-2.421198370568473
1770451235936,126,-2,-2.1249782012088345,-2.281301781090672,-2.452933996377518
1770451235940,126,-2,-2.1805351859675777,-2.3277871497498466,-2.5035030337327395
1770451235944,126,-2,-2.278927530445959,-2.057956464505008,-2.596601573831949
1770451235948,126,-2,-2.4204288775858616,-2.45232550499596,-2.731419123595079
1770451235952,126,-2,-2.546788635609151,-2.6324144382338495,-2.849902802160295
1770451235956,126,-2,-2.550539521781252,-2.4459746849347885,-2.845914232734128
1770451235960,126,-2,-2.333225264105821,-2.208967542745536,-2.622245893559458
1770451235964,126,-2,-1.884014299172149,-2.1056522827672017,-2.1680993617202073
1770451235968,127,-1,-1.3258099017315872,-1.4673425058202882,-1.605450612425947
1770451235972,128,0,-0.8781359337629722,-0.5285629167798354,-1.153068863186835
1770451235976,128,0,-0.7379784369889877,-0.6192315206564648,-1.0076627516976848
1770451235980,127,-1,-0.957558796405575,-0.9518877801688777,-1.2211035063142583
1770451235984,127,-1,-1.415830384314703,-1.4326695193702048,-1.6720491944228992
1770451235988,126,-2,-1.9019394686967743,-2.0702358780062955,-2.150321386838675
1770451235992,127,-1,-2.2356834148025233,-1.9633226869055889,-2.4773421784998257
1770451235996,126,-2,-2.3395536376652104,-2.1280622655111756,-2.5766086905420513
1770451236000,126,-2,-2.2402741554250434,-2.4513229340592977,-2.474029241373291
1770451236004,126,-2,-2.028219587762497,-1.9375655717014368,-2.2582206461270076
1770451236008,127,-1,-1.8020990925906313,-1.5250862191849786,-2.0269594926818275
1770451236012,127,-1,-1.617042762054138,-1.564632012878755,-1.8357097603473287
1770451236016,127,-1,-1.4629716541442526,-1.4140112674249137,-1.6751811222092543
1770451236020,127,-1,-1.2912777831692122,-1.262355098940759,-1.4974975533457295
1770451236024,127,-1,-1.0679458109909024,-1.0238598999345094,-1.269307337055945
1770451236028,128,0,-0.8076373556449254,-0.521021935254379,-1.0054384477820415
1770451236032,128,0,-0.5667272449449743,-0.4862363231671233,-0.7613311154323029
1770451236036,128,0,-0.4099247371318113,-0.5151879620714657,-0.6002133596073391
1770451236040,128,0,-0.3728884742708311,-0.1360970214151663,-0.5573423404867395
1770451236044,128,0,-0.43414062873893,-0.1480498941488131,-0.6125487815236534
1770451236048,128,0,-0.5150557068060917,-0.4117588755146525,-0.6887827046938617
1770451236052,128,0,-0.5279029611189026,-0.5427572327530077,-0.6984235557677465
1770451236056,128,0,-0.4519046272212965,-0.4790406382552795,-0.6194764114400602
1770451236060,128,0,-0.3682709409667255,-0.1309403120401877,-0.5322087682505708
1770451236064,128,0,-0.4023310660696018,-0.1740403501447096,-0.5622208609950462
1770451236068,128,0,-0.6083344200226657,-0.3682290162508715,-0.7644977870348303
1770451236072,128,0,-0.9012390893765544,-0.5706056408984768,-1.0539093336293388
1770451236076,127,-1,-1.1081433647029204,-1.4365777943702174,-1.2566920842996687
1770451236080,127,-1,-1.0990274480241502,-1.177233754969866,-1.2426881621975732
1770451236084,128,0,-0.8762427891190596,-0.0939632502946179,-1.01554667420226
1770451236088,128,0,-0.5498720091951201,-0.4764019368452608,-0.6866592969325865
1770451236092,128,0,-0.2483286640156266,-0.3974288212287837,-0.3841570963728202
1770451236096,129,1,-0.0603249961715361,0.3607169764306559,-0.1952429493788023
1770451236100,128,0,-0.0372414518441452,0.0463886337493149,-0.1700146866916697
1770451236104,128,0,-0.2116021133807526,-0.3097867574079279,-0.3407901037538137
1770451236108,128,0,-0.5846100246430872,-0.2656960279181248,-0.7096369621001313
1770451236112,128,0,-1.0843393298096935,-0.5453532233054119,-1.2058044656909033
1770451236116,127,-1,-1.5487600908346908,-1.5460147089740022,-1.6676666392236914
1770451236120,126,-2,-1.787411223737594,-1.9671426990410252,-1.9043366970193
1770451236124,127,-1,-1.697920270138404,-1.3696974747006088,-1.8132738483901063
1770451236128,127,-1,-1.3394920985060672,-1.1126401234854293,-1.4541378314866609
1770451236132,128,0,-0.8943958613892502,-0.7308674233943103,-1.009237803679304
1770451236136,128,0,-0.5486627630054957,-0.3187995456030446,-0.6635368368785681
1770451236140,128,0,-0.3821591899343629,-0.2026912923283566,-0.4955854915878409
1770451236144,128,0,-0.3354284663024953,-0.1571833587268813,-0.4457480086092132
1770451236148,128,0,-0.2606350672469575,-0.2536366825070762,-0.3674760785592456
1770451236152,129,1,-0.016785106285696,0.3636694959480078,-0.1214490920075881
1770451236156,129,1,0.4433680206647044,0.6857851030662034,0.3388778336401987
1770451236160,129,1,1.0347259974062393,0.7046346214376222,0.9288109216118428
1770451236164,130,2,1.57285513248166,2.0133863046644116,1.4645866626902433
1770451236168,131,3,1.8733584233262663,2.541920469157202,1.7627140650183195
1770451236172,130,2,1.8616905475047496,1.616131145952448,1.7503364247447517
1770451236176,130,2,1.619850308134314,1.4501109015090887,1.5107307946740085
1770451236180,130,2,1.3555540435678226,1.9073411993092588,1.2502985916879978
1770451236184,130,2,1.3343544069734503,1.857048124764096,1.2313272191192943
1770451236188,130,2,1.7888575412102092,1.6737783802702069,1.6846312967597386
1770451236192,131,3,2.7962695244178613,2.5749591225265465,2.6886074861530966
1770451236196,133,5,4.180972560490139,4.434757433251231,4.06968191728324
1770451236200,134,6,5.549874637269743,5.979403706974265,5.435539553908149
1770451236204,135,7,6.4803544023914785,6.738713957346226,6.363559530050342
1770451236208,135,7,6.734707513797702,6.852939298853442,6.616433011036727
1770451236212,135,7,6.347218094138458,6.399240191226289,6.228802789422968
1770451236216,134,6,5.545583272821084,5.601607954883288,5.427611685303328
1770451236220,133,5,4.594116738882945,4.845087643884965,4.475619494736723
1770451236224,132,4,3.672156491811515,3.841505140489064,3.551264326827839
1770451236228,131,3,2.841365077460386,2.838535187070373,2.716607012635917
1770451236232,131,3,2.0867162983093217,2.3767902585356477,1.9575720829853176
1770451236236,130,2,1.380861215615388,1.6759415591515858,1.2475709041920264
1770451236240,129,1,0.7199739167068808,0.7282327149966263,0.5833358365258192
1770451236244,128,0,0.111281413351026,0.0033123254472094,-0.0277782339114784
1770451236248,128,0,-0.4544760945413741,-0.309313729222456,-0.5959028504784653
1770451236252,128,0,-0.9961940990006464,-0.4580944246647562,-1.1412072220281964
1770451236256,127,-1,-1.505516407850619,-1.4642638762482552,-1.6552872544064832
1770451236260,126,-2,-1.9371041530400492,-2.1714305526329483,-2.091191570056597
1770451236264,126,-2,-2.250424773697556,-2.0311977752815835,-2.407441991085229
1770451236268,126,-2,-2.4536367898517666,-2.3060303281978403,-2.6136820355075017
1770451236272,126,-2,-2.5971148777135724,-2.3846897209840954,-2.7627117718782075
1770451236276,126,-2,-2.7332940008373794,-2.5643088580119757,-2.907091371790982
1770451236280,125,-3,-2.8965011181532625,-3.0672189309275324,-3.077950382736867
1770451236284,125,-3,-3.1129157229889,-3.107822928415062,-3.2978444845730466
1770451236288,125,-3,-3.395313888071564,-3.244376805492973,-3.5797275789362515
1770451236292,125,-3,-3.695134893397385,-3.358678126958645,-3.8800966356351
1770451236296,125,-3,-3.861585529304594,-3.6487189995813543,-4.054142954627642
1770451236300,124,-4,-3.685465394434974,-3.919879032328658,-3.8936408004553287
1770451236304,125,-3,-3.0148940916472875,-3.305269577915709,-3.240355115651222
1770451236308,126,-2,-1.8045239360688003,-1.978931462474912,-2.0395237105999455
1770451236312,129,1,0.0284710195130347,0.3960040387031995,-0.2037399380828275
1770451236316,132,4,2.859527333716046,3.5974868765484533,2.6375993847409047
1770451236320,136,8,7.409525325005927,7.8708658138932766,7.194425179493148
1770451236324,142,14,14.314967836595317,13.846551999653803,14.094510678418583
1770451236328,150,22,23.333640625676644,21.972368832466053,23.094802231512904
1770451236332,161,33,32.780150397824656,32.39990960330276,32.51583851697505
1770451236336,169,41,39.83629992319219,40.69237797434991,39.54752983198962
1770451236340,171,43,41.79956587577173,42.689686190289905,41.49443190100672
1770451236344,166,38,37.54544715384608,38.05666100958776,37.23640583806469
1770451236348,156,28,28.207448715719423,27.705566415278987,27.906320267254586
1770451236352,144,16,16.60631344100163,15.697321711125763,16.317686111107275
1770451236356,134,6,5.841534120991428,5.4511589357585795,5.558849382558883
1770451236360,126,-2,-2.031619211064383,-2.0281023411014227,-2.323036976972704
1770451236364,122,-6,-6.518124482286449,-6.162897693553235,-6.832182741341313
1770451236368,120,-8,-8.317231021254656,-8.081471495239049,-8.658756543146213
1770451236372,120,-8,-8.54390591455703,-8.503164896377186,-8.906869795530625
1770451236376,120,-8,-8.104508634885935,-8.34815295897656,-8.477316126358563
1770451236380,120,-8,-7.497920018348264,-8.20011103208612,-7.871402946351631
1770451236384,121,-7,-6.9355218265231615,-6.997549684274743,-7.308202501146534
1770451236388,122,-6,-6.50845288171905,-6.202037861817763,-6.8859133385302576
1770451236392,122,-6,-6.243400328083964,-6.434407176186257,-6.632839489460905
1770451236396,122,-6,-6.088749798119618,-6.3293921567624,-6.493557689232224
1770451236400,122,-6,-5.93582220292816,-6.271667377253947,-6.3545301409040436
1770451236404,122,-6,-5.6905830449340025,-5.845172367892123,-6.119903128156105
1770451236408,123,-5,-5.328697320037942,-5.379693352190431,-5.766830940557969
1770451236412,123,-5,-4.887482639335783,-5.2313057450955025,-5.334997227580621
1770451236416,124,-4,-4.417459342927623,-4.499160527562159,-4.876159300028594
1770451236420,124,-4,-3.9473357104852926,-4.129386303340626,-4.4187571846344085
1770451236424,124,-4,-3.492102370824894,-3.9043106589837024,-3.976595620097518
1770451236428,125,-3,-3.0863769617332815,-3.388927770978669,-3.583139036759275
1770451236432,125,-3,-2.79391694382482,-3.1138100078960393,-3.3018896312581845
1770451236436,126,-2,-2.6633356926295533,-2.697485786587475,-3.182117421587415
1770451236440,125,-3,-2.6638455332824926,-2.8232716224973924,-3.193719717563027
1770451236444,125,-3,-2.675863087824218,-3.264203462739249,-3.2172764095057698
1770451236448,125,-3,-2.567998183744259,-2.9753135973142903,-3.1215373098741512
1770451236452,126,-2,-2.3012326473584395,-2.516286437250193,-2.8680052551655892
1770451236456,126,-2,-1.9671204569834793,-2.3059745388795516,-2.5483879129300515
1770451236460,126,-2,-1.725848571636796,-2.134111308316635,-2.3218466840927707
1770451236464,126,-2,-1.6906754917495024,-2.010240406949879,-2.300077662708919
1770451236468,126,-2,-1.836271481764487,-2.1518520631046476,-2.4571302892176585
1770451236472,126,-2,-1.989349533994261,-2.381732939827314,-2.620584746716638
1770451236476,126,-2,-1.915562414657279,-2.384202783505856,-2.55769025095107
1770451236480,126,-2,-1.4601581758652848,-2.040616901300232,-2.1150159473859436
1770451236484,127,-1,-0.6571391956129424,-1.097890275975922,-1.3270521069087455
1770451236488,128,0,0.2676518804368902,-0.02525640288957,-0.4190198068913502
1770451236492,129,1,1.0057583400132686,0.4727202523754552,0.3023016860296142
1770451236496,129,1,1.3214838878757924,0.807977158282231,0.603099555688786
1770451236500,129,1,1.1680423811996972,0.7712628037805191,0.4373283911214218
1770451236504,128,0,0.7126856864265463,0.1006395579953205,-0.0287580608769149
1770451236508,128,0,0.2656350683132462,-0.1918321031382974,-0.4868384933813999
1770451236512,128,0,0.1440294887734248,-0.3691028461339666,-0.6211521676581696
1770451236516,128,0,0.5283651741619277,-0.2959009419209055,-0.2514599946037357
1770451236520,129,1,1.3803467882749674,0.8718259208361485,0.5843051254106921
1770451236524,130,2,2.4689391788443307,2.03854609997491,1.6556386559176168
1770451236528,131,3,3.490115534569249,2.866702642335608,2.6595519451309166
1770451236532,132,4,4.206449506914824,3.596337335946605,3.360285785114861
1770451236536,132,4,4.532344486737687,3.7537495480177743,3.673339897460053
1770451236540,132,4,4.544948349571563,3.836267975184996,3.6749094767261807
1770451236544,132,4,4.4431309308166025,4.097401309198403,3.5612929048987323
1770451236548,132,4,4.470195308630769,3.826256835409202,3.5739758611681713
1770451236552,132,4,4.804495948921011,3.644784112109076,3.891797063275624
1770451236556,133,5,5.457726348464168,4.749569059698503,4.528160811291294
1770451236560,134,6,6.260083538205434,5.826203767960217,5.314318120746933
1770451236564,134,6,6.966583214379644,6.16620266677253,6.005394267202924
1770451236568,135,7,7.411399929750736,6.738259179682468,6.4355177120001
1770451236572,135,7,7.591652685948824,6.779201035696963,6.601734826294712
1770451236576,135,7,7.6303651344432115,6.597222319505732,6.626532253467722
1770451236580,135,7,7.670253349280406,7.024607629262388,6.651849724549566
1770451236584,135,7,7.788880606405608,6.979666756812074,6.755120666358192
1770451236588,135,7,7.986521720541888,6.952207172037027,6.937352509688905
1770451236592,136,8,8.233596481860666,7.58146873985664,7.169626616776187
1770451236596,136,8,8.524116209539422,7.805170054217619,7.445771153913336
1770451236600,136,8,8.879651663100667,7.828484496109928,7.786705406488904
1770451236604,136,8,9.289250230758292,8.227670482035531,8.18104965220641
1770451236608,137,9,9.638574929114762,8.684579135072715,8.514386009399617
1770451236612,137,9,9.711406388882008,8.913744260704757,8.570765063089233
1770451236616,137,9,9.289758485470085,8.433937659319922,8.133031544311695
1770451236620,135,7,8.285861376227702,7.2646481527657825,7.114476287485923
1770451236624,134,6,6.807462303825344,5.783129694756639,5.623056124275003
1770451236628,132,4,5.111682226846195,4.158733896736078,3.9147096240707624
1770451236632,131,3,3.4801849857055003,2.469720838609855,2.269482141506865
1770451236636,129,1,2.0901339949202513,0.864821008768904,0.8639070652634588
1770451236640,128,0,0.9526830665917584,-0.0910886933375418,-0.2901710336846705
1770451236644,127,-1,-0.0475632607143237,-0.8951003867164902,-1.3068588261608358
1770451236648,126,-2,-1.0430961403852548,-2.087969182839123,-2.317571485896165
1770451236652,125,-3,-2.0849231225351903,-3.313375715251116,-3.3730812705210944
1770451236656,124,-4,-3.1202048559716333,-4.307609246619202,-4.421445226967694
1770451236660,123,-5,-4.044943125884811,-4.909167200240555,-5.359944503646413
1770451236664,122,-6,-4.782180991247315,-6.051724762121403,-6.111899982550785
1770451236668,121,-7,-5.333033571699991,-6.899617969805791,-6.677547318910308
1770451236672,122,-6,-5.766242963859724,-6.495166550854206,-7.124946133752095
1770451236676,121,-7,-6.150671302741063,-7.104490518731705,-7.523223502122601
1770451236680,120,-8,-6.49115313286902,-8.087595166455,-7.877688624380593
1770451236684,120,-8,-6.736597977901062,-7.863199850503889,-8.137238020390907
1770451236688,120,-8,-6.855161694503397,-8.03358771168451,-8.269750434169758
1770451236692,120,-8,-6.896535756684522,-8.402422289827637,-8.324844689027655
1770451236696,120,-8,-6.972156761447374,-8.09996968921409,-8.414239091653533
1770451236700,120,-8,-7.162074719382041,-8.150870893766236,-8.618217167368355
1770451236704,119,-9,-7.429995838263396,-8.704625326417522,-8.899937114574758
1770451236708,119,-9,-7.631598025969966,-9.2245793586421,-9.113976608967654
1770451236712,119,-9,-7.616399617781689,-9.171022474993103,-9.10983753872904
1770451236716,120,-8,-7.328351995870517,-8.310164728703619,-8.833329663185763
1770451236720,120,-8,-6.820291128135046,-7.924840477173449,-8.339109386464683
1770451236724,120,-8,-6.200316945173246,-7.882625318655973,-7.734639238003604
1770451236728,121,-7,-5.584487505427944,-7.053019481992791,-7.13337886851817
1770451236732,122,-6,-5.079128167236681,-6.314854286272832,-6.639937789647961
1770451236736,122,-6,-4.757829637261854,-6.161103909670888,-6.328703472301236
1770451236740,122,-6,-4.620956821087056,-6.023929174622051,-6.202208319381645
1770451236744,122,-6,-4.580010386374898,-5.775005768911505,-6.173225468431668
1770451236748,122,-6,-4.508292973119409,-6.1229795488740795,-6.114410665517397
1770451236752,122,-6,-4.334968360625268,-6.268907674732324,-5.953466839383746
1770451236756,123,-5,-4.099130553048737,-5.139452233734273,-5.728961894088555
1770451236760,123,-5,-3.903523308750099,-5.051595737987481,-5.544210564245029
1770451236764,122,-6,-3.8101526162537063,-5.6819854918172785,-5.461734400378881
1770451236768,123,-5,-3.7835524112151857,-5.227262943328223,-5.446141367526182
1770451236772,123,-5,-3.7303746016925503,-5.156086119490434,-5.404134444189133
1770451236776,123,-5,-3.5851588036572823,-5.216370749367044,-5.2700506042295086
1770451236780,123,-5,-3.362151100915015,-4.953167373980982,-5.057335624980818
1770451236784,123,-5,-3.131814561739298,-4.715896920981429,-4.8359724076143635
1770451236788,124,-4,-2.93957498583253,-4.224703845908481,-4.6523066923888985
1770451236792,124,-4,-2.738040687081575,-4.115018825766662,-4.460449800683515
1770451236796,124,-4,-2.4126501143277093,-4.263551053539532,-4.145994040544755
1770451236800,124,-4,-1.9023662828565833,-3.847710267079174,-3.6464250064955146
1770451236804,125,-3,-1.3033927717789942,-2.7856830235616026,-3.056649644736738
1770451236808,126,-2,-0.8307099490583708,-2.163740120379497,-2.591909353114831
1770451236812,126,-2,-0.6476971313325923,-2.1403145957500365,-2.4167060491833716
1770451236816,126,-2,-0.7217667075086885,-2.2389301640573205,-2.4989826738290315
1770451236820,125,-3,-0.8531306172756518,-2.8255529417653493,-2.638623695970642
1770451236824,125,-3,-0.8564535647880444,-2.775715333522295,-2.650005198929166
1770451236828,126,-2,-0.7235553959276949,-2.172211616060559,-2.525177762296549
1770451236832,126,-2,-0.6146599228742221,-2.0907255793543222,-2.4244423388417715
1770451236836,126,-2,-0.6931444443130588,-2.2873666306198985,-2.510523456428334
1770451236840,125,-3,-0.9614882156186226,-2.725579296446068,-2.78526181199924
1770451236844,125,-3,-1.2421385722465113,-2.8644354961326397,-3.0715143040370316
1770451236848,125,-3,-1.3134542939755691,-3.07174001076185,-3.14872934386742
1770451236852,125,-3,-1.086500019153608,-3.1495984230548353,-2.928490805384582
1770451236856,126,-2,-0.6792584072068972,-2.2274029953678447,-2.5283377598737404
1770451236860,126,-2,-0.3241621967389514,-1.7141443645122718,-2.1798882987908312
1770451236864,126,-2,-0.1832946232715078,-1.8928056528179071,-2.044574637289707
1770451236868,126,-2,-0.2309340479235746,-2.0029542398683544,-2.0964917407597685
1770451236872,126,-2,-0.3042590630785886,-2.214046926470936,-2.1734110502974247
1770451236876,126,-2,-0.2689359679491909,-2.1381709499076065,-2.1421748874099356
1770451236880,126,-2,-0.1476371116918848,-1.7464570705318891,-2.026218637589865
1770451236884,126,-2,-0.1024502587560469,-1.850486422957608,-1.9871181961259128
1770451236888,126,-2,-0.2918085683938149,-2.026486626569473,-2.181827941054631
1770451236892,126,-2,-0.7222651926978647,-2.1631434827664555,-2.615597801531175
1770451236896,125,-3,-1.215138174911499,-3.196759313901509,-3.1095668975368587
1770451236900,124,-4,-1.5164627424589143,-3.6044273779164695,-3.4110523506287516
1770451236904,125,-3,-1.464664029070886,-3.0058733214572,-3.360700497886848
1770451236908,125,-3,-1.0885942141990907,-2.8173676382712403,-2.98886205731075
1770451236912,126,-2,-0.5767563086146399,-2.3761897036224005,-2.4831275013647813
1770451236916,126,-2,-0.1606426738126702,-1.9476130809589536,-2.072029091813005
1770451236920,126,-2,0.0064603245017893,-1.8215402982949895,-1.9063679152772417
1770451236924,126,-2,-0.0796586725548333,-1.769781562743088,-1.9905546146807451
1770451236928,126,-2,-0.2756035135141328,-2.026182927442111,-2.1838272612008067
1770451236932,126,-2,-0.3667068430304379,-2.1530790025707685,-2.2742888568386785
1770451236936,126,-2,-0.1925668994621421,-2.1427276708799967,-2.102260089746946
1770451236940,126,-2,0.2432497747693298,-1.5826629054664387,-1.6696510947432357
1770451236944,127,-1,0.7568349452567107,-0.9918622987118918,-1.157930914241914
1770451236948,127,-1,1.090305952625873,-0.7739432314219389,-0.8238819762408345
1770451236952,128,0,1.0818246447798756,-0.3858824887964571,-0.8303311187855487
1770451236956,127,-1,0.7776435783862043,-0.9059676645112932,-1.132698156849686
1770451236960,126,-2,0.3905612660500028,-1.7438238770707188,-1.5185622283268518
1770451236964,126,-2,0.1281646130381293,-1.8731287303156705,-1.7793150526666504
1770451236968,126,-2,0.0368992152110758,-1.7695730031759904,-1.867893971275758
1770451236972,127,-1,0.0040842702998937,-1.4863416921243633,-1.89790187851744
1770451236976,126,-2,-0.0917136716086393,-1.6407012696303271,-1.9920759154115637
1770451236980,126,-2,-0.2422216257383982,-2.11469276540965,-2.1418778212862732
1770451236984,125,-3,-0.3276012005042075,-2.35924367792787,-2.225503836809345
1770451236988,126,-2,-0.2651286258983993,-2.360971221014524,-2.158694424538788
1770451236992,126,-2,-0.1189437664690939,-1.7971068254351454,-2.006467028425556
1770451236996,127,-1,-0.0434281885272109,-1.33390764332516,-1.9257739574159884
1770451237000,127,-1,-2.620190721744863,-2.00101804440868,-2.6141332534425072
1770451237004,126,-2,-2.606133131219434,-2.8099142786325677,-2.5979601511127144
1770451237008,126,-2,-2.542523124709163,-2.9567726249882376,-2.5311930846726725
1770451237012,127,-1,-2.382940788762096,-2.013758490281546,-2.3694834990935365
1770451237016,127,-1,-2.100580102125107,-1.898251913951697,-2.08760048214943
1770451237020,127,-1,-1.7302629430827634,-2.0002391200308764,-1.719418876207171
1770451237024,127,-1,-1.391125352653899,-1.7644682389152933,-1.381404950690843
1770451237028,128,0,-1.254845223477454,-1.035914161826772,-1.2441479319911812
1770451237032,128,0,-1.4391979702697228,-0.8918699822580294,-1.4271376927850952
1770451237036,127,-1,-1.8981987126144373,-2.03145203571964,-1.8863425187473863
1770451237040,126,-2,-2.431250959446905,-2.818441250139852,-2.420930654138001
1770451237044,126,-2,-2.82925224455423,-2.927521987651163,-2.82023695240383
1770451237048,126,-2,-3.0208686377579475,-2.897572867657021,-3.0122571170046606
1770451237052,126,-2,-3.0758597954008096,-2.9663877461581407,-3.0674955731675295
1770451237056,126,-2,-3.075455908079141,-2.9946920187536823,-3.0681689861375254
1770451237060,126,-2,-2.9949023662643155,-2.7557214313915477,-2.9896482711605556
1770451237064,126,-2,-2.7243340720410703,-3.055205577039952,-2.7213875331794704
1770451237068,126,-2,-2.209482720608123,-2.7076216900534336,-2.2086909338312646
1770451237072,128,0,-1.5638328661183496,-1.182684885969375,-1.5655226451751938
1770451237076,128,0,-1.023142176437279,-0.7261902596489704,-1.0280581149124397
1770451237080,128,0,-0.77288431745439,-0.9930373672198554,-0.7809073528785494
1770451237084,128,0,-0.8064005381950332,-0.8427996411727741,-0.8161202203952322
1770451237088,128,0,-0.9322528709026864,-0.8760773040529226,-0.9425577257138996
1770451237092,128,0,-0.911637280119648,-1.071240975340101,-0.9234075450789484
1770451237096,128,0,-0.6169181584928918,-0.7110127836712993,-0.6325586740582179
1770451237100,129,1,-0.1062247056305059,-0.0629633174068727,-0.1275630163393444
1770451237104,129,1,0.4297504739122881,0.3101119405854775,0.4028052871005964
1770451237108,130,2,0.8127880129318139,0.8988956265730665,0.7816003153658393
1770451237112,130,2,1.0155193363163408,1.2105084139078817,0.9812679617701984
1770451237116,130,2,1.1892309271252215,1.0169795565908206,1.152402611331425
1770451237120,130,2,1.5491313058877116,1.2516967131717438,1.509906272423613
1770451237124,131,3,2.199247082430965,2.002856443512284,2.1573229387253736
1770451237128,132,4,3.0383320512596987,3.185558459303631,2.992049897211662
1770451237132,133,5,3.818705434156982,3.969612432244092,3.765267926430387
1770451237136,133,5,4.289762080706885,4.257069770474554,4.227437841475481
1770451237140,133,5,4.296080008482795,4.0798150121862715,4.226254143277311
1770451237144,132,4,3.7820436810393625,3.128612053474351,3.70819410533587
1770451237148,132,4,2.7731709740774484,3.083759739508468,2.697409093552942
1770451237152,131,3,1.4019772285884904,2.0825921512559953,1.3233062683297376
1770451237156,128,0,-0.0713121191501129,-0.8203331218701337,-0.1551011739266541
1770451237160,127,-1,-1.340140974128335,-1.7974396501626042,-1.4302175695449126
1770451237164,127,-1,-2.2126954925395457,-2.0201784988681064,-2.309672912138758
1770451237168,126,-2,-2.7100542004216193,-2.7636350293154996,-2.815199697049604
1770451237172,126,-2,-3.0143608979369696,-3.02566587564933,-3.128513148507701
1770451237176,125,-3,-3.325691883601185,-3.692618485340344,-3.447386864821286
1770451237180,125,-3,-3.738197097807068,-3.8799850039056016,-3.86444960809281
1770451237184,125,-3,-4.194824840331277,-3.989088392271385,-4.324216009064399
1770451237188,124,-4,-4.530633723045794,-4.756529847562142,-4.665012185319553
1770451237192,124,-4,-4.589880868215452,-5.033503451978055,-4.732810309516843
1770451237196,124,-4,-4.356032115396375,-4.608917379787691,-4.509790175356527
1770451237200,125,-3,-3.993241166281972,-3.9685693517988527,-4.1569789957996495
1770451237204,125,-3,-3.74424471129216,-3.913176792703068,-3.914456391437557
1770451237208,125,-3,-3.750597567554589,-3.8081930741412786,-3.923796526792611
1770451237212,125,-3,-3.93822368315167,-3.992279885853668,-4.114481047216442
1770451237216,124,-4,-4.064703567036847,-4.561162290862438,-4.249190448420723
1770451237220,125,-3,-3.8924895131404353,-4.0547655337905,-4.092519097762992
1770451237224,125,-3,-3.337777630890552,-3.784503842253705,-3.5564659950119513
1770451237228,126,-2,-2.43842457510398,-2.967648201700817,-2.670267974285566
1770451237232,128,0,-1.1131427401659313,-0.7784275505625671,-1.346532889355074
1770451237236,130,2,1.111183874309246,1.2673459844479074,0.8854345874115164
1770451237240,134,6,5.0934422058836795,5.094393952417627,4.874518650313995
1770451237244,140,12,11.590542591537332,11.128352652402908,11.36746079943646
1770451237248,148,20,20.4589017169262,19.039139450375057,20.217572158020825
1770451237252,158,30,30.105577704255513,29.35128875915072,29.83705197596325
1770451237256,167,39,37.76680958148993,38.08731270385736,37.47125863650853
1770451237260,170,42,40.68062611544421,41.34648727111296,40.36642942870455
1770451237264,167,39,37.51302202240569,37.78349486072281,37.19300685329307
1770451237268,157,29,29.10511755771135,28.387595965892885,28.791153248853483
1770451237272,146,18,18.039626146695632,16.988356681993363,17.7366504843929
1770451237276,135,7,7.342799770415149,6.541902094727856,7.045372009136509
1770451237280,128,0,-0.8259183931182115,-1.067430333955579,-1.1311640285059612
1770451237284,123,-5,-5.769173153008362,-5.747412119846242,-6.095756434361698
1770451237288,121,-7,-7.99374901612812,-8.100606722629935,-8.347458395066147
1770451237292,120,-8,-8.5050886361356,-8.508128489444617,-8.881394875725519
1770451237296,120,-8,-8.196844143876266,-8.927961662840133,-8.58490697227796
1770451237300,120,-8,-7.620168158360369,-8.601807533193696,-8.010347380216555
1770451237304,122,-6,-7.05303553795122,-7.155690035405427,-7.442770298960494
1770451237308,122,-6,-6.624829887902418,-6.773670170124029,-7.018803143469966
1770451237312,122,-6,-6.36034819281484,-6.743024003071164,-6.765264899289472
1770451237316,122,-6,-6.190073075679445,-6.7408571388966285,-6.6091376251072
1770451237320,122,-6,-6.008453706776991,-6.695330521448345,-6.440438708971385
1770451237324,123,-5,-5.761894668330148,-6.101252942863333,-6.2043943310183955
1770451237328,123,-5,-5.48519540384875,-5.803840693908329,-5.937555703669755
1770451237332,123,-5,-5.2572698483267475,-5.691192773388664,-5.7202948745964965
1770451237336,123,-5,-5.127787527167839,-5.7944098448903665,-5.601765294055313
1770451237340,123,-5,-5.07633135589683,-5.566909923434481,-5.560380302495567
1770451237344,124,-4,-5.018795277612282,-5.29042690817093,-5.511983797814536
1770451237348,123,-5,-4.845280645411766,-5.543159456963421,-5.347681534681411
1770451237352,124,-4,-4.474690196648362,-4.988109509560595,-4.987256809703821
1770451237356,124,-4,-3.906652823858538,-4.431938922397512,-4.430502115580812
1770451237360,125,-3,-3.238601591272214,-3.917886595854066,-3.774480462269061
1770451237364,126,-2,-2.627376651831025,-2.952880950240764,-3.17534242394234
1770451237368,126,-2,-2.2132561175305137,-2.8281060727364493,-2.7724754925939585
1770451237372,126,-2,-2.0529679151077285,-2.7579497532561357,-2.6219986987703447
1770451237376,126,-2,-2.0989439544948096,-2.5543743007684014,-2.6767223623315664
1770451237380,126,-2,-2.2288820623418464,-2.85053246328412,-2.815690267249687
1770451237384,126,-2,-2.305855949597031,-2.9576438305580663,-2.9031953782081614
1770451237388,126,-2,-2.242253860742388,-2.8374874171100672,-2.8515818609489174
1770451237392,126,-2,-2.037953723491884,-2.7425486831877506,-2.659472264580639
1770451237396,126,-2,-1.767202567971388,-2.5021709097691356,-2.399855855133321
1770451237400,127,-1,-1.5143016007813896,-1.9410751333748868,-2.1568399455317904
1770451237404,127,-1,-1.300535962452554,-1.792688684252545,-1.95245180028753
1770451237408,127,-1,-1.065785451739261,-2.0609545881839946,-1.727435039749902
1770451237412,127,-1,-0.7285949372735497,-1.4525227761172248,-1.4008745503811315
1770451237416,128,0,-0.2730183857964638,-0.7952719582474028,-0.9568696722694704
1770451237420,128,0,0.2183480329457158,-0.6204361473483636,-0.4773052704694106
1770451237424,129,1,0.6163460827435776,-0.0826185195633556,-0.0902063161838321
1770451237428,129,1,0.8435816853933438,0.1970915920515973,0.1274565106935155
1770451237432,129,1,0.9466908180451375,0.3426779705342704,0.2215630344815696
1770451237436,129,1,1.0808380691079815,0.3956207680846679,0.3463273092368675
1770451237440,129,1,1.3998411777098525,0.2459049778979802,0.6553285195917167
1770451237444,130,2,1.9285664509841491,1.0392188820166657,1.17342507065797
1770451237448,131,3,2.53199209388405,2.097281613203724,1.765271447843178
1770451237452,131,3,3.0198134307500166,2.448718393805495,2.240818105828903
1770451237456,131,3,3.295231366894431,2.318793197048367,2.504928492477801
1770451237460,131,3,3.419213402311578,2.34052027612992,2.620238583130054
1770451237464,132,4,3.5567977086753744,2.9505090087594117,2.751241766972256
1770451237468,132,4,3.873203250359583,3.189926451147789,3.0605657258604824
1770451237472,132,4,4.450029961887907,3.3918110585066596,3.6276363711753294
1770451237476,133,5,5.244267402571489,4.382443942832464,4.40942840209957
1770451237480,134,6,6.096434401597578,5.3240776554981135,5.248266755467797
1770451237484,135,7,6.794805701415652,5.932338924444099,5.934761690318401
1770451237488,135,7,7.178582072843023,6.25439288474206,6.309633707409572
1770451237492,135,7,7.231979150121083,6.3192186602915745,6.356709166136859
1770451237496,135,7,7.115626210314571,6.490183317050409,6.234446942361285
1770451237500,135,7,7.100931762685448,6.242400129323462,6.212049061820808
1770451237504,135,7,7.418562431619496,5.99498713342844,6.51960723270402
1770451237508,136,8,8.103150953331923,7.236435396260418,7.1927384187664245
1770451237512,137,9,8.952445761134197,8.334758784865052,8.030654263494108
1770451237516,137,9,9.648874681357922,8.511643527787202,8.717009801038163
1770451237520,138,10,9.959267674667828,9.24232059288856,9.019195428062533
1770451237524,138,10,9.864639553042435,8.978869661216276,8.917758801256857
1770451237528,137,9,9.530837876826787,8.269316094902399,8.577377891230201
1770451237532,137,9,9.150823883802907,8.322187608705459,8.190091146689415
1770451237536,136,8,8.780303160784182,7.552972648155352,7.811360877539946
1770451237540,136,8,8.29161816516951,7.227373685999295,7.313471926912732
1770451237544,136,8,7.480571120371433,6.991599447404303,6.492142461290575
1770451237548,134,6,6.236672277074684,5.261615765363018,5.237682829738459
1770451237552,132,4,4.632462561193572,3.347840936431147,3.624769440376291
1770451237556,130,2,2.867772047175794,1.5589806366808387,1.854875095872496
1770451237560,129,1,1.1483584545349803,0.2353667449550316,0.1324810482001424
1770451237564,128,0,-0.378405392065837,-1.0078638371241857,-1.3987235896940726
1770451237568,126,-2,-1.612363287906664,-2.7156473929924294,-2.6411489610803596
1770451237572,125,-3,-2.4996159188413833,-3.6793358179917415,-3.539761449164867
1770451237576,124,-4,-3.08968121268708,-4.355545367655538,-4.140495801092319
1770451237580,124,-4,-3.5766130832060643,-4.874024264867778,-4.634901502671385
1770451237584,124,-4,-4.217464542230502,-4.858547057050571,-5.280553663163053
1770451237588,123,-5,-5.142986000037915,-5.857567150565928,-6.21037688033665
1770451237592,121,-7,-6.221867146566525,-7.5469231085515345,-7.294318519757923
1770451237596,120,-8,-7.129729843044559,-8.416674179579015,-8.207727101230104
1770451237600,120,-8,-7.590188103534703,-8.877430000625495,-8.673888723098178
1770451237604,120,-8,-7.585290195702613,-8.749329909547303,-8.675429820702636
1770451237608,121,-7,-7.357875131582196,-8.02965331244943,-8.455705847809982
1770451237612,120,-8,-7.21833836189358,-8.275044402580084,-8.324258858280887
1770451237616,120,-8,-7.3287697574810196,-8.749271052789567,-8.441384610121862
1770451237620,120,-8,-7.627242796719708,-8.492614304468397,-8.744131865425786
1770451237624,120,-8,-7.9171241994661266,-9.143081128332348,-9.036488125062457
1770451237628,119,-9,-8.023376950457259,-9.619022198241808,-9.145112390434932
1770451237632,120,-8,-7.893459663673654,-8.614753276303139,-9.019160455001844
1770451237636,120,-8,-7.587793803406436,-8.466224694532052,-8.719659872607837
1770451237640,120,-8,-7.205632700970675,-8.695674488650017,-8.34477287164647
1770451237644,121,-7,-6.833447719015088,-7.998846970417889,-7.979019197511604
1770451237648,121,-7,-6.543747441848876,-7.681398768084789,-7.693773676427508
1770451237652,121,-7,-6.398738092982381,-7.575211373705368,-7.551517768374691
1770451237656,121,-7,-6.42113628488042,-7.4567588028238,-7.575867919308614
1770451237660,121,-7,-6.555630695955313,-7.723757481812543,-7.712356748595538
1770451237664,121,-7,-6.6720469641121545,-7.948110713796988,-7.831609016483024
1770451237668,121,-7,-6.629045861660697,-7.71607964818677,-7.792827314681813
1770451237672,121,-7,-6.364803796703993,-7.507508909553724,-7.533719365342895
1770451237676,121,-7,-5.951695144077386,-7.517515688877896,-7.125168814948553
1770451237680,122,-6,-5.5615584674694,-6.641044866625937,-6.737896219506514
1770451237684,123,-5,-5.342598550939997,-6.042799517578422,-6.520450421101729
1770451237688,122,-6,-5.29258542734385,-6.5822086760387695,-6.4716577102693105
1770451237692,122,-6,-5.247143687144361,-6.630619541980439,-6.4276569583844125
1770451237696,122,-6,-5.0136535392745545,-6.3724496904843475,-6.195880516456232
1770451237700,123,-5,-4.5386612119262875,-5.782221313077449,-5.723140700574561
1770451237704,124,-4,-3.958623898857097,-4.893138192295558,-5.146075208835392
1770451237708,124,-4,-3.49487737122396,-4.688004229490078,-4.6853545503213025
1770451237712,124,-4,-3.291309234321704,-4.531382603252108,-4.483679222792751
1770451237716,124,-4,-3.3262956730593163,-4.430659866812384,-4.51894181915866
1770451237720,124,-4,-3.453406743288365,-4.758244663265372,-4.645447625917853
1770451237724,124,-4,-3.523649020135468,-4.871799362106348,-4.715443561867025
1770451237728,124,-4,-3.489723140565444,-4.694231878907686,-4.682423755470781
1770451237732,124,-4,-3.415444379315483,-4.4961553160886485,-4.610084355162592
1770451237736,124,-4,-3.393735911889612,-4.456154436250831,-4.590304569449307
1770451237740,124,-4,-3.452280089416336,-4.733136538016228,-4.649369262505938
1770451237744,124,-4,-3.5278325255128693,-4.889685482171862,-4.723472791592322
1770451237748,124,-4,-3.519468399480124,-4.632919369193542,-4.712771070905667
1770451237752,124,-4,-3.3648224640682387,-4.553450577549709,-4.55686987419724
1770451237756,124,-4,-3.081320341954941,-4.364277068517928,-4.274207902433495
1770451237760,125,-3,-2.7558444418333607,-3.841089557631605,-3.9506198828155386
1770451237764,125,-3,-2.4990661868345216,-3.7613495251104383,-3.6945038315027894
1770451237768,125,-3,-2.3876592333732627,-3.733130436671207,-3.581151148469611
1770451237772,125,-3,-2.415172499238897,-3.442668509313141,-3.60497227921162
1770451237776,125,-3,-2.477708848812578,-3.438210615221105,-3.664213178636775
1770451237780,125,-3,-2.4238026438905695,-3.801024120137358,-3.608613623578039
1770451237784,125,-3,-2.1625425744828792,-3.743559873744649,-3.3467551188722147
1770451237788,126,-2,-1.7547692806821318,-2.775532755452773,-2.9384806619572066
1770451237792,126,-2,-1.3948352921468086,-2.320291846077101,-2.577682100486539
1770451237796,126,-2,-1.2791014076117748,-2.59807986062812,-2.460483525589921
1770451237800,126,-2,-1.4654402584624586,-2.595562471963085,-2.6443585811675376
1770451237804,126,-2,-1.8343596690531736,-2.9777961987493726,-3.0096087901787025
1770451237808,125,-3,-2.171925481215724,-3.500823393262346,-3.342648032860279
1770451237812,125,-3,-2.3041388017266673,-3.5640374794323955,-3.470314494748576
1770451237816,125,-3,-2.186723855068417,-3.346603764724138,-3.3493850897714177
1770451237820,126,-2,-1.899309181277702,-2.825795607367274,-3.0601496555626304
1770451237824,126,-2,-1.5725751875239795,-2.7580655229533675,-2.732734418087855
1770451237828,126,-2,-1.3215823551257313,-2.6907638432283925,-2.4804231600141966
1770451237832,126,-2,-1.2249946512335756,-2.3485896147839993,-2.3802326047110824
1770451237836,126,-2,-1.3243149492659296,-2.549727569133239,-2.473683817187945
1770451237840,126,-2,-1.6036800583773512,-2.6159642667923135,-2.7466725430944017
1770451237844,126,-2,-1.9614510946254955,-2.9526723709688905,-3.099467957197819
1770451237848,125,-3,-2.2280261219030613,-3.4976508321856215,-3.362756951225288
1770451237852,125,-3,-2.255671967289817,-3.477308533513424,-3.3873636778427194
1770451237856,125,-3,-2.024413332665542,-3.453087063884902,-3.1519341411904347
1770451237860,126,-2,-1.6633097369109704,-2.6494332306435124,-2.785846549716564
1770451237864,127,-1,-1.349371236291511,-1.9627951250664004,-2.4673840373499503
1770451237868,126,-2,-1.1715565093654177,-2.420440442362276,-2.2855459442221715
1770451237872,126,-2,-1.0927842287229224,-2.5714332855271484,-2.201793489835788
1770451237876,126,-2,-1.036607785353484,-2.3214453995372226,-2.1390845015854403
1770451237880,127,-1,-0.9870529144747192,-1.7875593147139288,-2.0830604571079867
1770451237884,127,-1,-0.9931406115518976,-1.8064272922998048,-2.0844805390885264
1770451237888,126,-2,-1.0978524707536417,-2.537071385717902,-2.185614168017366
1770451237892,126,-2,-1.2866427570411525,-2.4660430790574255,-2.369552674962794
1770451237896,126,-2,-1.496117114313502,-2.38540945671732,-2.571882789347864
1770451237900,126,-2,-1.648369650494906,-2.7529219600524337,-2.716138709968985
1770451237904,126,-2,-1.678261057571175,-2.78482790347356,-2.7392935773914573
1770451237908,126,-2,-1.5576366298068445,-2.550879402207536,-2.6137977093141935
1770451237912,126,-2,-1.3214554260534124,-2.4371552549121196,-2.3733616364857433
1770451237916,126,-2,-1.073809125676503,-2.3966864562050647,-2.120446641488229
1770451237920,127,-1,-0.9447072027925728,-1.7545017970687404,-1.9846367273322736
1770451237924,127,-1,-1.0058357432747784,-1.7347986169940677,-2.0384041998123488
1770451237928,126,-2,-1.2080732803367191,-2.59511806485483,-2.2333548677359887
1770451237932,126,-2,-1.406166260431808,-2.378062709315702,-2.4242252996142675
1770451237936,126,-2,-1.4614497100563233,-2.4339591634711204,-2.4722054208607354
1770451237940,126,-2,-1.3372917379353957,-2.7460675071848426,-2.341069789777845
1770451237944,127,-1,-1.1087782939647175,-1.660365883999624,-2.1064826046026255
1770451237948,127,-1,-0.8894944618190328,-1.6911572542105386,-1.8816891082539704
1770451237952,126,-2,-0.7513860890138204,-2.247338348821099,-1.737237560311808
1770451237956,127,-1,-0.7038560464116526,-1.562710680440189,-1.681675086568989
1770451237960,127,-1,-0.7221796952619051,-1.6371184532944925,-1.6913123336762037
1770451237964,127,-1,-0.7735939633080111,-1.6956568243640384,-1.7351587009429486
1770451237968,127,-1,-0.8245909398234927,-1.6721267394802943,-1.7798922533345536
1770451237972,126,-2,-0.8499120226846557,-2.209263014064385,-1.7986230658284923
1770451237976,127,-1,-0.8446632591806693,-1.6566681944003163,-1.785203960571535
1770451237980,127,-1,-0.815229809404113,-1.4776251277156145,-1.7467519671453462
1770451237984,127,-1,-0.7509593655133149,-1.876557837335342,-1.6743494087772777
1770451237988,127,-1,-0.6196654226127445,-1.416370831970141,-1.5364650604239198
1770451237992,127,-1,-0.4117870699367361,-1.4760091863505649,-1.3225043418531008
1770451237996,127,-1,-0.1905953542387564,-1.417569282376524,-1.0943536745947766
1770451238000,128,0,-0.0755904464515928,-0.6456055423983447,-0.971236818774754
1770451238004,128,0,-0.1454187571810949,-0.7602229843764671,-1.032448019363388
1770451238008,127,-1,-0.3437048367694382,-1.4020227725608858,-1.2219929166430572
1770451238012,127,-1,-0.4911191288633172,-1.5848863329905338,-1.3604894254178848
1770451238016,127,-1,-0.4086677589635914,-1.2364414448777108,-1.2693683964422102
1770451238020,128,0,-0.0467576655207164,-0.8697798834406052,-0.899999560033318
1770451238024,128,0,0.4864054696098923,-0.465088958504629,-0.3608516364509774
1770451238028,129,1,1.010306425248774,0.3431540262737987,0.1687943334968358
1770451238032,129,1,1.399202651779763,0.6236754297632694,0.5650862644304009
1770451238036,129,1,1.661455524345702,0.6193072248157145,0.8371762284479518
1770451238040,130,2,1.926487858042212,1.176854493352388,1.1132038743952908
1770451238044,130,2,2.357810159553591,1.6658370668610347,1.5543089127445673
1770451238048,131,3,3.045877677549838,2.1015526515366236,2.249681740009759
1770451238052,131,3,3.9353378690902794,3.012144651507654,3.1448829605375943
1770451238056,133,5,4.8286760602015,4.089026738032194,4.044326174646842
1770451238060,133,5,5.478188518831064,4.813845658538821,4.701388724235646
1770451238064,134,6,5.720324144571915,5.016498723480939,4.952198182642614
1770451238068,133,5,5.561493204154723,4.794094937458143,4.802323920929565
1770451238072,133,5,5.150158393133875,4.347136518681175,4.3998238741473585
1770451238076,132,4,4.659039741759871,3.674870723775029,3.917400937032825
1770451238080,132,4,4.176960622136999,3.3331803242343323,3.4436035309521023
1770451238084,132,4,3.6974614034468103,3.437656127926844,2.971554118540664
1770451238088,131,3,3.1933057684896933,2.5285611931262393,2.4743996876861214
1770451238092,130,2,2.681729838849405,1.4854532091197603,1.970505230978405
1770451238096,130,2,2.212552182540176,1.636518406822948,1.5099769944023262
1770451238100,130,2,1.809959591225942,1.278677718413607,1.1157663143276562
1770451238104,129,1,1.4393129051385614,0.6233520644079817,0.7521458067197753
1770451238108,129,1,1.0241751935341652,0.3329314162685316,0.3433927639551407
1770451238112,128,0,0.4930343634516245,-0.3009716024168378,-0.1802894002529105
1770451238116,128,0,-0.1693533345809088,-0.6104874139194101,-0.8335061522706582
1770451238120,127,-1,-0.8917297236878685,-1.4559889192628557,-1.5462256804773844
1770451238124,126,-2,-1.5365133755026723,-2.597990253882206,-2.1828805349591844
1770451238128,126,-2,-1.9723407758380784,-2.3908700826451197,-2.6129783818255383
1770451238132,126,-2,-2.155143537087403,-2.602258830353125,-2.790744578569598
1770451238136,125,-3,-2.160696070754533,-3.3091260143827848,-2.7886241604893582
1770451238140,126,-2,-2.1370322706165825,-2.7649106533759125,-2.7534800135049653
1770451238144,126,-2,-2.188989748404863,-2.2147431377938576,-2.7938550313653927
1770451238148,126,-2,-2.269711366810295,-2.7600699703041225,-2.868664283006496
1770451238152,125,-3,-2.184984080223843,-3.225710521909061,-2.7851848434353146
1770451238156,126,-2,-1.722710197721076,-2.700680846182384,-2.3256036918383547
1770451238160,127,-1,-0.7561819863919224,-1.400319772265228,-1.354330788461284
1770451238164,129,1,0.846240316322626,0.5513884372810551,0.26471626668144
1770451238168,132,4,3.450419811275363,3.421286851741372,2.892778627864013
1770451238172,136,8,7.717345611452623,7.701711696689447,7.1798397693637686
1770451238176,142,14,14.2108787970196,13.232253669129769,13.680643635455562
1770451238180,149,21,22.650398758507325,20.771143906612856,22.114057242904888
1770451238184,159,31,31.371612702688285,30.37292396148092,30.823291388365988
1770451238188,166,38,37.63172514979841,37.686110118576806,37.07498117493449
1770451238192,168,40,38.84867258312227,39.407028277611275,38.29322446254437
1770451238196,163,35,34.06616667731495,34.46355873432114,33.52343169788747
1770451238200,152,24,24.610079870908557,23.52398224097799,24.08929708223474
1770451238204,140,12,13.422591972175915,11.636721800608564,12.926885358318517
1770451238208,131,3,3.5327844665786134,2.524531890480353,3.056116321761693
1770451238212,125,-3,-3.2841471323540894,-3.395384567059641,-3.7554363983031056
1770451238216,122,-6,-6.873029886501376,-6.70892385278112,-7.352524390053899
1770451238220,120,-8,-8.119151450444287,-8.308883370529006,-8.611315869183787
1770451238224,120,-8,-8.073547185290174,-8.518021384019917,-8.570915822236913
1770451238228,120,-8,-7.423358356035608,-8.296887310339915,-7.912594092530624
1770451238232,121,-7,-6.480521565660339,-7.541166737972704,-6.952429827488731
1770451238236,123,-5,-5.424819721888657,-5.6020631191950025,-5.880310650200021
1770451238240,124,-4,-4.461477283925092,-4.3580411683491,-4.909042096927857
1770451238244,124,-4,-3.7876613022298136,-4.526189660893049,-4.235292926621424
1770451238248,124,-4,-3.4934667037156046,-4.177540110846287,-3.942626144355811
1770451238252,125,-3,-3.5325559552664743,-3.720889057969395,-3.9788439891087464
1770451238256,124,-4,-3.7692444815629464,-4.367261321830366,-4.207510869904917
1770451238260,124,-4,-4.037295020032286,-4.612936999707747,-4.46593077222125
1770451238264,124,-4,-4.175346317472901,-4.239370764767775,-4.59682689795977
1770451238268,124,-4,-4.056195139147887,-4.4218424218928405,-4.474371553184655
1770451238272,124,-4,-3.63725559077159,-4.491958749816066,-4.054123628552634
1770451238276,125,-3,-3.0124483296119497,-3.552986726039914,-3.4272513571733585
1770451238280,126,-2,-2.3956077099822197,-2.467689676011836,-2.8064608236016335
1770451238284,126,-2,-2.002633706760934,-2.3086352861710315,-2.408233481532831
1770451238288,126,-2,-1.9094347980819344,-2.3751347648974575,-2.30932659999732
1770451238292,126,-2,-2.0087217741141856,-2.4793461811383506,-2.4030444076414157
1770451238296,126,-2,-2.1040543546639237,-2.6216503875482777,-2.493677173220026
1770451238300,126,-2,-2.06026060886971,-2.338030484720057,-2.446643687356893
1770451238304,126,-2,-1.893268810010146,-2.447871052162381,-2.2775138147398786
1770451238308,126,-2,-1.7390844454834975,-2.1728832553087756,-2.121115664350789
1770451238312,127,-1,-1.7300767346270254,-1.6900598584479605,-2.1089176257609905
1770451238316,126,-2,-1.872680686740057,-2.41647602262787,-2.2473900093879924
1770451238320,126,-2,-2.0241727212205367,-2.5297807760253583,-2.39445072918257
1770451238324,126,-2,-1.9915913689036748,-2.2304268240695584,-2.3577524297959975
1770451238328,126,-2,-1.6750897015311326,-2.353207809295993,-2.037780878421868
1770451238332,127,-1,-1.1402617439526768,-1.5025137964253128,-1.5003737693901893
1770451238336,128,0,-0.562993992740833,-0.5991135740233445,-0.9215904722665452
1770451238340,128,0,-0.0982090002410316,-0.3542667157918903,-0.4558526455395869
1770451238344,128,0,0.211124025944668,-0.360529055321251,-0.1447413041962643
1770451238348,128,0,0.415148462995063,-0.2126631636687804,0.062856075264204
1770451238352,129,1,0.5755825191531447,0.3789524067495439,0.2277051854387227
1770451238356,129,1,0.7214796345696004,0.5104933300772779,0.3766937475217858
1770451238360,129,1,0.8735917188137217,0.5555513904281396,0.5297183643752033
1770451238364,129,1,1.0773667277203174,0.751885446770217,0.7338440932212573
1770451238368,129,1,1.3869553961793684,0.7088792420322663,1.0453802111556922
1770451238372,130,2,1.820910420628837,1.4483380588197794,1.4828039567776443
1770451238376,131,3,2.3509486338387697,2.4655894509049743,2.0155386982210817
1770451238380,131,3,2.9335077855109013,2.5943413071215593,2.5984808304749234
1770451238384,131,3,3.529691358996594,2.758835190380493,3.193918198910212
1770451238388,132,4,4.085476068750943,3.7107571512704087,3.750103940628901
1770451238392,133,5,4.522153495328466,4.451930147740167,4.188941161813544
1770451238396,133,5,4.786566199973697,4.471189120544566,4.455946519447186
1770451238400,133,5,4.921300312521586,4.606391873993689,4.5923513069828195
1770451238404,133,5,5.066088639127663,4.770217073567168,4.737806962268121
1770451238408,133,5,5.365104412040445,4.720218723972585,5.037180126341036
1770451238412,134,6,5.856049122007898,5.438017746387253,5.528497143620392
1770451238416,135,7,6.443280623426248,6.511014361414225,6.115842691033076
1770451238420,135,7,6.979521084136104,6.577422304149203,6.651806641955144
1770451238424,135,7,7.379699458099973,6.825211456091431,7.051727575027857
1770451238428,136,8,7.670141390264086,7.6821020733036125,7.342448237465499
1770451238432,136,8,7.94330880287094,7.462174781766482,7.616593015576424
1770451238436,136,8,8.265693171340615,7.51908468639672,7.940240362848682
1770451238440,137,9,8.618316214186475,8.58262222034949,8.293343401512871
1770451238444,137,9,8.918008358705176,8.849051300098585,8.59180007112027
1770451238448,137,9,9.087634474883032,8.667214180475966,8.759060995713112
1770451238452,137,9,9.095380546122406,8.4818911684002,8.765217373987985
1770451238456,137,9,8.934753454742028,8.499862014603549,8.604839176253893
1770451238460,137,9,8.597584354633728,8.64142961216316,8.268767689528374
1770451238464,136,8,8.084479955292855,7.795177552262808,7.755972825281182
1770451238468,135,7,7.42467654722052,6.767214849358725,7.095128490231959
1770451238472,135,7,6.660756190554778,6.33680970632603,6.3291728299912124
1770451238476,134,6,5.810130225171333,5.706868927530843,5.476026669976618
1770451238480,133,5,4.84821027967833,4.394526904898649,4.511921137464787
1770451238484,131,3,3.730676681018723,3.148991220936868,3.3935711959981383
1770451238488,131,3,2.440053128389418,2.349365679622035,2.1034941162006655
1770451238492,129,1,1.029422117297659,0.8188571989389901,0.6931355476562815
1770451238496,128,0,-0.375685225451182,-0.8247847015033273,-0.7137230180139854
1770451238500,126,-2,-1.6445680409587422,-2.0050226141677987,-1.986320560985696
1770451238504,125,-3,-2.7409744744839877,-3.43636711277884,-3.0866186756278076
1770451238508,124,-4,-3.7578361683519863,-4.066796713667467,-4.105908554092162
1770451238512,124,-4,-4.824964828780572,-4.721939561082544,-5.173864073174603
1770451238516,122,-6,-5.95257101489106,-6.346237197463055,-6.3016605374284165
1770451238520,121,-7,-6.961586019357987,-7.372951890359337,-7.311256304755688
1770451238524,120,-8,-7.590263626668973,-8.127736715280097,-7.941636419928379
1770451238528,120,-8,-7.702193814529379,-8.290691596353497,-8.056805200914386
1770451238532,121,-7,-7.419336245454086,-7.549619066104412,-7.778414189213975
1770451238536,121,-7,-7.063453395632039,-7.462239615059076,-7.426975243002591
1770451238540,121,-7,-6.947271154093519,-7.2635293042315,-7.313829660844579
1770451238544,121,-7,-7.173570920746954,-7.197329423079223,-7.541439088802501
1770451238548,120,-8,-7.5915849728275155,-8.22982847372061,-7.960031868053237
1770451238552,120,-8,-7.93927180310443,-8.607235865021128,-8.309090192929514
1770451238556,120,-8,-8.054235566919495,-8.374607866892639,-8.427275662710615
1770451238560,120,-8,-7.98169384482884,-8.33762422847201,-8.35963710291589
1770451238564,120,-8,-7.900329803568763,-8.089206468765083,-8.28334739002041
1770451238568,120,-8,-7.943761489271398,-8.320099856908078,-8.330271420947327
1770451238572,120,-8,-8.072536997616428,-8.564619249887748,-8.460626153497863
1770451238576,120,-8,-8.095812679732544,-8.3298221467724,-8.48503868910893
1770451238580,120,-8,-7.820761070269347,-8.448605858972083,-8.212465221443557
1770451238584,120,-8,-7.2153843630397585,-7.845304885547193,-7.611413971615569
1770451238588,122,-6,-6.458854562178524,-6.651521134260341,-6.860266492632269
1770451238592,122,-6,-5.8319515768202255,-6.15625483178421,-6.238696613898779
1770451238596,123,-5,-5.525598825421406,-5.786453356256825,-5.936781411015725
1770451238600,122,-6,-5.518082926480911,-5.927892955880173,-5.932294832738274
1770451238604,122,-6,-5.615660621994382,-6.361788407774036,-6.031634821288177
1770451238608,122,-6,-5.610327364713917,-6.128580089815004,-6.02800971059243
1770451238612,123,-5,-5.415340880710547,-5.655027198205967,-5.836371226320022
1770451238616,123,-5,-5.081006482167215,-5.308254277614511,-5.507555041544843
1770451238620,123,-5,-4.715603018384968,-5.323087897675256,-5.148464031528771
1770451238624,123,-5,-4.403578676273565,-5.011836424473969,-4.84175131845101
1770451238628,124,-4,-4.174140021959392,-4.407074188639337,-4.616293891751349
1770451238632,124,-4,-4.009324743711223,-4.446245341552726,-4.45500791858524
1770451238636,124,-4,-3.86737974742166,-4.425921197049408,-4.316588500897918
1770451238640,124,-4,-3.709670886146732,-4.241792411615171,-4.1621643566563975
1770451238644,124,-4,-3.515819628048628,-4.015219315751697,-3.971732763693732
1770451238648,125,-3,-3.275313005094509,-3.4564690037963492,-3.735984679479091
1770451238652,125,-3,-2.9770353841350174,-3.3427689654462047,-3.4440851680156275
1770451238656,125,-3,-2.632855743859789,-3.5470790041202913,-3.106294449537937
1770451238660,125,-3,-2.3192208245195385,-3.071221261749045,-2.797421464903774
1770451238664,126,-2,-2.1623143021045492,-2.1725507456979116,-2.6441174345513323
1770451238668,126,-2,-2.2385458707007366,-2.316308035371759,-2.7243959400726214
1770451238672,125,-3,-2.4829850842835275,-3.428652019071817,-2.9736110762591377
1770451238676,125,-3,-2.7203879078764746,-3.5113352635483657,-3.215549057002323
1770451238680,125,-3,-2.8012237258976875,-3.0069473988348308,-3.300589093789157
1770451238684,125,-3,-2.709124345226476,-3.2986488169523267,-3.213568503143191
1770451238688,125,-3,-2.5490896487927484,-3.103142189835559,-3.060099146259132
1770451238692,126,-2,-2.4498796125868356,-2.683724371559826,-2.967749282836278
1770451238696,125,-3,-2.4739484749857077,-3.222155080366784,-2.9971371169798062
1770451238700,125,-3,-2.5942788391708484,-3.2825786903918575,-3.120894448737336
1770451238704,125,-3,-2.730974395454863,-3.016399268455036,-3.260873957400014
1770451238708,125,-3,-2.806144719312619,-3.344186146762223,-3.34121762575313
1770451238712,125,-3,-2.7880815615011176,-3.4646802070896836,-3.3302740358822844
1770451238716,125,-3,-2.7121655840755112,-3.3880341266046887,-3.261555372214146
1770451238720,125,-3,-2.6606466314648607,-3.154946898586212,-3.215711273828833
1770451238724,125,-3,-2.695104339132334,-3.064035220537405,-3.25451285336762
1770451238728,125,-3,-2.7856874372695364,-3.3395938810205252,-3.3493738991719466
1770451238732,125,-3,-2.8110941423261013,-3.4038881195137347,-3.379763346963777
1770451238736,125,-3,-2.652212769206228,-3.484396330247848,-3.2264701281377115
1770451238740,125,-3,-2.3069186027944357,-3.019958067752176,-2.8872411908355735
1770451238744,126,-2,-1.9179020748803035,-2.1757432270553725,-2.505010619719304
1770451238748,126,-2,-1.6799150391265407,-2.229156076901594,-2.2743966513605978
1770451238752,126,-2,-1.7047775314736788,-2.4616160230594435,-2.30615300392329
1770451238756,126,-2,-1.953810480863512,-2.4892882133305063,-2.560431387157903
1770451238760,125,-3,-2.276089706477653,-2.926282761136195,-2.886368064084076
1770451238764,125,-3,-2.504433345691454,-3.3303122286824713,-3.1183165695616406
1770451238768,125,-3,-2.5361729667265775,-2.960469086418964,-3.1554294475731344
1770451238772,126,-2,-2.3617237453087587,-2.794280791713803,-2.988605804296938
1770451238776,125,-3,-2.0524076890838803,-3.099622980233536,-2.6878310005612245
1770451238780,126,-2,-1.7312266282101565,-2.338685129428574,-2.3742427776317303
1770451238784,126,-2,-1.528911442948067,-1.882474842008524,-2.1778123573372223
1770451238788,126,-2,-1.525602288819797,-2.3824429052391114,-2.1792921339000815
1770451238792,126,-2,-1.7075245183028454,-2.3682227253611425,-2.366064065680757
1770451238796,126,-2,-1.9750959810387445,-2.5142739038995625,-2.6393977711271037
1770451238800,125,-3,-2.204118288354659,-2.9324767213761858,-2.8751136998422666
1770451238804,125,-3,-2.3221001250967928,-3.24189641476619,-3.0000172638459417
1770451238808,125,-3,-2.345842158079028,-3.0183994527553124,-3.0303606551102344
1770451238812,126,-2,-2.347455467625503,-2.6906203162476077,-3.0384498818768018
1770451238816,125,-3,-2.375492715099063,-3.226311021988577,-3.0732314660080764
1770451238820,125,-3,-2.405373432023064,-3.175334113469882,-3.1099525083549397
1770451238824,125,-3,-2.3660293785817688,-3.0167245373526392,-3.076973854156213
1770451238828,125,-3,-2.2114309648657793,-3.1761106591281454,-2.9280925588230664
1770451238832,126,-2,-1.9638946437275544,-2.557983798601314,-2.686259837216275
1770451238836,126,-2,-1.6903739429956586,-2.31401078308457,-2.4193631133043754
1770451238840,126,-2,-1.443058463274801,-2.1252928524424,-2.1797551337935297
1770451238844,126,-2,-1.2310008499448215,-2.0028501281608007,-1.9754694268314943
1770451238848,126,-2,-1.050697198347279,-2.203122691646345,-1.8018657656517776
1770451238852,127,-1,-0.929825575225657,-1.491221590619337,-1.6867731675725357
1770451238856,127,-1,-0.9202910006816244,-1.38507786641099,-1.683337536552712
1770451238860,126,-2,-1.0426805816578193,-2.051222753050226,-1.812884940613222
1770451238864,126,-2,-1.2484211335899316,-2.0407877286203524,-2.026277673275227
1770451238868,126,-2,-1.44433011154325,-2.1639187082379205,-2.229298065170194
1770451238872,126,-2,-1.5529265890114186,-2.4989799307956027,-2.344109584090024
1770451238876,126,-2,-1.5501961689947046,-2.383189517219616,-2.3473171037712715
1770451238880,126,-2,-1.4529929719019858,-2.024921266944416,-2.2567553328048864
1770451238884,126,-2,-1.280637637259553,-2.0677614826694306,-2.092090411450157
1770451238888,126,-2,-1.0397359366784604,-2.0959212803691205,-1.8592345428939328
1770451238892,127,-1,-0.7498091261492144,-1.5756108588950777,-1.576753677470322
1770451238896,127,-1,-0.4712969499872081,-1.2828209194560438,-1.3049396350805704
1770451238900,127,-1,-0.2877934438871505,-1.1209453956154412,-1.1280787465403117
1770451238904,127,-1,-0.2472728760793594,-0.9503586140583562,-1.094718768562731
1770451238908,127,-1,-0.3186697411136936,-1.190754592772949,-1.173536285823578
1770451238912,127,-1,-0.4100322970671695,-1.4793011442244643,-1.2719032534180388
1770451238916,127,-1,-0.4331747767265557,-1.3651012562488658,-1.301551539140204
1770451238920,127,-1,-0.3542530503029915,-1.0221975057879442,-1.2293534997855242
1770451238924,127,-1,-0.1911105339680083,-1.0360688896664974,-1.0737252792342669
1770451238928,127,-1,0.0228442761852831,-1.0663767280654546,-0.8678273052072747
1770451238932,128,0,0.2663651683655785,-0.6198201440499367,-0.6323469359871184
1770451238936,128,0,0.5363055653655533,-0.2027787791119928,-0.3701794303236363
1770451238940,128,0,0.8432641453638641,-0.1687177185328363,-0.070564516071318
1770451238944,128,0,1.2057368545600975,0.1101514396141412,0.2852389372449011
1770451238948,129,1,1.6471323798464002,0.8624660077085302,0.7204360255107094
1770451238952,130,2,2.1976022535004383,1.3706809333253114,1.2643587765270237
1770451238956,130,2,2.8865369944333583,1.9193114019627109,1.9458198498627184
1770451238960,131,3,3.7062814600532574,2.616995645981204,2.7574584758142375
1770451238964,131,3,4.56369182093023,3.4432445272928014,3.606679510982274
1770451238968,133,5,5.2755741883396965,4.480452787409259,4.310276565476685
1770451238972,133,5,5.641000229964226,4.784912095537575,4.667118091012538
1770451238976,133,5,5.549015516706351,4.53054846374301,4.566786633379595
1770451238980,132,4,5.040268524041137,3.957467209111961,4.051014650597471
1770451238984,131,3,4.282538041936004,3.218334152331348,3.2878609741457265
1770451238988,131,3,3.4904624710080703,2.606126676066801,2.4907111872593104
1770451238992,130,2,2.843732402427548,1.7975982528891352,1.8374258058975736
1770451238996,130,2,2.432043971174648,1.4110175180391986,1.4169228997856202
1770451239000,129,1,2.230241972834719,1.1907750375790775,1.2049616119047786
1770451239004,129,1,2.108917538555583,0.9322800759240376,1.07390875587769
1770451239008,129,1,1.8908963280333968,0.9479423235730806,0.8478080670344114
1770451239012,129,1,1.4442399158008612,0.4615640292336183,0.3945992976098185
1770451239016,128,0,0.7655207494450034,-0.2696633441826948,-0.2902349283325627
1770451239020,127,-1,-0.0065207784313913,-1.0686511067805973,-1.0689567907503592
1770451239024,126,-2,-0.6689272500739594,-1.8528910954469504,-1.7387132288101317
1770451239028,126,-2,-1.07875091641045,-2.180792396456783,-2.1559171674919355
1770451239032,126,-2,-1.2375318722702815,-2.4574860786453767,-2.321808263620301
1770451239036,126,-2,-1.2742858146439997,-2.2832459430475884,-2.3662735143635647
1770451239040,126,-2,-1.3433966464788616,-2.0895507703984806,-2.444900979707704
1770451239044,125,-3,-1.5257284854060824,-2.776896983587899,-2.638089346405234
1770451239048,125,-3,-1.8133973357049016,-3.2808618175803455,-2.935276951952128
1770451239052,125,-3,-2.1645501760457164,-3.305381674185892,-3.2919993973644703
1770451239056,125,-3,-2.5375284028172556,-3.4671004600156405,-3.6669861851649337
1770451239060,124,-4,-2.856033399257208,-3.841849447274348,-3.9877899774261265
1770451239064,124,-4,-2.9690503561098565,-4.050962028818386,-4.1081096127748085
1770451239068,124,-4,-2.699909697882425,-3.954424971046598,-3.853172201423156
1770451239072,125,-3,-1.971238019900436,-3.6528930497432848,-3.1425621756369786
1770451239076,126,-2,-0.8610358903747438,-2.091079001957877,-2.0474425268844723
1770451239080,128,0,0.5444359753493515,-0.1896743916696788,-0.6476490860239839
1770451239084,129,1,2.443536976280784,1.2909790947340998,1.25623053651998
1770451239088,133,5,5.4852587798025505,4.755403809775034,4.306835586790276
1770451239092,138,10,10.522979394059067,9.593995387054326,9.347323718226155
1770451239096,144,16,17.9401590466295,15.727093931109524,16.754224386363543
1770451239100,153,25,26.930901279485372,24.97357138083841,25.722730479168504
1770451239104,162,34,35.331196040839934,34.20500610709099,34.09656571432326
1770451239108,168,40,40.35053785606499,39.78999172759899,39.09453423481695
1770451239112,168,40,39.91821836985684,39.59714632806341,38.65233039805489
1770451239116,161,33,33.821297035903086,32.65316573409639,32.558160431773615
1770451239120,150,22,23.868601766839063,22.074788260989184,22.616285006934753
1770451239124,139,11,12.968157062543272,11.113432605333411,11.726111745917322
1770451239128,130,2,3.737516983595684,1.9370133180328573,2.4964203087369343
1770451239132,125,-3,-2.488038260458513,-3.4990742549646403,-3.741739220030228
1770451239136,122,-6,-5.768049178397146,-6.2147779581164935,-7.04464991061754
1770451239140,120,-8,-6.965409208960452,-8.059796734796837,-8.265686522087286
1770451239144,119,-9,-7.02593137872712,-8.741179540558367,-8.34078096998907
1770451239148,120,-8,-6.589624425319272,-8.211177836534064,-7.906791793599767
1770451239152,121,-7,-5.981626823831877,-7.333559935585258,-7.294588729795155
1770451239156,122,-6,-5.349722913215838,-6.35555653035462,-6.661219773188726
1770451239160,122,-6,-4.755065516722311,-5.91758076621118,-6.072732949591957
1770451239164,122,-6,-4.204499813494696,-5.870538794471065,-5.533623449677985
1770451239168,123,-5,-3.6876910532816334,-5.091034128570735,-5.027959929282262
1770451239172,124,-4,-3.222471595251218,-4.414562301632978,-4.5703768550559625
1770451239176,124,-4,-2.861710678944155,-4.271147834221265,-4.2147193543430195
1770451239180,124,-4,-2.651722317769936,-3.955886269273149,-4.010104745930027
1770451239184,124,-4,-2.5899840506354783,-3.859606672427275,-3.955534274412245
1770451239188,124,-4,-2.6304144765676893,-4.079888751666333,-4.004061371042033
1770451239192,124,-4,-2.7304899048200943,-4.416733123364938,-4.111304041995295
1770451239196,124,-4,-2.8828934236775616,-4.238737783384304,-4.269309061491137
1770451239200,124,-4,-3.0854395817700455,-3.962111709996788,-4.476982179388548
1770451239204,123,-5,-3.2803657796470795,-4.857073486507904,-4.677808266191207
1770451239208,123,-5,-3.3473304677863784,-5.085968437937846,-4.75155875884536
1770451239212,124,-4,-3.1808599577662218,-4.371487466414781,-4.592124710616357
1770451239216,124,-4,-2.78238503668159,-4.299539948420971,-4.200372861266073
1770451239220,124,-4,-2.275086237513105,-3.812558693656368,-3.699240557100927
1770451239224,125,-3,-1.8218020235061947,-3.078688416439798,-3.2517454849004364
1770451239228,125,-3,-1.5093906243945965,-2.7862442431915126,-2.945227265704416
1770451239232,126,-2,-1.2938354812856667,-2.7397757026770413,-2.7357642100415376
1770451239236,125,-3,-1.0567872833055354,-2.832531971704574,-2.50441390870714
1770451239240,126,-2,-0.7251520936176403,-2.306703940872318,-2.177707385699195
1770451239244,126,-2,-0.3383625463571067,-1.5558672285414392,-1.7957673867819368
1770451239248,127,-1,0.0015791750680311,-1.2921328191996984,-1.4616107398362594
1770451239252,127,-1,0.2375663304048798,-1.275125507897764,-1.2322502843540757
1770451239256,127,-1,0.4059635209866357,-1.1844342035805422,-1.0700758901356764
1770451239260,127,-1,0.5839727007797396,-1.0451324383079157,-0.8969635005025005
1770451239264,127,-1,0.8050642495551912,-0.6997670779489966,-0.6798994628481309
1770451239268,128,0,1.0354144972254316,-0.2353907583240541,-0.4538941304316969
1770451239272,128,0,1.2269487544708046,-0.2512229459981835,-0.2675312488766364
1770451239276,128,0,1.380535248953496,-0.2145023933749195,-0.1194017461736481
1770451239280,128,0,1.552868200645301,-0.0052629362432979,0.0478614401388913
1770451239284,128,0,1.807766170740002,0.29759330772101,0.2981459860268389
1770451239288,129,1,2.1645605786152733,0.7276345998508738,0.6505803621632411
1770451239292,129,1,2.5886305263056126,0.8620692337032048,1.070558405201829
1770451239296,130,2,3.028225870935063,1.637474494254354,1.5063310309355449
1770451239300,130,2,3.465288476489034,2.2056811450099585,1.9395172535286287
1770451239304,130,2,3.933475959105775,2.0557309786948026,2.4034674036806507
1770451239308,131,3,4.479641628477732,2.992491038488436,2.9451970086893953
1770451239312,132,4,5.099962896757738,3.627775047739398,3.561379015297109
1770451239316,132,4,5.715682360090215,3.8581518469320097,4.173542306181819
1770451239320,133,5,6.222360075727399,5.051076671395671,4.677024542439211
1770451239324,133,5,6.575790666293373,5.1657196781283785,5.02723375193416
1770451239328,133,5,6.8345642724039415,4.922689278734231,5.282784085632549
1770451239332,134,6,7.111990991005058,5.699939850174463,5.557369089745957
1770451239336,134,6,7.476335545389336,5.807906077805469,5.9193209337018695
1770451239340,134,6,7.891043366076269,6.125558674955507,6.331463777741138
1770451239344,135,7,8.249388737429541,7.095892502178336,6.686359966960929
1770451239348,135,7,8.467795003017272,6.999967804946244,6.900762046583122
1770451239352,135,7,8.547105259233255,6.635194550528268,6.977019611855174
1770451239356,135,7,8.550184668480178,6.892109932773521,6.979028716247617
1770451239360,135,7,8.537172982185137,7.062315494955312,6.965936043336691
1770451239364,135,7,8.53302334795882,7.154951354294983,6.960643120945431
1770451239368,135,7,8.53929907686522,6.984322169350253,6.96406651572292
1770451239372,135,7,8.54268956096099,6.618700280884266,6.964291260980698
1770451239376,135,7,8.499244277895453,6.971149761091558,6.918898548739058
1770451239380,135,7,8.330239750423686,6.960057628867409,6.749176288136333
1770451239384,134,6,7.957619660586721,6.2925385541160885,6.376120849344337
1770451239388,134,6,7.348746742697831,5.858547715733252,5.7665689052179925
1770451239392,133,5,6.522521739826077,4.740474822146307,4.939492717546643
1770451239396,132,4,5.515419525762267,3.875672413433771,3.931373086534922
1770451239400,131,3,4.349500299073185,3.066681717742215,2.7642449244660083
1770451239404,129,1,3.033352264687625,1.1994030523044308,1.447249399012133
1770451239408,128,0,1.5884113890768727,-0.0210844030010204,0.0026360578743432
1770451239412,127,-1,0.076802566512836,-1.388674865658581,-1.507620276262135
1770451239416,125,-3,-1.388664192536491,-2.972760579354638,-2.971999983672251
1770451239420,124,-4,-2.6707400713183818,-4.069334183209431,-4.254154950773023
1770451239424,122,-6,-3.6752215453128745,-5.644966377287888,-5.259239567744005
1770451239428,122,-6,-4.418944052538364,-6.162345247690984,-6.002843911417047
1770451239432,122,-6,-5.026688884294225,-6.241533479595345,-6.6095004682870835
1770451239436,121,-7,-5.636591517498838,-7.10701594862393,-7.2180144272284625
1770451239440,120,-8,-6.293409659752686,-7.916319082435756,-7.873460511044564
1770451239444,119,-9,-6.9335326748272506,-8.779602649324344,-8.511951067765564
1770451239448,119,-9,-7.471042304709792,-9.026538631793429,-9.047591232301926
1770451239452,119,-9,-7.8912218635935325,-9.36326550131879,-9.466178969964028
1770451239456,118,-10,-8.261787158898162,-9.968100864542686,-9.835536843795245
1770451239460,118,-10,-8.660647488023418,-10.0358010334073,-10.232807874230083
1770451239464,117,-11,-9.091762975986326,-10.641024525213188,-10.661080784493498
1770451239468,117,-11,-9.462929344793755,-11.171183114872438,-11.028249414143325
1770451239472,117,-11,-9.645236235078707,-11.20261917286987,-11.206597307968682
1770451239476,117,-11,-9.57024925868182,-11.107281695933311,-11.128896103607506
1770451239480,117,-11,-9.294640632006695,-10.884339111269624,-10.851813230277122
1770451239484,117,-11,-8.985175176793375,-10.753702451617375,-10.540921472513384
1770451239488,118,-10,-8.82614857696227,-10.093044488825416,-10.379277134418402
1770451239492,118,-10,-8.903180837018624,-10.230531580084488,-10.452041350195984
1770451239496,117,-11,-9.14523890119982,-11.107353600925428,-10.688535918914464
1770451239500,117,-11,-9.372978440725488,-10.820632993939403,-10.91041661069721
1770451239504,117,-11,-9.418211468671526,-10.832386378412176,-10.95068973569042
1770451239508,117,-11,-9.227186758407091,-10.996932341069945,-10.756057488450736
1770451239512,118,-10,-8.884040239172194,-10.310349344865896,-10.409935872871156
1770451239516,118,-10,-8.549908379627851,-10.020533776641154,-10.07233319944734
1770451239520,118,-10,-8.361301670479792,-9.87746600453133,-9.879208420055864
1770451239524,118,-10,-8.353357763412811,-9.770072178192828,-9.865804635383498
1770451239528,118,-10,-8.456808019687156,-10.056859617173805,-9.963092810276397
1770451239532,118,-10,-8.562764320707018,-10.23439423092628,-10.06241183773793
1770451239536,118,-10,-8.596256077281726,-10.084421495703111,-10.089295839791887
1770451239540,118,-10,-8.539275367469841,-9.780140061701427,-10.026356349131024
1770451239544,118,-10,-8.402038862834289,-9.868507379789513,-9.883815518052346
1770451239548,118,-10,-8.193446097656384,-9.934617573147682,-9.6698605836315
1770451239552,119,-9,-7.92554892851336,-9.372507153710636,-9.396008818765935
1770451239556,119,-9,-7.631003810664287,-8.906096163562111,-9.095058675538365
1770451239560,119,-9,-7.35674017158109,-8.94931220402303,-8.81412724503716
1770451239564,119,-9,-7.131817447925906,-8.682730438279435,-8.58198030579167
1770451239568,120,-8,-6.936459250616874,-8.10186793916807,-8.378531565422712
1770451239572,120,-8,-6.698609953576993,-8.235305620587992,-8.132045139105262
1770451239576,120,-8,-6.329374450698271,-7.974729143941452,-7.754510721835231
1770451239580,121,-7,-5.784462363247032,-6.910581572472803,-7.202358473826142
1770451239584,121,-7,-5.114904870529838,-6.648898227600925,-6.526410159609134
1770451239588,122,-6,-4.469012063534011,-6.186968044931378,-5.873925365359412
1770451239592,123,-5,-4.030507497573505,-5.098789855561527,-5.427731424080006
1770451239596,123,-5,-3.916595407349031,-5.127769828253738,-5.304923701275673
1770451239600,122,-6,-4.101201276912242,-5.718809786118223,-5.47980340891434
1770451239604,122,-6,-4.426876618436998,-5.822498115597342,-5.795470662674896
1770451239608,122,-6,-4.700523241045927,-6.028875251795592,-6.059530238994863
1770451239612,122,-6,-4.798854503045964,-6.229606143872109,-6.149120943617589
1770451239616,122,-6,-4.712131810791459,-5.986560337779181,-6.0540670807608645
1770451239620,122,-6,-4.512049361504704,-5.831126319477706,-5.845112618572331
1770451239624,122,-6,-4.280358460223959,-5.688389096610476,-5.603669797740722
1770451239628,123,-5,-4.050948136577659,-5.1850466781388125,-5.364269193399412
1770451239632,123,-5,-3.8044656780831896,-5.04043412442613,-5.108159511794888
1770451239636,123,-5,-3.5175703221864,-5.181524292498599,-4.811653020722897
1770451239640,123,-5,-3.2189014783542587,-4.5895612259477385,-4.502745274337407
1770451239644,124,-4,-2.9839904393560692,-3.9204276055119776,-4.257098698950861
1770451239648,124,-4,-2.8583713680569858,-3.976388443012789,-4.120765105708166
1770451239652,124,-4,-2.7886661508235973,-4.188078116814259,-4.040197065163731
1770451239656,124,-4,-2.648894078901741,-4.095446384740178,-3.8888638809282448
1770451239660,124,-4,-2.348882533233917,-3.5526850600490523,-3.5769258546704044
1770451239664,125,-3,-1.92340330346504,-3.0508950200052514,-3.1403758478042
1770451239668,125,-3,-1.524711587146956,-2.734234150155707,-2.7320803962724853
1770451239672,126,-2,-1.3329660347130794,-2.5123238371210825,-2.531252352381498
1770451239676,125,-3,-1.4545715216015012,-2.6919700959661457,-2.6425891890033415
1770451239680,125,-3,-1.865874497937024,-2.975571711187996,-3.0414568028014246
1770451239684,124,-4,-2.419565189692324,-3.603161900334271,-3.5809911560748966
1770451239688,124,-4,-2.9011245495294995,-4.1602742156217305,-4.048153202014712
1770451239692,124,-4,-3.1088609595722523,-4.104951093516137,-4.242754003970998
1770451239696,124,-4,-2.9299050428524422,-4.044396248155518,-4.05241904504377
1770451239700,124,-4,-2.3899622341921374,-3.642544051055939,-3.5021027569951064
1770451239704,125,-3,-1.655548374453681,-2.882447226543495,-2.7572194244344166
1770451239708,126,-2,-0.9710529004876554,-1.9067612350074996,-2.0616177248960548
1770451239712,127,-1,-0.5460179937870926,-1.3276656292073228,-1.6245742209231129
1770451239716,126,-2,-0.4571572358194573,-1.8217044419448631,-1.5222373058893817
1770451239720,126,-2,-0.6296263513228677,-1.8440841931007017,-1.679631538044633
1770451239724,126,-2,-0.8963726522276891,-1.665669468246432,-1.9310769723319845
1770451239728,126,-2,-1.0816958883232777,-2.1193743365374385,-2.102861417285732
1770451239732,126,-2,-1.070135520639472,-2.0989814310867887,-2.079888692291846
1770451239736,126,-2,-0.8517467553179867,-2.0236198299301806,-1.8504469286556884
1770451239740,126,-2,-0.5257729022285216,-1.6487089906699015,-1.5119360814694702
1770451239744,127,-1,-0.2384739877086104,-0.8209066537211533,-1.2106078780658158
1770451239748,127,-1,-0.0801219980967498,-0.9793380209335374,-1.0380618663695411
1770451239752,127,-1,-0.0240109061669007,-1.213894578504178,-0.9684566026814516
1770451239756,127,-1,0.0334710174370931,-0.8894272037454392,-0.8978290834890865
1770451239760,127,-1,0.1697885482455019,-0.7970877760849249,-0.7478516204290655
1770451239764,127,-1,0.3697109051741409,-0.6159289178473146,-0.5334044786005584
1770451239768,128,0,0.5544358564605969,-0.2159439543376395,-0.3338788897460044
1770451239772,128,0,0.6698825570917237,0.0823947516317206,-0.2043381153508785
1770451239776,128,0,0.7377374173684506,-0.2152172743469447,-0.123390282449172
1770451239780,127,-1,0.8080600615759965,-0.4374825485838337,-0.0403010814767584
1770451239784,128,0,0.8613011013006013,0.0341639429342958,0.0260892419167966
1770451239788,128,0,0.7785320771561404,0.1342682231729117,-0.0430793736503208
1770451239792,128,0,0.4372838153078064,-0.2150312341861072,-0.3702962510660783
1770451239796,127,-1,-0.1458144504829555,-0.9563156784240278,-0.9384962690675684
1770451239800,126,-2,-0.7627295865063242,-1.6378534578795132,-1.5393953317533395
1770451239804,126,-2,-1.1115212278581017,-1.806568211823541,-1.871854596308538
1770451239808,126,-2,-0.9776849741505128,-1.9605556495259715,-1.7228931173319384
1770451239812,127,-1,-0.3710383770010883,-1.1274075824207703,-1.1033069625454155
1770451239816,128,0,0.475197755639575,-0.0121599891515649,-0.2458229209220717
1770451239820,128,0,1.2397756500832449,0.4184242840673262,0.5301319381078631
1770451239824,129,1,1.6908156961200107,1.1299268821290036,0.9946915153514118
1770451239828,129,1,1.7940393628191504,1.1430613055032164,1.1143273171348862
1770451239832,129,1,1.6988642709176909,0.7544280251717612,1.0371781761691865
1770451239836,129,1,1.6315473549147548,1.150431606262021,0.9869259727112972
1770451239840,129,1,1.7692996009242394,1.2504305796872963,1.1389093785415088
1770451239844,129,1,2.158052353775137,1.29743219517457,1.539458085255765
1770451239848,130,2,2.7026985492875375,2.032327252020585,2.0955878825853236
1770451239852,131,3,3.2329278796611134,2.822369179815435,2.6388498184201428
1770451239856,131,3,3.6157716201614942,3.1674800247148593,3.0367006700921797
1770451239860,131,3,3.8448868739908546,3.1657571721600735,3.2821178957134824
1770451239864,131,3,4.037491643656378,3.457366539685136,3.4912165107567947
1770451239868,132,4,4.337246643170582,3.831448769784704,3.806501901523445
1770451239872,132,4,4.796257620740872,4.083698121589145,4.279284330706269
1770451239876,133,5,5.3229145100743045,4.899757820753586,4.818085784437066
1770451239880,133,5,5.729909449754027,5.450664860934912,5.236887000208037
1770451239884,133,5,5.844670402231807,5.185672968911534,5.364869449125998
1770451239888,133,5,5.607677627190545,5.08991537290126,5.143279010504483
1770451239892,133,5,5.103685465422183,4.882444225905351,4.655852345952445
1770451239896,132,4,4.51446383471143,4.062172557572099,4.082558287696565
1770451239900,131,3,4.016151764119305,3.3659928160148302,3.5985918349738863
1770451239904,131,3,3.674859527483711,3.2115763636015076,3.2703015608219843
1770451239908,131,3,3.4110189985340003,3.139722592606764,3.018752744043583
1770451239912,131,3,3.0646896391234684,2.7976053365634033,2.6847030797811646
1770451239916,130,2,2.5121906798879516,2.204832993963282,2.145400876432975
1770451239920,129,1,1.7432502918712915,1.2067877672435785,1.391178729738523
1770451239924,128,0,0.8541746339448422,0.3810428411637483,0.5176060395207649
1770451239928,128,0,-0.0124371633249016,-0.0099945938261547,-0.3344145141387273
1770451239932,127,-1,-0.730259850957246,-1.0473789038439831,-1.039239808913776
1770451239936,126,-2,-1.2321638193097328,-1.90620016149744,-1.5284920496075332
1770451239940,126,-2,-1.5256156213932492,-1.696896851944693,-1.8082031512012873
1770451239944,126,-2,-1.6669983602328973,-1.6914350365365716,-1.9351704756889607
1770451239948,126,-2,-1.707840786533651,-1.9486161121102952,-1.9626484642425783
1770451239952,126,-2,-1.6676116469047553,-2.0558677091872397,-1.91088164379567
1770451239956,126,-2,-1.5670262687483174,-1.914679434768259,-1.7992743513815812
1770451239960,126,-2,-1.4792232869043245,-1.647647228448709,-1.6986194242020891
1770451239964,126,-2,-1.52244490835908,-1.7732235420643163,-1.726013486141014
1770451239968,126,-2,-1.7745273700413486,-1.8197209235557912,-1.961086835821364
1770451239972,126,-2,-2.1757505196677775,-2.1837171929441466,-2.348292459627089
1770451239976,125,-3,-2.5142469762297743,-2.762911071306645,-2.678834685993976
1770451239980,125,-3,-2.52251022469351,-2.7941170284214767,-2.6832868813921382
1770451239984,125,-3,-1.9977209458783336,-2.628703044851643,-2.152018102026401
1770451239988,127,-1,-0.8008511548771642,-0.93433275539847,-0.9396920831695896
1770451239992,130,2,1.3105958709933665,1.9534062728415469,1.1959296641549946
1770451239996,133,5,4.84072588739572,5.120016087271544,4.751633829845884
1770451240000,138,10,10.406703660117309,10.32480458614518,10.335955420083485
1770451240004,145,17,18.180288055943556,17.262773060615693,18.11697424392264
1770451240008,154,26,27.249242397883496,26.173730378664665,27.185086103010786
1770451240012,164,36,35.49379301981474,35.90351629939507,35.426491456627495
1770451240016,169,41,40.31440503374845,41.15405070881252,40.24786694464409
1770451240020,168,40,39.88839400123655,40.30433346879251,39.83134826402727
1770451240024,162,34,34.14587017612438,34.21798840173726,34.108716721872156
1770451240028,152,24,24.80479104986975,24.231798140403416,24.794540969341107
1770451240032,142,14,14.471168603950469,13.849596355284808,14.487000224774947
1770451240036,133,5,5.4312303954900605,5.307148185659786,5.4643217496026
1770451240040,127,-1,-1.1278459012215831,-0.8311010893498926,-1.0893144861573325
1770451240044,123,-5,-5.142471255209906,-4.62458823071135,-5.106312499835577
1770451240048,121,-7,-7.166316459179576,-6.922767072598534,-7.132107030642804
1770451240052,120,-8,-7.824009756176157,-8.019952053664113,-7.784355205898226
1770451240056,120,-8,-7.56770152014552,-7.736072164698965,-7.513776023108802
1770451240060,121,-7,-6.730626790025674,-6.83748324242644,-6.657993243993162
1770451240064,122,-6,-5.646523242978392,-5.552969841351807,-5.557412802343523
1770451240068,124,-4,-4.64911126003741,-4.062983030827156,-4.549908426516618
1770451240072,124,-4,-3.967010362342105,-3.820362680996963,-3.8629600787663536
1770451240076,124,-4,-3.6569143040733,-3.943382506975386,-3.5482027233906424
1770451240080,124,-4,-3.654177736625095,-3.590948961692021,-3.5366037566831867
1770451240084,124,-4,-3.868830271318396,-3.805093434755506,-3.738259107057968
1770451240088,124,-4,-4.211214646010096,-3.8244608500939026,-4.067457114487274
1770451240092,124,-4,-4.543047930245051,-4.001108879171571,-4.389511796082153
1770451240096,123,-5,-4.666720928943247,-4.791099043080248,-4.506609934481812
1770451240100,123,-5,-4.430913486326446,-4.659854520578747,-4.264360140244111
1770451240104,124,-4,-3.8731070798576224,-3.809398119150887,-3.6982973625360063
1770451240108,125,-3,-3.232913470437314,-2.74717108614554,-3.0492513664607515
1770451240112,126,-2,-2.783819552089344,-2.114110963610397,-2.5926975028614527
1770451240116,125,-3,-2.6296323623682456,-2.5985599758676026,-2.431872245000246
1770451240120,125,-3,-2.657295714645218,-2.896582888898528,-2.451161479328305
1770451240124,125,-3,-2.669833275937498,-2.5411740600988932,-2.4528415242306805
1770451240128,126,-2,-2.5445223148272316,-2.0385840211395028,-2.3168710667736647
1770451240132,126,-2,-2.276671416953591,-1.7656964223764766,-2.0416660428743456
1770451240136,126,-2,-1.9260585414069629,-1.9196540558523083,-1.6869110999257488
1770451240140,126,-2,-1.5670056528241756,-1.5880182636924012,-1.3239833838742827
