timestamp_ms,ecg_u8_raw,ecg_counts_raw_int,ecg_counts_filt_monitor,ecg_counts_filt_diagnostic,ecg_counts_filt_st
1769234217392,129,1,-1.0503234362132114,-1.0460309118142452,-0.9366970595276976
1769234217395,129,1,-0.5568944855010436,-0.7550774181818516,-0.4157473772897919
1769234217400,130,2,-0.0040934911892538,0.1710661334451721,0.1638363429640119
1769234217404,131,3,0.6592585146751153,1.1024714732801215,0.8511228430990139
1769234217408,131,3,1.4201028240284082,1.119180126221749,1.6333189199361446
1769234217412,132,4,2.1759451279087463,2.06593025984539,2.4100944244744618
1769234217416,133,5,2.746006947005671,3.0952474917371933,3.0021863623300993
1769234217419,133,5,2.9540772622082936,3.3233352123991406,3.2331272435684792
1769234217424,133,5,2.7454309791829217,2.9266341030336585,3.0474782999009475
1769234217428,132,4,2.236751762024328,2.27558026290027,2.5619272405595046
1769234217432,132,4,1.6448136361591548,1.8754674297691745,1.9933096024545955
1769234217436,131,3,1.15010768552466,1.249728365324989,1.521195272242602
1769234217440,131,3,0.8014995946060695,1.193081605193394,1.193039909977763
1769234217443,131,3,0.5171163958855769,1.0131214454077286,0.9267210999887252
1769234217448,130,2,0.1539006559226137,0.204630558824876,0.5807836053398279
1769234217452,130,2,-0.4132915853889729,-0.1303022118143477,0.0321418937767103
1769234217456,129,1,-1.2339150488435138,-0.7479952323843821,-0.7681193014018792
1769234217460,128,0,-2.248916473065351,-1.8160318982155903,-1.7622013637761167
1769234217464,127,-1,-3.294735529179751,-3.002738493424469,-2.7881243644409244
1769234217467,126,-2,-4.160611520889843,-3.7642970096339865,-3.6356951143161726
1769234217472,126,-2,-4.682894850309689,-4.2498154789371405,-4.140772680109875
1769234217476,125,-3,-4.822077196812248,-4.608001013053384,-4.263151691552697
1769234217480,126,-2,-4.671839517517187,-3.9791137768066984,-4.096387928199115
1769234217484,126,-2,-4.396760754371704,-3.8504373164412393,-3.805502962831863
1769234217488,126,-2,-4.147153970926359,-3.903562548861794,-3.54105445288419
1769234217491,127,-1,-4.009855588273956,-3.2272417595356044,-3.389158691757121
1769234217496,126,-2,-4.013525955397802,-3.55865888411354,-3.3771251292760085
1769234217500,126,-2,-4.152101869897962,-4.141901782842706,-3.4988559539067934
1769234217504,126,-2,-4.365468616075444,-3.5780655013163605,-3.6972030806969576
1769234217508,127,-1,-4.456425138072223,-3.2974805225235846,-3.7788087324312984
1769234217511,126,-2,-4.015058310379432,-3.800479805751316,-3.332852926155403
1769234217515,128,0,-2.4621196519375346,-2.0592192119507193,-1.771919061777402
1769234217520,131,3,0.7718561778910376,1.395878446230383,1.482607180154392
1769234217524,136,8,6.047155987716439,5.857795828335696,6.790155935449473
1769234217528,145,17,13.395908606716404,15.2678848572985,14.168597122626633
1769234217532,155,27,22.411718067359104,24.60701312401412,23.195136662374495
1769234217535,160,32,31.99519769579472,30.47509972082492,32.76767287003296
1769234217539,169,41,40.06949050872198,38.88255443626827,40.82280619208462
1769234217544,175,47,43.789199553837165,45.306813942514296,44.53202980681502
1769234217548,173,45,40.66096932996065,42.81259099567288,41.41051331429212
1769234217552,162,34,30.157465008999864,32.01426515410026,30.930320148046576
1769234217556,145,17,14.64230922196845,15.030957865133123,15.44909776921249
1769234217559,128,0,-1.3215765980627907,-1.7392528987619418,-0.4803979749113813
1769234217563,117,-11,-13.04409630888227,-13.037058898880176,-12.180624409456918
1769234217568,112,-16,-17.888580081291213,-17.800456751884354,-17.02352450251425
1769234217572,115,-13,-16.227999938371973,-15.306129758476782,-15.380230671711526
1769234217576,121,-7,-10.721958673797229,-8.65150847037964,-9.898024548727898
1769234217580,127,-1,-4.5642411824763265,-3.1579875086652596,-3.75485367218107
1769234217583,130,2,0.0995018222569612,0.3108399348083166,0.913735346425398
1769234217587,133,5,2.7166389581796473,2.847640912088889,3.5532876761017205
1769234217592,134,6,3.835421265654208,4.00973435497819,4.699208165269941
1769234217596,135,7,4.246331525620439,5.094857578738005,5.126665810964288
1769234217600,136,8,4.433059485872858,5.975690231428463,5.312427333718107
1769234217604,135,7,4.524380796230986,5.221158496465348,5.391283134434771
1769234217607,135,7,4.501889728437114,4.85358766088453,5.3577628558543
1769234217611,135,7,4.368143636960787,5.083311420277618,5.222996831308875
1769234217616,135,7,4.191394682296591,4.954377326641453,5.053380058695728
1769234217620,135,7,4.092949073067894,5.118974053727267,4.961994102063728
1769234217624,135,7,4.216299531686779,5.025652514556992,5.086493018735884
1769234217628,135,7,4.658282006102732,5.034838448807291,5.524593483038927
1769234217631,136,8,5.380658891354246,5.92186787137716,6.242500595064174
1769234217635,137,9,6.192779181030972,7.089112978955622,7.051984814655977
1769234217640,138,10,6.863392984804298,7.962792786150628,7.720656255312205
1769234217644,138,10,7.282778232304013,8.148232025809268,8.137105822194089
1769234217648,138,10,7.519549220333652,7.884301562616244,8.370311340290481
1769234217652,138,10,7.716321465866437,8.085889134352453,8.564128382183814
1769234217655,139,11,7.941170541744093,8.897260070306842,8.786208992014094
1769234217659,139,11,8.15048421400689,9.14918605098616,8.991012407139651
1769234217664,139,11,8.280320091048779,8.923401541701036,9.11378720325022
1769234217668,139,11,8.343004614438673,9.093365424097364,9.16848623056965
1769234217672,139,11,8.423169663120056,8.877957006168659,9.242003166114586
1769234217676,139,11,8.597109125628698,9.062605855183628,9.410899038743478
1769234217679,140,12,8.87811444220895,10.017062483124231,9.68649571688248
1769234217683,140,12,9.23917285367384,9.971399323126242,10.039960058615664
1769234217688,140,12,9.66210031588252,10.091101691990335,10.453421087634757
1769234217692,141,13,10.140268841706517,10.810064039054607,10.92187730383912
1769234217696,141,13,10.638261909472211,11.15808392567135,11.410647892666589
1769234217700,142,14,11.074050192984656,11.875132325110846,11.836992864418752
1769234217703,142,14,11.358734623407072,12.119572729201714,12.111332035419853
1769234217707,142,14,11.457529157679645,11.904632028103997,12.199344220413243
1769234217712,142,14,11.415466392417889,11.993133416007682,12.146879778339688
1769234217716,142,14,11.333677220099553,11.950391496491768,12.054889750735311
1769234217720,142,14,11.32247600130064,12.069236283570495,12.032666154296985
1769234217724,142,14,11.455498415887831,11.924224144415415,12.153294508668608
1769234217727,142,14,11.735517489050126,12.061131745620866,12.41993044129179
1769234217732,143,15,12.08847938082748,12.846686733779062,12.759061888915651
1769234217736,143,15,12.400336808391872,13.04670563362287,13.056853770528749
1769234217740,143,15,12.57700022116185,12.995369213465104,13.21939445428669
1769234217744,143,15,12.582833188073923,12.952629725447531,13.211219595255862
1769234217748,143,15,12.437647074448638,13.035362381087854,13.051939895009802
1769234217751,143,15,12.189894460927698,12.838928049470756,12.789634025693198
1769234217756,142,14,11.887685652643537,12.042917866065048,12.472376437364838
1769234217760,142,14,11.557568630890191,12.003430317547274,12.126763567446698
1769234217764,142,14,11.200732180837475,11.899986148215316,11.753597517619998
1769234217768,141,13,10.807959106650031,11.112449241992286,11.343289290062232
1769234217772,141,13,10.373707251002804,10.68618882421888,10.89078030440693
1769234217775,140,12,9.894289835253844,10.250256808536676,10.393485732345315
1769234217780,140,12,9.366216054483132,9.712897376326763,9.848504644866107
1769234217784,139,11,8.806168337637569,9.240980273261668,9.272000987863352
1769234217788,139,11,8.277957714766645,8.707160309839722,8.72668286181855
1769234217792,138,10,7.883827180025586,8.094905372960323,8.314034905553779
1769234217796,138,10,7.702284605903912,7.834633612937606,8.112601707551562
1769234217799,138,10,7.712920787844194,8.081739980355486,8.102622803114468
1769234217804,138,10,7.777240291998589,7.92157022677069,8.146377585782709
1769234217808,138,10,7.707659035629494,7.928489559165875,8.056699037825563
1769234217812,138,10,7.384032894953469,7.949895616419316,7.713354976213042
1769234217816,137,9,6.829740429942442,6.861850759086883,7.139429385207358
1769234217820,136,8,6.182105036305294,6.132039182598062,6.471957854212783
1769234217823,136,8,5.5779039450322045,5.7884354344268285,5.847262859141273
1769234217828,135,7,5.049869828686673,5.094428075389527,5.297540510882013
1769234217832,135,7,4.5164074922728075,4.749580939738987,4.741259655590332
1769234217836,134,6,3.858908576620242,4.047101310766175,4.060836573700767
1769234217840,133,5,3.0104745439030083,2.946433416151935,3.190502272378911
1769234217844,132,4,1.987315813518907,1.9308945419417871,2.146339634616566
1769234217847,131,3,0.8549353871565781,0.9734850872117676,0.9924053409813932
1769234217852,130,2,-0.3321537987178882,-0.1839003140882125,-0.2178811251797987
1769234217856,128,0,-1.574867935682791,-1.9843086613303904,-1.4848950276306918
1769234217860,127,-1,-2.9277294812661,-3.0866735013427555,-2.8618823876087713
1769234217864,126,-2,-4.43734821786836,-4.00269693285018,-4.394969776958751
1769234217868,124,-4,-6.05617550757456,-6.154129181053435,-6.0367785858129945
1769234217871,122,-6,-7.6153686291042675,-8.0251319303154,-7.618453916754321
1769234217876,121,-7,-8.903722417119635,-9.188115822581793,-8.929103520867425
1769234217880,120,-8,-9.792055859247306,-9.879502856841198,-9.840892786143488
1769234217884,120,-8,-10.297485973072884,-10.231354886403375,-10.372060780118815
1769234217888,119,-9,-10.55229501214433,-10.928046758275862,-10.65395464549464
1769234217892,119,-9,-10.723001916839287,-11.263202946701036,-10.850774118674348
1769234217895,119,-9,-10.928798819236222,-10.976505755267745,-11.080570752179032
1769234217900,119,-9,-11.182849553723416,-11.100443039177923,-11.357421635146336
1769234217904,118,-10,-11.387006200493587,-12.034219431345743,-11.58462401349752
1769234217908,118,-10,-11.4039904268223,-12.113572865164262,-11.62572289261925
1769234217912,119,-9,-11.165952551354476,-11.110039045404127,-11.413273502907243
1769234217916,119,-9,-10.731991587246965,-11.129222874649445,-11.006261043931442
1769234217919,119,-9,-10.25379931199777,-10.983689098749972,-10.555291432317343
1769234217924,120,-8,-9.884833475930115,-10.127649008629485,-10.212473077365738
1769234217928,120,-8,-9.692160722381074,-10.073576456016877,-10.044523981714374
1769234217932,120,-8,-9.618086740001884,-10.121020508460497,-9.994420667669509
1769234217936,120,-8,-9.518530145023831,-10.179601626988198,-9.918865691007396
1769234217940,120,-8,-9.260539623813573,-9.905142751213,-9.685445029019212
1769234217943,121,-7,-8.811871049068884,-9.246977761647962,-9.262399322661707
1769234217948,121,-7,-8.258994381380912,-8.934947181073756,-8.73648809468093
1769234217952,122,-6,-7.749317786019334,-8.295215771598961,-8.254703873825203
1769234217956,122,-6,-7.407679162434502,-8.006136498238485,-7.940603839570268
1769234217960,122,-6,-7.281160423031855,-8.10925924492024,-7.839789481209633
1769234217964,122,-6,-7.3304327256217245,-8.041279054099148,-7.912489839157163
1769234217967,122,-6,-7.450703476034327,-8.154956974846076,-8.055261833264268
1769234217972,122,-6,-7.503230543119192,-8.0845428232411,-8.131704250868019
1769234217976,122,-6,-7.360815923824998,-8.227577007939384,-8.01596334310873
1769234217980,122,-6,-6.973245881652457,-7.914006135960993,-7.656847901879115
1769234217984,123,-5,-6.422294696703719,-7.224658576157167,-7.133631069787808
1769234217988,123,-5,-5.905809594401754,-7.007093858796256,-6.6424781483148
1769234217991,124,-4,-5.624235523241279,-6.210214541863586,-6.384529533074501
1769234217996,124,-4,-5.633820386735788,-6.151319639690618,-6.418045726512157
1769234218000,123,-5,-5.7944900838579265,-6.9798904983638685,-6.60378308843162
1769234218004,123,-5,-5.884295478457744,-7.192170032805873,-6.718802294495288
1769234218008,123,-5,-5.79345347285948,-7.030293456101474,-6.652544347350825
1769234218011,124,-4,-5.612554157097834,-6.205919582777533,-6.496475826523984
1769234218015,124,-4,-5.527600496848878,-6.1498168594885145,-6.437585194398499
1769234218020,123,-5,-5.63570546003934,-7.011572486283969,-6.572036770054066
1769234218024,123,-5,-5.8659213383508355,-7.1629857583815095,-6.826896338868497
1769234218028,123,-5,-6.0581833718488145,-7.097627820560053,-7.041696834498018
1769234218032,123,-5,-6.0950326284025245,-7.111957898286818,-7.100696508648154
1769234218035,123,-5,-5.965899267097177,-7.278886796328091,-6.995158749337266
1769234218039,123,-5,-5.738564066568511,-6.849129515175227,-6.793103292165137
1769234218044,124,-4,-5.490643032339274,-6.397222592303895,-6.57089488220762
1769234218048,123,-5,-5.2649151529296265,-6.836753754834414,-6.369731006207103
1769234218052,124,-4,-5.073703735892314,-6.411890215491966,-6.2012663676890245
1769234218056,124,-4,-4.925280089726433,-5.954279382548448,-6.0745281508647855
1769234218059,124,-4,-4.830560076485109,-6.191612401951602,-6.001813299830545
1769234218063,124,-4,-4.786862950206302,-6.0885376031730924,-5.981122692218396
1769234218068,124,-4,-4.770457645084593,-6.1307478351229,-5.988300045666177
1769234218072,124,-4,-4.754482356516889,-6.172345660767712,-5.995599887698334
1769234218076,124,-4,-4.732692788735891,-6.130090609520299,-5.996174963382295
1769234218080,124,-4,-4.720557010111615,-6.090552273358736,-6.005446143148389
1769234218083,124,-4,-4.729150906782774,-6.142196887298684,-6.034912494894926
1769234218087,124,-4,-4.7370050482918185,-6.164527144425094,-6.063695361829342
1769234218092,124,-4,-4.69251843430994,-6.071012026740412,-6.040531896874946
1769234218096,124,-4,-4.555066607800478,-6.305620422505573,-5.924657395341206
1769234218100,124,-4,-4.343307410761433,-5.8452639683066225,-5.734303016344667
1769234218104,125,-3,-4.142182487926789,-5.478201598675875,-5.554025902874156
1769234218107,124,-4,-4.051476868640062,-5.786660526926077,-5.483408906490384
1769234218111,125,-3,-4.11349937801792,-5.496053624665552,-5.564797187423879
1769234218116,124,-4,-4.279930072716459,-5.856782537009497,-5.7501931861181586
1769234218120,124,-4,-4.446634671857929,-6.308637762617028,-5.9359289199273295
1769234218124,124,-4,-4.529407305296487,-6.046681941230221,-6.038053146334176
1769234218128,124,-4,-4.519770644786439,-6.195733373346048,-6.047817143554435
1769234218131,124,-4,-4.477237706797022,-6.149936120662638,-6.024070843327428
1769234218135,124,-4,-4.46711763158059,-6.118208188347253,-6.031776031991191
1769234218140,124,-4,-4.494561667632666,-6.159022531822072,-6.076564384315367
1769234218144,124,-4,-4.488098671185331,-6.104358629548813,-6.087682147138559
1769234218148,124,-4,-4.351684740016934,-6.26711521513974,-5.968947375519978
1769234218152,124,-4,-4.0492024110069185,-5.9670882869180275,-5.683312769325067
1769234218155,125,-3,-3.64608182059168,-5.404268969542311,-5.295869754101303
1769234218159,125,-3,-3.2588171158210857,-4.787479919177327,-4.9241013809694865
1769234218164,126,-2,-2.952784696735574,-4.569856236239436,-4.634513706205002
1769234218168,125,-3,-2.6926360096121407,-4.767283822752951,-4.391459214196628
1769234218172,126,-2,-2.399756510747798,-4.489856831427725,-4.114858244283817
1769234218176,126,-2,-2.0493523128886624,-3.899864473484806,-3.778955192410301
1769234218179,127,-1,-1.690972904746281,-3.2412200516806493,-3.4336279609133555
1769234218183,127,-1,-1.3671875059771246,-3.2092078362838325,-3.1223467401483207
1769234218188,127,-1,-1.028018886374186,-3.050190175192019,-2.795865931487471
1769234218192,128,0,-0.5494544799360863,-2.306996667020659,-2.3306850544346673
1769234218196,128,0,0.1416208166066686,-2.0126681462573073,-1.6538644791693005
1769234218200,129,1,0.9423681679036222,-1.1715144379005715,-0.8677593586556375
1769234218203,130,2,1.5722253749406456,-0.2742637621682384,-0.2519677096971198
1769234218207,130,2,1.729160426983141,0.0148743554344077,-0.1076306362770076
1769234218212,130,2,1.302838322423264,-0.4262461068824821,-0.5445594962969271
1769234218216,128,0,0.4744754043961863,-1.8394298542897736,-1.38161340455563
1769234218220,128,0,-0.388204973893441,-2.4206776763474434,-2.252135281886569
1769234218224,127,-1,-0.9661053634838828,-2.951248077452523,-2.838845388213993
1769234218227,127,-1,-1.1797185480039456,-3.39600358025854,-3.0635135472359334
1769234218232,127,-1,-1.2089941322323314,-2.943559845698118,-3.1056321896827823
1769234218236,127,-1,-1.3481987138719074,-3.3859542842090464,-3.257465003613615
1769234218240,126,-2,-1.8091511992397071,-3.8482685144002953,-3.728675332563416
1769234218244,126,-2,-2.601566513244928,-4.541323944277326,-4.52809304167649
1769234218248,124,-4,-3.548870194688611,-5.8445644815763,-5.480051919709033
1769234218251,124,-4,-4.402936576303987,-6.441824071637482,-6.338552033780792
1769234218256,123,-5,-4.970258130269033,-6.966368026002627,-6.912071804055024
1769234218260,123,-5,-5.18155492511065,-7.175064409532274,-7.131803769707996
1769234218264,123,-5,-5.0932469462102485,-7.32660426157873,-7.052833467978203
1769234218268,123,-5,-4.844623281452401,-6.969252417358656,-6.812457537380478
1769234218272,124,-4,-4.593490831968171,-6.413328497523975,-6.567349776942019
1769234218275,123,-5,-4.448006748548045,-6.924033996204686,-6.425949427187169
1769234218280,124,-4,-4.420385633131522,-6.275196985887875,-6.401456414039618
1769234218284,124,-4,-4.432083168917308,-6.200845610963693,-6.415792627818861
1769234218288,123,-5,-4.381815747303213,-7.127446498295123,-6.367410453470835
1769234218292,124,-4,-4.241614097773157,-6.255239744078317,-6.228883842128959
1769234218296,124,-4,-4.100925754468928,-6.062805167946551,-6.092171860493622
1769234218299,124,-4,-4.100054557355195,-6.181428255902401,-6.100041210793245
1769234218304,124,-4,-4.284204829753751,-6.240795248925986,-6.296249798894354
1769234218308,123,-5,-4.467090883692398,-7.168114363784455,-6.488199230097183
1769234218312,124,-4,-4.161490497727753,-6.1695945544588255,-6.181533263710645
1769234218316,126,-2,-2.594572026990612,-4.172573330228833,-4.601324842694712
1769234218320,129,1,1.141001901995626,-1.0628973850852557,-0.8461366682753722
1769234218323,136,8,7.717471123720099,5.668936148045334,5.744593705161438
1769234218328,145,17,17.007259960614928,14.8720907755173,15.032597591546708
1769234218332,155,27,27.57479744479373,24.831295399855016,25.580284721919988
1769234218336,164,36,36.63937388422332,33.76920718841471,34.61632703579533
1769234218340,169,41,40.82355750932845,39.044316431304345,38.77878513912357
1769234218344,167,39,37.57896859350733,36.47244985486893,35.53147650657909
1769234218347,155,27,26.63021479499252,25.065163059125865,24.601295474232295
1769234218352,139,11,10.531165123631164,8.587293211888621,8.534036337829837
1769234218356,121,-7,-6.184392297299498,-9.000285788068991,-8.15036691263331
1769234218360,108,-20,-18.921251748063703,-22.093042813267513,-20.869682023830688
1769234218364,103,-25,-24.960066151586595,-27.418218451927547,-26.91080053189187
1769234218368,104,-24,-24.338583641803417,-25.900862380031413,-26.30801137376456
1769234218371,110,-18,-19.30076331729922,-20.555590816128316,-21.293428198287664
1769234218376,115,-13,-12.83623113023746,-14.77977836073233,-14.842425733228398
1769234218380,121,-7,-7.273837497871219,-9.436697259147545,-9.27539673991162
1769234218384,124,-4,-3.63511962917507,-6.047466757338912,-5.6161808121379
1769234218388,126,-2,-1.8193114286159888,-4.31235961674713,-3.7748162426153113
1769234218392,127,-1,-1.2025122435459563,-3.135221616382013,-3.139028431097435
1769234218395,127,-1,-1.1636692075088173,-3.187145251523379,-3.0930320805198708
1769234218400,127,-1,-1.3049388567664413,-3.060866496827522,-3.235889478830293
1769234218404,127,-1,-1.430615777166748,-3.3891281719944315,-3.3640427855886443
1769234218408,126,-2,-1.4645777889986094,-4.017672901955961,-3.394884717386354
1769234218412,127,-1,-1.4054152370394115,-3.3693921796144948,-3.3260622702787694
1769234218416,127,-1,-1.2982763470133258,-3.014744662652765,-3.2064774982852127
1769234218419,127,-1,-1.1877064266959805,-3.1715374554280222,-3.084617345747235
1769234218424,127,-1,-1.0787285377291391,-3.3594003420858924,-2.966403540149175
1769234218428,127,-1,-0.9466874965082124,-2.97471068524051,-2.8258300664195657
1769234218432,128,0,-0.7787544471388337,-2.490438487991562,-2.6488785555437797
1769234218436,127,-1,-0.5969425422051022,-2.8192893915793857,-2.457364684280049
1769234218440,128,0,-0.4425932715236895,-2.4229193883609565,-2.2927847764105618
1769234218443,128,0,-0.3402239093514965,-2.0841571692697394,-2.1796004768064465
1769234218448,128,0,-0.2700612083791998,-2.2653534147141317,-2.0977419595826268
1769234218452,128,0,-0.1726255859057561,-2.215322955203743,-1.9876494132267608
1769234218456,128,0,0.0147754051925488,-2.0507153167375707,-1.787377646709459
1769234218460,129,1,0.3183240982340531,-1.2474149905753382,-1.471952180488465
1769234218464,129,1,0.7105380618462651,-1.202769647604058,-1.069030812974124
1769234218467,129,1,1.1153417819662126,-1.215272194597293,-0.6532557218253194
1769234218472,130,2,1.4332451422917574,-0.2113428526316458,-0.3226002979116389
1769234218476,130,2,1.595685016550733,-0.0905019125766584,-0.1456253528343161
1769234218480,130,2,1.628536249293389,-0.189601564542269,-0.0975846855380531
1769234218484,130,2,1.663211333814568,-0.2646338100830998,-0.0480067148346914
1769234218488,130,2,1.8613535307908236,-0.1708094754312594,0.1644301856922538
1769234218491,131,3,2.3033598365921666,0.7497608151759836,0.6201802583747622
1769234218496,131,3,2.9315112057168298,0.9674538957065062,1.2619103680062145
1769234218500,132,4,3.592884442373302,1.72222005013407,1.93732708200616
1769234218504,133,5,4.148450651429337,2.8741313911347066,2.5079318912712334
1769234218508,133,5,4.565341327311769,2.613736246886816,2.9410910991457606
1769234218511,133,5,4.9200323203482235,3.0158214504224747,3.313100442859829
1769234218515,134,6,5.312114989744719,3.685854156364882,3.7227026563920527
1769234218520,134,6,5.7655777286383065,3.9915556385279434,4.192639612969603
1769234218524,135,7,6.199176549364961,4.6611931407195115,4.641134652625567
1769234218528,135,7,6.4803236439513086,4.733911124795158,4.936613583055185
1769234218532,135,7,6.5133054839905435,4.985078199900345,4.985335949096043
1769234218535,135,7,6.302050172735596,4.635728869829562,4.792480768683422
1769234218539,134,6,5.957939866821335,4.107396773823909,4.468678571023409
1769234218544,135,7,5.6573523753446056,4.5167756789139055,4.1880852301324945
1769234218548,134,6,5.566834143289587,3.8709837835244656,4.1156310900627195
1769234218552,134,6,5.757258396587292,3.8736428431863184,4.322541348081546
1769234218556,135,7,6.1484507045532775,4.712621368430494,4.730092684337447
1769234218559,135,7,6.538479070848217,5.079310878280839,5.137300773957903
1769234218563,136,8,6.722340586974002,5.5056915408544675,5.339362305012189
1769234218568,135,7,6.620472272736099,4.907378591944082,5.256826949370492
1769234218572,135,7,6.319197260178784,4.811685308727247,4.976071367523445
1769234218576,135,7,6.000437162950329,4.781187726929763,4.678512079606077
1769234218580,134,6,5.8235252768747054,4.0277542618208315,4.522390694039411
1769234218583,135,7,5.843199968778677,4.546106394324026,4.561367730562631
1769234218587,135,7,6.007329044077751,4.889807649318284,4.743148412857664
1769234218592,135,7,6.21446738967529,4.80110192722718,4.9676536524152
1769234218596,135,7,6.373846874367236,4.8031029548534105,5.146209770211657
1769234218600,135,7,6.433972371639635,5.018466367569912,5.228075641459357
1769234218604,136,8,6.392552194144028,5.53394827001082,5.209472178189491
1769234218607,135,7,6.297733341186487,4.943654578041799,5.1364666340155765
1769234218611,135,7,6.216868849215523,4.69569105339145,5.075762065443272
1769234218616,135,7,6.1670705106198005,4.9544622193280015,5.045238057945025
1769234218620,135,7,6.062807414741075,4.8354095020008465,4.960335578952936
1769234218624,135,7,5.742560423098074,4.745015715967191,4.660186138856469
1769234218628,134,6,5.06582638722718,3.738609351899923,4.004642716023466
1769234218631,133,5,4.007918405565631,2.869272056720072,2.9688229583315504
1769234218635,132,4,2.6844414007851283,1.8195620766546372,1.6675841263833404
1769234218640,130,2,1.287904339076551,-0.0801631249343139,0.292879907977126
1769234218644,129,1,-0.0238880272332426,-1.2671552239333612,-0.9974393184677492
1769234218648,128,0,-1.2079786495702622,-2.2950944628967473,-2.1603525964189605
1769234218652,127,-1,-2.3201767851812116,-3.0609457294640765,-3.25186779190657
1769234218655,126,-2,-3.422029451573197,-4.275123479132211,-4.333227559765627
1769234218659,124,-4,-4.505509960895822,-5.973817223468328,-5.395352769384385
1769234218664,124,-4,-5.502611860707789,-6.359931056933492,-6.369729536159096
1769234218668,123,-5,-6.349448335017271,-7.210898104414377,-7.193531906144412
1769234218672,122,-6,-7.029300893391814,-8.129783846283027,-7.8516168579619485
1769234218676,122,-6,-7.564189788717984,-8.21919557640294,-8.366159934660473
1769234218679,121,-7,-7.98227187675505,-9.006749441997066,-8.763723135750782
1769234218683,121,-7,-8.294795546709636,-9.346142558269287,-9.054005132190778
1769234218688,121,-7,-8.487923123925695,-9.19186233622712,-9.223530622402254
1769234218692,121,-7,-8.52177148622646,-9.176447200924155,-9.234294046052735
1769234218696,121,-7,-8.346911187196852,-9.142802523124764,-9.03801107645133
1769234218700,121,-7,-7.952666353275069,-9.09550920002269,-8.623280140446635
1769234218703,122,-6,-7.417063700793472,-8.2436355271768,-8.066847297314421
1769234218707,123,-5,-6.892436101271334,-7.296646343309999,-7.52070931118967
1769234218712,123,-5,-6.5118864373469245,-7.06204186791963,-7.118181814225659
1769234218716,123,-5,-6.296004632952552,-7.253209139418047,-6.87974312508708
1769234218720,123,-5,-6.149340343884749,-6.992479163469393,-6.710064246274898
1769234218724,124,-4,-5.94383900799113,-6.322081101814585,-6.482123718776105
1769234218727,124,-4,-5.611564025375366,-6.257983110578962,-6.12884093374727
1769234218732,124,-4,-5.184345047643285,-6.013842376394667,-5.6813767621694975
1769234218736,125,-3,-4.7667685285805295,-5.3876781153304965,-5.242931643248594
1769234218740,125,-3,-4.457734747748146,-4.7627837114468745,-4.9121107185401875
1769234218744,126,-2,-4.266040374435217,-4.639028786980798,-4.6984970439547435
1769234218748,125,-3,-4.091840582496656,-4.872453894429533,-4.502595013281747
1769234218751,126,-2,-3.806805339403057,-4.406483713165933,-4.195638813979475
1769234218756,126,-2,-3.3678749068506293,-4.014968046389218,-3.734628075222063
1769234218760,127,-1,-2.854486373368186,-3.072268035990871,-3.2000620461915403
1769234218764,128,0,-2.396450389395679,-2.4108469093234244,-2.7223582287719954
1769234218768,127,-1,-2.075002604716229,-2.991419845357196,-2.381652611307236
1769234218772,128,0,-1.8935014925350675,-2.383347780091321,-2.1796377766578923
1769234218775,128,0,-1.8181949666428945,-1.9406909433383428,-2.082356622888473
1769234218780,128,0,-1.817402074635755,-2.2307537879838604,-2.059420487184519
1769234218784,128,0,-1.8606531355125129,-2.165786883745766,-2.0814919093300657
1769234218788,128,0,-1.9042324661264376,-2.2802507637504608,-2.1049442699633096
1769234218792,128,0,-1.897669392230904,-2.0597936879598606,-2.078859080489508
1769234218796,128,0,-1.8111268564409664,-2.2705562988196384,-1.973001470434942
1769234218799,128,0,-1.6585861279777396,-1.910055371877824,-1.8009897237908024
1769234218804,129,1,-1.493690700720849,-1.4356193689429078,-1.6160611049032882
1769234218808,128,0,-1.3761121179328784,-2.051582095531404,-1.4778528897446657
1769234218812,129,1,-1.3292095057923694,-1.2312340941256394,-1.4104863041563969
1769234218816,129,1,-1.3203622987549084,-1.1445590829443677,-1.3822866115193015
1769234218820,128,0,-1.2887182973057856,-2.001588599935181,-1.332322778481004
1769234218823,129,1,-1.2099683242083537,-1.3349354277185683,-1.2352397157225692
1769234218828,129,1,-1.1372219357589102,-1.153834954246947,-1.1435205251032778
1769234218832,129,1,-1.160812440900153,-1.1006755242631092,-1.147896173271056
1769234218836,129,1,-1.31417666094999,-1.3042656260815764,-1.282372417736991
1769234218840,128,0,-1.5219622413510236,-1.7938156375479817,-1.471604006518802
1769234218844,129,1,-1.6490262934427835,-1.5819755153308437,-1.5802003571301928
1769234218847,128,0,-1.6082858280220038,-1.8423233483293933,-1.5211493241713567
1769234218852,129,1,-1.430538848593511,-1.4529867025306744,-1.325656257792822
1769234218856,129,1,-1.2366309002931375,-0.906209638476364,-1.1148202399524465
1769234218860,129,1,-1.139917437905603,-1.2011904446066195,-1.0016689619253474
1769234218864,129,1,-1.1645357445803255,-1.178610032192318,-1.0096309974448563
1769234218868,129,1,-1.2414381089548772,-1.200888628275467,-1.0692204985288107
1769234218871,129,1,-1.2701176727681385,-1.1406872473798324,-1.0800451065816337
1769234218876,129,1,-1.186675519866068,-1.1462335180581655,-0.97867628552061
1769234218880,129,1,-0.9896486820869236,-1.0054698640523352,-0.7644213749488282
1769234218884,130,2,-0.7165845237933977,-0.3236859063725983,-0.475719043577737
1769234218888,130,2,-0.4057417338940808,-0.0758712711822899,-0.1508667211343712
1769234218892,130,2,-0.090421492803174,-0.2410012788924243,0.178291161337238
1769234218895,130,2,0.1701706214873358,-0.0435746238272609,0.4541504610959657
1769234218900,131,3,0.2844987081345875,0.901236177408177,0.5849740388382858
1769234218904,131,3,0.1936435494777031,0.7877883007765254,0.5102729129627197
1769234218908,130,2,-0.0480710118732934,-0.1947845240624359,0.283629174822589
1769234218912,130,2,-0.2817969085399074,-0.0847866121068514,0.0644775792987473
1769234218916,130,2,-0.3553353042635364,-0.2278546600742412,0.0053256447335785
1769234218919,130,2,-0.233224394169456,0.1225356511351123,0.141003689019979
1769234218924,131,3,-0.0085545767143512,0.5794670427484809,0.3781691418449249
1769234218928,130,2,0.1785292976031721,0.012036426009387,0.5776177001293781
1769234218932,131,3,0.2416037636359916,0.7476022801945976,0.6538962649143909
1769234218936,131,3,0.2032834716341402,0.8886635498172146,0.6294072394461612
1769234218940,130,2,0.178175550218223,0.0782794112636857,0.6178325231996173
1769234218943,131,3,0.2955458440716341,0.579587597585435,0.7478066842728
1769234218948,131,3,0.6183179263376858,1.0999305169907458,1.082153026111664
1769234218952,132,4,1.1247730047275004,1.5894171628280396,1.5995553745539022
1769234218956,132,4,1.7604584383045774,2.120727375792366,2.246400481615702
1769234218960,133,5,2.50129981779206,2.8065848622085845,2.9991541631692105
1769234218964,134,6,3.369104830057996,3.897963787609287,3.879051688256858
1769234218967,135,7,4.389766137275443,4.7924655549338775,4.910798057440875
1769234218972,136,8,5.525688239651784,5.886405991363811,6.05637099875273
1769234218976,137,9,6.632435469500741,6.860180740069275,7.1720274350253295
1769234218980,138,10,7.486397193363507,8.045081922584139,8.034964246641527
1769234218984,139,11,7.887617769988417,8.708057162256544,8.445409518686308
1769234218988,138,10,7.772270570065177,7.973382471399733,8.339434204974703
1769234218991,138,10,7.244604529122483,7.722289944137202,7.821297756736579
1769234218996,137,9,6.502497897493621,7.027174324558566,7.088765539196979
1769234219000,136,8,5.72192563736897,5.889596286763345,6.317359724271486
1769234219004,136,8,4.989146442577443,5.885513939814338,5.592899170925018
1769234219008,135,7,4.311917883104038,4.838557947133257,4.923132254931142
1769234219011,134,6,3.67020338104744,3.815086854262495,4.288245541322833
1769234219015,134,6,3.0494691167516854,4.001963144118288,3.673737817247588
1769234219020,133,5,2.4355841215296348,2.8639226237166873,3.0655751196635954
1769234219024,132,4,1.7915871139256627,1.9743272028859549,2.427410827928041
1769234219028,132,4,1.0560264305052658,1.7752440188526228,1.6984018406524193
1769234219032,131,3,0.1908719134457555,0.8339384990988241,0.84027293347955
1769234219035,130,2,-0.7468132251920894,0.0648488343629483,-0.0907029369302805
1769234219039,129,1,-1.5877970431049158,-1.2701611227992362,-0.925701295349298
1769234219044,128,0,-2.136400244962008,-1.7970138338899764,-1.469032978121665
1769234219048,129,1,-2.3049697097271604,-1.4708626602758716,-1.6332216608355845
1769234219052,128,0,-2.1839451470425586,-1.9094006573590296,-1.5090204584139304
1769234219056,129,1,-1.9864577902721052,-1.1519570548601468,-1.309301472892521
1769234219059,129,1,-1.9117296541906903,-1.093484159419375,-1.232182435781081
1769234219063,128,0,-2.031082834840089,-1.8901594976946683,-1.347755653745592
1769234219068,129,1,-2.2721070601247892,-1.4313219076927597,-1.5833370238325477
1769234219072,128,0,-2.496711535970994,-1.868412724631942,-1.8018315945752477
1769234219076,128,0,-2.6094357767957717,-2.250570990705871,-1.9094644548324953
1769234219080,128,0,-2.6252046144957215,-1.915165234666374,-1.9230328976452935
1769234219083,128,0,-2.649984987435692,-2.0914283679383607,-1.9501859644625408
1769234219087,128,0,-2.768554198407837,-2.1916111990108713,-2.0757610730502547
1769234219092,128,0,-2.8861067537317364,-2.1020586085160273,-2.201196530488322
1769234219096,128,0,-2.6074343373093547,-2.012574417908987,-1.9238507339643371
1769234219100,129,1,-1.2294164302676167,-1.1269588490105638,-0.5345395183913291
1769234219104,133,5,2.1174328836968708,3.1412102036628102,2.833933972436961
1769234219107,140,12,8.165317964213305,9.60872092217908,8.901727968037553
1769234219111,147,19,17.04124042126317,17.104257614590598,17.781630272933658
1769234219116,158,30,27.73755386229456,27.825110991444863,28.46035369087955
1769234219120,168,40,37.84749421114507,38.003631284400136,38.53887807173207
1769234219124,174,46,43.99920725209956,44.06576776631645,44.66176182847782
1769234219128,175,47,43.130435946763455,44.628621886266785,43.78155296189421
1769234219131,166,38,34.120730259737364,36.13560170926816,34.78275949393605
1769234219135,150,22,18.804408695759573,19.711421260467414,19.493396325985557
1769234219140,131,3,1.5376724142521052,1.1753190224518644,2.2561570090155447
1769234219144,117,-11,-12.647558717720976,-13.10384290508896,-11.91177784668762
1769234219148,110,-18,-20.291121153615837,-20.101172939734667,-19.55973923730335
1769234219152,110,-18,-20.839955027515764,-20.0481722317176,-20.133523743157145
1769234219155,115,-13,-16.386250256032906,-15.06985705675344,-15.71330119369619
1769234219159,121,-7,-10.16434444844725,-9.055652019512456,-9.517392858070924
1769234219164,126,-2,-4.845576049363814,-3.90197920911083,-4.206664874129303
1769234219168,129,1,-1.597515621171897,-1.3349382238418197,-0.949093462269023
1769234219172,129,1,-0.2132067614534762,-0.7530834443364722,0.4524325377391187
1769234219176,131,3,0.1099347032499249,0.6197869409288679,0.7873995754418002
1769234219179,131,3,0.0471090676296892,1.3154917889821078,0.7224305400382018
1769234219183,131,3,-0.1020765052952588,0.6939113398040331,0.5583688287173207
1769234219188,130,2,-0.274352333395091,0.1161056636662083,0.3678821886058503
1769234219192,130,2,-0.4458165732731776,-0.1676702871237889,0.1842774501819908
1769234219196,130,2,-0.5707745198710477,0.0182597842287022,0.0553846291240081
1769234219200,130,2,-0.6183474078854054,0.0025462488928453,0.0072034366266
1769234219203,130,2,-0.6002087908269647,-0.0725802515781197,0.0222814178011634
1769234219207,130,2,-0.5551252677324912,0.0012973389374386,0.0601154852980632
1769234219212,130,2,-0.51994004422053,-0.1143285479015581,0.085964445762263
1769234219216,130,2,-0.5133287358524972,0.0432114353307233,0.0837784148456504
1769234219220,130,2,-0.5316016492077926,-0.0251616832620347,0.0580533348303451
1769234219224,130,2,-0.5494665798627079,-0.0540113374538182,0.0333296722966893
1769234219227,130,2,-0.5288467469538438,0.0678219741299503,0.0468176837511484
1769234219232,130,2,-0.4391520925562655,-0.2449718081998662,0.1287628026623266
1769234219236,130,2,-0.2771624590953458,0.2886402359816671,0.282201246935986
1769234219240,131,3,-0.0684481995628873,0.6696777523514568,0.4814321873160798
1769234219244,130,2,0.1487094526272716,0.3119141167561248,0.6885662228189537
1769234219248,131,3,0.3387825326737514,0.7232835724238311,0.8689452751297009
1769234219251,131,3,0.4782932936639501,1.0806745493183183,0.99961989130494
1769234219256,131,3,0.5680948539163959,1.058097410376024,1.0811192959884337
1769234219260,131,3,0.6440600427666641,0.8286003789983303,1.1483934387841377
1769234219264,131,3,0.7676954966874612,1.2615297374104713,1.262058438216166
1769234219268,132,4,0.9917614633409948,1.7259771650792306,1.4748295902877078
1769234219272,131,3,1.3178282318951562,1.1355856768313322,1.7893736228932573
1769234219275,132,4,1.6775017966630377,2.034794690689187,2.138435361354414
1769234219280,133,5,1.96867668858015,2.826753966923398,2.419752407429731
1769234219284,132,4,2.1350573570768603,2.353245730791818,2.5759779067327484
1769234219288,133,5,2.215915213190006,2.5706077158265677,2.6458584269477288
1769234219292,132,4,2.305432694955951,2.403126585076866,2.7238172677779704
1769234219296,133,5,2.4572721804437574,2.706211126295976,2.8637168851096058
1769234219299,133,5,2.6330348415207516,3.24019793106397,3.027219890837611
1769234219304,133,5,2.7447084912952864,2.936211146946329,3.1268267833861008
1769234219308,133,5,2.745488009750487,3.001800232563888,3.1164049907193756
1769234219312,133,5,2.685819434229334,3.0330999161108374,3.0461057524260777
1769234219316,133,5,2.6891776092388637,3.0307813677043205,3.0380926349790554
1769234219320,133,5,2.8612931195683773,3.0101505394912142,3.1972418423256874
1769234219323,133,5,3.192763679414782,3.1399991456604095,3.514706071886063
1769234219328,134,6,3.5350381885397946,3.854381965380633,3.8430938615051566
1769234219332,134,6,3.691505353462376,4.191973411938919,3.986435759514379
1769234219336,134,6,3.5667587889839956,3.879878214220609,3.849426595644825
1769234219340,133,5,3.2467878702805555,3.206823623254084,3.5178912908377167
1769234219344,133,5,2.9344530873630337,2.946702185758596,3.1939278784856264
1769234219347,133,5,2.7966102304374303,3.08393776636972,3.043119235956695
1769234219352,133,5,2.8511171330756104,2.9895308165864662,3.08285075894858
1769234219356,133,5,2.972050922093529,3.094209570273264,3.188415609227567
1769234219360,133,5,2.9940532398713366,3.0471050375358395,3.1961325153782174
1769234219364,133,5,2.8387263140904166,3.085137977052167,3.02785399577601
1769234219368,133,5,2.5787855570310416,3.0124815199474906,2.7552227561585605
1769234219371,132,4,2.3878036300495604,2.0448423714489157,2.5510727254508607
1769234219376,132,4,2.40277121452916,2.099273802545617,2.552468993260101
1769234219380,133,5,2.6134273451110155,3.0512707174540132,2.749058824953238
1769234219384,133,5,2.881955369447674,3.108816657097144,3.0026438989605766
1769234219388,133,5,3.0686505524055536,3.019161442094242,3.1738861164111625
1769234219392,133,5,3.1350321152916134,3.0607280758711313,3.225455957037377
1769234219395,133,5,3.13653739015189,3.0961424079035513,3.213354774456027
1769234219400,133,5,3.1369867021071,3.09947148459879,3.2006385976492098
1769234219404,133,5,3.1373216094267944,3.0559349227830457,3.187041097789605
1769234219408,133,5,3.074939343400147,3.153877331007497,3.109590646052631
1769234219412,133,5,2.878060368730716,2.8866073769745286,2.8972542776158368
1769234219416,132,4,2.517785748476478,2.3610277755941027,2.5221048614967323
1769234219419,132,4,2.015117821727139,1.787190626522709,2.0052468158106964
1769234219424,131,3,1.408275895715845,1.4582845438485208,1.384124916132932
1769234219428,131,3,0.7150840878436426,0.7478276851910826,0.6760638435835862
1769234219432,129,1,-0.0832673286343679,-0.6718794626098252,-0.137349127371986
1769234219436,129,1,-1.0270566392894107,-1.0407699000696249,-1.0959492953991572
1769234219440,128,0,-2.134140645937456,-1.8297247301001205,-2.2178259121403805
1769234219443,126,-2,-3.35852036058966,-3.8385092700504906,-3.457225208932927
1769234219448,125,-3,-4.598185279699382,-4.978581874612931,-4.711805745713199
1769234219452,124,-4,-5.7530440936297325,-5.86320897470875,-5.8812118868694645
1769234219456,123,-5,-6.773618335232738,-6.87942148877092,-6.916289208183287
1769234219460,122,-6,-7.654977665678395,-7.924188814148403,-7.812467991852598
1769234219464,121,-7,-8.396306939580713,-8.730469289798087,-8.568835079509954
1769234219467,121,-7,-8.97540893452259,-9.049743665285344,-9.162935505301446
1769234219472,120,-8,-9.361198255533306,-9.758708611178353,-9.563616880455765
1769234219476,120,-8,-9.549723160532212,-9.981450722750727,-9.767000926687006
1769234219480,120,-8,-9.5886800227638,-9.769119480199532,-9.8208796552637
1769234219484,120,-8,-9.562055243959652,-9.870030450399394,-9.809282265605828
1769234219488,120,-8,-9.541173506620634,-9.865325600980492,-9.803429410526409
1769234219491,120,-8,-9.5412463967501,-9.921346308089062,-9.818319182666338
1769234219496,120,-8,-9.518632112207658,-9.80809413831386,-9.810153702833205
1769234219500,120,-8,-9.4094753173583,-9.891804599000976,-9.715118386877062
1769234219504,120,-8,-9.178158136238183,-9.738695721278493,-9.497901825712423
1769234219508,121,-7,-8.838715402559163,-8.924775358481869,-9.17294971582957
1769234219511,121,-7,-8.439491180763275,-8.877980746947381,-8.788715833160175
1769234219515,121,-7,-8.035257235137557,-8.786584544473449,-8.399702029736389
1769234219520,122,-6,-7.671875458640884,-7.927220950266326,-8.051491312975207
1769234219524,122,-6,-7.3828161369120195,-7.625891917196824,-7.777298149312124
1769234219528,122,-6,-7.187121581115429,-8.03715573349335,-7.595727572677089
1769234219532,122,-6,-7.084699238012179,-7.709852874703244,-7.506575616957464
1769234219535,123,-5,-7.045390025540957,-6.953650156541381,-7.480439706874321
1769234219539,122,-6,-7.000865690827353,-7.71606201627354,-7.449874366729821
1769234219544,122,-6,-6.868198157227972,-7.813260974967468,-7.331929949017255
1769234219548,123,-5,-6.6082040615214925,-6.783951554220685,-7.086754924906217
1769234219552,123,-5,-6.267224900174078,-6.981402025564521,-6.7602206928323545
1769234219556,123,-5,-5.952717952814854,-6.60238459669775,-6.459733165068012
1769234219559,124,-4,-5.755985328561517,-6.090992652494015,-6.276744206680793
1769234219563,123,-5,-5.68440040697333,-6.351405982313769,-6.218704877660976
1769234219568,124,-4,-5.659469073125917,-6.250332611714524,-6.2069419017003895
1769234219572,123,-5,-5.585039591087417,-6.4619880477179565,-6.145205152047092
1769234219576,124,-4,-5.4273876946258355,-6.105721682708519,-6.000370966391254
1769234219580,124,-4,-5.234965130501582,-5.560788351110376,-5.8218720015289325
1769234219583,124,-4,-5.086162465595988,-5.807904972431496,-5.688086493923553
1769234219587,124,-4,-5.025002249625018,-5.815938275811861,-5.641482652349493
1769234219592,124,-4,-5.04264224886822,-5.797027055801059,-5.671640843962835
1769234219596,124,-4,-5.098429603820268,-5.829864981385357,-5.738261213236997
1769234219600,124,-4,-5.138389562995814,-5.720204649227805,-5.789473911489583
1769234219604,124,-4,-5.100582924994173,-5.663789496818824,-5.764860788512793
1769234219607,124,-4,-4.935940784928967,-5.88434784702509,-5.614589715073478
1769234219611,124,-4,-4.652425490147239,-5.727354190037702,-5.344677559205606
1769234219616,125,-3,-4.333909357504891,-4.866170255077683,-5.0383046476544155
1769234219620,125,-3,-4.085672645797247,-4.6453268614856675,-4.801790846569055
1769234219624,125,-3,-3.9415489793805434,-4.691030597655309,-4.669853021211293
1769234219628,125,-3,-3.8298167573699726,-4.819771244800278,-4.570259824071341
1769234219631,125,-3,-3.6397872065766417,-4.778295191774953,-4.391556757860348
1769234219635,126,-2,-3.319901074376533,-3.7888166122006206,-4.08259980312248
1769234219640,126,-2,-2.911507455567191,-3.6687720489459137,-3.6858034307376912
1769234219644,126,-2,-2.503264030638084,-3.630725653717064,-3.2900959313252307
1769234219648,127,-1,-2.16629700192388,-2.819292566072985,-2.965859760921865
1769234219652,127,-1,-1.9239079915407664,-2.8003119599297372,-2.7354498710831976
1769234219655,127,-1,-1.762890800184964,-2.710129706384264,-2.5851174283871248
1769234219659,127,-1,-1.6618235321650436,-2.7186842164913907,-2.4937034324462566
1769234219664,127,-1,-1.603103120286883,-2.515768633746968,-2.4447984657014032
1769234219668,128,0,-1.556944325112385,-1.901962967818092,-2.409683764995014
1769234219672,127,-1,-1.4706622699387486,-2.7040905147886303,-2.3351539037427704
1769234219676,127,-1,-1.3021099363666262,-2.7796837466995417,-2.1775277402582884
1769234219679,128,0,-1.0701509369598154,-1.5984178156658535,-1.955362469922211
1769234219683,128,0,-0.8509221497760904,-1.5795736552532509,-1.746103354679743
1769234219688,128,0,-0.7121830356479171,-1.809314307592341,-1.6182338399525935
1769234219692,128,0,-0.6618925934291395,-1.7571534192532428,-1.5786444624185425
1769234219696,128,0,-0.6632783010174075,-1.7394297699430086,-1.5893331107029356
1769234219700,128,0,-0.6802916433942565,-1.558370232758797,-1.6146652363260992
1769234219703,128,0,-0.6950003069532911,-1.582550864397969,-1.638163186283449
1769234219707,128,0,-0.6948836918687422,-1.7496583262125769,-1.6479269778908048
1769234219712,128,0,-0.6682007239299788,-1.802982878669752,-1.631452862239257
1769234219716,128,0,-0.6202681685858651,-1.6826352370407105,-1.5930883824468371
1769234219720,128,0,-0.5819406989851137,-1.555364075061351,-1.5635869955322066
1769234219724,128,0,-0.5863441490012509,-1.535289831978179,-1.5765519863237096
1769234219727,128,0,-0.6319764026590686,-1.7318460124307706,-1.6306655513272088
1769234219732,128,0,-0.6709960265005304,-1.8336504766376855,-1.677841929590591
1769234219736,128,0,-0.6361361376004488,-1.6027688046430506,-1.6507124827385546
1769234219740,128,0,-0.4834636242210508,-1.6187110530221631,-1.505694668907449
1769234219744,128,0,-0.2198647181837341,-1.3759359940555638,-1.2501573836050095
1769234219748,129,1,0.0986078577172597,-0.8558606656066963,-0.9402480428166324
1769234219751,129,1,0.3905534268825512,-0.7080852869609111,-0.6568739283285532
1769234219756,129,1,0.5783774058942148,-0.6738068571522235,-0.4769689371145398
1769234219760,129,1,0.6125746248033974,-0.5596145634263385,-0.4499108515357997
1769234219764,129,1,0.491006176172005,-0.2910045790249207,-0.578248897014932
1769234219768,129,1,0.2662113685254308,-0.9689910516741912,-0.8096576215270308
1769234219772,128,0,0.0263992533516157,-1.518353191101264,-1.0558047983732746
1769234219775,129,1,-0.1422762627105243,-0.8810377545922516,-1.2307748546153012
1769234219780,128,0,-0.1812242028995085,-1.297528483066242,-1.2765814729045994
1769234219784,128,0,-0.0607391120377605,-1.4563190802025834,-1.163515437165861
1769234219788,129,1,0.2253516214085451,-0.7978711974775203,-0.884519258090934
1769234219792,129,1,0.6628481168308464,-0.6171312730894163,-0.4530049468018347
1769234219796,130,2,1.2287083331131732,0.1643442933232834,0.107855024180939
1769234219799,130,2,1.909712307325982,0.7866942227081806,0.7840606382621842
1769234219804,131,3,2.705190555162618,1.4579368705854607,1.5742776939249423
1769234219808,132,4,3.5991322287079868,2.400750424644494,2.4623255329788156
1769234219812,133,5,4.521844605328763,3.1538642534853683,3.378756968666935
1769234219816,134,6,5.341918539141327,4.425899119798984,4.192708274056342
1769234219820,134,6,5.9081771029442915,4.598521862005291,4.7536626001276545
1769234219823,134,6,6.119420668915084,4.670500174741982,4.9606582015368685
1769234219828,135,7,5.977476486081374,5.304773677334641,4.815020716304469
1769234219832,134,6,5.585636589672434,4.186739156074324,4.419383878921702
1769234219836,133,5,5.083132178597964,3.4789818229474503,3.912798185315805
1769234219840,133,5,4.556092893479575,3.5595144524789135,3.381401203977294
1769234219844,132,4,3.997938392773103,2.8065296473065873,2.818505855063692
1769234219847,132,4,3.3514592598439323,2.2148498602435858,2.167218026270876
1769234219852,131,3,2.5846356269901594,1.2907124468609117,1.3964566741327726
1769234219856,130,2,1.7290120426092686,0.3946326355275174,0.5382473609539089
1769234219860,129,1,0.8602756185574181,-0.3047605957364341,-0.3326658140853948
1769234219864,128,0,0.0523682382829748,-1.243699584759503,-1.1438044342980636
1769234219868,128,0,-0.6603935071230325,-1.6944925060663052,-1.8608539679582496
1769234219871,127,-1,-1.2998937587592914,-2.758879304017414,-2.5039635262538047
1769234219876,126,-2,-1.9303958698110957,-3.568975131223071,-3.136288369022171
1769234219880,126,-2,-2.603415594401862,-3.2585253899734656,-3.810731287635873
1769234219884,125,-3,-3.2878979825289782,-4.229174036847953,-4.498264030453647
1769234219888,124,-4,-3.863723850271303,-5.647439710623719,-5.078164434843318
1769234219892,124,-4,-4.217329703536869,-5.781830532922575,-5.434138010403682
1769234219895,124,-4,-4.348556888601356,-5.543465157524523,-5.565164963239401
1769234219900,124,-4,-4.354371762040579,-5.223300989062212,-5.570764319629858
1769234219904,124,-4,-4.298236680041726,-5.160097296312728,-5.516816625121688
1769234219908,124,-4,-4.133919244237412,-5.692955485905134,-5.355634192324221
1769234219912,124,-4,-3.802679459106895,-5.6833868006887815,-5.024889124469224
1769234219916,125,-3,-3.400623642132812,-4.6853044431808755,-4.62050375939554
1769234219919,125,-3,-3.193617135573443,-3.9626870446834297,-4.413481139459158
1769234219924,125,-3,-3.4052091798505635,-4.372668261151162,-4.6325485985039
1769234219928,124,-4,-3.94998639587115,-5.380406399639485,-5.190340973471463
1769234219932,124,-4,-4.336927172754462,-6.032775060908612,-5.585924850852077
1769234219936,124,-4,-3.7826962674709663,-5.312633904352911,-5.025584064642391
1769234219940,127,-1,-1.4054877939595332,-2.2581493192907693,-2.6263145144607587
1769234219943,132,4,3.5744979088600504,3.020490997491277,2.380207274232191
1769234219948,140,12,11.528253817078474,10.343071619569384,10.346966274937715
1769234219952,150,22,21.913924953208127,20.16791385549982,20.719636505639873
1769234219956,160,32,32.789425273630854,30.577420447375157,31.559159623984225
1769234219960,168,40,40.877201280552875,38.80282340085768,39.60720247320652
1769234219964,171,43,42.61357436150176,42.1652349149527,41.32522396547551
1769234219967,166,38,35.95484652884689,36.15986065730505,34.684584478476815
1769234219972,151,23,21.9261298789802,21.33525310673456,20.70340541861008
1769234219976,133,5,4.708812204300236,3.4291143194924967,3.5355663372272517
1769234219980,117,-11,-10.173627191378916,-12.089545590466722,-11.326064591317843
1769234219984,107,-21,-18.714404140538385,-21.582164941180174,-19.886319170003336
1769234219988,106,-22,-20.553829405840823,-24.17485143703629,-21.77043109133935
1769234219991,110,-18,-18.828950274672337,-19.067009049454683,-20.08686348190537
1769234219996,116,-12,-17.636035469999552,-14.39338547884647,-18.90891672396199
1769234220000,122,-6,-2.406137851902488,-4.749686905178806,-2.9050819043596547
1769234220004,124,-4,-1.8460692704952784,-2.544955832185773,-2.345855191529759
1769234220008,127,-1,-0.5427591796704649,0.2605241724369849,-1.0458223565999945
1769234220011,127,-1,0.6809247388215236,0.41808335711327,0.1716661682773724
1769234220015,127,-1,1.1846805415154773,0.4120274086004512,0.6700835696617231
1769234220020,127,-1,0.9071117591965112,0.3373341708915841,0.3928095925247986
1769234220024,126,-2,0.2732989983509766,-0.6154578129058357,-0.2352176267540781
1769234220028,126,-2,-0.1980665249939863,-0.6828262382319342,-0.7006390915184433
1769234220032,126,-2,-0.2370423129745931,-0.630402471883766,-0.7385878993113001
1769234220035,126,-2,0.0921740672195905,-0.5435622111733247,-0.413708663146635
1769234220039,127,-1,0.5373929214344235,0.3021231140190014,0.0252298369352131
1769234220044,127,-1,0.8719411182944483,0.4144664159336157,0.3551946153919787
1769234220048,127,-1,1.0162944095964213,0.2701686150027674,0.4980567171772262
1769234220052,127,-1,1.0161907026076842,0.4284711297727933,0.498739386853024
1769234220056,127,-1,0.946600697532188,0.3778418605738274,0.4304966440891795
1769234220059,127,-1,0.8512544617056246,0.4003113762935201,0.3355919011633429
1769234220063,127,-1,0.7627576436539796,0.3130930023109664,0.2459019418149245
1769234220068,127,-1,0.7521764890680034,0.354175342912547,0.2326024075087285
1769234220072,127,-1,0.9248385326224502,0.3616441924121903,0.4019170381647017
1769234220076,127,-1,1.3399785702615183,0.4132174864741076,0.8142342225683865
1769234220080,128,0,1.927026950342783,1.4016830613156777,1.39943782992842
1769234220083,129,1,2.4983417636567915,2.2888092484075013,1.9693316127247091
1769234220087,129,1,2.8710583057140333,2.384754721490413,2.340317208293033
1769234220092,129,1,2.995074070148714,2.3282456349626166,2.4621597964143747
1769234220096,129,1,2.972289774517679,2.4149180113751303,2.437061454278624
1769234220100,129,1,2.955677592177247,2.444479698807739,2.4182919353090395
1769234220104,129,1,3.021781920610506,2.1934283926641136,2.482500274314121
1769234220107,129,1,3.125923580594203,2.5487322146847053,2.5846618038105307
1769234220111,130,2,3.175494076702672,3.091745044296993,2.631475426270539
1769234220116,129,1,3.148503383549156,2.696538449398852,2.600903968741267
1769234220120,129,1,3.134125331185338,2.1347471296768337,2.583226288279377
1769234220124,129,1,3.249672887535535,2.49832837300548,2.6967041569220496
1769234220128,130,2,3.52504387839835,3.2880235547112013,2.970590293027983
1769234220131,130,2,3.877889921675292,3.272047687575847,3.321004196232652
1769234220135,130,2,4.194305053266797,3.6165902988205585,3.63352562895692
1769234220140,131,3,4.421182841413904,4.1014463922474675,3.8561185536589577
1769234220144,130,2,4.583115823376915,3.628223292374108,4.014755064004083
1769234220148,131,3,4.725976422911069,4.071133392875227,4.15547055430053
1769234220152,131,3,4.859017071527355,4.553740042260068,4.286349274755169
1769234220155,131,3,4.953865903932596,4.297164824298322,4.377938442712745
1769234220159,131,3,4.987416028858613,4.429400041577687,4.407382490475222
1769234220164,131,3,4.9727095806577655,4.313441253301161,4.388855601990252
1769234220168,131,3,4.948733492875193,4.330162424800465,4.361920584629979
1769234220172,131,3,4.948171912813407,4.3740327827883965,4.358696826889727
1769234220176,131,3,4.975128838260538,4.385009100724252,4.382366421109904
1769234220179,131,3,5.004739597940372,4.443540913034091,4.4078090750137005
1769234220183,131,3,4.9976157774651355,4.191484024272941,4.396192107090835
1769234220188,131,3,4.92009533570641,4.529872648528621,4.314594993353182
1769234220192,131,3,4.764237711074726,4.120297827482915,4.155401816089936
1769234220196,130,2,4.559182076488172,3.66127099915435,3.947470867394329
1769234220200,131,3,4.36571616079417,4.185477359353561,3.750933698368422
1769234220203,130,2,4.252922548068004,3.3900513126215257,3.6343825547914994
1769234220207,130,2,4.264683422848686,3.3965433545490615,3.6417555463310194
1769234220212,131,3,4.39439562233016,4.1805205989772825,3.766916795208417
1769234220216,130,2,4.588249236381422,3.6787718229839426,3.9565582711037415
1769234220220,131,3,4.777725848816415,4.097534867820337,4.142328038823522
1769234220224,131,3,4.918516120256838,4.530822828915457,4.279540028355255
1769234220227,131,3,5.008782240942347,4.2005677245487,4.365803758511315
1769234220232,131,3,5.072251972327777,4.403131565935818,4.42484933202106
1769234220236,131,3,5.11644998021983,4.464909464252206,4.4648317937997195
1769234220240,131,3,5.102711141407112,4.279590730617429,4.44746919424882
1769234220244,131,3,4.9620158247620285,4.384587904503681,4.303192300673528
1769234220248,131,3,4.647342080090788,4.300360310985499,3.984148145342256
1769234220251,130,2,4.167435970006363,3.329052422866856,3.4992515110548137
1769234220256,129,1,3.558107188693353,2.5362279197512327,2.8853972519317272
1769234220260,129,1,2.8207337800929775,2.19694782989048,2.1443780277695823
1769234220264,128,0,1.9068616472160151,1.4714532707654144,1.2268126596305489
1769234220268,127,-1,0.7759712954139792,0.2070897136118845,0.0912838720899451
1769234220272,125,-3,-0.5378287978548006,-1.5813674403667628,-1.2276863958767483
1769234220275,124,-4,-1.9225804699313611,-2.5392021992443095,-2.6170241290442373
1769234220280,123,-5,-3.2447629809910614,-3.755778396477615,-3.942726088247621
1769234220284,121,-7,-4.4062516339110775,-5.553883236184108,-5.107225214880928
1769234220288,121,-7,-5.359327509801566,-5.791307374950668,-6.063873477352703
1769234220292,120,-8,-6.085054368767096,-6.546569614440225,-6.794383068170291
1769234220296,119,-9,-6.574643589719104,-7.62366718396577,-7.289474402324351
1769234220299,119,-9,-6.844548575427414,-7.619318214245844,-7.564459705323092
1769234220304,119,-9,-6.963593760559104,-7.760705750764619,-7.687742997510368
1769234220308,119,-9,-7.039051483941485,-7.519015089010288,-7.7672478874310436
1769234220312,119,-9,-7.152967667090454,-7.867941770433735,-7.885569732557617
1769234220316,118,-10,-7.305957084871308,-8.269170406564367,-8.042921452202961
1769234220320,119,-9,-7.423392961898021,-8.005024798660457,-8.164017515469219
1769234220323,118,-10,-7.415274149911623,-8.376642388698532,-8.159028746058167
1769234220328,119,-9,-7.23682773236717,-7.889263649906777,-7.984131630728288
1769234220332,119,-9,-6.911160291518146,-7.508352838250393,-7.663136522698751
1769234220336,119,-9,-6.514717007206236,-7.602622405797745,-7.272266117065249
1769234220340,120,-8,-6.145661351857843,-6.728583648895936,-6.908822066252515
1769234220344,120,-8,-5.889195020017454,-6.600351912883779,-6.65715406330239
1769234220347,120,-8,-5.7872270587428645,-6.737901662423957,-6.55876474301615
1769234220352,120,-8,-5.82097881884183,-6.564519012956878,-6.595231908233963
1769234220356,120,-8,-5.912594063067388,-6.640309349610789,-6.689768510291849
1769234220360,120,-8,-5.948898618660268,-6.620704102752006,-6.7300812361058515
1769234220364,120,-8,-5.829926261712622,-6.78599700864955,-6.6159404121002625
1769234220368,120,-8,-5.527441123164836,-6.483390998183432,-6.3181189684395935
1769234220371,121,-7,-5.1095010355183135,-5.866244991400547,-5.904328401494683
1769234220376,121,-7,-4.696226187700764,-5.294131054188164,-5.495275744919182
1769234220380,122,-6,-4.376092596846824,-5.01926572132383,-5.1797074370200775
1769234220384,121,-7,-4.160152935393974,-5.365455147851979,-4.967938199728802
1769234220388,122,-6,-4.011423456690098,-4.9179265342128655,-4.822383167972791
1769234220392,122,-6,-3.90177695460853,-4.428917078873295,-4.715596660821346
1769234220395,122,-6,-3.8301195332065223,-4.707334401767471,-4.647626212707366
1769234220400,122,-6,-3.799253955780532,-4.6588792790371185,-4.621312702768498
1769234220404,122,-6,-3.7969438392093617,-4.669722661238626,-4.6233959135356155
1769234220408,122,-6,-3.8035995792830386,-4.694763026947007,-4.633629592587465
1769234220412,122,-6,-3.807519293473987,-4.564236754441526,-4.640760120828941
1769234220416,122,-6,-3.806799211834142,-4.640553059091419,-4.643673358530799
1769234220419,122,-6,-3.802054313069552,-4.679323788595454,-4.643045382080136
1769234220424,122,-6,-3.794224752736549,-4.691730214092802,-4.639118298033251
1769234220428,122,-6,-3.787959249243223,-4.664288463477881,-4.636004108968114
1769234220432,122,-6,-3.7892606229042913,-4.58626280292022,-4.640020025732506
1769234220436,122,-6,-3.795553805511171,-4.621920360504549,-4.649431309845307
1769234220440,122,-6,-3.7928102677219577,-4.696591317112212,-4.65066180397359
1769234220443,122,-6,-3.770759386475736,-4.693355855313319,-4.633010045347619
1769234220448,122,-6,-3.742952810318019,-4.66068036242637,-4.609105287053211
1769234220452,122,-6,-3.743783764997995,-4.589358839113809,-4.6127815082485775
1769234220456,122,-6,-3.793170825063695,-4.603567275485071,-4.66428633487893
1769234220460,122,-6,-3.85706414740332,-4.735378942807168,-4.7304937376753315
1769234220464,122,-6,-3.848749495282842,-4.653094209270665,-4.725309322683601
1769234220467,122,-6,-3.6880009115113737,-4.718010031121044,-4.568216357627845
1769234220472,122,-6,-3.379195962515009,-4.51549324860448,-4.26283891583736
1769234220476,123,-5,-3.0363151255665652,-3.675423157246791,-3.9229543907207978
1769234220480,123,-5,-2.817087325429641,-3.664754184039269,-3.7068526272802456
1769234220484,123,-5,-2.812328589729711,-3.746103875531346,-3.7056966332981034
1769234220488,123,-5,-2.9866388398855075,-3.6188093064873224,-3.883335412896608
1769234220491,122,-6,-3.222783483551917,-4.625618764297068,-4.121361818438244
1769234220496,122,-6,-3.4212887175176196,-4.549691333440387,-4.320510081185853
1769234220500,123,-5,-3.553529356525963,-3.7921340359188487,-4.454166406203557
1769234220504,122,-6,-3.6275022702875894,-4.632683054000443,-4.531887366724205
1769234220508,122,-6,-3.633846126681593,-4.7367415265841375,-4.543182212729407
1769234220511,122,-6,-3.5529399223942195,-4.49567298186529,-4.465742488628533
1769234220515,122,-6,-3.4038649859126604,-4.701689982955415,-4.317686027055773
1769234220520,123,-5,-3.249065242321776,-3.6189577888627062,-4.163301632962162
1769234220524,123,-5,-3.1321311007229684,-3.8103178826445654,-4.0483565963809856
1769234220528,122,-6,-3.0282610440125217,-4.594676512091073,-3.947953306823585
1769234220532,123,-5,-2.8797293100942,-3.587954890386993,-3.802551776236351
1769234220535,123,-5,-2.678492458043373,-3.674496146666608,-3.6030604158937
1769234220539,123,-5,-2.4951578548066013,-3.5938421162354572,-3.42086545302327
1769234220544,124,-4,-2.4165953465732213,-2.852228150942295,-3.344179261206925
1769234220548,123,-5,-2.4585727559941826,-3.5681461430333186,-3.388915771218603
1769234220552,123,-5,-2.5471164436750167,-3.6052997637158857,-3.4798613827194127
1769234220556,123,-5,-2.587973819744403,-3.6746898763550897,-3.5217772402972107
1769234220559,123,-5,-2.5480223974352603,-3.593478766269796,-3.482240045212764
1769234220563,124,-4,-2.464205947774137,-2.819869045243376,-3.3997869716328672
1769234220568,123,-5,-2.3845545080023594,-3.6433458741329954,-3.3228931261102588
1769234220572,123,-5,-2.3188507147825033,-3.5030567477048047,-3.260124123041927
1769234220576,124,-4,-2.2463330637816723,-2.817695295691128,-3.1893666825059768
1769234220580,123,-5,-2.15072659245479,-3.425737617688721,-3.094261408451478
1769234220583,124,-4,-2.0311821373305428,-2.98973957988929,-2.9749934626600356
1769234220587,124,-4,-1.878840645758861,-2.466678302828837,-2.823695203328237
1769234220592,124,-4,-1.6534445605936487,-2.700149027812291,-2.60007946051982
1769234220596,124,-4,-1.2979030929868558,-2.6293587946903743,-2.2462453710215766
1769234220600,125,-3,-0.783511796752125,-1.607555930277158,-1.733087543466206
1769234220604,126,-2,-0.1354671999831112,-0.7973639376052892,-1.0861664355149834
1769234220607,126,-2,0.5891850460647454,-0.6695363658136164,-0.3626715452223074
1769234220611,127,-1,1.340646422757243,0.5162770305690132,0.3881424184755184
1769234220616,128,0,2.0903540791246917,1.1008802411964065,1.1379536589452155
1769234220620,128,0,2.815034194615689,1.7027121489814183,1.8626244719690352
1769234220624,130,2,3.4715440226080627,2.8784758387446736,2.517874371958617
1769234220628,129,1,3.979515383629667,2.660832889329351,3.023374064987428
1769234220631,130,2,4.224436984569053,3.192238124062708,3.265950855954023
1769234220635,130,2,4.096735574960876,3.363447966821597,3.1373359999539328
1769234220640,129,1,3.5644701056166683,2.5089089651105465,2.6057650210196948
1769234220644,129,1,2.7329241549101213,1.9970254584385976,1.7757234210524409
1769234220648,127,-1,1.82632014498509,0.651785312195666,0.8703894968031567
1769234220652,127,-1,1.077458147761971,0.0652285919506422,0.1217276892244323
1769234220655,126,-2,0.592236492704352,-0.3980704786845249,-0.3647843075953396
1769234220659,126,-2,0.2886080467480685,-0.8379321004584754,-0.6709029401211498
1769234220664,126,-2,-0.041113227754433,-0.5511905789193374,-1.0031233682501115
1769234220668,125,-3,-0.5873475948204958,-1.8477632186487185,-1.550353276362031
1769234220672,124,-4,-1.3965338033727803,-2.459579561115711,-2.3584829925054276
1769234220676,124,-4,-2.3361668524300594,-2.836271728326748,-3.295983902334033
1769234220679,122,-6,-3.16574356626223,-4.492992573730549,-4.12378321970176
1769234220683,122,-6,-3.671720775815984,-4.753504884990853,-4.628981953830371
1769234220688,122,-6,-3.785107585137776,-4.7660349446054155,-4.7426164333696335
1769234220692,122,-6,-3.60177736821089,-4.451062793651822,-4.56056220748082
1769234220696,123,-5,-3.2976102211360057,-3.942786853601062,-4.258263235988947
1769234220700,122,-6,-3.0195749857032954,-4.330602075179188,-3.981391180718162
1769234220703,123,-5,-2.8384387485553235,-3.922889205501114,-3.799590113557376
1769234220707,123,-5,-2.7672087078299175,-3.609050595092798,-3.72621651424056
1769234220712,123,-5,-2.7916606578038357,-3.5882204775333046,-3.748306984924093
1769234220716,123,-5,-2.8864667336802636,-3.8764738691187137,-3.841125954936465
1769234220720,122,-6,-3.032709086216298,-4.319293760901289,-3.9857880065485687
1769234220724,123,-5,-3.2356931683946955,-3.9953824570573886,-4.188722893662263
1769234220727,122,-6,-3.5056321359905764,-4.48007907561435,-4.462302876094803
1769234220732,122,-6,-3.780826589978542,-4.765769989698025,-4.744974038669806
1769234220736,122,-6,-3.827106605855104,-4.703284526671052,-4.797971391601747
1769234220740,122,-6,-3.1725520602768107,-4.4649922007354625,-4.141887789269747
1769234220744,125,-3,-1.12439217636789,-1.8872098383902287,-2.079922729709318
1769234220748,129,1,3.0898115703163676,2.4831907144128023,2.155449180293809
1769234220751,136,8,10.00659893886766,9.194087075294805,9.088231370818422
1769234220756,145,17,19.439898942575148,18.400537377843875,18.520674213980367
1769234220760,155,27,30.00213524331609,28.378571000344937,29.06349630001968
1769234220764,164,36,39.01526745645332,37.30897773880138,38.04882728128243
1769234220768,169,41,43.18019557226935,42.24296838244091,42.19276620107667
1769234220772,167,39,39.972673271278936,40.42314257797706,38.98203820060209
1769234220775,156,28,29.117624500090805,29.114058478132137,28.143556391162
1769234220780,138,10,13.175382079797616,11.65793532384789,12.230979284890957
1769234220784,122,-6,-3.323595965085687,-4.978372188053089,-4.237970121384477
1769234220788,109,-19,-15.82453325742734,-17.440816614312933,-16.722486244342306
1769234220792,104,-24,-21.672203555183152,-22.818202157682975,-22.575161358604404
1769234220796,105,-23,-20.957987511445587,-21.631573292545884,-21.883544031918703
1769234220799,110,-18,-15.963864037055462,-16.525957309884195,-16.916133483621298
1769234220804,117,-11,-9.711471998993174,-9.916646173505656,-10.680026852442792
1769234220808,121,-7,-4.533161919741003,-5.441964647301182,-5.500293522837582
1769234220812,124,-4,-1.388887312306455,-2.957858153555298,-2.339679762033856
1769234220816,125,-3,-0.063412697494913,-1.3791868040474689,-0.993016781898686
1769234220820,126,-2,0.1706857190510144,-0.8639856633296928,-0.7441902128429155
1769234220823,126,-2,-0.0220302899676567,-0.5382287873081935,-0.9346872868763888
1769234220828,126,-2,-0.2539503510918495,-0.8226616603184438,-1.1742882095767926
1769234220832,125,-3,-0.361525204303061,-1.6267201154729145,-1.2908652808442536
1769234220836,125,-3,-0.3056463918717531,-1.6099539288886278,-1.2379977013976773
1769234220840,126,-2,-0.1220045659009627,-0.7534263720824235,-1.0506493598702846
1769234220844,126,-2,0.1149537018498408,-0.5212823647075641,-0.8077123000191617
1769234220847,126,-2,0.3419740723931387,-0.9763189362298936,-0.576621823414671
1769234220852,126,-2,0.5375605514884304,-0.3622049229236002,-0.3796413087860126
1769234220856,127,-1,0.7096293910907515,0.0405531696621479,-0.207215618395458
1769234220860,126,-2,0.8652449965304769,-0.364913841962539,-0.0505637958942412
1769234220864,127,-1,0.9976225142313042,0.0919019531443367,0.0839914228863797
1769234220868,127,-1,1.1013516113420792,0.369809654382033,0.1902859915196877
1769234220871,127,-1,1.1982483455895498,0.3420060204548943,0.2892680968520608
1769234220876,127,-1,1.339206192440996,0.2770000386938243,0.4318586810016803
1769234220880,127,-1,1.567259221654576,0.4433284108025215,0.661707367783781
1769234220884,128,0,1.8753343803330005,1.2558805796273942,0.9719315314639736
1769234220888,128,0,2.2057065357189582,1.206673654705119,1.3043888717802343
1769234220892,128,0,2.4931128761049335,1.5172740283055042,1.5934908891152058
1769234220895,129,1,2.7082698758531176,2.0738297908909304,1.8101848203078967
1769234220900,128,0,2.8642730533450207,1.665584989877265,1.9680827872430693
1769234220904,129,1,2.9893070665175716,2.0168654252158476,2.09556921419439
1769234220908,129,1,3.100345238349542,2.440323127667208,2.209300019274695
1769234220912,129,1,3.2035531310696097,2.3117267734781985,2.3150674614478497
1769234220916,129,1,3.3101540834876775,2.2195926764098246,2.4240244885398377
1769234220919,129,1,3.4406052492315404,2.597433152742954,2.5565880301203725
1769234220924,130,2,3.6105173178321817,2.981442354022606,2.728228579338907
1769234220928,129,1,3.811705303886809,2.5780185447246637,2.930937120306569
1769234220932,130,2,4.004654493364834,3.080021739611995,3.1257351503918196
1769234220936,130,2,4.137224701085701,3.5272472356400897,3.260814172090704
1769234220940,130,2,4.187474769708845,3.221060468613812,3.314144557454819
1769234220943,130,2,4.194770151385484,3.398038251955227,3.3248063018067877
1769234220948,130,2,4.2404896648661525,3.1360388534809216,3.373633873865763
1769234220952,130,2,4.387291676283152,3.526691050541954,3.5225235371229147
1769234220956,131,3,4.627060316167514,4.086949066988003,3.7632744757355407
1769234220960,130,2,4.875487854564722,3.6415838489495354,4.012807665199041
1769234220964,131,3,5.01603589760005,3.993838604387808,4.1559134276124245
1769234220967,131,3,4.976130869180438,4.5152497322511485,4.1197244076887545
1769234220972,131,3,4.795368389101617,4.16771907496209,3.942440949975382
1769234220976,130,2,4.620093494316968,3.4129657545800605,3.7699159696712856
1769234220980,130,2,4.599507197199248,3.358283465336285,3.751979127651026
1769234220984,131,3,4.764989179122626,4.2115981650647605,3.920180139246392
1769234220988,131,3,5.011538451766855,4.366590668416032,4.168900668478307
1769234220991,131,3,5.196410683299927,4.248510159475892,4.355363248328288
1769234220996,131,3,5.250989512985429,4.394832481441051,4.411950209542623
1769234221000,131,3,5.208565415780168,4.312206911967259,4.372693989825205
1769234221004,131,3,5.14870284316969,4.282218707442194,4.316686392349649
1769234221008,131,3,5.125718554753806,4.28605003662091,4.297215137785704
1769234221011,131,3,5.1387079324390035,4.333205387163555,4.312947160852473
1769234221015,131,3,5.152579347488996,4.324629322318878,4.329160414246825
1769234221020,131,3,5.141073436578926,4.341458593692906,4.320053194851525
1769234221024,131,3,5.114059639986979,4.280790679824225,4.295539719184669
1769234221028,131,3,5.109313577120567,4.244593641769667,4.29336636441625
1769234221032,131,3,5.157363929595064,4.4340278061765055,4.344460591446313
1769234221035,131,3,5.249539205325277,4.170710614459734,4.440544049640291
1769234221039,131,3,5.340970741763022,4.52314666976846,4.5361187441736694
1769234221044,132,4,5.391672515452311,5.068864944264511,4.589806984486812
1769234221048,131,3,5.401130231678314,4.45691637315943,4.60082654481842
1769234221052,131,3,5.382099932652901,4.253474323825244,4.583602734762739
1769234221056,131,3,5.290195886769839,4.306461742581225,4.495289067654305
1769234221059,131,3,5.003348543503917,4.418785870171821,4.212989343119915
1769234221063,131,3,4.404816791609174,4.12425115777818,3.6178791310947367
1769234221068,129,1,3.4904910397237896,2.445838367989273,2.7055281638848263
1769234221072,128,0,2.373852445508257,1.2356431255095033,1.5912872670472111
1769234221076,127,-1,1.1800319927802447,0.3374502923941509,0.4015452700534955
1769234221080,126,-2,-0.0461180393067142,-0.6432759358557403,-0.8200290706894667
1769234221083,125,-3,-1.3191861174413555,-1.7939942461237774,-2.089911892566641
1769234221087,123,-5,-2.6233197929104826,-3.6356717619850265,-3.392205024199527
1769234221092,122,-6,-3.86836865070584,-4.6831602937716745,-4.634875980157552
1769234221096,121,-7,-4.935498269934805,-5.753541931629979,-5.697782736202186
1769234221100,120,-8,-5.752324687383516,-6.582980288033307,-6.509321540555085
1769234221104,120,-8,-6.322752569852061,-6.808836616922928,-7.0753378322813685
1769234221107,119,-9,-6.701013992360438,-7.655842191484424,-7.451181162523695
1769234221111,119,-9,-6.953428791639427,-7.61770860478649,-7.702455193823838
1769234221116,119,-9,-7.143582579512391,-7.887531437257338,-7.890842622797067
1769234221120,118,-10,-7.332608771331204,-8.423973205970235,-8.076015077619331
1769234221124,119,-9,-7.562438192019091,-7.978620164763109,-8.30016895438723
1769234221128,118,-10,-7.815362093529569,-8.468379717575964,-8.54736003191149
1769234221131,118,-10,-7.992487031587537,-8.803388541705443,-8.720364508812542
1769234221135,118,-10,-7.961531869930837,-8.74109066823091,-8.687068611462603
1769234221140,118,-10,-7.661209835890687,-8.556225617671739,-8.384870747984571
1769234221144,119,-9,-7.176634461954022,-7.863814659279833,-7.897368111733081
1769234221148,119,-9,-6.704099439564567,-7.540470542982642,-7.420553632247339
1769234221152,120,-8,-6.413439036233135,-6.754981793108437,-7.125365073012555
1769234221155,120,-8,-6.316774249923299,-6.810224559550465,-7.024992384495869
1769234221159,119,-9,-6.266627368017327,-7.491380963194195,-6.971591166376892
1769234221164,120,-8,-6.096433267123933,-6.945144896795942,-6.79740052829527
1769234221168,120,-8,-5.772654168300304,-6.408069626345859,-6.468684685399905
1769234221172,121,-7,-5.409250709308716,-5.9197096220267245,-6.100643556498311
1769234221176,121,-7,-5.13789501791174,-5.640828405647947,-5.826081884811144
1769234221179,121,-7,-4.976097142569593,-5.685290822903021,-5.662055751372115
1769234221183,121,-7,-4.8284136181751505,-5.762561148821428,-5.511459537357715
1769234221188,121,-7,-4.608884906953708,-5.552385914920476,-5.287250447351734
1769234221192,122,-6,-4.346419153825609,-4.798333785057721,-5.019051561665168
1769234221196,122,-6,-4.159187704373892,-4.75234938860342,-4.82683797339946
1769234221200,122,-6,-4.128416666140061,-4.605588414491111,-4.792804641124936
1769234221203,122,-6,-4.210083043105601,-4.833576050973641,-4.872000987577217
1769234221207,121,-7,-4.280293616885817,-5.4854046304530115,-4.938760187066402
1769234221212,122,-6,-4.263765222870873,-4.847309115084229,-4.917257665086006
1769234221216,122,-6,-4.203853233531474,-4.726297454007321,-4.852144202998336
1769234221220,122,-6,-4.199205077004953,-4.633946480112038,-4.843453322276202
1769234221224,122,-6,-4.281769123620737,-4.803570045770121,-4.922767895463024
1769234221227,121,-7,-4.371000959069068,-5.528287351280952,-5.008017991161091
1769234221232,122,-6,-4.346916189750021,-4.784444340035721,-4.978738447880695
1769234221236,122,-6,-4.158342851873284,-4.814633244949774,-4.785042604674942
1769234221240,122,-6,-3.8630145758680094,-4.546443315686414,-4.485980473002384
1769234221244,123,-5,-3.579677266601544,-3.8710802814265786,-4.199877048360868
1769234221248,122,-6,-3.408683928670608,-4.500481551569305,-4.025457730884504
1769234221251,123,-5,-3.3801941432156033,-3.7702454186885994,-3.992054625762258
1769234221256,123,-5,-3.4492505261355646,-3.882614525827832,-4.055502055772159
1769234221260,122,-6,-3.5302321178678984,-4.451630762200587,-4.131381748714995
1769234221264,123,-5,-3.553859637129948,-3.970587361884007,-4.150711089601346
1769234221268,122,-6,-3.5141751979566376,-4.414078505940248,-4.107119194603133
1769234221272,123,-5,-3.466323189953199,-3.8363714092667984,-4.05549706852195
1769234221275,123,-5,-3.471081048998605,-3.856984553901055,-4.056579393806378
1769234221280,122,-6,-3.5347593466618905,-4.443031789241902,-4.116300792001182
1769234221284,123,-5,-3.5997715335506877,-4.014898758292903,-4.176453124941224
1769234221288,122,-6,-3.589169157630904,-4.341033352148367,-4.160013023568745
1769234221292,123,-5,-3.459012460669931,-3.939366606836283,-4.0239124529063925
1769234221296,123,-5,-3.217806840755027,-3.7428131201704686,-3.7778887904731033
1769234221299,123,-5,-2.913585388705554,-3.558489334146016,-3.470470183866058
1769234221304,124,-4,-2.6160556366240995,-2.915178552964567,-3.1704787952443243
1769234221308,123,-5,-2.409926175347504,-3.421052717859009,-2.9609839720166113
1769234221312,124,-4,-2.382899196808208,-2.89567601598469,-2.9288813645304157
1769234221316,124,-4,-2.582314852233416,-2.7621057597181053,-3.1223114220619346
1769234221320,123,-5,-2.9568456415682407,-3.5596134520106455,-3.4912206301321715
1769234221323,123,-5,-3.348558720749698,-3.9070670347196983,-3.8779519305778942
1769234221328,122,-6,-3.573762224295688,-4.431622755561346,-4.09832252568143
1769234221332,123,-5,-3.538810225455739,-3.902401852883689,-4.058684804619341
1769234221336,123,-5,-3.2916278785842854,-3.744486750233888,-3.8075911463258056
1769234221340,123,-5,-2.9698966368671575,-3.572789550077551,-3.4828022855541025
1769234221344,124,-4,-2.700541455793591,-2.9119393145222148,-3.21011122252904
1769234221347,123,-5,-2.5335545461989444,-3.4054733716486134,-3.0381757751348704
1769234221352,124,-4,-2.4434635763403656,-2.990475537874464,-2.941630212107249
1769234221356,124,-4,-2.3695062990297138,-2.592864822816699,-2.861407253249757
1769234221360,124,-4,-2.254629433465519,-2.7806952539992253,-2.741879834772746
1769234221364,124,-4,-2.0745554981191265,-2.65178710937084,-2.5583774059010733
1769234221368,124,-4,-1.8573967811447183,-2.7069190344028327,-2.337631984165423
1769234221371,125,-3,-1.6719068175920644,-1.705243654429514,-2.147795425417285
1769234221376,125,-3,-1.573279957649426,-1.8364821791461468,-2.044376256990122
1769234221380,124,-4,-1.5487271617410074,-2.59874786196979,-2.014858854811438
1769234221384,125,-3,-1.5163112259289837,-1.744059143431783,-1.9774539920322391
1769234221388,125,-3,-1.372450208685513,-1.7301921515391243,-1.8288965394467251
1769234221392,125,-3,-1.0416912375671592,-1.6019975649410063,-1.4936621213813424
1769234221395,126,-2,-0.5015261735484284,-1.0011894487914477,-0.9485268661125684
1769234221400,126,-2,0.2192033765478456,-0.3798245719008979,-0.2221288901940383
1769234221404,128,0,1.0638929141565896,1.0097020469683151,0.6278115268814868
1769234221408,128,0,1.9727638111336725,1.4996751001234985,1.5403758731202433
1769234221412,129,1,2.8736832169972537,2.1799865120134556,2.4440158969199666
1769234221416,130,2,3.6425111860285906,3.1793335731091608,3.2163875073777706
1769234221419,130,2,4.098287953722098,3.506363679029969,3.677268833564366
1769234221424,131,3,4.088226644690441,4.043906029910751,3.672710803665321
1769234221428,130,2,3.614413239967879,3.52974692291973,3.20360992853763
1769234221432,129,1,2.873180570788896,2.073495608187045,2.466950717992944
1769234221436,128,0,2.139627101640547,1.3231992017065055,1.7392038277474668
1769234221440,128,0,1.5890084343897963,1.3714938228579914,1.1951166107699809
1769234221443,128,0,1.2161014414292874,1.1415213972418223,0.82711248707486
1769234221448,127,-1,0.9023260350422482,0.4947119372146582,0.5154086568734175
1769234221452,127,-1,0.5305994085376442,0.0206385673759468,0.1447012305128108
1769234221456,126,-2,0.0386642502638641,-0.5637433904018724,-0.344247629870941
1769234221460,126,-2,-0.5909433496995153,-0.7954527881065816,-0.9676161749016
1769234221464,125,-3,-1.3400321321389037,-1.648430751405524,-1.708678869226906
1769234221467,124,-4,-2.1368861215860395,-2.7384004398936312,-2.498593782253221
1769234221472,124,-4,-2.8499816795806137,-2.7491078672731213,-3.207790460843379
1769234221476,123,-5,-3.34007601401175,-3.8014212086274,-3.696339091717168
1769234221480,122,-6,-3.5596237118205587,-4.572931898853656,-3.913984321107469
1769234221484,123,-5,-3.612026534737071,-3.8333385475451647,-3.9622678359456622
1769234221488,123,-5,-3.6790671549254026,-3.589992033863823,-4.023701050543769
1769234221491,123,-5,-3.848542377935954,-3.8733292395867105,-4.187605810827956
1769234221496,122,-6,-4.0120408477806215,-4.716767786782092,-4.345434825930361
1769234221500,122,-6,-3.962502508984811,-4.645715189334804,-4.289165132857045
1769234221504,123,-5,-3.6135009974677006,-3.7665992067037193,-3.933487153239813
1769234221508,123,-5,-3.122663227611151,-3.644524128543937,-3.4396832772220245
1769234221511,124,-4,-2.7842516132698503,-2.8259964889800018,-3.10469067199855
1769234221515,124,-4,-2.759269901452032,-2.767497451592655,-3.086881976351856
1769234221520,123,-5,-2.835520560692542,-3.620667182730008,-3.16574851136622
1769234221524,124,-4,-2.367499801664824,-2.7913227103716647,-2.6874398335154073
1769234221528,126,-2,-0.4162545866936402,-0.5953516789502191,-0.7125897624583317
1769234221532,131,3,3.958665100122323,4.09637356557584,3.688913873509613
1769234221535,138,10,11.272872255177342,11.375920231417805,11.01783805847866
1769234221539,147,19,21.08932427528476,20.15464377255788,20.828549385234886
1769234221544,157,29,31.603674026123716,30.49762920049131,31.320649103533633
1769234221548,166,38,39.76068057404444,39.053178599227685,39.452493634096335
1769234221552,169,41,42.21281405311616,42.46626737771034,41.89120040695525
1769234221556,165,37,36.89270977151693,37.97268940983295,36.577666408941575
1769234221559,151,23,24.354722818026104,24.50143236899323,24.065243902593387
1769234221563,134,6,7.938868429872947,7.1408192169393425,7.6844415699182065
1769234221568,118,-10,-7.540268852306106,-8.60587237233591,-7.764671469085029
1769234221572,108,-20,-17.910348340803584,-18.804558568838715,-18.1226983972918
1769234221576,105,-23,-21.36038826908917,-21.694383359121,-21.58255270152314
1769234221580,108,-20,-18.84786409207908,-18.80290891485113,-19.093690042072694
1769234221583,114,-14,-13.131390433680432,-12.561703144992444,-13.399646136060433
1769234221587,120,-8,-7.162245127289013,-6.9729438147855864,-7.438747693148177
1769234221592,123,-5,-2.8101129380340177,-3.438559604895626,-3.0768464062089684
1769234221596,126,-2,-0.507367049646542,-1.0996379326263457,-0.752463001232999
1769234221600,126,-2,0.2818305973424372,-0.3716325425882433,0.0588257684062833
1769234221604,127,-1,0.3245725882512397,-0.0249055143296196,0.1143075649581349
1769234221607,127,-1,0.1465230267369298,0.4854822062712166,-0.0633197660917295
1769234221611,127,-1,-0.0240518380623391,0.1310914225844108,-0.2409496523033322
1769234221616,126,-2,-0.1021452578451262,-0.7081991905526848,-0.324965383367664
1769234221620,126,-2,-0.0443376725116934,-0.6880458688629243,-0.2662374104465916
1769234221624,127,-1,0.1382977209405772,0.1823876311583833,-0.0768539807018409
1769234221628,127,-1,0.3610612271987617,0.3654398609617597,0.1533557738601324
1769234221631,127,-1,0.5160738113172905,0.1739179451903726,0.3130109957692735
1769234221635,127,-1,0.5483292961560771,0.32083499108772,0.3476352525402397
1769234221640,127,-1,0.4852110179942848,0.2347149522594227,0.2867941734293807
1769234221644,127,-1,0.4090877304419043,0.243802294401966,0.2138006752368013
1769234221648,127,-1,0.4071911507967286,0.3283426597678401,0.2154850643966593
1769234221652,127,-1,0.5276043914447239,0.1721089034179388,0.3395389105206551
1769234221655,127,-1,0.7582369237102986,0.3930969304532001,0.5737291675606764
1769234221659,128,0,1.0434937165500524,1.0860557827190398,0.8619738417033007
1769234221664,128,0,1.3312973136229824,1.4257319901087495,1.1518250702831805
1769234221668,128,0,1.605522944347356,1.1121832241225431,1.4279407667928108
1769234221672,128,0,1.8681491622892437,1.4042186179219711,1.693623519189674
1769234221676,129,1,2.102673904151146,2.1842363607835913,1.9323902592604096
1769234221679,129,1,2.28064598375947,2.241987732890114,2.1143260044642167
1769234221683,129,1,2.408941513251647,2.305510535882504,2.24531376804083
1769234221688,129,1,2.5478077686149647,2.187802448745921,2.3862588517190666
1769234221692,129,1,2.7628595243257026,2.35501740974074,2.6039073212894186
1769234221696,130,2,3.061932675474615,3.2411115542010394,2.906157322895055
1769234221700,130,2,3.3877937813329746,3.1486264284535546,3.235001872561907
1769234221703,130,2,3.670516678360789,3.4324706701282772,3.5201696003861196
1769234221707,131,3,3.881680808558311,4.007882331177964,3.73372754905445
1769234221712,130,2,4.04147137263482,3.57780851114917,3.896426549858768
1769234221716,131,3,4.1824951289969405,3.9874731420423934,4.040709532037486
1769234221720,131,3,4.312501811339504,4.417463968805821,4.17357260049768
1769234221724,131,3,4.410319400016852,4.149596400249905,4.273482065074645
1769234221727,131,3,4.450240158923959,4.273360462459727,4.31531724395623
1769234221732,131,3,4.427369659441805,4.34135450951441,4.295013421261189
1769234221736,131,3,4.367818627348174,4.186201571109151,4.238718639900413
1769234221740,131,3,4.3230131406041785,4.245599040133225,4.1971276489713825
1769234221744,131,3,4.348297815739844,4.303874014983364,4.225041407677424
1769234221748,131,3,4.469182447663245,4.095503444558803,4.348165373295416
1769234221751,131,3,4.654715371025921,4.564721634492747,4.535978735656882
1769234221756,132,4,4.825339485080641,4.900836105007439,4.708887340828644
1769234221760,131,3,4.898798253790018,4.590826840671733,4.784259420746362
1769234221764,132,4,4.840582302332075,4.896264293262996,4.727613885312467
1769234221768,131,3,4.679059880474784,4.535137922891585,4.568077220976511
1769234221772,131,3,4.479103825561152,4.100892566123133,4.371340215493712
1769234221775,131,3,4.305864199158366,4.36868510183004,4.202317636294769
1769234221780,131,3,4.212449301621437,4.140980425704601,4.112665401202516
1769234221784,131,3,4.2466173018628455,4.29496315390958,4.148824822855498
1769234221788,131,3,4.43870140996871,4.202123662438028,4.341372392337251
1769234221792,131,3,4.758591355122327,4.335882734336038,4.6617243868528035
1769234221796,132,4,5.090543138449233,5.238243905245152,4.995355400218156
1769234221799,132,4,5.2838371320254875,5.170047954003419,5.19153281391435
1769234221804,132,4,5.262563788146687,5.340995017280893,5.173655771347839
1769234221808,132,4,5.099569810050963,5.100878557208289,5.014072816248786
1769234221812,131,3,4.975048893148042,4.43754544776538,4.892709890223543
1769234221816,132,4,5.0422592704303515,5.159484412167849,4.962395872023602
1769234221820,132,4,5.308011783671754,5.207783651754843,5.229545120780177
1769234221823,132,4,5.621504362944906,5.357434392170361,5.543628192995592
1769234221828,133,5,5.774474639699777,6.024724010272163,5.69739784014917
1769234221832,132,4,5.633402476004995,5.548780233044257,5.558379196894661
1769234221836,132,4,5.208301949112165,4.9982068981428025,5.1367944855618966
1769234221840,131,3,4.617280455485974,4.411809586249877,4.54978515712973
1769234221844,131,3,3.987264745516333,4.114889382532158,3.9228529831975743
1769234221847,130,2,3.369140452867688,3.3013385134334348,3.30632749741074
1769234221852,129,1,2.718581552880764,2.2281531101067458,2.6565812401088125
1769234221856,129,1,1.9458348927517768,2.3460100568168616,1.8848516493186165
1769234221860,128,0,0.9988046001444268,1.0382207144324704,0.9395652618040512
1769234221864,126,-2,-0.0822909543082448,-0.4991651853314438,-0.1388572435840759
1769234221868,126,-2,-1.1841785113616865,-1.0850481978869295,-1.2372698651956138
1769234221871,124,-4,-2.193048897262307,-2.4163367944060794,-2.2426769635490027
1769234221876,124,-4,-3.053429896984434,-2.9795905932433393,-3.100686559301867
1769234221880,123,-5,-3.773977389436234,-3.676722392170537,-3.820159742215279
1769234221884,122,-6,-4.397363625171168,-4.725053822409257,-4.442773290241033
1769234221888,122,-6,-4.968277302034407,-4.941223023933625,-5.012093929324643
1769234221892,121,-7,-5.511000440015231,-5.482979306432381,-5.5522236969284915
1769234221895,121,-7,-6.014910789378616,-6.015703941572816,-6.0530760060222075
1769234221900,120,-8,-6.43624581602929,-6.541274455284635,-6.471358662708912
1769234221904,120,-8,-6.722716408521242,-6.9314661058016505,-6.755129880359894
1769234221908,120,-8,-6.8440054846211815,-6.7108062345334885,-6.874517236681036
1769234221912,120,-8,-6.804264520409381,-6.71212639544862,-6.833657959382331
1769234221916,120,-8,-6.636755829907317,-6.8425666130046885,-6.664794373482531
1769234221919,120,-8,-6.394203483286273,-6.624309292946353,-6.4195785037177195
1769234221924,121,-7,-6.131570573831655,-5.951135280841077,-6.153359071333012
1769234221928,121,-7,-5.876328232845299,-5.604010306871693,-5.8951180751546985
1769234221932,121,-7,-5.614530222505547,-5.906706795069986,-5.631646318842399
1769234221936,121,-7,-5.32490407925687,-5.599328180190495,-5.340917270450085
1769234221940,122,-6,-5.032961005839641,-4.8845199677896325,-5.047376054781304
1769234221943,122,-6,-4.815221854755956,-4.7069303086345915,-4.827178903874428
1769234221948,122,-6,-4.7342174659245,-4.812054404089235,-4.74302896145861
1769234221952,122,-6,-4.766594483372955,-4.766845222410677,-4.7719724087915125
1769234221956,122,-6,-4.798464609123473,-4.6778705797391105,-4.800734699692981
1769234221960,122,-6,-4.701383046576494,-4.87401202426423,-4.701408022746344
1769234221964,122,-6,-4.433491541615036,-4.656908312869829,-4.432147700278921
1769234221967,123,-5,-4.0829221288576845,-3.9062427926292407,-4.080527506909224
1769234221972,123,-5,-3.80833360983381,-3.659663409033338,-3.804347316946709
1769234221976,123,-5,-3.71684936447297,-3.7915451412401904,-3.710025466790142
1769234221980,123,-5,-3.777450193931824,-3.783577345601824,-3.766631892426026
1769234221984,123,-5,-3.8396067230265274,-3.716435006768691,-3.82468389456924
1769234221988,123,-5,-3.74406123708952,-3.888475915790048,-3.726079240570392
1769234221991,123,-5,-3.4462618134833445,-3.645294889507812,-3.426545889728496
1769234221996,124,-4,-3.0616301474172074,-2.8342427172665956,-3.0408863654220113
1769234222000,124,-4,-2.7932468773532064,-2.7336762179363028,-2.771315841558259
1769234222004,124,-4,-2.7915156714401306,-2.7651867853888317,-2.7675910665681096
1769234222008,124,-4,-3.0523638254259393,-2.8613920869247513,-3.0253219813494185
1769234222011,123,-5,-3.4297638164783417,-3.658316297352811,-3.3985852318676173
1769234222015,123,-5,-3.744461244175553,-3.8527397824477294,-3.708833673258809
1769234222020,123,-5,-3.8965240474182017,-3.6860884120562862,-3.857300722032112
1769234222024,123,-5,-3.8992531521309384,-3.834437639844044,-3.8580915169476686
1769234222028,123,-5,-3.831315063873417,-3.781325361079311,-3.789463043801021
1769234222032,123,-5,-3.768928942532064,-3.748719849827611,-3.726184047221564
1769234222035,123,-5,-3.7520292230629018,-3.7836125807314,-3.706859766472939
1769234222039,123,-5,-3.786577241896236,-3.737937711111635,-3.737295819082602
1769234222044,123,-5,-3.8539638085283023,-3.7963180058208903,-3.7999838579282974
1769234222048,123,-5,-3.911050038814238,-3.814584546185509,-3.853243997345689
1769234222052,123,-5,-3.894480941946922,-3.719454180774546,-3.834325876933275
1769234222056,123,-5,-3.750666345794365,-3.838581084094769,-3.6889160990532224
1769234222059,123,-5,-3.482730730664356,-3.6605722668825544,-3.418927122018047
1769234222063,124,-4,-3.169082406788358,-2.895289606331674,-3.1023172432394563
1769234222068,124,-4,-2.9197459100269647,-2.6950761359815716,-2.84959582602125
1769234222072,124,-4,-2.799645835656893,-2.8630646823177095,-2.7262472422659476
1769234222076,124,-4,-2.7892725309951527,-2.7024545381949636,-2.712864626181477
1769234222080,124,-4,-2.8174524954967173,-2.7896323474615525,-2.738137590945706
1769234222083,124,-4,-2.8308713437243087,-2.7953937585596123,-2.7486152769087937
1769234222087,124,-4,-2.8362910171130364,-2.7396722522119648,-2.750964694742219
1769234222092,124,-4,-2.880808989607451,-2.891852672343849,-2.7923602805133525
1769234222096,124,-4,-2.989753549715765,-2.6150044301412425,-2.898321739075392
1769234222100,124,-4,-3.1219274002409323,-2.9463362994863633,-3.0275176791084952
1769234222104,123,-5,-3.1925684779649757,-3.5890049579494105,-3.094754321554483
1769234222107,124,-4,-3.148191665028107,-2.9739987074973535,-3.0466751350736665
1769234222111,124,-4,-3.0169964915313305,-2.6490957251489498,-2.9123928346995385
1769234222116,124,-4,-2.8832938366453194,-2.8695620332335356,-2.776637316525479
1769234222120,124,-4,-2.818542434279151,-2.703597436197218,-2.709817365071829
1769234222124,124,-4,-2.8373302378104124,-2.81182504334904,-2.7250854416107417
1769234222128,124,-4,-2.9029311470860595,-2.794728350734682,-2.7857772622119397
1769234222131,124,-4,-2.9576725184112425,-2.7726472871152428,-2.8359583743958443
1769234222135,124,-4,-2.9521988164049926,-2.827794766765111,-2.827781903484305
1769234222140,124,-4,-2.870251155281992,-2.6642035046369936,-2.744458890375721
1769234222144,124,-4,-2.7469302598094214,-2.9353954724451112,-2.619065101248074
1769234222148,124,-4,-2.657751331636851,-2.6060598592240853,-2.526006118467398
1769234222152,125,-3,-2.659893569300213,-2.016293986580764,-2.523475488811471
1769234222155,124,-4,-2.722999334091892,-2.556720829872865,-2.5826513893923218
1769234222159,124,-4,-2.731275374854558,-2.9566528618833283,-2.5878307668686804
1769234222164,124,-4,-2.582279178881397,-2.6378971975906538,-2.4356851427149167
1769234222168,125,-3,-2.293083630852131,-1.919693181883534,-2.1431016487602883
1769234222172,125,-3,-2.002203549769808,-1.6862074975411556,-1.8492022817014644
1769234222176,125,-3,-1.8639364046899765,-1.908167883312712,-1.7084734952437888
1769234222179,125,-3,-1.9359764254347116,-1.5852024484596683,-1.7779919546117515
1769234222183,125,-3,-2.1512680743369814,-2.0521606254737215,-1.9899837732379295
1769234222188,124,-4,-2.3790920611445685,-2.48689925417246,-2.213528400694861
1769234222192,125,-3,-2.5110401319505704,-2.1310848586335127,-2.3406417566699274
1769234222196,124,-4,-2.5018239732588095,-2.4505622652859644,-2.32690219507075
1769234222200,125,-3,-2.3469710866697264,-2.04928339763057,-2.168671802185141
1769234222203,125,-3,-2.041714506497136,-1.6082670181212948,-1.8613490900364216
1769234222207,125,-3,-1.5768663677918302,-1.917687288805102,-1.3950311786186744
1769234222212,126,-2,-0.9742435046713074,-0.7411646968515904,-0.7904210605768464
1769234222216,127,-1,-0.3067441318626083,0.2332667081833725,-0.1195101716508768
1769234222220,127,-1,0.3403310086729771,0.1705579517925428,0.5326885305358442
1769234222224,128,0,0.9414431019681756,1.2581561021634702,1.139818336757049
1769234222227,129,1,1.5660827542127658,2.1202601834230452,1.769517580412488
1769234222232,129,1,2.325257841150277,2.277417080788563,2.5313626182178375
1769234222236,130,2,3.2437458593168387,3.1931004227080244,3.4505974916186215
1769234222240,131,3,4.154409149854975,4.217775201445369,4.361965248766182
1769234222244,132,4,4.734608947250854,5.189990189649139,4.944360210849157
1769234222248,132,4,4.70342559724954,5.200853807571811,4.9171540458928185
1769234222251,131,3,4.039852493616563,4.154104518139522,4.258782025305606
1769234222256,130,2,3.0332503421717134,3.3702142357539486,3.257772528861317
1769234222260,129,1,2.1053662617337205,1.977395570857272,2.3349334078481054
1769234222264,128,0,1.534636530016662,1.4650723257294669,1.7677476852186262
1769234222268,129,1,1.2960296027310725,1.913264234098807,1.5307369442411716
1769234222272,128,0,1.1304108944632072,1.4301444887775647,1.3656048778528918
1769234222275,128,0,0.7653489989777963,1.1367363426560106,1.0018962329840455
1769234222280,127,-1,0.1007912576073135,0.138123371362649,0.3409565452078853
1769234222284,126,-2,-0.7641341613575746,-0.6563477675467536,-0.5188102031796337
1769234222288,126,-2,-1.6416181823057476,-1.0124640092862776,-1.3915727180237645
1769234222292,124,-4,-2.394609824742733,-2.602352817352761,-2.1412046125378303
1769234222296,124,-4,-3.005450285615698,-2.8436935369568324,-2.749360517325858
1769234222299,124,-4,-3.533268977816441,-2.884886521672397,-3.274459386738266
1769234222304,123,-5,-4.0014156297087435,-3.659741809669173,-3.7399750800923512
1769234222308,123,-5,-4.325048681192429,-3.999617011028709,-4.061078104100757
1769234222312,122,-6,-4.36461405248661,-4.61794156627574,-4.097582523513774
1769234222316,123,-5,-4.0621798144236365,-3.8156185248027934,-3.7912851727416466
1769234222320,124,-4,-3.52045875071333,-2.937716936853336,-3.2455783769491857
1769234222323,124,-4,-2.943904259264201,-2.604818572725969,-2.66546570339747
1769234222328,125,-3,-2.5099946259566184,-2.069192257959263,-2.2280770509197634
1769234222332,124,-4,-2.296064479321166,-2.530220990598892,-2.0108751998568293
1769234222336,125,-3,-2.295334227087956,-1.9304812965670568,-2.0091063606044237
1769234222340,125,-3,-2.444045548020612,-1.8137097769574777,-2.161022991082593
1769234222344,124,-4,-2.581653120044102,-2.7505508184659977,-2.3039960911351596
1769234222347,125,-3,-2.3536714145708313,-1.9129265039148613,-2.07654696459252
1769234222352,126,-2,-1.1390079387746623,-0.6759744079473589,-0.8508637950164042
1769234222356,129,1,1.8935878848936063,2.1845801389949275,2.2035164116884873
1769234222360,135,7,7.511030153334662,8.107189388555597,7.842937541986089
1769234222364,143,15,15.916302386914516,16.29156234126833,16.256300764350716
1769234222368,153,25,26.18729363565919,26.088437432476628,26.51474750617904
1769234222371,162,34,36.01076095901035,35.28655485214204,36.31171200840412
1769234222376,169,41,42.114042343977616,42.2317138983316,42.39031090717137
1769234222380,170,42,41.509059802785664,42.99055744786146,41.776934993740184
1769234222384,161,33,33.07274389634805,34.424799225941435,33.35393044968416
1769234222388,146,18,18.51677431771478,18.87610808919373,18.827828466383828
1769234222392,128,0,1.9695843610687216,1.5430321380828782,2.314181034904435
1769234222395,115,-13,-11.767355862061663,-12.070250074452304,-11.400516135463608
1769234222400,107,-21,-19.33528357103748,-19.61473819777762,-18.967129020665595
1769234222404,107,-21,-20.10439878168143,-19.93500813483928,-19.754675497186724
1769234222408,112,-16,-15.98519378303076,-14.716565247728417,-15.662299623367566
1769234222412,118,-10,-10.04981807624054,-8.906646874380826,-9.747078425293331
1769234222416,122,-6,-4.911876328281394,-4.671102743631642,-4.612032576664406
1769234222419,125,-3,-1.790024025513263,-2.0646603206463063,-1.4753956277379054
1769234222424,126,-2,-0.5640323831385611,-0.4695778679836611,-0.2264964660335517
1769234222428,127,-1,-0.4544704719652102,-0.1816461471498616,-0.0988858630917236
1769234222432,126,-2,-0.7127140947888204,-0.4378702091593628,-0.3518398255540052
1769234222436,127,-1,-0.9398128996923056,-0.1471593992298028,-0.5851465960079727
1769234222440,126,-2,-1.0402991423636014,-0.6319808672657768,-0.6955564986467773
1769234222443,126,-2,-1.0429060747108627,-0.8432701337423834,-0.7038108337011051
1769234222448,126,-2,-0.9886984604756884,-0.8487543917879838,-0.6479702382931832
1769234222452,126,-2,-0.9172182872008032,-0.7210940382719866,-0.5703740936791327
1769234222456,127,-1,-0.8694830678128574,0.0606326549312025,-0.5170217572025331
1769234222460,126,-2,-0.8593430635279857,-0.8007555248032172,-0.5044281218402026
1769234222464,126,-2,-0.8477788040602661,-0.7240051838909513,-0.492663008671985
1769234222467,127,-1,-0.7635618270832867,0.1086137632282017,-0.4082895274076358
1769234222472,126,-2,-0.5568901253121277,-0.7586772301688857,-0.2005654619860026
1769234222476,127,-1,-0.2373533800684623,0.1502996481377215,0.1201987040926255
1769234222480,128,0,0.1342965884676294,1.0418536215149683,0.4924063498193836
1769234222484,127,-1,0.4864726522782765,0.4809426116193267,0.844953991098434
1769234222488,128,0,0.7693333044444481,0.8833885609046503,1.129142739119195
1769234222491,128,0,0.964618412000513,1.4806398017454947,1.3265236979427062
1769234222496,129,1,1.0901874036010857,1.868427653563833,1.453407675098728
1769234222500,128,0,1.1967367467779852,1.335400268185973,1.5598663668308788
1769234222504,128,0,1.332038746239212,1.1872373281489446,1.6948631254572732
1769234222508,129,1,1.4943496239303995,2.1757233962750178,1.857773864324225
1769234222511,129,1,1.639735938138072,2.200253554767682,2.0043073719760014
1769234222515,129,1,1.7503317392976423,2.100554894910864,2.1158218443138086
1769234222520,129,1,1.8828206795988185,2.1366195067024107,2.249038717429826
1769234222524,129,1,2.131892392320001,2.353475428488685,2.4989327601744
1769234222528,130,2,2.541932959028182,3.033735375067555,2.909473797578346
1769234222532,130,2,3.053318640400575,3.332160255892044,3.4203595778694464
1769234222535,131,3,3.529141291854174,3.947815552197209,3.894871560816159
1769234222539,131,3,3.8368811891101577,4.301982993381026,4.201682736094394
1769234222544,131,3,3.924926544422056,4.163608766144613,4.290228494691786
1769234222548,131,3,3.848196056828927,4.239504524413713,4.215137738640975
1769234222552,131,3,3.7353328373686634,4.116716966471023,4.1035738353267375
1769234222556,131,3,3.720369254772877,4.147062054325367,4.088410559113285
1769234222559,131,3,3.87253841427124,4.115318401797897,4.239245406678414
1769234222563,131,3,4.159977914566987,4.327707437031429,4.525501935921939
1769234222568,132,4,4.475444279227608,5.098164409934165,4.8405687923634195
1769234222572,132,4,4.714446892583001,5.232886918612587,5.07946816275188
1769234222576,132,4,4.844197669411303,5.039494531528921,5.208764629599562
1769234222580,132,4,4.900359404047531,5.195912224354506,5.264098378368902
1769234222583,132,4,4.919200383777312,5.266426008443023,5.282083973305044
1769234222587,132,4,4.880845245863359,5.131615385767874,5.242985245422799
1769234222592,132,4,4.727010153676604,5.2306461153319335,5.088354881306086
1769234222596,132,4,4.438623559216262,5.005325376750935,4.799018815055618
1769234222600,131,3,4.095068873918569,4.239807987417942,4.45459727115679
1769234222604,131,3,3.849394225287415,4.2077594163955805,4.208474828406425
1769234222607,131,3,3.83141426344139,4.190935576780441,4.190363129739671
1769234222611,131,3,4.057691034310906,4.180674581429468,4.4160796663713
1769234222616,132,4,4.42104010368279,5.03687240167189,4.777556031318744
1769234222620,132,4,4.762731859654048,5.223961735904857,5.116015684744381
1769234222624,132,4,4.963066897758906,5.174655573988455,5.313048614096072
1769234222628,132,4,4.982941425299076,5.276486502506513,5.331230386689588
1769234222631,132,4,4.850396073720757,5.0267067648314505,5.198919329117758
1769234222635,132,4,4.637561889822857,5.255613242097575,4.98673590831932
1769234222640,132,4,4.453148936168713,4.940217772436413,4.801649868484683
1769234222644,131,3,4.422342427451246,4.4945974052982045,4.768606829909123
1769234222648,132,4,4.626741354352537,4.932629876558649,4.970244366099269
1769234222652,132,4,5.03772107315014,5.365847835241604,5.378724020891269
1769234222655,133,5,5.509527660771921,5.938172672644097,5.848142826633287
1769234222659,133,5,5.851252508839148,6.213397236005899,6.187221347259403
1769234222664,133,5,5.924508168301054,6.268320003618692,6.25780062102426
1769234222668,133,5,5.6950892225471055,6.082303723250785,6.026378976359324
1769234222672,132,4,5.21253665881092,5.283771930350842,5.542797851567366
1769234222676,132,4,4.551538621262026,4.94560613965029,4.881012115745767
1769234222679,131,3,3.7689648314153854,4.276209042491118,4.096644445285315
1769234222683,130,2,2.89668389780826,3.138350359639186,3.2211170126056894
1769234222688,129,1,1.9477762281074151,2.252588923063865,2.268381127022631
1769234222692,128,0,0.915458087876052,1.0753478601589783,1.2328001716209285
1769234222696,127,-1,-0.2225192703085676,0.1659498544579709,0.0923053025120674
1769234222700,126,-2,-1.4754515852656749,-0.9406545938299776,-1.1630285879926785
1769234222703,124,-4,-2.803481770772863,-2.6639296621628077,-2.4936985126557434
1769234222707,123,-5,-4.11106988088551,-3.931628170625876,-3.803888967829959
1769234222712,122,-6,-5.280393657788577,-4.778882148450493,-4.975504336840852
1769234222716,121,-7,-6.217441389928288,-5.942339599672615,-5.914777990181045
1769234222720,120,-8,-6.8803181032006995,-6.875357486896946,-6.58048087668326
1769234222724,120,-8,-7.279360716157147,-6.676902342335778,-6.983489703103723
1769234222727,120,-8,-7.45819593948511,-6.986799653920037,-7.167041809169007
1769234222732,119,-9,-7.476536420525152,-7.6837659734761345,-7.18945334700576
1769234222736,120,-8,-7.402814999253079,-7.073673937331241,-7.118210211130237
1769234222740,120,-8,-7.297078714867504,-6.725422595985159,-7.0141896561568595
1769234222744,120,-8,-7.176995429627055,-6.831523370220291,-6.89671648446478
1769234222748,120,-8,-7.007957505799463,-6.8536913489495515,-6.731680557307002
1769234222751,120,-8,-6.752723391362811,-6.801794197346967,-6.480984672066308
1769234222756,121,-7,-6.439568304687489,-6.0005225454276125,-6.172120733700124
1769234222760,121,-7,-6.1685092417676985,-5.742102425487181,-5.905028330918487
1769234222764,121,-7,-6.038207985318988,-5.873116480107964,-5.778384748770233
1769234222768,121,-7,-6.062085662288415,-5.762582667387577,-5.805485369275413
1769234222772,121,-7,-6.149509902073905,-5.959081190220766,-5.895948100217127
1769234222775,121,-7,-6.165458191655832,-5.819541957903094,-5.915378072121604
1769234222780,121,-7,-6.022917044466605,-5.919202947476355,-5.777049633862852
1769234222784,121,-7,-5.742495428290199,-5.713023089883597,-5.501315522676333
1769234222788,122,-6,-5.432673212776064,-4.889719926323928,-5.196388329150581
1769234222792,122,-6,-5.200148948746081,-4.899757235615276,-4.96880198945199
1769234222796,122,-6,-5.0635645468369255,-4.841921147299956,-4.83669162730433
1769234222799,122,-6,-4.947698339149,-4.914423524041081,-4.724244589426921
1769234222804,122,-6,-4.7580507185951095,-4.724248784583436,-4.537324200554226
1769234222808,123,-5,-4.459498580791291,-3.847287450480715,-4.24222656834975
1769234222812,123,-5,-4.094514071483509,-4.016916549942901,-3.882445245363584
1769234222816,123,-5,-3.7488481067751582,-3.6566607789429786,-3.543177156738075
1769234222820,124,-4,-3.5098059794506304,-3.164263871504657,-3.3102323125149997
1769234222823,123,-5,-3.4385797633502766,-3.4294514957226925,-3.243846335350381
1769234222828,124,-4,-3.5507177573530457,-3.17214444485836,-3.359764173511118
1769234222832,123,-5,-3.803056219813013,-3.707016005194921,-3.615678856471312
1769234222836,123,-5,-4.09931657418721,-3.942759523582872,-3.916035257959222
1769234222840,123,-5,-4.3242426473297435,-3.92588492391128,-4.145725254499132
1769234222844,122,-6,-4.397230552843383,-4.602077296675562,-4.223894569309872
1769234222847,123,-5,-4.31477335664148,-4.083823908643196,-4.146941993936747
1769234222852,123,-5,-4.148397084771696,-3.7225280324030288,-3.986558899987643
1769234222856,123,-5,-3.996251221536412,-4.006958498164439,-3.840704699394112
1769234222860,123,-5,-3.9261803845316208,-3.804574728008731,-3.776407191960501
1769234222864,123,-5,-3.948418309142776,-3.7592895195817024,-3.803242580759993
1769234222868,123,-5,-4.021644497094815,-3.925394446755923,-3.880251696141978
1769234222871,123,-5,-4.0760728538424615,-3.8901065765346496,-3.938794130049496
1769234222876,123,-5,-4.044957447860937,-3.832833957386867,-3.913025302471354
1769234222880,123,-5,-3.901389058861342,-4.005289768938805,-3.776017066574601
1769234222884,123,-5,-3.684759271009361,-3.514858959033226,-3.566412427028003
1769234222888,124,-4,-3.491696821494817,-3.2366589437379227,-3.3799706335328272
1769234222892,123,-5,-3.424235291319448,-3.531729364593499,-3.318238341993385
1769234222895,124,-4,-3.522677732055602,-3.232811413701107,-3.421671173914879
1769234222900,123,-5,-3.7282426928704937,-3.5916303688852933,-3.632109968018188
1769234222904,123,-5,-3.9063469258991734,-3.9252824446232215,-3.815482382429809
1769234222908,123,-5,-3.9230148351483334,-3.8624847876860344,-3.837889544693526
1769234222912,123,-5,-3.724128546985502,-3.8653124998281023,-3.645155882329782
1769234222916,124,-4,-3.3578152085004005,-2.959205349839886,-3.2854359172248624
1769234222919,124,-4,-2.9273035141832695,-2.796841983141947,-2.8617494198330364
1769234222924,124,-4,-2.523302877994688,-2.796417629265274,-2.4642775980068214
1769234222928,125,-3,-2.19231804633022,-1.9368390256974373,-2.1392884171959183
1769234222932,125,-3,-1.9498886949310423,-1.8539779372095375,-1.9026981904429527
1769234222936,125,-3,-1.809546055164311,-1.9341576647795256,-1.7685143232137897
1769234222940,125,-3,-1.7973744104891909,-1.838987265816632,-1.7629703657113232
1769234222943,125,-3,-1.93678595653936,-1.752491189303233,-1.909365257451198
1769234222948,125,-3,-2.212480095491431,-1.995005050584296,-2.191943584071888
1769234222952,124,-4,-2.550546085996892,-2.80252542585535,-2.5360741317765436
1769234222956,124,-4,-2.8433589857723733,-2.985244268817289,-2.834120134208019
1769234222960,124,-4,-2.999105765351488,-2.7904415559201805,-2.9956179571348422
1769234222964,124,-4,-2.9738306314612255,-2.794727988992087,-2.977932405859218
1769234222967,124,-4,-2.7788357435486444,-2.9774789735938443,-2.791680260643499
1769234222972,124,-4,-2.480735943401969,-2.8063111070876925,-2.5013527044066795
1769234222976,125,-3,-2.183502447017669,-2.0083594465185906,-2.210068270911504
1769234222980,125,-3,-1.9697589086439669,-1.750636693692134,-2.001890640675145
1769234222984,125,-3,-1.8346824141904812,-1.8422515042743504,-1.8736445517336069
1769234222988,125,-3,-1.6904042866969735,-1.9446799506907628,-1.7372346371680805
1769234222991,125,-3,-1.4581818586873223,-1.833843308810552,-1.51253934072324
1769234222996,126,-2,-1.1580952428391609,-1.0140497867105904,-1.219177437409476
1769234223000,126,-2,-0.8962287892609679,-0.7055511428113173,-0.9640623331527628
1769234223004,126,-2,-0.761909277268149,-0.9155963301836532,-0.8372153210010153
1769234223008,126,-2,-0.7463559051038153,-0.861487810836628,-0.8295481431303798
1769234223011,126,-2,-0.7640115741056737,-0.9421789313928336,-0.854825406244661
1769234223015,126,-2,-0.7461121773458399,-0.9252832383832928,-0.8440746250535498
1769234223020,126,-2,-0.7097215875544447,-0.7553524484216974,-0.8146963464954332
1769234223024,126,-2,-0.7375850229030567,-0.8927679065022464,-0.8499794068195575
1769234223028,126,-2,-0.8887646821182962,-0.8664283092342733,-1.0093106646396186
1769234223032,126,-2,-1.1232338466512588,-0.9798859381068246,-1.2522436375988604
1769234223035,125,-3,-1.3149836091728486,-1.884298531881858,-1.4516932643798954
1769234223039,125,-3,-1.3453965738665925,-1.7950833051337214,-1.4886029154102918
1769234223044,126,-2,-1.1835324878974745,-0.8310788740158286,-1.3332197168086806
1769234223048,126,-2,-0.8745591742831105,-0.958895228512236,-1.032333466298349
1769234223052,126,-2,-0.465347960077378,-0.8758132610186815,-0.6327876962482418
1769234223056,127,-1,0.0396447703681666,-0.0321939373886882,-0.1372626002588759
1769234223059,127,-1,0.6543262674877623,0.3862534917626017,0.4696925919114543
1769234223063,128,0,1.3671182931383117,0.9726562450469608,1.1761942206797675
1769234223068,129,1,2.1367324039246673,2.2428252399470505,1.939196148661368
1769234223072,130,2,2.926720782507505,2.9166588736578976,2.7209285301461765
1769234223076,130,2,3.7239721958399272,3.1250471203504615,3.508742509333886
1769234223080,131,3,4.504795621582726,4.289205739188499,4.280455086605736
1769234223083,132,4,5.185852225569179,5.008078392762593,4.953409038140584
1769234223087,132,4,5.630663934721534,5.263828443967461,5.390335502117775
1769234223092,133,5,5.72540724846467,5.847555793546131,5.476423431375554
1769234223096,132,4,5.456754487358175,5.178191592920341,5.198648696227256
1769234223100,131,3,4.915641098710443,4.2713201409449395,4.649226936547354
1769234223104,131,3,4.2272525448103355,3.9598622327184594,3.9537276360924127
1769234223107,130,2,3.48276688309182,3.4086016030551223,3.2019921043201007
1769234223111,130,2,2.7307716097036847,2.5848048426015255,2.4411960594884587
1769234223116,128,0,2.003512536850078,1.534768503787404,1.7039723726471228
1769234223120,128,0,1.3222549053253672,0.8292892323148494,1.0131623638182603
1769234223124,127,-1,0.6802295118788169,0.4413119071999523,0.3626655470363168
1769234223128,127,-1,0.0461960514734703,-0.0594524405466831,-0.2795447789624147
1769234223131,126,-2,-0.5999474951649281,-1.0140206920798778,-0.9344053100146874
1769234223135,125,-3,-1.2376787992429812,-1.7806129946236269,-1.581255919674104
1769234223140,125,-3,-1.812409088248069,-1.9804581756019255,-2.164894406732123
1769234223144,124,-4,-2.264600997140547,-2.6358291909404676,-2.625490594669349
1769234223148,124,-4,-2.553416483931468,-3.07139434137848,-2.922394831597118
1769234223152,124,-4,-2.664213794851519,-2.942930670448003,-3.041496011177626
1769234223155,124,-4,-2.6052082072408163,-2.8916628239190993,-2.9916095525800817
1769234223159,124,-4,-2.404477838470391,-2.8878430766975347,-2.8009796230200017
1769234223164,124,-4,-2.113622522078351,-2.692348322409318,-2.520628035174173
1769234223168,125,-3,-1.8072425024400969,-2.0639141543443547,-2.2240162896329116
1769234223172,125,-3,-1.5619370692583705,-1.899121954710131,-1.9865387077479717
1769234223176,125,-3,-1.4225313159520148,-1.9978788778066876,-1.8526978133795744
1769234223179,125,-3,-1.3847280158963031,-1.7573419354257,-1.8200439477927637
1769234223183,125,-3,-1.4084805076324798,-1.8403753404077137,-1.8525236909466172
1769234223188,125,-3,-1.443351916219897,-1.9175939023000377,-1.9029552220954151
1769234223192,125,-3,-1.4279482434259467,-2.0237182732222028,-1.9083260609231325
1769234223196,125,-3,-1.2271416642343795,-1.9212963078028336,-1.725842299535738
1769234223200,126,-2,-0.5036217571542867,-0.8038532737190686,-1.00886748464051
1769234223203,128,0,1.3988374613525194,1.1716212937151425,0.9020482292900798
1769234223207,132,4,5.392555201610546,5.103299495261512,4.911283118605047
1769234223212,139,11,12.245448922231931,11.949228255781916,11.770835493428391
1769234223216,148,20,21.877479535811005,21.09595229935484,21.38773577669054
1769234223220,158,30,32.70379723810701,31.183408366570625,32.17767386906332
1769234223224,167,39,41.59044597044069,40.16462617835261,41.02125633761286
1769234223227,172,44,44.82946088524738,45.10673622061075,44.22918789484406
1769234223232,168,40,39.91593734497166,40.917338174192295,39.30787737351295
1769234223236,154,26,27.170645616112164,27.062898020796368,26.57705657498304
1769234223240,136,8,10.063929507495414,9.209224952102335,9.49557917766164
1769234223244,119,-9,-6.191089119212922,-7.892872997449811,-6.739749568752995
1769234223248,108,-20,-17.045330420039754,-18.762453759393953,-17.593709328577596
1769234223251,106,-22,-20.589037692923917,-21.13853794650316,-21.161042187290043
1769234223256,109,-19,-17.97668017023949,-17.865233499611335,-18.588292487135824
1769234223260,115,-13,-12.246491109252446,-11.837447271450696,-12.896980932260098
1769234223264,120,-8,-6.475974714407184,-6.960699793591364,-7.148658522879615
1769234223268,123,-5,-2.4443182612798773,-3.679111800550839,-3.117268707382259
1769234223272,126,-2,-0.3921076004989059,-1.2866339182132809,-1.0518767229822894
1769234223275,126,-2,0.3539316735639044,-0.6625887545510957,-0.2946463017795981
1769234223280,127,-1,0.5633744009267505,-0.0716566920119694,-0.0872334696398239
1769234223284,127,-1,0.6383228691626823,0.2714601357785763,-0.0279954230835745
1769234223288,127,-1,0.6238816267100706,0.0811774417535808,-0.0636868940226348
1769234223292,127,-1,0.4621553172631036,-0.0662697738192376,-0.242933245222347
1769234223296,126,-2,0.1872397495278741,-0.8253109028861518,-0.5276074467282466
1769234223300,126,-2,-0.0733736466848005,-0.9757893668982962,-0.7926798889653502
1769234223304,126,-2,-0.2145112609837516,-0.7755748823709308,-0.9383143911803872
1769234223308,126,-2,-0.2346418451574177,-0.9496447951656104,-0.9662798310628664
1769234223312,126,-2,-0.2107602464112754,-0.9719727516855295,-0.9528295361332956
1769234223316,126,-2,-0.2082437048762613,-0.9520149163219582,-0.9606358950065716
1769234223320,126,-2,-0.2101809284438347,-0.8305533438031124,-0.9713397414306332
1769234223324,126,-2,-0.1216994693051598,-0.9620168426313076,-0.8907690886065073
1769234223328,126,-2,0.1527740816713174,-0.759047034668025,-0.6246268290422206
1769234223332,127,-1,0.6167584474644177,-0.1642910285384239,-0.1696858851929153
1769234223336,127,-1,1.1521189221995365,0.2556210740885354,0.3565155895306078
1769234223340,128,0,1.5898914761169638,0.9552589464208252,0.7854535674247989
1769234223344,128,0,1.834163731925743,1.2180513716529946,1.0211338778216872
1769234223348,128,0,1.934487612079796,1.0708796324638004,1.1131259821722108
1769234223352,128,0,2.0361836537815785,0.9765808775617296,1.207134394481672
1769234223356,128,0,2.2485923293577557,1.1675402308959455,1.4124194365434597
1769234223360,129,1,2.554275489578131,1.9886781250053904,1.7104533474775996
1769234223364,129,1,2.840809833032874,2.218390167754248,1.9878379914134388
1769234223368,129,1,3.0093240262430303,2.014238363198021,2.1463542736452856
1769234223372,129,1,3.045711405013303,2.0704687720086072,2.1737355657335757
1769234223376,129,1,3.0024924019383583,2.0521920778377267,2.1234385902204034
1769234223380,129,1,2.9407606681669463,2.1086454308142057,2.055536422414074
1769234223384,129,1,2.902325794885969,2.0891808883193104,2.010151015078614
1769234223388,129,1,2.921637179211916,2.1244779702219234,2.0213060427529888
1769234223392,129,1,3.03620852585332,1.9776254484929645,2.127547790181676
1769234223396,129,1,3.2699540448855022,2.1240916815554076,2.3536871406346904
1769234223400,130,2,3.610781000585372,3.0533904643444765,2.687301236425974
1769234223404,130,2,4.011898727411307,3.114974005613941,3.0808870408543543
1769234223408,130,2,4.411242829783357,3.108061093117853,3.4725047991788363
1769234223412,131,3,4.7477620638224005,3.979099763243684,3.801737394034973
1769234223416,131,3,4.975062985622225,4.1306625371608305,4.022291784907811
1769234223420,131,3,5.079808127415273,4.027466092070574,4.120386164276751
1769234223424,131,3,5.090767295022336,4.152168129551494,4.124539682213783
1769234223428,131,3,5.0617257317882505,4.044749517472876,4.088728856141969
1769234223432,131,3,5.038607795369023,4.050179952454916,4.059152613014503
1769234223436,131,3,5.038155977801194,4.058409165459743,4.052553236530392
1769234223440,131,3,5.052480624924835,4.084969425724942,4.060719328438252
1769234223444,131,3,5.069251070916917,4.109187334781313,4.070944027994059
1769234223448,131,3,5.0852940301515375,4.052941108818393,4.080038892944851
1769234223452,131,3,5.101485043622751,4.061072837847076,4.089411552627055
1769234223456,131,3,5.109585182299066,4.029656751985565,4.091546110890251
1769234223460,131,3,5.093748567875489,4.115376777314538,4.070820245403196
1769234223464,131,3,5.0542957770122126,4.0840166349863685,4.026951219976888
1769234223468,131,3,5.030260481039133,4.0394857253371645,3.99805233101777
1769234223472,131,3,5.084330066039591,4.116465345214496,4.04646069711035
1769234223476,131,3,5.243513628711257,3.9119302142059182,4.199608684043546
1769234223480,131,3,5.442564498750388,4.297870115768993,4.392737140154251
1769234223484,132,4,5.53585121012148,4.8289359487919,4.480299555743246
1769234223488,131,3,5.387924188384478,4.348126778178661,4.327022170779017
1769234223492,131,3,4.971971997559507,3.7492646650387456,3.9066949639258377
1769234223496,130,2,4.393434343021144,3.3145543504112323,3.3250174119924414
1769234223500,130,2,3.8254481580690336,2.860308547909806,2.754348138997891
1769234223504,129,1,3.4090597620596603,2.2802112699635595,2.334540324222992
1769234223508,129,1,3.179740778132245,1.894871605809603,2.1005512214009903
1769234223512,129,1,3.0557995806799148,2.1826265416007016,1.9711330191786265
1769234223516,129,1,2.889635185802469,1.9038470460570447,1.7996783057433552
1769234223520,128,0,2.546403412425799,1.2219981953797616,1.4522961547256612
1769234223524,128,0,1.961603376920594,0.9647332029596428,0.8647501959808586
1769234223528,127,-1,1.1535443641826522,0.1510016285877097,0.0547169902952013
1769234223532,126,-2,0.197665102556579,-1.0277664350038145,-0.903270592814357
1769234223536,125,-3,-0.8180831839382385,-1.9367419674683768,-1.9216787016156265
1769234223540,124,-4,-1.833875831201946,-2.901819923655062,-2.9405116882036424
1769234223544,123,-5,-2.833446051837668,-3.949018238686668,-3.9431119097037577
1769234223548,122,-6,-3.8299133905603258,-4.913419524713311,-4.942323880682319
1769234223552,121,-7,-4.838124396826551,-5.981183594160081,-5.952997886389557
1769234223556,120,-8,-5.853536171829058,-6.99269126851905,-6.970763579708165
1769234223560,119,-9,-6.847058978782597,-7.834447028398085,-7.966467790324877
1769234223564,118,-10,-7.773917130537313,-9.04562747704386,-8.894856984211081
1769234223568,117,-11,-8.586275055172555,-9.79578802378028,-9.707765796661985
1769234223572,117,-11,-9.236903846812943,-10.117617479158186,-10.35848392113212
1769234223576,116,-12,-9.674718031247105,-10.863112994669232,-10.796986951631498
1769234223580,116,-12,-9.85358032554745,-10.9543530424105,-10.977579457048616
