timestamp_ms,ecg_u8_raw,ecg_counts_raw_int,ecg_counts_filt_monitor,ecg_counts_filt_diagnostic,ecg_counts_filt_st
1770453742980,127,-1,0.7387335569413646,-0.9031473147196682,0.0439525695547337
1770453742984,128,0,1.017924205580767,-0.2190489465115705,0.3281536605714402
1770453742988,128,0,1.2835484779376405,0.123422731757117,0.598830289679085
1770453742992,128,0,1.531343117030393,-0.083299131549501,0.8515018734781131
1770453742996,128,0,1.831317492882606,0.3619979799267089,1.156334558643623
1770453743000,129,1,2.233732749039422,0.8615868058375047,1.5637402715549316
1770453743004,129,1,2.6855206620130305,1.0415871940237462,2.020392330462738
1770453743008,130,2,3.038889992981955,1.8560556933947956,2.378041537934625
1770453743012,130,2,3.1470439776244348,2.149307479115441,2.4899634397300803
1770453743016,129,1,2.959558178845004,1.1583347984480912,2.30656397596397
1770453743020,129,1,2.5356040967128837,0.9946273064180652,1.8876523249943624
1770453743024,129,1,1.9805078112147816,0.980829880412167,1.3381141401253749
1770453743028,128,0,1.376957965967612,-0.1728490816106084,0.7397520759805929
1770453743032,127,-1,0.7618204399443984,-0.7411974637143831,0.1291907114138334
1770453743036,127,-1,0.146523124691648,-1.0370810883710293,-0.4818800857531438
1770453743040,126,-2,-0.4466124600951044,-1.770286866353702,-1.0710334762405662
1770453743044,126,-2,-0.9654528657526652,-2.2871749889649573,-1.5860192375332804
1770453743048,125,-3,-1.3494984474642864,-2.8964627369636213,-1.9658429704997515
1770453743052,125,-3,-1.5750986632797133,-3.0216819487128226,-2.186463658540574
1770453743056,125,-3,-1.6744552314642716,-2.7832839409948114,-2.280451826798503
1770453743060,125,-3,-1.7035302867445583,-3.0108134919596146,-2.3046072089242604
1770453743064,125,-3,-1.6951211200266618,-3.084926680748119,-2.292198498226922
1770453743068,125,-3,-1.6514552200491244,-3.055680246741939,-2.2452480831149817
1770453743072,125,-3,-1.581792854659429,-2.932158383192842,-2.1723804010576098
1770453743076,125,-3,-1.537250021538772,-2.819681867011819,-2.123954324156406
1770453743080,125,-3,-1.5965121969869671,-3.0476856037408417,-2.17825019358794
1770453743084,125,-3,-1.8033680386671935,-2.9925671179591413,-2.3795677459571665
1770453743088,125,-3,-2.1063320797683733,-3.1995576772187793,-2.677577947155103
1770453743092,124,-4,-2.3654669530272794,-3.771699522029095,-2.9328837607056792
1770453743096,124,-4,-2.4472006439919216,-4.001996737566553,-3.011234086385969
1770453743100,124,-4,-2.3399773170261033,-3.8777546120379984,-2.900276897484329
1770453743104,125,-3,-2.177784147760113,-3.1463621113072526,-2.7342275876998148
1770453743108,125,-3,-2.13269875329021,-3.073037158400939,-2.6857223222379822
1770453743112,124,-4,-2.2725305757552716,-3.8803183014067377,-2.8221560651264324
1770453743116,124,-4,-2.5180161885011243,-3.9441383654432984,-3.0633169667353446
1770453743120,124,-4,-2.7265958376402595,-3.913977066347049,-3.266702371361786
1770453743124,124,-4,-2.8087925282806303,-4.143803536267384,-3.344030224554739
1770453743128,124,-4,-2.7773378458742735,-4.03981099858445,-3.3089475142268516
1770453743132,124,-4,-2.710377660179097,-3.94167606115121,-3.23934274714805
1770453743136,124,-4,-2.6783499998165317,-3.898247885346589,-3.204706989524978
1770453743140,124,-4,-2.6962382639867535,-3.968718263642979,-3.2192553022179764
1770453743144,124,-4,-2.731236818627633,-4.1043581955903825,-3.2500209202158663
1770453743148,124,-4,-2.747530569633901,-4.05602738991063,-3.2616659829000936
1770453743152,124,-4,-2.7408530961393485,-3.948707735449133,-3.2507569544605324
1770453743156,124,-4,-2.7324185889615853,-3.9014686378852863,-3.2390593304157114
1770453743160,124,-4,-2.7377525920429857,-3.983425736832913,-3.241804532673931
1770453743164,124,-4,-2.7501326629969594,-4.091682085995847,-3.251350400364679
1770453743168,124,-4,-2.7547886591335877,-4.061379371274813,-3.252338706551661
1770453743172,124,-4,-2.750556912406379,-3.9558518483413194,-3.243996478752204
1770453743176,124,-4,-2.749857059459069,-3.9091431404657415,-3.2396312502291957
1770453743180,124,-4,-2.759695375605466,-3.990730364672318,-3.246573835087435
1770453743184,124,-4,-2.771509088636364,-4.085913129432019,-3.255688135541575
1770453743188,124,-4,-2.773552105830202,-4.064099057265391,-3.2545388508698214
1770453743192,124,-4,-2.767669361344035,-3.963406771536025,-3.245031136673884
1770453743196,124,-4,-2.766811924327701,-3.9162335545435742,-3.2407774112595877
1770453743200,124,-4,-2.7769470271294434,-3.997177953026785,-3.2481056568868665
1770453743204,124,-4,-2.7886643376606357,-4.081519313949486,-3.257226947403533
1770453743208,124,-4,-2.7901598659875058,-4.067067441308707,-3.255776162002013
1770453743212,124,-4,-2.783700743275753,-3.971542144234487,-3.2460201354613565
1770453743216,124,-4,-2.7828740617884367,-3.919903461559946,-3.2420434789646952
1770453743220,124,-4,-2.794147735500693,-4.00750341654527,-3.250600069017234
1770453743224,124,-4,-2.807546190014933,-4.073338453676463,-3.2614496094127974
1770453743228,124,-4,-2.8090258442570617,-4.073779106348232,-3.2601889463463887
1770453743232,124,-4,-2.798526690344974,-3.98043686424172,-3.246833929474568
1770453743236,124,-4,-2.790899619170742,-3.9148641667543376,-3.2365703540444715
1770453743240,124,-4,-2.799406872272109,-4.032144038172612,-3.2426717132390537
1770453743244,124,-4,-2.821936185213003,-4.048676707443617,-3.2626477658903905
1770453743248,124,-4,-2.843054912178288,-4.092288226218379,-3.280889982274947
1770453743252,124,-4,-2.844506049621031,-3.997753325106498,-3.2795144176508924
1770453743256,124,-4,-2.812097236791171,-3.862485318860773,-3.244787964255382
1770453743260,124,-4,-2.7385854804247214,-4.159765758822537,-3.1694315624096503
1770453743264,124,-4,-2.625224759095035,-3.8465409587989,-3.054271509580507
1770453743268,125,-3,-2.476089466485031,-3.381096708493542,-2.902977773735444
1770453743272,124,-4,-2.283796374985988,-3.637021527275879,-2.7079153970495224
1770453743276,125,-3,-2.0218232081346166,-3.306472376577365,-2.4426385554420813
1770453743280,125,-3,-1.6564502311727596,-2.666653631757551,-2.074154310300644
1770453743284,126,-2,-1.1717118555222827,-2.387022236463128,-1.5875049801511882
1770453743288,126,-2,-0.5929079143472684,-1.822052136439936,-1.0081776857057918
1770453743292,127,-1,0.003637149781527,-1.199931828977414,-0.4114094365966539
1770453743296,127,-1,0.5104234877556486,-0.7809544290318693,0.0967201840694606
1770453743300,128,0,0.8464109086452891,-0.1670201921933873,0.4356514756630855
1770453743304,128,0,1.024262347293826,0.069086603040095,0.6173366575455872
1770453743308,128,0,1.166263113663382,-0.2453921377506885,0.7628494345180656
1770453743312,128,0,1.4321556257873378,0.1854943135946652,1.0309348272520893
1770453743316,129,1,1.8980599146748889,0.848102430622568,1.497427180070292
1770453743320,129,1,2.4777047852969343,1.1672687653847995,2.0768027307811163
1770453743324,130,2,2.9516873770056633,1.7648857518576757,2.5509966467408587
1770453743328,130,2,3.0949379482011463,2.025016409244862,2.695686142608771
1770453743332,130,2,2.822524274793383,1.9260861741366664,2.4256113681355767
1770453743336,129,1,2.2484515464896697,1.0767894724429985,1.8541885790630737
1770453743340,128,0,1.6035057160265245,-0.0672415564081228,1.211963226151816
1770453743344,128,0,1.0727733608417844,0.0029744966969502,0.6836310163274314
1770453743348,128,0,0.6881799487138599,-0.2177352410487895,0.3003563960831585
1770453743352,127,-1,0.3543342847960359,-0.8358813612839366,-0.0334405098055381
1770453743356,127,-1,-0.0434198025888468,-1.1671565437270546,-0.4314550011606407
1770453743360,126,-2,-0.5564106528561912,-1.8540949716177753,-0.9438473359161208
1770453743364,126,-2,-1.1676792121630886,-2.1974352737950573,-1.5534343331216631
1770453743368,125,-3,-1.8372953578161224,-3.037210121321892,-2.2209486100967304
1770453743372,124,-4,-2.5410753963975408,-3.998418225206118,-2.9230128422609916
1770453743376,124,-4,-3.2660211240604196,-4.039051324348467,-3.647030402014011
1770453743380,123,-5,-3.971971394945608,-4.973149272302935,-4.352485316939552
1770453743384,122,-6,-4.569247087633647,-6.110823147671747,-4.94876021064957
1770453743388,122,-6,-4.9497300454874935,-6.098556828254345,-5.327303729974258
1770453743392,122,-6,-5.048668845656725,-5.955803635711674,-5.424202894174436
1770453743396,122,-6,-4.884216909389209,-6.092930256410786,-5.258871441876879
1770453743400,122,-6,-4.553060406375799,-5.914551699439319,-4.928343766117815
1770453743404,123,-5,-4.193838879804884,-5.204567607680262,-4.570507978403172
1770453743408,123,-5,-3.932645688080181,-4.978825272602745,-4.310127686755125
1770453743412,123,-5,-3.8293966419661136,-5.105209718409912,-4.205601488677002
1770453743416,123,-5,-3.8556327731802593,-4.9416630613263495,-4.227561646176456
1770453743420,123,-5,-3.922206392518496,-5.073752652709796,-4.287984342804276
1770453743424,123,-5,-3.942611045331792,-5.080451186351026,-4.304112738953714
1770453743428,123,-5,-3.893929765932197,-5.0553449791550085,-4.257580056378612
1770453743432,123,-5,-3.8298929789761926,-5.092730968801919,-4.203597567785627
1770453743436,123,-5,-3.8059817521541786,-4.9023614661044475,-4.192940222811486
1770453743440,123,-5,-3.705867657190806,-5.173539158712869,-4.099549577858815
1770453743444,124,-4,-3.025450498532108,-3.9742465734609698,-3.4108414509198663
1770453743448,127,-1,-0.7650718679204429,-1.1348416850719945,-1.127402927260736
1770453743452,131,3,4.363833866421959,2.9298616839561937,4.027784170796215
1770453743456,140,12,13.30784944071794,12.156306115961817,12.984334088405877
1770453743460,153,25,25.793140867797327,24.679757473616153,25.45789903320022
1770453743464,165,37,39.69662752146426,37.237168499218754,39.33041515816249
1770453743468,178,50,51.25230108251458,49.60224006254259,50.853772674099055
1770453743472,184,56,56.34917439754757,56.191544194262136,55.93481446545281
1770453743476,181,53,52.47915617089521,52.84039890101758,52.07200806323901
1770453743480,168,40,40.23797047732928,39.92739257193272,39.855598725453945
1770453743484,149,21,23.29951546658776,20.997394948979903,22.947896505650355
1770453743488,132,4,6.703203234395965,3.7908739600672297,6.375498783162572
1770453743492,121,-7,-5.5137995211823725,-6.880544735183654,-5.8351321085072465
1770453743496,116,-12,-11.864403399947571,-12.08567658591612,-12.20031219903736
1770453743500,114,-14,-13.355868139359096,-14.070384829438224,-13.719220074983337
1770453743504,115,-13,-12.215837324071652,-13.045878127731989,-12.603574153510356
1770453743508,117,-11,-10.451672206844725,-11.233864917532632,-10.847575850037035
1770453743512,117,-11,-9.095426554287052,-10.871682288905896,-9.481224559615
1770453743516,118,-10,-8.298735646507442,-10.1146756720752,-8.665039037198444
1770453743520,119,-9,-7.854341355436757,-8.987132885312734,-8.204794770775912
1770453743524,120,-8,-7.59931216171834,-8.18271842887387,-7.946376561030113
1770453743528,120,-8,-7.475753286486962,-8.09589572370155,-7.8311518211347
1770453743532,119,-9,-7.41862657106303,-9.063384210387856,-7.785200102419114
1770453743536,119,-9,-7.326470090849453,-8.884500879236391,-7.697841284329458
1770453743540,120,-8,-7.149044761842058,-8.215413851309323,-7.516913752037047
1770453743544,120,-8,-6.934373884055314,-7.954991801486438,-7.2960853316286
1770453743548,121,-7,-6.746827361424353,-7.354695884134776,-7.106142728182775
1770453743552,120,-8,-6.561591724585245,-7.821018121446708,-6.923184549360121
1770453743556,120,-8,-6.283308986153792,-8.13086439894539,-6.64782621258714
1770453743560,121,-7,-5.874232090379164,-6.955006380286046,-6.238968272026264
1770453743564,122,-6,-5.42804614055261,-6.210281851395467,-5.791100400668922
1770453743568,122,-6,-5.08766352413193,-6.145600233461653,-5.449933432069196
1770453743572,122,-6,-4.896606736174276,-6.002764823767425,-5.259782633666501
1770453743576,122,-6,-4.750491964231502,-6.01272107219963,-5.114396244172528
1770453743580,122,-6,-4.496048787004752,-6.011955750497095,-4.858850508553476
1770453743584,123,-5,-4.065053035069662,-5.201478736447213,-4.425865764167893
1770453743588,124,-4,-3.5082261281186904,-4.132033893723392,-3.8685176482485537
1770453743592,124,-4,-2.919456098794973,-4.04618978093015,-3.281255976825143
1770453743596,124,-4,-2.3575098960201535,-3.9806946512294377,-2.720841619771752
1770453743600,125,-3,-1.8430951052094255,-3.0284159313428365,-2.2062111385707426
1770453743604,126,-2,-1.3940768339754384,-2.2201987077567864,-1.7558989066183297
1770453743608,126,-2,-1.0298645644793014,-2.080911969266638,-1.3909103693545704
1770453743612,126,-2,-0.7488698297385628,-2.1473179307859676,-1.109757992845832
1770453743616,126,-2,-0.5242421003847223,-1.852835397048356,-0.884664613042758
1770453743620,127,-1,-0.3202706011176915,-1.1999629786602015,-0.6799222614410262
1770453743624,127,-1,-0.1015322758833514,-1.0187797205009288,-0.460911265441745
1770453743628,127,-1,0.1609098778871923,-1.305039944893931,-0.1986426113382734
1770453743632,127,-1,0.4660200000747796,-0.9227399559699838,0.1067284901577725
1770453743636,128,0,0.7643981505577601,-0.0919752594101908,0.4059156961842195
1770453743640,128,0,0.9855501101521532,0.0168847090651961,0.6275813802775632
1770453743644,128,0,1.0941732003782194,-0.2068076905321125,0.7361456200197106
1770453743648,128,0,1.1128272806450323,-0.1499544527013881,0.7550042255034969
1770453743652,128,0,1.0901479918491015,-0.0615433292081346,0.7334775708344435
1770453743656,128,0,1.0600010089412963,-0.001510426894854,0.705001441272225
1770453743660,128,0,1.0348308374319173,-0.0459899083094066,0.6811253652276936
1770453743664,128,0,1.023055985089262,-0.1636845748607339,0.6699573602409918
1770453743668,128,0,1.035217867817734,-0.1764880684147382,0.6823534818113919
1770453743672,128,0,1.069836860274806,-0.0695502751896975,0.7171673060563695
1770453743676,128,0,1.1018694841629508,0.0031415120684415,0.7495466966962443
1770453743680,128,0,1.0947220144560568,-0.0601134588520283,0.7432255124215363
1770453743684,128,0,1.0316797954162584,-0.1376856380346356,0.6818055652035944
1770453743688,128,0,0.9454461200742786,-0.2111335529890343,0.5977207525058997
1770453743692,128,0,0.923347265088008,-0.0564426023701637,0.5775158521548932
1770453743696,128,0,1.0725967572806474,-0.0158212672202733,0.7280568494258967
1770453743700,128,0,1.4510028437415463,-0.0524754049717935,1.1076198446564076
1770453743704,129,1,2.0071724284715344,0.8721677274703004,1.6651363979923803
1770453743708,130,2,2.5897207312207895,1.7692673634213525,2.248700483277941
1770453743712,130,2,3.03186198136265,1.935999264251925,2.6911337771528037
1770453743716,130,2,3.2400290487562415,2.0010897427474035,2.899774167662105
1770453743720,130,2,3.2131792476085574,1.8902042647480777,2.875025498290719
1770453743724,130,2,2.9998470110375477,1.9710177336341552,2.665538145776801
1770453743728,130,2,2.656785202590405,1.6322620475695488,2.326416249486776
1770453743732,129,1,2.242239953433992,1.0831934360873348,1.914104911910876
1770453743736,129,1,1.817152771286242,0.8361285613369144,1.4893737530323146
1770453743740,128,0,1.4219328538097384,0.0362938912648538,1.0941848350093188
1770453743744,128,0,1.0449307886188337,-0.1486261694706528,0.7186090990636664
1770453743748,128,0,0.6324075655098279,-0.2808109390314873,0.3092487100099678
1770453743752,127,-1,0.1564031516753959,-0.982272217273285,-0.1628697938346042
1770453743756,127,-1,-0.3160139242071578,-1.1429380041100503,-0.6316955378303121
1770453743760,126,-2,-0.6345472199503179,-1.962266164300778,-0.9470637123256286
1770453743764,126,-2,-0.6723411077210739,-2.1823713112492698,-0.9819581972819628
1770453743768,127,-1,-0.4397727130301563,-1.21782277398751,-0.7471224084786527
1770453743772,127,-1,-0.098630613835032,-1.0737549872177827,-0.4046318421724982
1770453743776,127,-1,0.1374070914047858,-1.0527317698563885,-0.167263855457534
1770453743780,127,-1,0.1317074542132462,-1.0578077735803364,-0.1701406072841995
1770453743784,127,-1,-0.1049668502388844,-1.1160593763043185,-0.402111821053811
1770453743788,127,-1,-0.4311320492792897,-1.2583414332106968,-0.7227570135433361
1770453743792,126,-2,-0.6606243740686466,-2.067833673024479,-0.947171149040665
1770453743796,126,-2,-0.6715735724596299,-2.031616754224004,-0.954210834136892
1770453743800,127,-1,-0.4694130213683517,-1.125950886418118,-0.749576553504129
1770453743804,127,-1,-0.1616802726367315,-1.0127337511898815,-0.4401522337652177
1770453743808,127,-1,0.1205039596300193,-1.4079497093147395,-0.1552988739213031
1770453743812,127,-1,0.2853380538008216,-0.877288779281256,0.0144152060203183
1770453743816,128,0,0.3051004982874198,-0.27420021062719,0.040390108503283
1770453743820,127,-1,0.2160620146609923,-0.8751008182604824,-0.0429623152446673
1770453743824,127,-1,0.0880882615725807,-1.260892320922013,-0.1664221209080937
1770453743828,127,-1,-0.0358954316612818,-1.1865009767124586,-0.2864840725032437
1770453743832,127,-1,-0.1791835478308049,-1.0649780771066837,-0.4260177991241869
1770453743836,127,-1,-0.3984595981503225,-1.1485901911579752,-0.6414304416132854
1770453743840,126,-2,-0.7079837847331036,-1.9517732072715372,-0.946002204059908
1770453743844,126,-2,-1.0398330748140592,-2.2422416389807434,-1.2709124280968218
1770453743848,126,-2,-1.2722115438681725,-2.1617177756765296,-1.4953022758495946
1770453743852,126,-2,-1.291598884382637,-2.140306075152764,-1.5080315920689416
1770453743856,126,-2,-1.0518041089445198,-2.042360425524676,-1.264096533535234
1770453743860,126,-2,-0.6160194167394211,-2.0882945237692825,-0.825340063621434
1770453743864,127,-1,-0.1545064400483738,-1.0970722609100023,-0.3597431567097111
1770453743868,128,0,0.1363048057349177,-0.3222416782503982,-0.0625271135018662
1770453743872,127,-1,0.1620097069922554,-0.9869901619154122,-0.0281943271700589
1770453743876,127,-1,-0.0002778884023896,-1.193430349648199,-0.1806655314197485
1770453743880,127,-1,-0.164689040877259,-0.9622074098039054,-0.336064352317425
1770453743884,127,-1,-0.1884778933384437,-1.2063116853392493,-0.3537055040006404
1770453743888,127,-1,-0.0968285589580988,-1.256573962578273,-0.2589143560620336
1770453743892,127,-1,-0.0853920736830106,-0.99084072277107,-0.244857150863855
1770453743896,127,-1,-0.3796719746407857,-1.2719802881720192,-0.533807738421201
1770453743900,126,-2,-1.0214956929366477,-1.821504169651098,-1.1662359287832027
1770453743904,126,-2,-1.7248228285647915,-2.4190186422228592,-1.857402756240792
1770453743908,125,-3,-1.9340303935440264,-3.0145869522651507,-2.0542023282384356
1770453743912,126,-2,-1.098637949155632,-2.227750660025978,-1.2080198847399994
1770453743916,128,0,0.9845631873503526,-0.0729228587993116,0.8836714305851117
1770453743920,131,3,3.987227829062154,3.0395473316534902,3.892435241129136
1770453743924,135,7,7.154885106580385,6.631222063941139,7.064146466662384
1770453743928,137,9,9.63030951709948,9.014394114594674,9.543128975350692
1770453743932,138,10,10.77928719934034,9.649616877490418,10.697977412121023
1770453743936,137,9,10.345504287370808,9.092938840911868,10.2745032501592
1770453743940,136,8,8.432529003014892,7.821977058512235,8.375578466057375
1770453743944,133,5,5.421340594952323,4.857214987280403,5.379155871168491
1770453743948,129,1,1.886778714379057,0.8074028178671802,1.8573525388012757
1770453743952,126,-2,-1.5148839026611798,-2.177422093338087,-1.5342624562912843
1770453743956,123,-5,-4.214133226117459,-5.044105702031713,-4.2252745020829074
1770453743960,121,-7,-5.900828002481916,-7.105323208886497,-5.904233835589319
1770453743964,121,-7,-6.600543616264878,-7.147077290763163,-6.595701070627007
1770453743968,121,-7,-6.593470292878555,-7.237847770447786,-6.5792061248529174
1770453743972,121,-7,-6.219268965697766,-7.09414292557262,-6.193988010201347
1770453743976,122,-6,-5.696179568584323,-6.185525528839062,-5.658252781378907
1770453743980,122,-6,-5.070362081459744,-5.947759764332024,-5.018790509495112
1770453743984,123,-5,-4.309480673434383,-5.344915834693511,-4.244510067290126
1770453743988,124,-4,-3.4454080550671207,-3.9820927695785326,-3.3686101174669645
1770453743992,125,-3,-2.6391788687745485,-3.407074112185845,-2.552672603216627
1770453743996,125,-3,-2.1107304289734152,-2.845686330706285,-2.0156672165703617
1770453744000,126,-2,-1.9874556812362612,-2.330989117537774,-1.8825240056467785
1770453744004,125,-3,-2.1892528719849036,-2.9597721345166987,-2.070442986420816
1770453744008,125,-3,-2.4390212275340923,-3.351065553468737,-2.3017916277082717
1770453744012,125,-3,-2.392707016987314,-3.0555618622693883,-2.2359488486922934
1770453744016,126,-2,-1.8046430268393707,-2.1997674983183675,-1.632869786834542
1770453744020,127,-1,-0.650784745225803,-0.985957746479384,-0.470979767685113
1770453744024,128,0,0.8152203128759399,-0.3142540517350972,1.0002050156019315
1770453744028,129,1,2.0982266767006115,1.0249578562298107,2.2927584702499395
1770453744032,131,3,2.6461911191843503,2.531628769754513,2.8576294624319587
1770453744036,130,2,2.162856040018431,2.2233176588282735,2.3948028103903063
1770453744040,129,1,0.8437692226939276,0.5550616352478284,1.0943129557198317
1770453744044,126,-2,-0.7202504653100058,-1.84209895603136,-0.4545997983403609
1770453744048,125,-3,-1.97266405953082,-3.448883328754863,-1.6933984806502171
1770453744052,125,-3,-2.805145770727289,-3.030649763463179,-2.512320493293998
1770453744056,125,-3,-3.5743675300581415,-3.1397614709347383,-3.2683290027348857
1770453744060,123,-5,-4.711554358281081,-5.183877267732153,-4.392184057526267
1770453744064,121,-7,-6.299614987897568,-6.98828247080821,-5.96482292877573
1770453744068,120,-8,-7.985455948409513,-8.457094955617123,-7.632354783912032
1770453744072,118,-10,-9.253166333988394,-9.932467505696772,-8.880818351987745
1770453744076,118,-10,-9.786686983818358,-10.288367366967677,-9.396658856918886
1770453744080,118,-10,-9.632546813664272,-9.989315858966808,-9.22671606003261
1770453744084,119,-9,-9.073546204788196,-9.177820851994118,-8.65203396668904
1770453744088,120,-8,-8.358295745292065,-8.341412443999936,-7.919530056159622
1770453744092,120,-8,-7.534170587191889,-8.009719606698432,-7.076510622281378
1770453744096,121,-7,-6.52362504640144,-7.267591265297781,-6.047188503998781
1770453744100,122,-6,-5.343782840200063,-5.939092401016109,-4.85135028195377
1770453744104,124,-4,-4.213573942481611,-4.267761498673653,-3.709190383758056
1770453744108,125,-3,-3.386882597413644,-3.268275762549843,-2.8717222903805464
1770453744112,125,-3,-2.815540200548954,-3.0808974821763986,-2.2840167876747643
1770453744116,126,-2,-1.924894889237625,-2.2373209313984592,-1.3660948506721424
1770453744120,128,0,0.2802690873351334,0.0941266829147139,0.8746275349827772
1770453744124,133,5,4.780646941224747,4.651669504584618,5.407866171229202
1770453744128,140,12,11.966645054720278,11.838969347658963,12.6128297065698
1770453744132,149,21,21.18922554857834,20.798891090426142,21.838977090729927
1770453744136,158,30,30.700757751768272,29.867110499617674,31.34882097783607
1770453744140,166,38,38.15227211138381,38.01746386717913,38.806998713327175
1770453744144,171,43,41.55615424379395,42.66408492782833,42.23282397894066
1770453744148,169,41,40.256852767052514,40.82852615480715,40.96792146924368
1770453744152,163,35,35.27496475224991,34.75602553123851,36.02436168592263
1770453744156,156,28,28.704531310858748,27.913731173949476,29.487158592507523
1770453744160,150,22,22.514152544538383,21.98754711310479,23.318915928394944
1770453744164,146,18,17.56096991262149,17.706686452788993,18.37658663920763
1770453744168,142,14,13.450741228257204,13.831655179959933,14.272521636166562
1770453744172,138,10,9.231241586516282,9.717710989277572,10.064365797269073
1770453744176,133,5,4.330343080732323,4.93688340527134,5.186389160890936
1770453744180,127,-1,-0.9482964593526138,-1.055620421084713,-0.0594382722891371
1770453744184,122,-6,-5.668369052649911,-6.277748907605656,-4.7452914628786855
1770453744188,119,-9,-8.975660634224102,-9.111445264330142,-8.026089750252387
1770453744192,118,-10,-10.696157430894642,-10.399217031170576,-9.730783871207354
1770453744196,117,-11,-11.376767902867847,-10.888522976449126,-10.400442434797542
1770453744200,117,-11,-11.792617225150051,-11.296512027996185,-10.799922312355555
1770453744204,116,-12,-12.33615627328722,-12.025145901761348,-11.315690694168632
1770453744208,116,-12,-12.747632969796657,-12.36197005054429,-11.691740786769577
1770453744212,116,-12,-12.37336513617556,-12.188522877089486,-11.28460122674912
1770453744216,117,-11,-10.766349727990915,-11.04293896376696,-9.654969125211448
1770453744220,120,-8,-8.19707734007813,-8.221408481820525,-7.072322980824677
1770453744224,123,-5,-5.670552600260451,-5.016968642420311,-4.5335357625003585
1770453744228,125,-3,-4.3700884421751045,-3.4522862296716803,-3.213480794675996
1770453744232,124,-4,-4.8835169804250125,-4.048638727204954,-3.6972025081757818
1770453744236,122,-6,-6.778718973562961,-6.246677276906387,-5.556661120848205
1770453744240,119,-9,-8.872828302850625,-9.025557346861468,-7.6165526116361
1770453744244,118,-10,-10.023190950619092,-10.192841720842116,-8.740121649455165
1770453744248,119,-9,-9.862399576052857,-9.287934412248408,-8.56056582535625
1770453744252,120,-8,-8.940087688947486,-8.147591907021347,-7.622779024557541
1770453744256,121,-7,-8.195552145519631,-7.215388195288065,-6.859445665762264
1770453744260,121,-7,-8.195098945863272,-7.032494661386677,-6.832874225191669
1770453744264,120,-8,-8.725956073236404,-8.25835152268193,-7.331153738504858
1770453744268,119,-9,-9.035501952271376,-9.184713724029416,-7.606387935816372
1770453744272,120,-8,-8.485037651217429,-8.250719464412612,-7.025597879391433
1770453744276,122,-6,-7.06808261324708,-6.107769480815445,-5.585565234173576
1770453744280,124,-4,-5.390379765975672,-4.135264667477472,-3.89010000202164
1770453744284,125,-3,-4.181333532487839,-3.194116612577118,-2.6620457934249564
1770453744288,125,-3,-3.769111471915747,-3.232467926273187,-2.2234082062620852
1770453744292,125,-3,-3.9108886715081246,-3.241344517956284,-2.3311884709119433
1770453744296,125,-3,-4.0392963331060905,-3.0887423201527806,-2.4241216735697435
1770453744300,125,-3,-3.6910625971183983,-3.183702628970253,-2.0457737264898697
1770453744304,126,-2,-2.813174996312453,-2.1194367482754743,-1.14501719319437
1770453744308,128,0,-1.7665818065482772,-0.328802351034872,-0.0788963769313986
1770453744312,128,0,-1.056152110415507,-0.1354433176666718,0.6537093044503024
1770453744316,128,0,-0.987783295560514,-0.2223874710453948,0.7502821192725333
1770453744320,128,0,-1.4826436136761336,-0.0362396414004727,0.2882734894128568
1770453744324,127,-1,-2.156062330312817,-1.3016828206213678,-0.3519823017188809
1770453744328,126,-2,-2.5922535785845557,-2.124870191450119,-0.7583318989465598
1770453744332,127,-1,-2.62035439312427,-1.3485109599323404,-0.7606758446247743
1770453744336,127,-1,-2.3968454454122003,-1.010558387915415,-0.513593705507259
1770453744340,127,-1,-2.2449349083764076,-1.2426673595955546,-0.3372707822445397
1770453744344,127,-1,-2.386856858673507,-1.118173751977534,-0.4518058147100775
1770453744348,127,-1,-2.7714500846653967,-1.3033742089728697,-0.8060512674977878
1770453744352,126,-2,-3.1110331753511673,-2.1922325830291287,-1.1139652399146094
1770453744356,126,-2,-3.086724463059461,-2.1541075156157445,-1.058553407037084
1770453744360,127,-1,-2.563925177619604,-1.1010029363569476,-0.5065857633033408
1770453744364,128,0,-1.6608759948089618,-0.2685342956327797,0.4232052361971009
1770453744368,129,1,-0.6419118265675001,0.8533559651998073,1.4673518394571314
1770453744372,130,2,0.2508362093793126,1.6328528116707988,2.385815492166823
1770453744376,130,2,0.8921935800308167,2.012477019162179,3.055383077043563
1770453744380,131,3,1.259575470997468,2.7419419337779227,3.4537170350286392
1770453744384,131,3,1.374216629037858,2.8540963697319786,3.6003305681295688
1770453744388,131,3,1.2696879806539862,2.775935559073504,3.526445007425816
1770453744392,131,3,0.9946226355173704,2.6460209769688223,3.279479616207265
1770453744396,130,2,0.6080877030811414,2.0602630563793793,2.9192828914423465
1770453744400,130,2,0.1439180803886437,1.615255740114637,2.4818074838787947
1770453744404,129,1,-0.4235873938828707,1.0496550384449348,1.9429717433374485
1770453744408,129,1,-1.1546384468179638,0.5232068746092893,1.2421367510978951
1770453744412,128,0,-2.0493512135676606,-0.0717669750505064,0.3771548544176563
1770453744416,127,-1,-2.9586142998965923,-1.2307530699983884,-0.5041497984353644
1770453744420,126,-2,-3.601413071566455,-2.1359589249241564,-1.1195578224051932
1770453744424,126,-2,-3.7032834138846566,-2.13510614238657,-1.192017496994611
1770453744428,127,-1,-3.148945835780043,-1.3784408029816273,-0.6053385308266095
1770453744432,128,0,-2.0235477605297407,-0.0698395617662771,0.5529099445278595
1770453744436,130,2,-0.5340276141790481,1.6718479832659012,2.071943064869939
1770453744440,131,3,1.071641588371866,3.0252382169853114,3.7023055687957185
1770453744444,132,4,2.487064783104791,3.6431611169191855,5.140014908353586
1770453744448,133,5,3.2930912483273804,4.85393360844029,5.969825229788414
1770453744452,134,6,3.0416484437890894,5.7130072294811525,5.745974268043129
1770453744456,132,4,1.5357312517244368,3.8466534922118334,4.271806998313279
1770453744460,129,1,-0.8930967146015423,0.9007028340474854,1.8781912559187224
1770453744464,127,-1,-3.398888658259157,-1.316469150474061,-0.5911818076305428
1770453744468,125,-3,-5.008805794952207,-3.1251784527029285,-2.1677523241542227
1770453744472,125,-3,-5.162939770114301,-3.3620902746069463,-2.2955919557177435
1770453744476,126,-2,-4.054689529387807,-1.9870561274047704,-1.168148496866093
1770453744480,128,0,-2.536127882817009,-0.3303629318033879,0.3673684797535619
1770453744484,129,1,-1.62219431661558,0.9429042381166648,1.3028585719023908
1770453744488,129,1,-1.8867812849293235,0.5541808425392718,1.068716841522174
1770453744492,127,-1,-3.1265465572199673,-1.033420940085,-0.1329168849578721
1770453744496,126,-2,-4.504655792684767,-2.300356334824139,-1.4713689217487165
1770453744500,125,-3,-5.079386392941687,-3.034407670225117,-2.012242741701493
1770453744504,126,-2,-4.3817419031255564,-2.330701683421365,-1.2903443430843315
1770453744508,128,0,-2.687073907270939,-0.206335173779128,0.421144810320594
1770453744512,130,2,-0.8284973286169639,1.7632856460112905,2.295862320310307
1770453744516,131,3,0.3113952651053084,2.875386357313007,3.4582045801622656
1770453744520,131,3,0.3048907140278694,2.8046881954765475,3.4830514376535433
1770453744524,130,2,-0.619854472875708,1.7780089177819525,2.595022047995319
1770453744528,129,1,-1.775284888974528,0.6920980633371824,1.4747575051548285
1770453744532,128,0,-2.463109574864773,-0.1354284120671637,0.8154598268742917
1770453744536,128,0,-2.392251801109388,-0.1975076352792515,0.9081399168105992
1770453744540,129,1,-1.8097032396857944,0.8677901348546095,1.5096114092018795
1770453744544,130,2,-1.26995152988737,1.717548599037082,2.069725034307152
1770453744548,130,2,-1.2154592049032904,1.6979032033997037,2.1487556580619587
1770453744552,129,1,-1.679940645541301,0.914008657886264,1.7135801539413893
1770453744556,128,0,-2.3228695306933207,-0.3055047541387909,1.1027220277177143
1770453744560,128,0,-2.7287538901205752,0.0290268193391842,0.7273043361146281
1770453744564,129,1,-2.7097910757821015,0.5075126057432978,0.7711260877074284
1770453744568,128,0,-2.4016361850893384,-0.0794354078199547,1.0985577365118917
1770453744572,129,1,-2.1374923420422123,0.7084857416825509,1.3807364191908982
1770453744576,129,1,-2.2199023675531286,0.8733214545810856,1.319923381658265
1770453744580,128,0,-2.725598906913304,-0.1358286517786214,0.840810084804186
1770453744584,128,0,-3.44082863282039,-0.3684930365375002,0.1548130590359446
1770453744588,127,-1,-3.962401538934638,-1.1725666229720373,-0.3384882957118655
1770453744592,127,-1,-3.91480742761489,-1.227524734401194,-0.2658130254584623
1770453744596,128,0,-3.163476037048172,-0.145771535320672,0.5073768654343802
1770453744600,129,1,-1.8980344837503191,0.8411771857415986,1.7925968395648249
1770453744604,131,3,-0.5326785120898525,2.664458110068212,3.1767858206465593
1770453744608,132,4,0.5135518348544035,3.794174655623787,4.242064764808284
1770453744612,132,4,1.0157708370629797,3.7794012777322714,4.765246412082386
1770453744616,132,4,1.0087003545266138,3.879994464002318,4.782481504896608
1770453744620,132,4,0.71887481141682,3.7671751270219462,4.519600402584146
1770453744624,132,4,0.4484828628505619,3.756904411522427,4.275601104081781
1770453744628,132,4,0.4729204937565838,3.701351061519018,4.322515663293239
1770453744632,132,4,0.9462370212150124,3.869578811628828,4.813594893159807
1770453744636,133,5,1.808838801043159,4.805623774590938,5.6913960731150555
1770453744640,134,6,2.758192191084637,5.807143318921909,6.656520040237077
1770453744644,135,7,3.361915511005817,6.726699223688681,7.278589043883183
1770453744648,135,7,3.2980378688792653,6.731121529595925,7.23581389040731
1770453744652,134,6,2.577023569898498,5.8311713630083215,6.537517192632467
1770453744656,133,5,1.5725585821215402,4.852066487648578,5.555677427192778
1770453744660,132,4,0.8117797576723786,3.721427030840776,4.815773214916304
1770453744664,132,4,0.6564417552080735,3.8354605423706793,4.6785554961140825
1770453744668,133,5,1.09258279763442,4.626937051994355,5.130235478093524
1770453744672,133,5,1.7650741811439064,4.944041557323978,5.816908314282233
1770453744676,134,6,2.215920625992174,5.738960338679497,6.281959284204846
1770453744680,134,6,2.1524289103921563,5.792217650392651,6.233624958557891
1770453744684,133,5,1.5696314218247112,4.774022033988006,5.667692055665605
1770453744688,132,4,0.6714831897943497,3.680131199872122,4.788533631488603
1770453744692,131,3,-0.3063715811295029,2.917783071846931,3.830566676331616
1770453744696,131,3,-1.2057174034388267,2.743887265552371,2.9489391495044295
1770453744700,130,2,-1.9252813400004856,1.7873457652169988,2.242713173660353
1770453744704,129,1,-2.370530518685557,0.763841581136787,1.8078521645863557
1770453744708,129,1,-2.4894194148774957,0.7034101572905975,1.7002617658904011
1770453744712,129,1,-2.359789178141688,0.8981265057696199,1.84418594212145
1770453744716,130,2,-2.1877296371049786,1.7518363586382737,2.031889641861926
1770453744720,130,2,-2.1690968820585947,1.7850562665775955,2.0646735691531757
1770453744724,129,1,-2.3424189431929596,0.7451371278836345,1.9032489105150632
1770453744728,129,1,-2.5872792010759564,0.7258587033775933,1.6692796691843736
1770453744732,129,1,-2.7616073234535667,0.8806549150242097,1.505881946805783
1770453744736,129,1,-2.8274341927548283,0.7475885186538346,1.451235306029769
1770453744740,129,1,-2.849185273568958,0.8245094382176602,1.441304738309551
1770453744744,129,1,-2.890419649657359,0.6728876014445883,1.412952120196403
1770453744748,129,1,-2.921026379282772,0.8022412896632463,1.3951112806918629
1770453744752,129,1,-2.820246927999965,0.8078239621556187,1.5054621397079535
1770453744756,129,1,-2.469136122287532,0.7921123897508027,1.8605062259667955
1770453744760,130,2,-1.8374669380874888,1.828233017274553,2.4919362663713684
1770453744764,131,3,-0.9488314517022772,2.624379315429003,3.382027408962378
1770453744768,132,4,0.3072283975353646,3.875677343126141,4.6477838466669805
1770453744772,135,7,2.392804597316616,6.71076721344348,6.75299456005205
1770453744776,138,10,6.1361335768729415,9.902958659640738,10.5200492558447
1770453744780,144,16,12.367253954366443,15.71133282189465,16.76849926595309
1770453744784,153,25,21.25176046134896,24.767494568825857,25.65570525881079
1770453744788,163,35,31.705133341928615,34.700251702352936,36.097275122462506
1770453744792,173,45,41.37243941120816,44.91647676971827,45.74741067082816
1770453744796,180,52,47.40110956623855,51.65997578246223,51.76593098967148
1770453744800,180,52,47.72475373959918,51.95023270404671,52.09411932316673
1770453744804,175,47,42.14860208136082,46.47705507068338,46.53594468859542
1770453744808,164,36,32.532251778361974,35.98354918805855,36.942789128391944
1770453744812,153,25,21.884504793157287,24.606385456852852,26.3137389417589
1770453744816,144,16,12.8977326340429,16.03839229448463,17.334477750723174
1770453744820,139,11,6.825920344082211,10.58422611066144,11.25725706998003
1770453744824,136,8,3.3361322731928165,7.879511546176937,7.752731022156931
1770453744828,134,6,1.2440315448300483,5.58438273309945,5.644611331428099
1770453744832,131,3,-0.5326042439261949,2.9374383792298406,3.8597521770034193
1770453744836,129,1,-2.4577649088077287,0.753170149732435,1.938575928948165
1770453744840,127,-1,-4.4551272527776415,-1.2089215327904816,-0.0466296597001956
1770453744844,126,-2,-6.259306070343458,-2.232757376587552,-1.8403179174769069
1770453744848,125,-3,-7.659800515969765,-3.373348290548103,-3.239703416441472
1770453744852,123,-5,-8.53885023165866,-5.051431167310914,-4.126633710811621
1770453744856,123,-5,-8.846165029204542,-5.329818116693495,-4.444127229561913
1770453744860,123,-5,-8.626748425234917,-5.077376464325331,-4.231378286566005
1770453744864,124,-4,-8.056078292179258,-4.3944061024163235,-3.6636169130311256
1770453744868,125,-3,-7.38880517907235,-3.1668608571088632,-2.9989010613697262
1770453744872,125,-3,-6.833390437137085,-3.2803896506628463,-2.447968700144428
1770453744876,125,-3,-6.459562993549247,-3.1447734693472627,-2.07994282111354
1770453744880,126,-2,-6.207404685965681,-2.219179448034574,-1.8335211792102144
1770453744884,126,-2,-5.9646932449744146,-2.317276552500525,-1.596386303327004
1770453744888,126,-2,-5.640889443468811,-2.134648543066299,-1.2788831993674872
1770453744892,127,-1,-5.20175745853824,-1.4042328226155465,-0.847392630900063
1770453744896,127,-1,-4.667623458166232,-0.9719171156853978,-0.3221046521982298
1770453744900,128,0,-4.09376187938787,-0.4593078340047489,0.2423134826792747
1770453744904,128,0,-3.55169503705876,-0.0211396282714184,0.7748345852877817
1770453744908,129,1,-3.115814318835651,0.5631519843331835,1.200998361153466
1770453744912,129,1,-2.8453975087001604,0.8956816816749759,1.461079138735658
1770453744916,129,1,-2.7589291499418085,0.7201982657738707,1.5364091872304728
1770453744920,129,1,-2.813415702583549,0.7988211555837746,1.4703484582898108
1770453744924,129,1,-2.9022713245295733,0.7971558316140038,1.3700738041390563
1770453744928,129,1,-2.876281299393181,0.6847734188422674,1.3850839812101228
1770453744932,129,1,-2.5854715934778545,0.8576768407188373,1.6648570967756826
1770453744936,130,2,-1.930980692715808,1.6500084022392691,2.306964743998735
1770453744940,131,3,-0.9089226696712542,2.932603714740068,3.3142094754233353
1770453744944,132,4,0.3663911312732126,3.630351852880893,4.572678570662479
1770453744948,133,5,1.6700908833740784,4.88939162950429,5.85918753509516
1770453744952,135,7,2.725526839167552,6.653542031627668,6.898463307136994
1770453744956,135,7,3.3171172019695616,6.79940235477934,7.4750460556685825
1770453744960,135,7,3.39978441431209,6.807284575123121,7.543176625363817
1770453744964,135,7,3.1173402279288265,6.7447413728339765,7.245769453677817
1770453744968,134,6,2.702407864649043,5.79779467102444,6.814393700073312
1770453744972,134,6,2.328266265295617,5.750125677285548,6.421407904066811
1770453744976,134,6,2.0210565362044823,5.66257016756741,6.093140225711379
1770453744980,133,5,1.6874064071503152,4.969616237271066,5.73808541996897
1770453744984,133,5,1.223081190233878,4.562460667419046,5.254242667284797
1770453744988,132,4,0.6213050139645795,4.027761754433026,4.634958297743504
1770453744992,132,4,0.0132505110305454,3.476209266695881,4.008793715007019
1770453744996,131,3,-0.3878150097723827,2.94569948852189,3.5863141419043716
1770453745000,131,3,-0.4178408653020071,2.67156281908456,3.5318681043823323
1770453745004,131,3,-0.0850229579363759,2.872594649973033,3.840247323309348
1770453745008,132,4,0.4288143257279313,3.747987857326133,4.3318427015379175
1770453745012,133,5,0.9251611421411868,4.723558633116032,4.807269720002724
1770453745016,133,5,1.3820604059405612,4.706819347142781,5.242165834281454
1770453745020,133,5,1.9823905224934713,4.881583913477002,5.818493791002269
1770453745024,134,6,2.9072538356093727,5.687244140607355,6.7183837188267095
1770453745028,135,7,4.06807645281749,6.933817696258564,7.853972287879034
1770453745032,137,9,5.046118760867186,8.548116267694315,8.805498929727129
1770453745036,137,9,5.328905487620556,8.862066001422816,9.059372816720645
1770453745040,136,8,4.650458217470343,7.731535918561266,8.350899890294748
1770453745044,134,6,3.1475099139829363,5.805034477442437,6.820085269052723
1770453745048,132,4,1.2308775086975432,3.861560839784277,4.879521989564321
1770453745052,131,3,-0.6681955869300573,2.564192805506577,2.9582346790330503
1770453745056,129,1,-2.2540192749110077,0.9307410677827828,1.3473539079552888
1770453745060,128,0,-3.3652956684476942,-0.4220048476585007,0.2054008525694766
1770453745064,127,-1,-3.9288678475616,-0.9590950063652848,-0.3930792854961793
1770453745068,127,-1,-3.976047562408099,-1.4463974013404184,-0.4752275757937021
1770453745072,127,-1,-3.6915797703769297,-1.090258122405516,-0.2224826219706793
1770453745076,128,0,-3.375274299048424,-0.4041805277056201,0.0651431094696479
1770453745080,128,0,-3.268761509819273,-0.1289856251342503,0.1431481472509456
1770453745084,128,0,-3.3698401892898326,-0.1869170655171812,0.0116350218843146
1770453745088,127,-1,-3.429557889719568,-1.3113018755618904,-0.0798675774107474
1770453745092,127,-1,-3.1791769400611014,-1.154283241779555,0.1385721208241168
1770453745096,129,1,-2.595175074147093,0.6145085586569167,0.6895503745255103
1770453745100,129,1,-1.955911521731991,0.89734748717336,1.2927369216424751
1770453745104,129,1,-1.648227584200776,0.7757271308326448,1.5617035675073243
1770453745108,129,1,-1.906596010957996,0.7161683477077846,1.2653538543437652
1770453745112,128,0,-2.681007957010362,-0.2053350121482928,0.4568062365728083
1770453745116,127,-1,-3.682589560904273,-1.3245871593724776,-0.5752978462167331
1770453745120,126,-2,-4.531773874953185,-2.152579855866133,-1.4548204976825094
1770453745124,126,-2,-4.913584818046305,-2.14854376447445,-1.8705699038697088
1770453745128,126,-2,-4.690647720021808,-2.3869593568517895,-1.6864269356827315
1770453745132,126,-2,-3.9625847463694823,-2.0988267618818464,-1.0002881336518403
1770453745136,128,0,-3.051195826834506,-0.4444045614691134,-0.1311885126389607
1770453745140,128,0,-2.380508995761854,-0.0057607851916183,0.4987252254546995
1770453745144,128,0,-2.272942490231259,-0.2879166508436419,0.5676189708828312
1770453745148,128,0,-2.7616760299132452,-0.2766864034662419,0.0420306221793367
1770453745152,127,-1,-3.5364874036413223,-1.200958983752943,-0.7684943278430707
1770453745156,126,-2,-4.074233547314433,-2.388267899944874,-1.341709859686254
1770453745160,126,-2,-3.8968811817685594,-1.9782405699259755,-1.2010195022910226
1770453745164,128,0,-2.8154637415763073,-0.3553775252969442,-0.1594073999769687
1770453745168,129,1,-1.0296305684834774,0.8294389874840078,1.582273222223235
1770453745172,131,3,0.94733754495221,2.646804790105403,3.511678190516992
1770453745176,133,5,2.479342753757918,4.770326535708994,4.995717956595994
1770453745180,133,5,3.0333393163842626,4.875802217806456,5.504913374477065
1770453745184,132,4,2.370302132986188,3.789612247621461,4.80213026858307
1770453745188,131,3,0.6476450240121476,2.6838100452619473,3.043296446562964
1770453745192,129,1,-1.6060759142929983,0.7641730584462638,0.7529949777562035
1770453745196,126,-2,-3.673600954907215,-2.3399658084758403,-1.3548102847716978
1770453745200,124,-4,-4.9629974604167675,-3.990799714411128,-2.6889879770413128
1770453745204,125,-3,-5.304402477156188,-3.325010450578726,-3.0788925158568996
1770453745208,125,-3,-5.022459223933384,-3.2114322198895895,-2.8476259160455384
1770453745212,125,-3,-4.713720165431468,-3.343493570922141,-2.589052990329095
1770453745216,125,-3,-4.8765981837027725,-3.2461038151663697,-2.798549622301026
1770453745220,124,-4,-5.627974540917955,-4.070280758435124,-3.592015478620244
1770453745224,123,-5,-6.657472422880473,-5.253119907363127,-4.66123776057863
1770453745228,122,-6,-7.423483785660455,-6.27677454013591,-5.468298168768412
1770453745232,122,-6,-7.466612100138011,-6.28663202387957,-5.5565236182385505
1770453745236,123,-5,-6.6557668607904645,-5.299939212823138,-4.795197878276323
1770453745240,124,-4,-5.231494076481939,-3.988633551531539,-3.422987573120908
1770453745244,126,-2,-3.6464343243535966,-2.3515816429746117,-1.889599936632087
1770453745248,127,-1,-2.3247559144664214,-1.1574648857420158,-0.6169384127977185
1770453745252,128,0,-1.487613838109411,-0.4508637631285914,0.1741319966047499
1770453745256,128,0,-1.1216972077253735,-0.1163018388658079,0.4951865530796039
1770453745260,128,0,-1.0675482306629502,-0.1699821645591028,0.5031632875202633
1770453745264,128,0,-1.142016880439597,-0.1663128257355965,0.3796391664836392
1770453745268,128,0,-1.2144106512356867,-0.3231696857799323,0.2557935909817241
1770453745272,128,0,-1.2094301026425454,-0.3269745409533738,0.2091701332884181
1770453745276,128,0,-1.0662494409513985,-0.2042346516739556,0.3028753518462399
1770453745280,128,0,-0.705587358178797,-0.099039285847235,0.6164465174355607
1770453745284,129,1,-0.0406066950744896,0.7860409828932002,1.234359889056822
1770453745288,130,2,0.9651437628117804,1.7302711704579656,2.1899937471789475
1770453745292,131,3,2.2194884694066266,2.5798434658683287,3.3903656233444597
1770453745296,132,4,3.456556684527613,3.9348830999386584,4.5720756486895455
1770453745300,133,5,4.290639555654504,4.721214333832478,5.352922512261908
1770453745304,133,5,4.392837054564037,5.012343805514998,5.4052755962452785
1770453745308,133,5,3.7105759684566335,4.4795324888557335,4.674673682765717
1770453745312,131,3,2.5659437866619994,2.8134354968696647,3.4804809182382535
1770453745316,130,2,1.5129476363837382,1.726585288205813,2.37608588376621
1770453745320,129,1,1.0119442428431735,0.8985781476096062,1.823451045713839
1770453745324,129,1,1.1514965214381458,0.9063987730261936,1.9120342655826228
1770453745328,131,3,1.6381508069616375,2.529772749531219,2.346544854081529
1770453745332,131,3,2.049925959806509,2.8249144133418835,2.7027304519792414
1770453745336,130,2,2.1056944517339113,1.635849310533604,2.7006222594563853
1770453745340,129,1,1.71180255366406,1.0521540371236584,2.250706052279237
1770453745344,129,1,0.8234055553260995,0.7061411818072951,1.3105466067959757
1770453745348,128,0,-0.6280311082022205,-0.2385947081027684,-0.1902482151642686
1770453745352,126,-2,-2.6072874997114286,-2.393303758998255,-2.219830373718006
1770453745356,123,-5,-4.803951734962919,-5.17610467605747,-4.4689731760572124
1770453745360,121,-7,-6.665872656993787,-7.106620246378185,-6.384475134460056
1770453745364,120,-8,-7.682104426378286,-8.173549621275516,-7.454548797082728
1770453745368,120,-8,-7.70227811176095,-8.313424001592196,-7.529430519329742
1770453745372,121,-7,-7.028692994775935,-7.306263175591622,-6.912442893891998
1770453745376,122,-6,-6.200903943774771,-6.268367246547951,-6.142833004491348
1770453745380,122,-6,-5.638823280401093,-6.015601599394484,-5.6382053782829935
1770453745384,122,-6,-5.41319221463658,-6.304110398707394,-5.466370067311983
1770453745388,122,-6,-5.289758303223339,-6.150366416315993,-5.392188216421938
1770453745392,123,-5,-4.966601925083047,-5.469892923615838,-5.116355341491282
1770453745396,123,-5,-4.303787929224045,-5.082494125537307,-4.503642029674631
1770453745400,124,-4,-3.407039684478022,-4.207848004072264,-3.6634832412227967
1770453745404,125,-3,-2.560608961812107,-3.1392983211595555,-2.8804173871514425
1770453745408,125,-3,-2.07576103201522,-3.2778118995921446,-2.462043776006768
1770453745412,125,-3,-2.1074353375505837,-3.383541060270008,-2.557222256482132
1770453745416,125,-3,-2.4612262911558114,-3.0879334981608855,-2.965970579531063
1770453745420,125,-3,-2.4438733051937467,-3.294032188099939,-2.992900984170093
1770453745424,126,-2,-0.8922582607333194,-1.9771986727317827,-1.4781319996330744
1770453745428,131,3,3.475360034240155,2.5066457998722944,2.85155323695269
1770453745432,138,10,11.401086379547584,9.898856749231236,10.727866869721904
1770453745436,149,21,22.39046311921921,20.634233265140317,21.650510191370017
1770453745440,161,33,34.404764490229695,32.97095454327047,33.58486138292184
1770453745444,171,43,44.28190188354823,42.78222075823941,43.382017931361155
1770453745448,176,48,48.87461446476592,47.65720957888765,47.90882060412075
1770453745452,174,46,46.444648285887666,45.822758090230224,45.432365492214785
1770453745456,165,37,37.57660135197454,36.58154701467642,36.53090279265878
1770453745460,151,23,25.012572124645168,23.11350819590576,23.93428927814089
1770453745464,138,10,12.388761732451536,9.56474645066548,11.268719488940228
1770453745468,128,0,2.5693792606809707,-0.0379047103664476,1.3943159529207136
1770453745472,124,-4,-3.420778986196048,-4.439709592833246,-4.662762434845312
1770453745476,121,-7,-6.290895062459914,-7.134625707315536,-7.605762840001432
1770453745480,119,-9,-7.488749967428799,-9.140673941678347,-8.873402855295483
1770453745484,118,-10,-8.157073505565723,-10.255758808736452,-9.600695798014597
1770453745488,117,-11,-8.71099724051202,-11.2143451088661,-10.201808477044038
1770453745492,117,-11,-9.075312985244556,-11.2702261688993,-10.608054853372629
1770453745496,117,-11,-9.141295076268822,-11.258419706584952,-10.71951103759734
1770453745500,117,-11,-9.00117623684545,-11.003872734507867,-10.633238182332317
1770453745504,118,-10,-8.851806227575258,-10.43049044880091,-10.544551356753413
1770453745508,117,-11,-8.777928508789811,-11.04410788170822,-10.532398547321502
1770453745512,117,-11,-8.68084910911502,-11.453387678215252,-10.4925332156292
1770453745516,117,-11,-8.412754774629054,-11.01782223335679,-10.275909986058434
1770453745520,118,-10,-7.9431021911750195,-10.23982662544511,-9.855633854394595
1770453745524,119,-9,-7.36955176397065,-9.22395886221118,-9.334009772754213
1770453745528,119,-9,-6.787487197613791,-9.23068503230147,-8.807463142746467
1770453745532,119,-9,-6.193740775891896,-9.319453157794422,-8.270003374924485
1770453745536,120,-8,-5.534221297589497,-8.056935466642656,-7.664778767473468
1770453745540,121,-7,-4.821640207000466,-7.251228905770315,-7.004692888577631
1770453745544,121,-7,-4.181625747861407,-7.1777369723471205,-6.4173654287253825
1770453745548,122,-6,-3.780398868679551,-6.311757604625563,-6.070059422520476
1770453745552,122,-6,-3.704892480685848,-6.23035532529924,-6.048771608810034
1770453745556,121,-7,-3.897540981021751,-7.122790118541214,-6.294227768554975
1770453745560,121,-7,-4.191378857382264,-7.181112739941961,-6.639007020574126
1770453745564,121,-7,-4.4036285083637265,-7.240948907244974,-6.901893445394276
1770453745568,121,-7,-4.409709640318208,-7.282137397723405,-6.96019350167745
1770453745572,121,-7,-4.165310518595298,-7.214161169899221,-6.769470226376647
1770453745576,121,-7,-3.698581226339076,-7.163443169921873,-6.355905873506569
1770453745580,122,-6,-3.0888675234120946,-6.0850394361895255,-5.797601743898762
1770453745584,123,-5,-2.424451782467594,-5.38472609184296,-5.183745310630957
1770453745588,123,-5,-1.7538580285984913,-5.122791427490311,-4.564373475062572
1770453745592,124,-4,-1.0774632636231112,-4.371122170011134,-3.9398612059961
1770453745596,124,-4,-0.3946142969909476,-3.9997090639138566,-3.308233079796495
1770453745600,125,-3,0.2494131055045252,-3.219919274120053,-2.714075586274048
1770453745604,126,-2,0.7830650035007294,-2.2852258794978524,-2.229729756673066
1770453745608,126,-2,1.1814348171107958,-2.1910150402453943,-1.8810529057296388
1770453745612,126,-2,1.5023861188236325,-2.333722674684865,-1.6100078474167696
1770453745616,126,-2,1.8286382956296856,-1.987249068585614,-1.3332919460705193
1770453745620,127,-1,2.1711347190936365,-1.256357580237844,-1.0402814764314237
1770453745624,127,-1,2.4395002673068835,-1.2317779182440969,-0.8220873630674237
1770453745628,127,-1,2.5127235281480633,-1.2481833005765093,-0.799235220377625
1770453745632,127,-1,2.3432712646250353,-1.276859882074357,-1.0174108978940346
1770453745636,126,-2,2.0080512184137707,-2.0233937002015265,-1.3985059309842165
1770453745640,126,-2,1.6758774329722392,-2.2343831853940923,-1.7750594291153
1770453745644,126,-2,1.522151663165547,-2.2300843668563117,-1.9748369382467896
1770453745648,126,-2,1.639264941172415,-2.267009458760511,-1.907229708309429
1770453745652,126,-2,1.977865261715654,-2.2280082295908263,-1.6197675626457289
1770453745656,126,-2,2.3512503389692254,-2.081796072553076,-1.2954302234594934
1770453745660,127,-1,2.5346609045971045,-1.1660412061594787,-1.15718381324887
1770453745664,127,-1,2.4333711259569113,-1.2954093434160194,-1.3012597470896663
1770453745668,126,-2,2.1943192637803857,-2.2100241834874046,-1.5832861201981037
1770453745672,126,-2,2.129471981586226,-2.257238778813899,-1.6924515426356377
1770453745676,126,-2,2.472482726398632,-2.074507517131014,-1.3947640772535796
1770453745680,127,-1,3.1624064940466576,-1.1444237375579889,-0.7506202504765193
1770453745684,128,0,3.8465583018681424,-0.3216818021502152,-0.1125538126120577
1770453745688,128,0,4.110768748460251,-0.1648795371046008,0.1055405653563723
1770453745692,128,0,3.7532370019865167,-0.3130219211444702,-0.2970370070953394
1770453745696,126,-2,2.8888919853604937,-2.014027417376927,-1.2038200876399905
1770453745700,125,-3,1.8267129407691391,-3.2231552877268426,-2.305530204125363
1770453745704,125,-3,0.8576058501630989,-3.2059709803378595,-3.313204332993858
1770453745708,124,-4,0.1347203367848424,-4.279088490573241,-4.076342877592952
1770453745712,123,-5,-0.3079816836114823,-5.186020418663606,-4.561879746596568
1770453745716,123,-5,-0.4923102187338619,-5.131158154355537,-4.790418114694269
1770453745720,123,-5,-0.4749051095067151,-5.146498077435713,-4.81679083906305
1770453745724,123,-5,-0.3626467480007128,-5.226945827723829,-4.746464496271152
1770453745728,123,-5,-0.3055826258938022,-5.283699009276232,-4.728702661760229
1770453745732,123,-5,-0.4295126438010458,-5.128058699926993,-4.8896274661497765
1770453745736,123,-5,-0.7351247227121996,-5.2435576719141075,-5.231444490422174
1770453745740,122,-6,-1.054483219942371,-5.996830897224955,-5.587800131114505
1770453745744,122,-6,-1.1456936479813906,-6.4093036227455915,-5.7172943592762016
1770453745748,122,-6,-0.8898914306624579,-6.037355842732028,-5.500672297448256
1770453745752,123,-5,-0.4319135032271909,-5.396397602046572,-5.082267252870883
1770453745756,123,-5,-0.1242372064749127,-4.964566005442062,-4.81392003681955
1770453745760,123,-5,-0.2965679353078663,-5.268038084602126,-5.02418949854547
1770453745764,122,-6,-1.0234291842653098,-6.178167464139498,-5.786413775753111
1770453745768,121,-7,-2.0615496722648987,-7.180919280351507,-6.85719125488998
1770453745772,120,-8,-2.99376198953718,-8.343488203628754,-7.820738178156878
1770453745776,119,-9,-3.468509352573619,-8.902932676621502,-8.327719579438188
1770453745780,120,-8,-3.3713434453678435,-8.435607193633924,-8.265365908463519
1770453745784,120,-8,-2.833938899906886,-7.900543251070254,-7.765111677215407
1770453745788,121,-7,-2.114026066325261,-7.519422447225361,-7.082291470049079
1770453745792,121,-7,-1.454803027463925,-6.957450558988524,-6.457278537292746
1770453745796,122,-6,-1.0016646115750754,-6.304391795644246,-6.034639226714851
1770453745800,122,-6,-0.7820940147307818,-6.058479044295218,-5.843599180978654
1770453745804,122,-6,-0.7272726740068817,-6.214579026207334,-5.81783559030132
1770453745808,122,-6,-0.725250098211673,-6.254047902062049,-5.846551906978463
1770453745812,122,-6,-0.6910835446407224,-6.154021602944305,-5.844106575215584
1770453745816,122,-6,-0.6179514637221923,-6.162225281966371,-5.802069805849986
1770453745820,122,-6,-0.5747956439100586,-6.170366601661921,-5.788220597235326
1770453745824,122,-6,-0.6508282434646304,-6.085143351950579,-5.891924497528433
1770453745828,122,-6,-0.8878794937077261,-6.399063493395752,-6.156249215175253
1770453745832,121,-7,-1.2551048857984124,-6.958750895615126,-6.551448559711657
1770453745836,121,-7,-1.6885781920428526,-7.417162809422196,-7.013414737658033
1770453745840,120,-8,-2.1582238516969756,-7.863505410472024,-7.510676075353432
1770453745844,120,-8,-2.6912845983329547,-8.406833195514135,-8.06922759420292
1770453745848,119,-9,-3.315712147709909,-9.051020137035083,-8.71734070531061
1770453745852,119,-9,-3.9675354659506055,-9.291013088804409,-9.392694462245451
1770453745856,118,-10,-4.463605836508378,-10.121631543077244,-9.91321922567557
1770453745860,117,-11,-4.6044180392755365,-11.113301994114432,-10.078813228380502
1770453745864,118,-10,-4.341959296789822,-10.191319707862364,-9.840422126119446
1770453745868,119,-9,-3.850429786571093,-9.190555143369188,-9.37218633304015
1770453745872,119,-9,-3.411225450629632,-9.204088092802944,-8.955811675380254
1770453745876,119,-9,-3.2089983021024686,-9.152114545980758,-8.775534313593063
1770453745880,119,-9,-3.219188687398156,-9.14499005346277,-8.806218111436518
1770453745884,119,-9,-3.2671110930170153,-9.10818150302009,-8.873494960651769
1770453745888,119,-9,-3.186793110024128,-9.282294891450448,-8.81231165550318
1770453745892,119,-9,-2.943847257239656,-9.078704420051396,-8.588879918952214
1770453745896,120,-8,-2.6304964578596586,-8.282130010987974,-8.29537284693538
1770453745900,120,-8,-2.348786011122675,-8.026627060351938,-8.033088422484374
1770453745904,120,-8,-2.0967667654313935,-8.20733561429103,-7.798838415307763
1770453745908,120,-8,-1.7679986888911456,-8.18033045465799,-7.485685321747516
1770453745912,121,-7,-1.2560266322200393,-7.153461635070612,-6.988610214339674
1770453745916,122,-6,-0.5527982490199812,-6.214109514791295,-6.301738261597062
1770453745920,122,-6,0.2425902191063873,-6.095026105854586,-5.524313219242798
1770453745924,123,-5,0.9911453067652064,-5.118851920825836,-4.7928809473414145
1770453745928,124,-4,1.600058763000351,-4.274828299712087,-4.1978689244966505
1770453745932,124,-4,2.084904138012702,-4.028296027214985,-3.723894448148964
1770453745936,125,-3,2.57370389148376,-3.357527362218365,-3.2452278078527605
1770453745940,125,-3,3.227301554122043,-2.9291427978381033,-2.603059212966208
1770453745944,126,-2,4.101356523190905,-2.289644330597019,-1.74203558365576
1770453745948,127,-1,5.043212009136465,-1.0884727435765096,-0.8138509207173601
1770453745952,128,0,5.722347274092167,-0.186856027655775,-0.1478900376215627
1770453745956,128,0,5.801248931163934,-0.2293102587513373,-0.0807242670685323
1770453745960,127,-1,5.135396154206911,-1.0086613150197543,-0.7560655074906268
1770453745964,126,-2,3.861495710513582,-2.2650451113488437,-2.0369322982030926
1770453745968,124,-4,2.3216204177030506,-4.050488574962193,-3.582113611429317
1770453745972,123,-5,0.8911209756315047,-5.249764529560012,-5.01801503770082
1770453745976,122,-6,-0.1729229613122417,-6.1263972741123744,-6.088913668693334
1770453745980,121,-7,-0.7907685197302117,-7.112140102288801,-6.714894812600982
1770453745984,121,-7,-1.0315118589765873,-7.167818326638135,-6.963681484124562
1770453745988,121,-7,-1.0422024451415748,-7.111563631467784,-6.981126537366075
1770453745992,121,-7,-0.9756034669858282,-7.21821882262335,-6.919796571851704
1770453745996,121,-7,-0.9393339388950476,-7.10098690657407,-6.887739024647088
1770453746000,120,-8,-5.55448678640364,-3.0137192122664587,-3.709673162942442
1770453746004,119,-9,-5.528800581388167,-3.521362974923034,-3.68812696837361
1770453746008,119,-9,-5.4487585223861,-4.06452866369462,-3.6136858132671943
1770453746012,119,-9,-5.352538549468108,-3.5137719228623774,-3.521829714236043
1770453746016,120,-8,-5.344906561044339,-3.0679854231046413,-3.516782872144331
1770453746020,119,-9,-5.541848218665761,-3.525585138222043,-3.715973872038557
1770453746024,119,-9,-5.958991432429565,-4.0420671432368405,-4.135995514310555
1770453746028,118,-10,-6.458213895815153,-4.659149942701305,-4.638294613193189
1770453746032,118,-10,-6.811139981730998,-4.9146426095446145,-4.993785870063397
1770453746036,118,-10,-6.829061700129728,-4.765855335650597,-5.0137039872184435
1770453746040,118,-10,-6.466010857074979,-4.794320875627815,-4.65266603106877
1770453746044,119,-9,-5.835876522665385,-3.9170080007329537,-4.025640397726965
1770453746048,120,-8,-5.144362000141736,-2.773412413049372,-3.339528301317967
1770453746052,120,-8,-4.584959050492767,-2.928576864720236,-2.7881281524768675
1770453746056,120,-8,-4.252933610897347,-2.735755000876903,-2.465428351435227
1770453746060,121,-7,-4.0826167204399875,-1.895073238049912,-2.303329671398759
1770453746064,121,-7,-3.777985746138172,-1.884048548340579,-2.0030952291914943
1770453746068,122,-6,-2.7550154401661087,-0.8476883470272782,-0.9786986352366428
1770453746072,125,-3,-0.1940720266148092,2.060759955662217,1.5890170989688754
1770453746076,129,1,4.705290324242696,6.289012471572002,6.495828294604258
1770453746080,137,9,12.295120359349344,13.98477761589216,14.0860182277718
1770453746084,147,19,22.054430454431152,24.248637424562713,23.832985304718218
1770453746088,157,29,32.41914078530405,33.877059279989105,34.17499618907054
1770453746092,165,37,41.05781637961609,42.356399341087155,42.7907945700028
1770453746096,171,43,45.61322370292349,47.86285507576278,47.33367536795371
1770453746100,170,42,44.67448161640639,47.39724689095155,46.39589062016065
1770453746104,164,36,38.495739440327455,40.71357918091904,40.2266125466023
1770453746108,153,25,28.968061607694533,30.36796863946234,30.70894841331399
1770453746112,143,15,18.749228751007887,19.805075937784057,20.494404378167516
1770453746116,134,6,10.040703002971512,11.389926559125078,11.781229304454744
1770453746120,129,1,3.770984975365447,5.880468046911373,5.497899521494141
1770453746124,125,-3,-0.3697752516679502,2.16024680754592,1.3382966041040754
1770453746128,122,-6,-3.2360922227580087,-1.089430767163571,-1.5451454954946913
1770453746132,119,-9,-5.484049121170866,-3.8787411083890255,-3.80192902426416
1770453746136,117,-11,-7.27710043053024,-5.924659775225594,-5.594236824918453
1770453746140,116,-12,-8.47870536348512,-6.9110794263317485,-6.791174012753074
1770453746144,116,-12,-9.00393748390184,-7.024343554176745,-7.316151674118754
1770453746148,116,-12,-8.9990720776573,-7.005702379172565,-7.319670021138575
1770453746152,116,-12,-8.770742303404923,-6.997053433823275,-7.105310865798778
1770453746156,116,-12,-8.603829803893346,-6.901183072360192,-6.9509230885242355
1770453746160,116,-12,-8.629190800697078,-6.958973787319535,-6.982716121903285
1770453746164,116,-12,-8.797854728761282,-7.036045410549802,-7.152969443405756
1770453746168,116,-12,-8.934699617576385,-7.016986666908079,-7.291651405828544
1770453746172,116,-12,-8.835283865701104,-7.082689708098208,-7.198207954921508
1770453746176,116,-12,-8.380868880931937,-6.850257849388,-6.753504209764263
1770453746180,117,-11,-7.625794272938794,-6.078507628802688,-6.008569716357246
1770453746184,118,-10,-6.788685099223369,-4.939974768651712,-5.179506315861874
1770453746188,119,-9,-6.124346764176817,-4.1554088967778,-4.5213913712997025
1770453746192,119,-9,-5.757850458390375,-4.035706328125877,-4.161156032831392
1770453746196,119,-9,-5.617100046068518,-3.931120658134845,-4.027731919945577
1770453746200,119,-9,-5.5244041214661985,-4.089455583911092,-3.9427334596913495
1770453746204,119,-9,-5.360854525280128,-3.9296286038950607,-3.786122742648342
1770453746208,120,-8,-5.14594915204649,-3.223472017349185,-3.577509062920958
1770453746212,120,-8,-4.959697112153287,-3.035753027019574,-3.398177681409141
1770453746216,120,-8,-4.799576113757383,-2.9686013623959218,-3.246317757996209
1770453746220,120,-8,-4.538279055185624,-3.15873210169146,-2.993756405186743
1770453746224,120,-8,-4.04064228198818,-2.8341980568860485,-2.5040431468502056
1770453746228,122,-6,-3.319579759806071,-1.4347389979527423,-1.7900864991588783
1770453746232,122,-6,-2.561437106762363,-0.8040158869421137,-1.039381241024674
1770453746236,123,-5,-1.98667635156961,-0.3326594637099564,-0.4730388553757146
1770453746240,123,-5,-1.678458758387572,0.1981100883777504,-0.1735001918929194
1770453746244,123,-5,-1.5353597543480462,-0.2628263938835874,-0.0381964537437462
1770453746248,123,-5,-1.3775884904131843,-0.066855201866482,0.1127700794661927
1770453746252,124,-4,-1.096330853717837,0.8321221935596175,0.3871623648417055
1770453746256,124,-4,-0.715444104340458,0.8881150521420098,0.7602395186361111
1770453746260,124,-4,-0.3348885714577697,1.025361124872702,1.132192812846266
1770453746264,125,-3,-0.0284266915534107,1.7584070333085433,1.429806348472611
1770453746268,125,-3,0.2138612914692749,1.9493554770430892,1.6632636232230875
1770453746272,125,-3,0.4573015898919996,1.693143714909989,1.8982144451845608
1770453746276,125,-3,0.7393583178118917,2.022639692077599,2.172606861195969
1770453746280,126,-2,1.0168373468506635,2.8041083063747285,2.4431053227721815
1770453746284,126,-2,1.2072683683118068,2.947000576932725,2.6262675371441615
1770453746288,126,-2,1.2862484860837102,2.7098009519956947,2.6969133213759937
1770453746292,126,-2,1.331709063001724,2.8719935925162576,2.7332423939130335
1770453746296,126,-2,1.4589410679671924,2.7973159368503584,2.8514948954442456
1770453746300,126,-2,1.7086965056771104,2.9565042418812735,3.093075550622971
1770453746304,127,-1,2.0034821519378028,3.769164884481356,3.380330522606249
1770453746308,127,-1,2.220680329292608,3.831838895410537,3.5899897374303325
1770453746312,127,-1,2.3133532613075016,3.69377976149475,3.6746353670096874
1770453746316,127,-1,2.359317645216566,3.926731650987897,3.7121114079827526
1770453746320,127,-1,2.4870751158767996,3.743053177180623,3.8313302319149702
1770453746324,127,-1,2.7452098059534658,3.965764284798882,4.081261762944873
1770453746328,128,0,3.0385491200015857,4.579109172884922,4.366682000250798
1770453746332,128,0,3.1965883732748313,4.894738462433692,4.516716930705638
1770453746336,128,0,3.113748018678214,4.679152659101645,4.4257171893127065
1770453746340,127,-1,2.8273256442851213,3.894888426115396,4.131314171355246
1770453746344,127,-1,2.4607653370604634,3.809738338858895,3.757004933625464
1770453746348,127,-1,2.094267026139624,3.6460612589778374,3.382521430955909
1770453746352,126,-2,1.6879537756994774,2.829920396753675,2.9677177666657473
1770453746356,126,-2,1.1239514805108748,2.638513999570237,2.395112393966856
1770453746360,125,-3,0.3280540512164098,1.9163412532472024,1.5911037224562266
1770453746364,124,-4,-0.6331703321430444,0.6964796019944601,0.6225780372052929
1770453746368,123,-5,-1.5682651322476744,-0.2524358535805129,-0.3191009711442532
1770453746372,122,-6,-2.2861850855680528,-1.3314415763786636,-1.0435857967017796
1770453746376,122,-6,-2.727044216857242,-1.266597977740329,-1.4921758344256544
1770453746380,122,-6,-2.9871521505752203,-1.205474524437959,-1.7616877018505392
1770453746384,121,-7,-3.228400743200595,-2.2738718455576095,-2.012777928522002
1770453746388,121,-7,-3.5596718480420337,-2.285819123049315,-2.352328504530413
1770453746392,121,-7,-3.9746298011295593,-2.3753495900660795,-2.773416974836058
1770453746396,120,-8,-4.365733467553028,-3.2841295402549058,-3.1698433290209413
1770453746400,120,-8,-4.592681376166395,-3.223153882602962,-3.4029361077746394
1770453746404,120,-8,-4.569312682037501,-3.32519460059676,-3.386997782263205
1770453746408,120,-8,-4.320677263046203,-3.265819672684221,-3.1466020978015754
1770453746412,121,-7,-3.9694144484790272,-2.443030150278371,-2.8038830859845594
1770453746416,121,-7,-3.6576268754260703,-2.296197274965437,-2.500497120031695
1770453746420,121,-7,-3.465159010174739,-2.2384529466325165,-2.315491691440866
1770453746424,121,-7,-3.3866900098440937,-2.387456842704308,-2.2429382571699934
1770453746428,121,-7,-3.367292308494895,-2.2298294519282864,-2.2286240559890578
1770453746432,122,-6,-3.3440627676045556,-1.5450285017039724,-2.211272804721286
1770453746436,121,-7,-3.265247576671224,-2.2380610958677702,-2.1397097445310584
1770453746440,121,-7,-3.106524621179496,-2.358384693019926,-1.988547900046146
1770453746444,122,-6,-2.8915706417074207,-1.3131755217543395,-1.780487081986514
1770453746448,122,-6,-2.685027216478023,-1.353462962098969,-1.5804799947126056
1770453746452,122,-6,-2.5480452008737786,-1.4820319098725274,-1.4502571692456645
1770453746456,122,-6,-2.499159834104311,-1.3257711472435885,-1.40804411828529
1770453746460,122,-6,-2.516059175836596,-1.3681704402046435,-1.4308194346080234
1770453746464,122,-6,-2.5621186863766603,-1.3189614009203725,-1.481894008844493
1770453746468,122,-6,-2.60441770636832,-1.421648214089255,-1.529059239976936
1770453746472,122,-6,-2.616866431035682,-1.4474714238117123,-1.5470712923019818
1770453746476,122,-6,-2.5842319915699683,-1.4071093439208084,-1.5210037758200592
1770453746480,122,-6,-2.516255678478201,-1.3685173665375263,-1.4600383728195014
1770453746484,122,-6,-2.4608041287880056,-1.3404295809667406,-1.4109287105835655
1770453746488,122,-6,-2.4930540405050996,-1.4826120151364943,-1.4481998253118384
1770453746492,122,-6,-2.668284478895126,-1.393877065770749,-1.627721089586776
1770453746496,122,-6,-2.961791242994592,-1.5522650552512811,-1.925933784472428
1770453746500,121,-7,-3.2535814695881213,-2.247485641678224,-2.2229912673045713
1770453746504,121,-7,-3.395037452602513,-2.5503085210761336,-2.3692627644267277
1770453746508,121,-7,-3.3131103846629477,-2.284271100751523,-2.2912500281772905
1770453746512,122,-6,-3.053488987706852,-1.667578900552484,-2.035752044368684
1770453746516,122,-6,-2.7223070536367655,-1.3016117229430817,-1.710029309561537
1770453746520,122,-6,-2.3982500363526715,-1.5709615303936464,-1.392040305725312
1770453746524,122,-6,-2.108498509404132,-1.291029516836112,-1.107186609942691
1770453746528,123,-5,-1.8665630870138563,-0.5703287729220748,-0.8685296494884932
1770453746532,123,-5,-1.6942271027592446,-0.4687618618213472,-0.6991548107472976
1770453746536,123,-5,-1.591493274244549,-0.4831678227487768,-0.6001649297794451
1770453746540,123,-5,-1.5009777161515632,-0.5162514384761571,-0.5137797712285711
1770453746544,123,-5,-1.319390304677355,-0.3385828026331517,-0.33572081050801
1770453746548,124,-4,-0.9494524897904424,0.3528787018463921,0.0315270086922658
1770453746552,124,-4,-0.3499428906800343,0.6423981418909386,0.6285768529254432
1770453746556,125,-3,0.4439180059391048,1.2962704648867067,1.419407570744931
1770453746560,126,-2,1.3328713347372627,2.7077752399322725,2.304349389937128
1770453746564,127,-1,2.186745512471446,3.3223387734539345,3.1537626214458663
1770453746568,127,-1,2.876042514684457,3.6633016661221576,3.839578969433638
1770453746572,128,0,3.2902530010358073,4.296933285359742,4.25220846948145
1770453746576,128,0,3.3588628314201414,4.567014247199176,4.32019555813371
1770453746580,128,0,3.0846044084276567,4.429722661765236,4.044415793391204
1770453746584,127,-1,2.5529437509745208,3.473284750306304,3.5098827690135304
1770453746588,126,-2,1.8788938918269111,2.525581774802707,2.832995103459732
1770453746592,126,-2,1.1260885415276312,2.3303648421900816,2.078586954149067
1770453746596,125,-3,0.2854366703249138,1.5505079233873915,1.23709546693798
1770453746600,124,-4,-0.6583395749249927,0.3460524855740599,0.2920518353073726
1770453746604,123,-5,-1.6480112022826472,-0.4730729874271304,-0.699478489567742
1770453746608,122,-6,-2.5553263559293597,-1.5992394753514776,-1.6082098860858869
1770453746612,121,-7,-3.265595812937712,-2.5980132147612145,-2.3187186945714298
1770453746616,121,-7,-3.757063059791395,-2.530133913068665,-2.809979286560846
1770453746620,121,-7,-4.093705936012679,-2.6610544617454246,-3.1473018581471446
1770453746624,120,-8,-4.347674909117576,-3.487292886424788,-3.4028727639508474
1770453746628,120,-8,-4.5411671034047245,-3.678926938394639,-3.597423354327287
1770453746632,120,-8,-4.659540039131864,-3.544974185472925,-3.715242726036275
1770453746636,120,-8,-4.698347475258179,-3.6353059092525633,-3.752552845398731
1770453746640,120,-8,-4.683750677529152,-3.597826445862452,-3.73703230210556
1770453746644,120,-8,-4.655423510794836,-3.601460936971028,-3.709032086594656
1770453746648,120,-8,-4.642083152191934,-3.6431549936722134,-3.696559311907763
1770453746652,120,-8,-4.652686902972743,-3.6139198031128466,-3.7071954028147234
1770453746656,120,-8,-4.680679633793729,-3.6232255320693025,-3.733346303228317
1770453746660,120,-8,-4.709781787025042,-3.638572229935,-3.75870294583654
1770453746664,120,-8,-4.719868253479601,-3.6282359738227346,-3.7644028962648233
1770453746668,120,-8,-4.699771902828616,-3.6715264132066783,-3.741563951166576
1770453746672,120,-8,-4.664442480097533,-3.648062186364021,-3.707240539499694
1770453746676,120,-8,-4.652977262691411,-3.611787476629432,-3.700541166257443
1770453746680,120,-8,-4.674373032299246,-3.714552543593612,-3.727216546330917
1770453746684,120,-8,-4.589250357911144,-3.584746836641185,-3.642659935669601
1770453746688,121,-7,-3.9712585431078673,-2.800103142483162,-3.0167867740069085
1770453746692,123,-5,-2.060797493709436,-0.5574945381673952,-1.0908430960984683
1770453746696,127,-1,2.0502569969670787,3.268936954627401,3.037510340757762
1770453746700,133,5,8.957886081065254,9.347182674550558,9.955962716620782
1770453746704,143,15,18.380091677057663,19.338270391934692,19.376008962998068
1770453746708,154,26,28.83921171081879,30.172866476113704,29.820201476940852
1770453746712,162,34,37.90094443581672,38.46146554966603,38.8632624674193
1770453746716,168,40,42.99738930178654,44.15112589332941,43.95043879022743
1770453746720,168,40,42.51968610221935,44.43730799437302,43.48088210313877
1770453746724,162,34,36.64233079017553,38.118455868054355,37.626278320393155
1770453746728,152,24,27.36938663512875,28.35759819492968,28.379785782059983
1770453746732,142,14,17.656064840090675,18.2207556909195,18.685313159065757
1770453746736,134,6,10.025658286177006,10.374494935876667,11.060474822545102
1770453746740,130,2,5.479874754328188,6.229347002065865,6.508137226485996
1770453746744,129,1,3.3466395083645004,5.2400578141993845,4.3623105480859055
1770453746748,128,0,2.077648406072804,4.2463102058510955,3.083291945588394
1770453746752,125,-3,0.3675183947999612,1.1907546247982843,1.3736545525120722
1770453746756,122,-6,-2.1675187226960997,-1.590892638546988,-1.1477935208995111
1770453746760,120,-8,-5.064391282063381,-3.928605658215108,-4.023686454208052
1770453746764,117,-11,-7.571950078007621,-6.599559210881472,-6.513304147536708
1770453746768,116,-12,-9.195826415096017,-7.980873147666038,-8.129366914361073
1770453746772,115,-13,-9.912432509140446,-8.598760893438367,-8.84711436376374
1770453746776,115,-13,-10.044453768831705,-8.876357994066822,-8.982215173629811
1770453746780,115,-13,-9.983233486792294,-8.699472293518246,-8.919521132725654
1770453746784,115,-13,-9.962616514577704,-8.870598334900158,-8.891125438046336
1770453746788,115,-13,-9.99363924372666,-8.781466198366209,-8.910497070875765
1770453746792,115,-13,-9.947876534698809,-8.792007000779243,-8.852688076105212
1770453746796,115,-13,-9.695804227612443,-8.811490019012902,-8.590518352552436
1770453746800,116,-12,-9.196411574421846,-7.747392478080598,-8.083888353133936
1770453746804,117,-11,-8.495675629578752,-6.938158626580951,-7.378248948268514
1770453746808,117,-11,-7.67793031421739,-6.699970330302428,-6.555840481289974
1770453746812,118,-10,-6.838540313958307,-5.947528505066347,-5.7095846469793035
1770453746816,119,-9,-6.0814466178565,-4.720836959114671,-4.9428425145280395
1770453746820,120,-8,-5.491230871743993,-3.870276627882612,-4.341862058932861
1770453746824,120,-8,-5.075518418936623,-3.909865916788696,-3.916097605455456
1770453746828,120,-8,-4.745498914539747,-3.6960035411883823,-3.577103069250361
1770453746832,121,-7,-4.377906559416041,-3.0800319098093456,-3.2010689928651677
1770453746836,121,-7,-3.909629535098156,-2.581127298987241,-2.724446547423792
1770453746840,122,-6,-3.380395545826583,-2.1177999976389312,-2.1865888162394373
1770453746844,122,-6,-2.891147110525335,-1.672464236789864,-1.6879366515031244
1770453746848,123,-5,-2.5148992380081125,-0.9711010779430042,-1.3013703861076409
1770453746852,123,-5,-2.228724812317168,-0.8899312072607507,-1.004504021596647
1770453746856,123,-5,-1.9219663886361216,-0.7880799650016849,-0.6873135738756424
1770453746860,124,-4,-1.4814887759531916,-0.0210298316266661,-0.236666069986233
1770453746864,124,-4,-0.8893626545633792,0.2482039344413502,0.3658362115489562
1770453746868,125,-3,-0.2484590713180942,1.026590821995096,1.017381961068774
1770453746872,126,-2,0.2940589190653833,2.087485290375903,1.5702141602243789
1770453746876,126,-2,0.6626620740942597,2.1596620805765205,1.9486417165254597
1770453746880,126,-2,0.900228409623699,1.9630912146528825,2.196644238616537
1770453746884,126,-2,1.1020304296202057,2.2502961783518383,2.4106713600164875
1770453746888,127,-1,1.314247897117801,2.951359441902682,2.636330918596983
1770453746892,127,-1,1.5069056224959618,3.1466024408008986,2.841666024511045
1770453746896,127,-1,1.6327556483440124,3.0175999940076106,2.978263854950647
1770453746900,127,-1,1.685139665223079,3.0603190573732486,3.0403284977875806
1770453746904,127,-1,1.6887028045065882,3.0991894857304207,3.0543728157194567
1770453746908,127,-1,1.6507465778918962,3.0693248933159296,3.0288243501735055
1770453746912,127,-1,1.546715430668057,2.9704753920087192,2.9387195766884755
1770453746916,127,-1,1.368452911862065,3.1607307736675336,2.7745290444787463
1770453746920,127,-1,1.1839470478274263,2.8249456545693823,2.6032045105115804
1770453746924,126,-2,1.1278143994611936,2.3241061544305164,2.5594076927158897
1770453746928,127,-1,1.3049950837498554,2.766847280400504,2.7486475663218073
1770453746932,127,-1,1.689598652203372,3.2583733497086227,3.145272612155944
1770453746936,128,0,2.1221827335703733,3.8018630498104113,3.589947922900402
1770453746940,128,0,2.418464515314049,4.1309033304628375,3.8990566327650744
1770453746944,128,0,2.4978823623564863,3.979663351156202,3.992881925158578
1770453746948,128,0,2.427621801248954,4.033610504001455,3.938342249601162
1770453746952,128,0,2.3539649686758244,3.989177887218621,3.880045953213466
1770453746956,128,0,2.3767008583224407,3.967936059000748,3.916215298964024
1770453746960,128,0,2.45483511591324,3.969036378331152,4.006036103173139
1770453746964,128,0,2.410853715689737,4.0404264045174765,3.973746745614643
1770453746968,128,0,2.0425246454445993,3.9671028896255183,3.61879298425377
1770453746972,127,-1,1.2756797234415975,2.9772088707998283,2.867350897599306
1770453746976,126,-2,0.2467754827495131,1.943304144397856,1.8549773825380305
1770453746980,125,-3,-0.7578006215192508,0.9375388425572204,0.8668180468328486
1770453746984,124,-4,-1.472451631755425,0.0135338790905881,0.1676484083794138
1770453746988,124,-4,-1.811250289764327,-0.0328556750861808,-0.1568615223259063
1770453746992,124,-4,-1.898761962112892,-0.0805481095294802,-0.2311744710263688
1770453746996,124,-4,-1.9557966531600175,-0.0375324450417888,-0.2755681124002124
1770453747000,124,-4,-2.1367508484409,-0.1449203021685636,-0.4431835493762903
1770453747004,123,-5,-2.4459394100249847,-0.9561310509305648,-0.7368052107288745
1770453747008,123,-5,-2.779116550547768,-1.11770154528166,-1.0519107445134006
1770453747012,123,-5,-3.0227971417677844,-1.0245698513569137,-1.2769876468976238
1770453747016,123,-5,-3.1145532651241727,-1.1614318972326478,-1.352426300679903
1770453747020,123,-5,-3.042034283321762,-1.0426316552364192,-1.2666760236663133
1770453747024,123,-5,-2.831759245416835,-1.1459394442470092,-1.0440100723398786
1770453747028,123,-5,-2.5586159868840284,-0.9478763867497064,-0.756351671156814
1770453747032,124,-4,-2.3377219070205455,-0.2691813400078707,-0.5182105303017293
1770453747036,124,-4,-2.2583177268623267,0.0687594088389655,-0.4207417612837483
1770453747040,124,-4,-2.304652549575474,-0.350924188145413,-0.4500448070557019
1770453747044,123,-5,-2.360531263450687,-0.8677625121749214,-0.4900278441584995
1770453747048,124,-4,-2.3171696414125353,-0.3070214609891303,-0.4311793279460838
1770453747052,124,-4,-2.183671332910043,0.0645199469545776,-0.2823014257671572
1770453747056,124,-4,-2.090415149224237,-0.3081532971146152,-0.173671225352741
1770453747060,124,-4,-2.1824172982272323,-0.0288672988659848,-0.2498854891325262
1770453747064,124,-4,-2.494527470472053,-0.2210886236040965,-0.5453965666036895
1770453747068,123,-5,-2.906493009754629,-1.0701944921519029,-0.9399889150249212
1770453747072,123,-5,-3.2128268937797,-1.144329833721086,-1.228492406598842
1770453747076,123,-5,-3.2575758160385537,-1.21003362282252,-1.2553782520250047
1770453747080,123,-5,-3.0335263643849157,-1.0971676706806854,-1.014111978690009
1770453747084,124,-4,-2.6737113846415195,-0.2710461207421178,-0.6385297378663148
1770453747088,124,-4,-2.3524155347114153,-0.0367332243498614,-0.3029693848997976
1770453747092,124,-4,-2.1844712789051703,-0.2527918473271912,-0.1208419470986263
1770453747096,124,-4,-2.195231401027386,-0.1303354568422996,-0.1154598732883632
1770453747100,124,-4,-2.34690976082175,-0.2110105063361078,-0.2483955882422448
1770453747104,124,-4,-2.553406993082223,-0.251115389161608,-0.4351072319100685
1770453747108,124,-4,-2.662859824386218,-0.0550653025773989,-0.5258204797843962
1770453747112,124,-4,-2.4704822003007942,-0.3457239090789332,-0.316174111554873
1770453747116,124,-4,-1.821499233425378,-0.0125229313579771,0.3497064598278201
1770453747120,126,-2,-0.7565953608791764,1.5767314345866716,1.4315633007107298
1770453747124,127,-1,0.4314143202669425,2.928528625509997,2.635436851626941
1770453747128,128,0,1.3027136967731971,3.7188737427119,3.5207272146048356
1770453747132,128,0,1.468676216139949,3.801108298315346,3.7003541846170833
1770453747136,127,-1,0.7512943583029954,2.846865540468248,2.9991280084185865
1770453747140,126,-2,-0.7627363606638521,1.5869733255186629,1.5048625467163286
1770453747144,124,-4,-2.7527512663738474,-0.0543849107687695,-0.4635715182017481
1770453747148,122,-6,-4.746613608419134,-2.415501456101093,-2.43696657445608
1770453747152,120,-8,-6.250489721924731,-4.05176875246188,-3.9231639354669694
1770453747156,120,-8,-6.90824866437971,-4.361733172432927,-4.565739397041882
1770453747160,120,-8,-6.624174944438712,-4.276263966296119,-4.267432306646576
1770453747164,121,-7,-5.575381226747624,-3.187687295452815,-3.203606385742954
1770453747168,123,-5,-4.100292787700896,-1.3967740259133683,-1.7117240073271218
1770453747172,124,-4,-2.5282753122077377,-0.039296088353127,-0.1215236947172768
1770453747176,126,-2,-1.0547861544611357,1.5005679685240692,1.370292135165723
1770453747180,127,-1,0.2640060472536087,2.855761544688023,2.7066328684286813
1770453747184,128,0,1.4118001562534506,3.603428398290153,3.871265866042661
1770453747188,129,1,2.308888080037845,4.759293381875627,4.784987462956373
1770453747192,130,2,2.812201139406901,5.809568774148767,5.304900979506859
1770453747196,130,2,2.827664319795826,5.527028062593073,5.336968279813162
1770453747200,129,1,2.4251413664597714,4.857796721159538,4.951454029757484
1770453747204,129,1,1.8355092653815313,4.469312869067457,4.3796224032677955
1770453747208,128,0,1.321975239043099,3.9014666854114295,3.8843497928723583
1770453747212,128,0,1.02999573134893,3.613622731654332,3.610161937360438
1770453747216,128,0,0.9274568333320088,3.6614460792129058,3.5241537837956054
1770453747220,128,0,0.8645306342721946,3.7208349347651906,3.476412215916167
1770453747224,128,0,0.6908877049359794,3.4725017972118017,3.317401389399057
1770453747228,127,-1,0.3361983797956225,2.936516711643253,2.978138677746359
1770453747232,127,-1,-0.1904935768631195,2.4536184913984993,2.4686075795617652
1770453747236,126,-2,-0.8449143048675631,1.8453178770761132,1.8326778081849076
1770453747240,126,-2,-1.568594953956524,1.4409060708142347,1.1273360906533203
1770453747244,125,-3,-2.273142102561221,0.7120767189666057,0.4398575869795106
1770453747248,124,-4,-2.839031243389159,-0.3325561081560915,-0.1100480786383096
1770453747252,124,-4,-3.169690363779011,-0.3657745175591995,-0.4250070081557657
1770453747256,124,-4,-3.266866379380398,-0.309764555513788,-0.5065282219213908
1770453747260,124,-4,-3.251773653697501,-0.5389478848537363,-0.4761868801327137
1770453747264,124,-4,-3.299305272498576,-0.2728876831431972,-0.508910372410881
1770453747268,124,-4,-3.527995765412332,-0.4713332355765733,-0.7224412203337545
1770453747272,123,-5,-3.9229421079450137,-1.2238772123848285,-1.100909583311236
1770453747276,123,-5,-4.339715881727528,-1.520999620362354,-1.4998920466345134
1770453747280,123,-5,-4.5777047745418455,-1.3819204949770174,-1.7198765332211117
1770453747284,123,-5,-4.478597073883491,-1.4512351049699364,-1.603450133546998
1770453747288,123,-5,-4.01369676548602,-1.377009181345265,-1.1218470492584918
1770453747292,124,-4,-3.328613498070172,-0.3198908427000364,-0.4208885923047624
1770453747296,125,-3,-2.705462875764945,0.4862696506511681,0.2155872752422581
1770453747300,125,-3,-2.430468003941906,0.5873870738352662,0.4997561784715492
1770453747304,125,-3,-2.619615946783168,0.516244017242222,0.3174200946302598
1770453747308,124,-4,-3.0810794936241592,-0.3894620470664593,-0.1339029725380494
1770453747312,124,-4,-3.2521337911582715,-0.3632832342870618,-0.2859438327419386
1770453747316,126,-2,-2.2181482439791953,1.500119422166318,0.776268743935876
1770453747320,129,1,1.133309691369857,4.507596070424825,4.159100991325617
1770453747324,135,7,7.730010205695194,10.6025238084591,10.781249178349592
1770453747328,145,17,17.726610450844316,20.42949732640465,20.79036433146056
1770453747332,157,29,29.984004435260605,32.82866200269363,33.046573258159476
1770453747336,170,42,42.03042046516433,45.19750355547911,45.08512019645665
1770453747340,178,50,50.74058073630247,53.81815994494233,53.79243034504525
1770453747344,182,54,53.546475577146985,57.172731732089424,56.60968608679936
1770453747348,178,50,49.60138409485817,53.79513614796361,52.69095037742164
1770453747352,168,40,40.22631946616431,43.39873941233372,43.35005463591523
1770453747356,155,27,28.303735743240782,30.521950215671957,31.459515043838778
1770453747360,144,16,16.918763875956675,19.582674413924178,20.096589326105317
1770453747364,136,8,8.054505050862607,11.264778517417788,11.241164265986953
1770453747368,130,2,2.0899726843498563,5.825920496515881,5.275084099184371
1770453747372,127,-1,-1.7526686650515728,2.20156531288488,1.4288516022700142
1770453747376,123,-5,-4.5045675686044575,-1.249963103762698,-1.3190579638482314
1770453747380,121,-7,-6.762698792838629,-3.756481542861507,-3.561044298453546
1770453747384,119,-9,-8.562995194165179,-5.446365553098133,-5.33683120042605
1770453747388,118,-10,-9.685961104093115,-6.4702511928931195,-6.435937662657076
1770453747392,118,-10,-10.029605873415774,-6.601502463548221,-6.763559062221174
1770453747396,118,-10,-9.771438592109384,-6.416446071579462,-6.497766578803224
1770453747400,119,-9,-9.277027939884816,-5.733814225807565,-5.998980440109454
1770453747404,119,-9,-8.890509708780389,-5.442036677046302,-5.605205645947704
1770453747408,119,-9,-8.774715249869908,-5.587071580276083,-5.4765176402834195
1770453747412,119,-9,-8.8852895313957,-5.477548647528395,-5.570420163731419
1770453747416,119,-9,-9.054607465290657,-5.615136981882008,-5.723609944036697
1770453747420,119,-9,-9.109977373064009,-5.586714280811808,-5.766500623863966
1770453747424,119,-9,-8.96653832417436,-5.6230672000488635,-5.613949284421553
1770453747428,119,-9,-8.665157565754741,-5.469350743480195,-5.304234379631058
1770453747432,120,-8,-8.339804202492118,-4.615385425553595,-4.969218899941233
1770453747436,120,-8,-8.124995857243867,-4.5346567028235505,-4.743244107697512
1770453747440,120,-8,-8.061436628276333,-4.732161211255213,-4.667992014515304
1770453747444,120,-8,-8.072386332272682,-4.50165196935863,-4.667532859209003
1770453747448,120,-8,-8.027470679474767,-4.673409439880251,-4.611708009567675
1770453747452,120,-8,-7.835213304449785,-4.411458280652326,-4.408988533641117
1770453747456,121,-7,-7.486589217360093,-3.8155848869971183,-4.050363978305397
1770453747460,121,-7,-7.023211534514525,-3.4788414672839503,-3.5774628764114897
1770453747464,122,-6,-6.474375813656001,-2.824262760400649,-3.019322662361832
1770453747468,122,-6,-5.831542028486889,-2.3818711805132713,-2.366959166899173
1770453747472,123,-5,-5.083948732588828,-1.7607233402234097,-1.6095338696852657
1770453747476,124,-4,-4.2718879028882,-0.4970008760729432,-0.7878821977459796
1770453747480,125,-3,-3.4969654834581307,0.1446671144290241,-0.0041946491043141
1770453747484,125,-3,-2.8753430087692533,0.4997255701859431,0.6254256893601919
1770453747488,126,-2,-2.4719807846091144,1.2595044969447946,1.0366600642563124
1770453747492,126,-2,-2.2630946845604676,1.530225266948103,1.254045928556868
1770453747496,126,-2,-2.150345151015941,1.193935075331075,1.376322349599916
1770453747500,126,-2,-2.0148552583416963,1.3778313380994494,1.5218042406290353
1770453747504,127,-1,-1.769095343727367,2.245860996611646,1.7765039741240618
1770453747508,127,-1,-1.3755789580504414,2.440255668821284,2.176940215478812
1770453747512,127,-1,-0.8480654957254226,2.3345895528987373,2.7102848302210556
1770453747516,128,0,-0.2590918706889248,3.316916228044952,3.3057618734906793
1770453747520,129,1,0.2687512573466397,4.230623096526282,3.8412363359990778
1770453747524,129,1,0.6189344511756818,4.313932357708015,4.199197604731722
1770453747528,129,1,0.7524586495719064,4.359711537729771,4.3398806087718365
1770453747532,129,1,0.7256576209313459,4.344170752155209,4.319852321648993
1770453747536,129,1,0.637488180789866,4.27282008262222,4.238507288929785
1770453747540,129,1,0.5613164565723424,4.221792494485982,4.1690454289983405
1770453747544,129,1,0.5226721917670493,4.267865095199619,4.136485441430992
1770453747548,129,1,0.5300135282271788,4.3915111317250926,4.149260902794548
1770453747552,129,1,0.6131932431194742,4.2286178995705725,4.237937376639518
1770453747556,129,1,0.823953118306266,4.383449210843013,4.4548862784883525
1770453747560,130,2,1.1990923299549625,5.006111816255004,4.836498942839135
1770453747564,130,2,1.7248094854428595,5.498707777954115,5.367834564360836
1770453747568,131,3,2.329908606372316,6.06496043361123,5.977196835109641
1770453747572,131,3,2.902456586621127,6.56174363206994,6.553449428025857
1770453747576,132,4,3.3162585260196775,6.9543597809267705,6.971557453024999
1770453747580,132,4,3.465858255509757,7.402417893621506,7.126302372121254
1770453747584,132,4,3.3051795424781307,7.065767858611995,6.970806197012848
1770453747588,131,3,2.8664783519124013,6.426299218685229,6.536443447916552
1770453747592,131,3,2.239241825012655,6.210535042988898,5.912653960991235
1770453747596,130,2,1.5201502417472683,5.181377319856574,5.196940043911635
1770453747600,129,1,0.7725958216257383,4.193849043072199,4.453424399457429
1770453747604,129,1,0.0302804147562621,4.175683561940754,3.7154596604671775
1770453747608,128,0,-0.6608243531703218,3.3269166043657146,3.0279800661192735
1770453747612,127,-1,-1.2166083431034334,2.22824592708572,2.4747371008025887
1770453747616,127,-1,-1.55291145169284,2.1338898896793683,2.1405570972855457
1770453747620,127,-1,-1.6590473615679584,2.1712028287078886,2.0368085927114907
1770453747624,127,-1,-1.6241692907437717,2.168184832444143,2.074344398188084
1770453747628,127,-1,-1.5779931994316645,2.2993187569885527,2.123091286636102
1770453747632,127,-1,-1.595667700169622,2.2114431255061313,2.107622994381849
1770453747636,127,-1,-1.6496635610688806,2.080983466883264,2.05539750456835
1770453747640,127,-1,-1.6470487387604025,2.1839546990673484,2.0595967385484495
1770453747644,127,-1,-1.5181539785453797,2.0986800383489816,2.1903867554383516
1770453747648,127,-1,-1.2799155205642712,2.3572098261195307,2.430911712530847
1770453747652,128,0,-1.0166753070821133,3.0982746020361236,2.6959856694857303
1770453747656,128,0,-0.7968380539057918,3.1352267477567533,2.916270499177857
1770453747660,128,0,-0.6137299458514687,3.0786263785389485,3.0988576905891234
1770453747664,128,0,-0.4197756216807987,3.155579167034114,3.2928928826497463
1770453747668,128,0,-0.2156457430796668,3.2768083048441228,3.4983968149918727
1770453747672,129,1,-0.0821808851345101,4.126221480496158,3.633299771554132
1770453747676,129,1,-0.1061042541369579,4.0626827034506565,3.6094434064713594
1770453747680,128,0,-0.2828552504238091,3.085903121931027,3.431793783182232
1770453747684,128,0,-0.5105057786550513,3.1100603230532093,3.2037729460855093
1770453747688,128,0,-0.6770768794425516,3.28518314110676,3.037631651132475
1770453747692,128,0,-0.7412834389768483,3.0707347584249916,2.9734301501881766
1770453747696,128,0,-0.7353323738709371,3.0804176756411055,2.978151226732702
1770453747700,128,0,-0.7114350960974929,3.014606721021997,3.0002522222487804
1770453747704,128,0,-0.6924021452699421,3.112329758835535,3.0180794081046853
1770453747708,128,0,-0.6611241289406024,3.283427891200681,3.049044288035348
1770453747712,128,0,-0.5880811107673206,2.9758555134507025,3.121853850454416
1770453747716,128,0,-0.4723352244854459,3.197175458337343,3.236181635368391
1770453747720,129,1,-0.3616837585744088,3.77755372532569,3.343651253813487
1770453747724,128,0,-0.3348725146176077,3.3550692521898835,3.366543491115132
1770453747728,128,0,-0.4606517162718847,2.9623053233847885,3.238099500648144
1770453747732,128,0,-0.7558646748925189,3.2755326357170422,2.9423134120392533
1770453747736,128,0,-1.1548892242829631,2.8556770960428057,2.5434152848469083
1770453747740,127,-1,-1.5136344275673548,2.035410934903953,2.1833386373398898
1770453747744,127,-1,-1.6765402536695315,2.101653242372748,2.016864206668965
1770453747748,127,-1,-1.584924679780308,2.115963255954652,2.1036865404800738
1770453747752,127,-1,-1.3405604818221797,2.1366346351857985,2.3434989402822612
1770453747756,128,0,-1.1486931437008028,2.91440779650321,2.5316587599411484
1770453747760,128,0,-1.1632686220891213,2.9371550799554376,2.5140349922838423
1770453747764,127,-1,-1.3577951039339071,2.16093183559497,2.3169898181260917
1770453747768,127,-1,-1.5387166110659876,1.9773099051792935,2.133971387573826
1770453747772,127,-1,-1.491885195755424,2.285569711628162,2.17830462827866
1770453747776,128,0,-1.1339486703214394,2.663247664558447,2.5321520229081003
1770453747780,128,0,-0.5520985849523159,3.205759346634872,3.108196538521571
1770453747784,129,1,0.0756205242740314,3.799049993389913,3.729729598755355
1770453747788,129,1,0.6023191745002292,4.3097240272238295,4.2513254284964415
1770453747792,130,2,0.9912678425293242,4.915693562533239,4.636588025223634
1770453747796,130,2,1.3070533562500042,4.951627328346156,4.949416578045465
1770453747800,130,2,1.632897723009561,4.9393721616478885,5.271945953974597
1770453747804,131,3,1.98279180574003,5.934044825452112,5.617044858813447
1770453747808,131,3,2.281497668788698,6.225468417355738,5.909021183869346
1770453747812,131,3,2.4201081071514357,5.851818399103791,6.040030289984122
1770453747816,131,3,2.3282600246188783,6.072559317543123,5.941740531886548
1770453747820,131,3,2.010251791677111,5.691811889091281,5.619501059076934
1770453747824,130,2,1.540935583538809,5.178922113021061,5.147098899477579
1770453747828,130,2,1.0365400032221652,4.928284547087294,4.638610103008725
1770453747832,129,1,0.6050322089470404,4.081404959803983,4.200744853506782
1770453747836,129,1,0.2855425091362892,3.8527989330732977,3.873205006393853
1770453747840,129,1,0.0122872991624224,3.7988942755184407,3.591869390355832
1770453747844,128,0,-0.3561133414760895,3.096898344105775,3.2166397990509465
1770453747848,128,0,-0.9424089210994436,2.8888551522189183,2.62477602915786
1770453747852,127,-1,-1.7519163429560771,2.1586259780078016,1.8100218762694504
1770453747856,126,-2,-2.650339268971629,0.6507637416663041,0.9057656016654504
1770453747860,125,-3,-3.4470481077404136,0.0226414704069841,0.1023044934649597
1770453747864,125,-3,-4.020836549674936,-0.2233731563134253,-0.4789538886110229
1770453747868,124,-4,-4.384937561891497,-0.8070873803378544,-0.8506425246631479
1770453747872,124,-4,-4.644326540461832,-1.1786109144501191,-1.1171625663756592
1770453747876,124,-4,-4.889315523569567,-1.0850295927246072,-1.3689726584476836
1770453747880,124,-4,-5.1154950826017425,-1.2515848814001151,-1.6024005000392232
1770453747884,123,-5,-5.2388340018629895,-2.0495683545203303,-1.7337286054793688
1770453747888,123,-5,-5.195056884653325,-1.967615960984639,-1.6982675112635472
1770453747892,124,-4,-5.024284993757278,-1.1065545469635747,-1.5356555476571765
1770453747896,124,-4,-4.845163385597808,-1.152358791260654,-1.3641354250066724
1770453747900,124,-4,-4.739832428061772,-1.280144564821342,-1.2652018251446062
1770453747904,124,-4,-4.672450080740141,-1.022631651186515,-1.2028061616290266
1770453747908,124,-4,-4.530524609005573,-1.0932717489033303,-1.066023449191182
1770453747912,124,-4,-4.253713599428243,-0.9670270281718268,-0.7977037214080918
1770453747916,125,-3,-3.924512225767536,-0.3781765508495558,-0.4826762365912562
1770453747920,125,-3,-3.7100859518626863,-0.0594532995466563,-0.2865002680053212
1770453747924,125,-3,-3.648899834917115,-0.3218255377618706,-0.241497103614495
1770453747928,125,-3,-3.3957286502328268,0.1662526400492945,0.0046655687141154
1770453747932,127,-1,-2.099939915059655,1.745717300263098,1.304999794357092
1770453747936,130,2,1.4310810770149986,4.8406759165210635,4.846554719872776
1770453747940,137,9,8.239098135253434,11.735761205399296,11.659923484121276
1770453747944,147,19,18.53160632993699,21.79589138313544,21.942773455129075
1770453747948,159,31,31.135481577750976,34.04270905790873,34.52055466917503
1770453747952,172,44,43.47422744350385,46.815031013010575,46.82556876088927
1770453747956,181,53,52.2775171968351,55.702575559757406,55.60107486485382
1770453747960,184,56,54.84310180453937,58.83947454428662,58.15436501429409
1770453747964,180,52,50.2678908880368,54.5586689942626,53.58253592342525
1770453747968,168,40,39.93974554586924,43.266316544844635,43.2659011220522
1770453747972,155,27,26.92317080509516,29.493030624862453,30.259128850346663
1770453747976,142,14,14.544219724803789,17.04966165130722,17.880477554326973
1770453747980,134,6,5.010942306883979,8.47068515435697,8.334433121316797
1770453747984,128,0,-1.153453018615327,2.904921582601822,2.1463645260179933
1770453747988,124,-4,-4.7051859958375175,-1.062130160348148,-1.432154186692915
1770453747992,122,-6,-6.792000398274386,-3.3190945730546675,-3.5393380554773435
1770453747996,120,-8,-8.246695923337196,-5.09802734016477,-5.002917942232037
1770453748000,119,-9,-9.39767443588194,-6.550673074874244,-6.154022074521913
1770453748004,118,-10,-10.27675706575802,-7.000897516482901,-7.032342335767288
1770453748008,118,-10,-10.88983155803555,-7.270623062913216,-7.650501431584402
1770453748012,117,-11,-11.319521632650398,-8.113597280687669,-8.092254118086803
1770453748016,117,-11,-11.662458734919356,-8.377969410037378,-8.450382901946073
1770453748020,117,-11,-11.940381155301967,-8.332658276197858,-8.741840456880322
1770453748024,116,-12,-12.09667127472061,-9.222409565922732,-8.907821685570909
1770453748028,116,-12,-12.077063598777404,-9.120370040939584,-8.89544515734805
1770453748032,117,-11,-11.904839595185214,-8.259389587967236,-8.731361587242578
1770453748036,117,-11,-11.672671787585635,-8.347469832745041,-8.510418257023993
1770453748040,117,-11,-11.468977481186906,-8.354066549664187,-8.319825906625159
1770453748044,117,-11,-11.318436240244631,-8.287563813295641,-8.181051672255116
1770453748048,117,-11,-11.173358924497732,-8.046101594826123,-8.044810526806737
1770453748052,118,-10,-10.926549319561405,-7.419047908681605,-7.805484728586725
1770453748056,118,-10,-10.426105226487651,-7.204342815412751,-7.313758714840062
1770453748060,119,-9,-9.520058477730176,-6.575661071594409,-6.418429248119898
1770453748064,120,-8,-8.144206472679114,-5.074786338320234,-5.054106052655538
1770453748068,122,-6,-6.395768847264041,-3.308525065925749,-3.3168678936551097
1770453748072,124,-4,-4.514361989193797,-1.2082964944399868,-1.446398078440004
1770453748076,126,-2,-2.767744718680695,0.5660498073826732,0.2890906154428609
1770453748080,127,-1,-1.330932541579349,1.553056398428335,1.7148846682700856
1770453748084,128,0,-0.2491015780479928,2.8127913248488894,2.786637520843462
1770453748088,129,1,0.5105175224510632,3.7074168823597105,3.537296288937236
1770453748092,129,1,0.9881731069526338,3.7785197540973434,4.00604157099777
1770453748096,130,2,1.2087470957336497,4.504053308702873,4.216230696597066
1770453748100,130,2,1.2083603833071188,4.58799830055824,4.203665871132307
1770453748104,129,1,1.0571081691472075,3.722832211041677,4.040141021858121
1770453748108,129,1,0.8368128459824055,3.7620258816826904,3.809621377386116
1770453748112,129,1,0.6006642112110407,3.6876433004030194,3.565228101707468
1770453748116,129,1,0.3733617695906707,3.533675431339883,3.329103553176583
1770453748120,129,1,0.1908745640263136,3.542717832992076,3.135114947091542
1770453748124,128,0,0.1109599724456897,2.6987505955331996,3.041943754385481
1770453748128,128,0,0.1607468707956459,2.7583902899064907,3.079525269043015
1770453748132,129,1,0.2897133422693334,3.643146263627368,3.1987773292523416
1770453748136,129,1,0.4137804910192607,3.531848846081396,3.3145325182766494
1770453748140,129,1,0.5226046011132581,3.5142440527046195,3.4146206659540335
1770453748144,129,1,0.7224307692191436,3.6816389106370657,3.604524378500213
1770453748148,129,1,1.1403029031999798,3.71441983321339,4.0114385759830125
1770453748152,130,2,1.765941598870138,4.6565057431240575,4.62520586489493
1770453748156,131,3,2.385969521162323,5.472333522317163,5.232542229898938
1770453748160,131,3,2.69056778931326,5.546316899848936,5.524447043395529
1770453748164,131,3,2.4822463369515666,5.600466347168837,5.305003277619743
1770453748168,130,2,1.8291692353171367,4.737599898166579,4.643451337190552
1770453748172,129,1,1.0487887098993818,3.579651751719267,3.8564389786912288
1770453748176,129,1,0.5341881201952712,3.5213791152081573,3.334504531480804
1770453748180,129,1,0.5398204266897844,3.4731039175805805,3.329813704067384
1770453748184,129,1,1.0537364584202653,3.618173669472664,3.83040263192497
1770453748188,130,2,1.817635994469136,4.700277388233103,4.580095822268155
1770453748192,131,3,2.4743810052167983,5.5133735943865565,5.2241053523018595
1770453748196,131,3,2.756715511326991,5.610651839205822,5.49624014298729
1770453748200,131,3,2.6046079793101757,5.286331623764955,5.336013651229091
1770453748204,130,2,2.1461234316358664,4.823886706151551,4.869923676010957
1770453748208,130,2,1.5759749602515307,4.380513258655341,4.290860025428342
1770453748212,129,1,1.029515392916,3.8320887446711343,3.733393108971825
1770453748216,129,1,0.5295020801719517,3.2306256266927815,3.221189677616602
1770453748220,128,0,0.019045618046018,2.650792197776773,2.699004105700122
1770453748224,128,0,-0.5568074231529933,2.4186544461220656,2.112732433281998
1770453748228,127,-1,-1.1827202319326933,1.7064524569264592,1.4774076529060562
1770453748232,126,-2,-1.772686669710545,0.492931363082008,0.8782572778466986
1770453748236,126,-2,-2.239413518893854,0.4901695489757975,0.4018077655317791
1770453748240,126,-2,-2.569218311055888,0.4206580351606515,0.0612646632624069
1770453748244,125,-3,-2.833147177386265,-0.4605318786622154,-0.2141437081972301
1770453748248,125,-3,-3.127532830922364,-0.4019806474632448,-0.5197459059133485
1770453748252,125,-3,-3.4944742871180243,-0.5098734244043239,-0.8967351461290352
1770453748256,124,-4,-3.881509234607317,-1.4938884289754435,-1.292622485748166
1770453748260,124,-4,-4.170002322159519,-1.663604660801164,-1.5897324486533675
1770453748264,124,-4,-4.251888189777487,-1.3841756093655266,-1.6813056705049294
1770453748268,124,-4,-4.0996212301181245,-1.5637694141675316,-1.5402736656116165
1770453748272,124,-4,-3.785527540755085,-1.3673364726681347,-1.23799267541715
1770453748276,125,-3,-3.442994559550111,-0.6909483725409316,-0.9063189797017892
1770453748280,125,-3,-3.191807376624448,-0.4922316643988451,-0.6644224386258268
1770453748284,125,-3,-3.07287943874462,-0.590223065318858,-0.5539926759497262
1770453748288,125,-3,-3.041148979456437,-0.4377730296968685,-0.5313671764831087
1770453748292,125,-3,-3.026809958878139,-0.5003506355775285,-0.5275803957364695
1770453748296,125,-3,-3.0171725416289727,-0.6506445539601349,-0.5295206804421113
1770453748300,125,-3,-3.0876055826677917,-0.4904916228609906,-0.611218326959516
1770453748304,125,-3,-3.345044621352388,-0.710703096242459,-0.8785299758626768
1770453748308,124,-4,-3.819594435856004,-1.2962724278732738,-1.3616991035231982
1770453748312,124,-4,-4.39379681803509,-1.7593325636614474,-1.9444284349697791
1770453748316,123,-5,-4.843548751428344,-2.376020319551809,-2.4036390132645313
1770453748320,123,-5,-4.979230504171852,-2.826461859090773,-2.54975612033091
1770453748324,123,-5,-4.78253392664873,-2.401783944364248,-2.363888282139207
1770453748328,124,-4,-4.41996126493199,-1.6441036242342246,-2.0120747966429677
1770453748332,124,-4,-4.113071320279137,-1.491793853195213,-1.7155538835751916
1770453748336,124,-4,-3.977502840600584,-1.6364286965066763,-1.5895729344184233
1770453748340,124,-4,-3.970217368348532,-1.6509828980759245,-1.59111675772111
1770453748344,124,-4,-3.9763883240266793,-1.5784232372173108,-1.606258144553701
1770453748348,124,-4,-3.9416494817228167,-1.5456093440038754,-1.5816905843005804
1770453748352,124,-4,-3.9298146789149335,-1.6197552497524963,-1.5812442728168716
1770453748356,124,-4,-4.060250946065819,-1.5390983139827692,-1.723108676271528
1770453748360,124,-4,-4.377859174594598,-1.801181322583307,-2.050798997216241
1770453748364,123,-5,-4.763849183059435,-2.455557227296788,-2.444983566568646
1770453748368,123,-5,-4.969537146446091,-2.7323737690441066,-2.6577710149871967
1770453748372,123,-5,-4.760146895444536,-2.472920882893427,-2.4562626601407813
1770453748376,124,-4,-4.0663320032266626,-1.7014754822458356,-1.7729138621750062
1770453748380,125,-3,-3.035917948181706,-0.7047483114264299,-0.7556974694259728
1770453748384,126,-2,-1.9551367458989977,0.4527090300236915,0.311256232595565
1770453748388,127,-1,-1.0952706390715812,1.2489442978916987,1.1596441510250663
1770453748392,127,-1,-0.5752432121512723,1.5519485032364426,1.6718965744037844
1770453748396,128,0,-0.3087451792255127,2.1940125855547405,1.9327440037875108
1770453748400,128,0,-0.060349532615852,2.391847965115622,2.174482455919347
1770453748404,128,0,0.4090310937862802,2.314851510478485,2.6341831561912623
1770453748408,129,1,1.1775427792947863,3.3108127653100703,3.3902797310222903
1770453748412,130,2,2.086668553406126,4.498274874240044,4.285986352227239
1770453748416,131,3,2.8251513080148394,5.141462072146812,5.011985777160348
1770453748420,131,3,3.1255233177606856,5.492730556115814,5.302214572180464
1770453748424,131,3,2.9317086163566826,5.095507573948692,5.10074112736174
1770453748428,130,2,2.419453724413777,4.522671146162905,4.581768288470435
1770453748432,130,2,1.8642941887692348,4.215710696409803,4.018510968664751
1770453748436,129,1,1.4538640811246626,3.3987134689741487,3.5973856860470925
1770453748440,129,1,1.169350776404474,3.2204173582729863,3.30037792836397
1770453748444,129,1,0.8134425020853562,3.315145204999893,2.932012284122194
1770453748448,128,0,0.1660399548605935,2.2498033262717394,2.273461375436632
1770453748452,127,-1,-0.8430957628407021,1.4385814521898173,1.2545501001190982
1770453748456,126,-2,-2.071566629258675,0.1435050717468582,0.0170274037383904
1770453748460,124,-4,-3.2534758039959057,-1.5550414221237387,-1.1738460325980211
1770453748464,124,-4,-4.162361985886275,-1.9493742870489803,-2.0920353697906617
1770453748468,123,-5,-4.7167737918930195,-2.530711548902151,-2.6564454946375338
1770453748472,123,-5,-4.959632459376206,-2.8430930695954464,-2.910140040374156
1770453748476,123,-5,-4.962412395752545,-2.5751363793322497,-2.9241731126552435
1770453748480,123,-5,-4.766116084871021,-2.902280319482612,-2.738754094811939
1770453748484,123,-5,-4.415107288840568,-2.6234987568372814,-2.3980310764909913
1770453748488,124,-4,-4.028035221576417,-1.9175855331829197,-2.021613005303119
1770453748492,124,-4,-3.802880960546853,-1.5156370470658218,-1.8085857400886072
1770453748496,124,-4,-3.9225362240314943,-1.8901180893845784,-1.9412982412273925
1770453748500,123,-5,-4.43104496111815,-2.682051426965984,-2.4614764838273584
1770453748504,123,-5,-5.176858021181847,-2.8227093049698535,-3.2154759861116915
1770453748508,122,-6,-5.866099680506235,-3.847540599572626,-3.909590248109658
1770453748512,121,-7,-6.204810619174963,-4.5574534207153405,-4.252901882218559
1770453748516,122,-6,-6.061084843293937,-3.918420020845941,-4.118496091790558
1770453748520,122,-6,-5.550068292153793,-3.65434294864904,-3.62560513184182
1770453748524,123,-5,-4.967528586990463,-2.918063321038376,-3.068943012464934
1770453748528,123,-5,-4.571450869529135,-2.7966298484874614,-2.6983127912987483
1770453748532,123,-5,-4.285273610337597,-2.659127484446648,-2.4258444739822353
1770453748536,125,-3,-3.450645932911483,-0.8444848615919893,-1.5872861933751898
1770453748540,127,-1,-0.8089200066526536,1.2559821215049851,1.0701143443421302
1770453748544,133,5,5.108252165846949,7.099468884891429,6.99885467804331
1770453748548,143,15,15.159859915010198,17.19532409931631,17.042216600394326
1770453748552,155,27,28.65973255461452,29.260865266127187,30.509922556617703
1770453748556,170,42,42.92879245008952,44.25276827656975,44.73405645627932
1770453748560,182,54,53.886051149281606,56.112606722270584,55.65251426279661
1770453748564,186,58,57.685083010164035,60.13314727461173,59.4328251434306
1770453748568,182,54,52.62733246458033,56.132817101522576,54.37779179443799
1770453748572,168,40,40.17123725504432,42.16869715702836,41.9364579183816
1770453748576,150,22,24.275254779110437,24.35662117013033,26.05412376382246
1770453748580,136,8,9.404469654665649,9.976808076101836,11.184668323933764
1770453748584,126,-2,-1.5186781691509754,0.2837233729639319,0.2449212620076286
1770453748588,121,-7,-7.952642900515453,-4.994086549311005,-6.220359782580731
1770453748592,117,-11,-11.07956891492656,-8.74434739009656,-9.381501608057068
1770453748596,115,-13,-12.440203166647738,-10.775158830195606,-10.76616008225154
1770453748600,115,-13,-12.94013752264136,-10.986502607823446,-11.275260608153728
1770453748604,114,-14,-12.757875263605897,-11.785300985773317,-11.093606255400683
1770453748608,115,-13,-11.90032769847772,-10.971903423426134,-10.238767159451852
1770453748612,117,-11,-10.734591551326927,-8.75252175146331,-9.084364741709106
1770453748616,118,-10,-9.988996351967264,-7.842776336578559,-8.357623528552807
1770453748620,118,-10,-10.258064222430372,-7.9881063810715,-8.646672132931242
1770453748624,116,-12,-11.50105581077504,-9.80327417535851,-9.904429645480928
1770453748628,114,-14,-13.011735122892889,-12.055712866268175,-11.423188360378187
1770453748632,113,-15,-13.90061277905521,-12.593834468550437,-12.31800266761985
1770453748636,114,-14,-13.690707731652928,-12.13129010307114,-12.11874178052745
1770453748640,115,-13,-12.569139952438327,-10.668810663244589,-11.015723104648195
1770453748644,117,-11,-11.160926414334751,-9.201557079864738,-9.630488462959397
1770453748648,117,-11,-10.066474224830834,-8.697339215624233,-8.556263551121479
1770453748652,118,-10,-9.519218917779408,-7.957987306052579,-8.021928841179946
1770453748656,118,-10,-9.35072302103225,-7.873534296787099,-7.8608307237481245
1770453748660,118,-10,-9.203712210973322,-7.90808427710432,-7.721669095232763
1770453748664,119,-9,-8.802522378136162,-7.060678125615541,-7.3335134025663855
1770453748668,119,-9,-8.112855290839148,-6.801044921973382,-6.6621151201534055
1770453748672,120,-8,-7.325453433404192,-5.954252727967935,-5.894717036637582
1770453748676,121,-7,-6.702416007598067,-4.863798297150626,-5.28996768525685
1770453748680,121,-7,-6.392670189181605,-5.020240826390473,-4.995629136287714
1770453748684,121,-7,-6.334992820104314,-4.951654131349699,-4.951229952564923
1770453748688,121,-7,-6.305545342052884,-4.948962825962554,-4.934329673012767
1770453748692,121,-7,-6.061424402142748,-4.8645998354594955,-4.703448270735953
1770453748696,122,-6,-5.468129028017302,-3.953471378662514,-4.125296259338841
1770453748700,123,-5,-4.533324621652515,-3.026260679109247,-3.2079058663723807
1770453748704,124,-4,-3.361523275584969,-1.928401211659044,-2.054724532576968
1770453748708,125,-3,-2.09833719302131,-1.0451511038759114,-0.8095815920058029
1770453748712,126,-2,-0.9005713596643623,0.210264923480016,0.3715020011345058
1770453748716,128,0,0.0910205332402962,1.921844109941826,1.3470852721535276
1770453748720,128,0,0.7961719514572616,2.043908013455262,2.0362147305709652
1770453748724,128,0,1.226672597918468,1.9922992581555017,2.450880148116147
1770453748728,129,1,1.4721774442788604,2.964215410356895,2.6806819728377715
1770453748732,129,1,1.6545513514023105,3.1976745873365986,2.8464398638896595
1770453748736,129,1,1.878295066901578,2.8467209476179707,3.0519768987258225
1770453748740,129,1,2.1835984354192424,3.130544507503105,3.338293709425437
1770453748744,130,2,2.5205406523330027,3.8321102848999513,3.656735093041576
1770453748748,130,2,2.782561485964256,4.10593693485683,3.9010451675631743
1770453748752,130,2,2.8941033552838946,4.017209642483097,3.995130054251454
1770453748756,130,2,2.881148752335641,3.9632212597197345,3.964489452137248
1770453748760,130,2,2.8589252585738096,4.008552239732094,3.924252698510972
1770453748764,130,2,2.947206937712818,3.8777440254493674,3.994222759597738
1770453748768,130,2,3.18797765749653,4.060927695800926,4.216276965126921
1770453748772,131,3,3.5346377118553516,4.995925371459703,4.543739392875097
1770453748776,131,3,3.9131423111959567,4.971030776200015,4.902953551364426
1770453748780,131,3,4.287316901847912,4.929782045464496,5.258393497094162
1770453748784,132,4,4.664735369507342,5.950139911051523,5.617543108653489
1770453748788,132,4,5.0471080317970625,5.913921374469651,5.98095644730984
1770453748792,132,4,5.378944355040352,6.1403484650554265,6.292128417341891
1770453748796,133,5,5.540608913545135,6.766325579069347,6.431943673711261
1770453748800,132,4,5.395837734730705,6.10521397398587,6.265995834251428
1770453748804,132,4,4.870310620074256,5.722876698160247,5.721344421027181
1770453748808,131,3,4.017753146422275,5.110945762494941,4.851053616986096
1770453748812,130,2,3.0264523913735903,3.901736698246393,3.841298808310119
1770453748816,129,1,2.1382278312512417,2.9660522237829303,2.932499440283938
1770453748820,128,0,1.507719001730247,1.8883755234014452,2.2796993821101403
1770453748824,128,0,1.1001042916698165,1.8503765321852417,1.8493042852652175
1770453748828,128,0,0.7266842053123795,2.0212153868417357,1.4534977210520938
1770453748832,127,-1,0.2072354802661073,0.8704810654243467,0.9126000961824434
1770453748836,126,-2,-0.4746142690615342,0.0477416960330561,0.2104946154933746
1770453748840,126,-2,-1.1517833817286225,-0.3173233579686014,-0.4863500826900713
1770453748844,125,-3,-1.5955927792311428,-0.9354241117390436,-0.9505936383654
1770453748848,125,-3,-1.6772651584597082,-1.2514432955781782,-1.054288481458546
1770453748852,125,-3,-1.4522901891362765,-0.8769094595035933,-0.8526306259545291
1770453748856,126,-2,-1.1102667806520017,-0.2266191916064921,-0.534431264361144
1770453748860,126,-2,-0.8298844930860014,-0.1252486405282205,-0.2776149358260846
1770453748864,126,-2,-0.6571317642519787,-0.1301580558539616,-0.1273385352782901
1770453748868,126,-2,-0.5076984153352231,-0.1412526738394774,0.0012174432888114
1770453748872,126,-2,-0.2804492826407202,0.0319210938245912,0.2083541840197091
1770453748876,127,-1,0.0306028312031934,0.787519728353403,0.4978273808817461
1770453748880,127,-1,0.3211646431573799,0.8515695603813633,0.7635393063892206
1770453748884,127,-1,0.4503727239624107,0.822997905183098,0.8653584481096501
1770453748888,127,-1,0.3252349992817431,0.8842145211224943,0.7134855603016703
1770453748892,126,-2,-0.0578327428195233,-0.0324737921798055,0.3073148603919045
1770453748896,126,-2,-0.6042215162933953,-0.1939882839746713,-0.2586331281969867
1770453748900,126,-2,-1.1211269955579046,-0.1835255002352065,-0.7947121023325336
1770453748904,125,-3,-1.3509146897692677,-1.211557915408811,-1.0465458602095288
1770453748908,125,-3,-1.0849530881177318,-1.093638239372814,-0.8062546875420975
1770453748912,126,-2,-0.3268991177648016,-0.0942357080922224,-0.076033133668657
1770453748916,127,-1,0.6289675635541858,0.815973204050197,0.8516922166342122
1770453748920,128,0,1.3167472870528258,1.8010586734911491,1.5124051147067803
1770453748924,128,0,1.368783488152752,1.7304220696843085,1.5395420585522963
1770453748928,127,-1,0.7492044253907594,0.9385058785971948,0.897811619199411
1770453748932,126,-2,-0.2214249180333429,-0.1679040217117084,-0.0930671687632773
1770453748936,125,-3,-1.068199112801906,-1.1730557052424075,-0.960761747879162
1770453748940,125,-3,-1.4474109891469906,-1.1948982644046775,-1.3644567786979622
1770453748944,125,-3,-1.328348314468783,-1.3506780951043238,-1.2743458385763562
1770453748948,125,-3,-0.9709850289316808,-0.9770390481132434,-0.948261992808273
1770453748952,126,-2,-0.7338183803621294,-0.3197255890642458,-0.7408343935455068
1770453748956,125,-3,-0.8394140768408618,-1.0659352208952486,-0.8717654206660388
1770453748960,125,-3,-1.2353333658283308,-1.314335593832481,-1.2888585162431776
1770453748964,125,-3,-1.6226659487756203,-1.3102212684903805,-1.696358327814781
1770453748968,124,-4,-1.6307726091566233,-1.988515510606962,-1.727315114610843
1770453748972,125,-3,-1.0421873299875308,-1.4320690052676603,-1.166042570126958
1770453748976,126,-2,0.0624083031862836,0.110563475633056,-0.0923183929614586
1770453748980,128,0,1.335226365535601,1.3699530786303111,1.1490090377660378
1770453748984,128,0,2.354876646129191,2.0678473243988713,2.1399274281359713
1770453748988,129,1,2.8607345806279274,2.523463301495174,2.621277538847766
1770453748992,129,1,2.8890139785279194,3.0354182984429867,2.62753910473651
1770453748996,129,1,2.733905955089374,2.612509134592752,2.4496012924486688
1770453749000,128,0,2.7483955930993336,1.7954599505389297,2.4383846979790156
1770453749004,129,1,3.1019466806028912,2.675650150388149,2.7633381459662205
1770453749008,130,2,3.668966404457578,3.819645826490525,3.3000263923605457
1770453749012,130,2,4.137722965814342,3.741687001475263,3.738608728239086
1770453749016,130,2,4.245973856310064,3.8395615079091794,3.819016208697023
1770453749020,130,2,3.9532549758204025,3.545187497330939,3.5015679905349075
1770453749024,129,1,3.4371729862844997,2.8762172194237734,2.962047697148962
1770453749028,129,1,2.9444662972634754,2.5969109550728295,2.444215296951816
1770453749032,128,0,2.610698634990719,1.9082399738672045,2.0823256254988936
1770453749036,128,0,2.3640221650365603,1.6681235351741277,1.8057908463080952
1770453749040,128,0,1.975828258731438,1.64256588412429,1.3880660996388543
1770453749044,127,-1,1.230375995866089,0.7885193281484888,0.6143824904935027
1770453749048,126,-2,0.0942173876229222,-0.4154162264092145,-0.5488352993162064
1770453749052,124,-4,-1.246398745140627,-2.0462978044420224,-1.9156213716124553
1770453749056,123,-5,-2.507687013259739,-3.494900840324563,-3.2025450838446057
1770453749060,122,-6,-3.479638948880483,-4.149775007998564,-4.200569841687464
1770453749064,122,-6,-4.102946492968023,-4.5204363971448265,-4.851532268625519
1770453749068,121,-7,-4.415365760406428,-5.080214347123362,-5.193107664317897
1770453749072,121,-7,-4.458861041671792,-5.464173785365606,-5.265687854961447
1770453749076,121,-7,-4.2491139956909905,-5.092253991121506,-5.0835722513525265
1770453749080,122,-6,-3.8136941409602345,-4.607091421990255,-4.674675999318733
1770453749084,122,-6,-3.2317933158055117,-4.09240128947481,-4.119705995816656
1770453749088,123,-5,-2.624577521272397,-3.520118590334461,-3.5407920996250692
1770453749092,123,-5,-2.101716955565924,-3.10097670141459,-3.047147063885974
1770453749096,124,-4,-1.7034628588072132,-2.4500080355400136,-2.677478259552597
1770453749100,124,-4,-1.3799432254204167,-2.358756635658753,-2.380150949029926
1770453749104,124,-4,-1.0291411030987685,-2.28566583897088,-2.0525292714259464
1770453749108,125,-3,-0.5750209463591616,-1.449694344396649,-1.6206516575445726
1770453749112,125,-3,-0.0325967730622027,-1.1051611536975898,-1.104186519004091
1770453749116,126,-2,0.487174824537455,-0.6037593013324178,-0.6180806843949069
1770453749120,126,-2,0.843573628142577,-0.1320311462752159,-0.3018381448795471
1770453749124,126,-2,0.9931290064625548,-0.6391413138004651,-0.1911699792646195
1770453749128,126,-2,1.1652173362372276,-0.0641231634241492,-0.0469547610455312
1770453749132,128,0,2.036130997023958,1.451688288677861,0.8111646611621901
1770453749136,130,2,4.75258415509646,3.772498815987453,3.5238285289213698
