timestamp_ms,ecg_u8_raw,ecg_counts_raw_int,ecg_counts_filt_monitor,ecg_counts_filt_diagnostic,ecg_counts_filt_st
1770452775292,122,-6,-4.65507495716753,-9.354667452876654,-9.14485643512014
1770452775296,122,-6,-4.801261977580085,-9.48262870324796,-9.289902114001311
1770452775300,122,-6,-4.892573534177185,-9.488086575325768,-9.381199603799889
1770452775304,122,-6,-4.8692411848671435,-9.33126547603495,-9.360512641427908
1770452775308,122,-6,-4.712722288640444,-9.478906507293772,-9.208372888065222
1770452775312,122,-6,-4.4315420101484655,-9.234358572407702,-8.930734372197328
1770452775316,123,-5,-4.057602644141072,-8.678532079784986,-8.557675288592748
1770452775320,123,-5,-3.625747352648097,-8.230143876117005,-8.124569472269457
1770452775324,124,-4,-3.1324177633670267,-7.623163801043157,-7.630103839441487
1770452775328,124,-4,-2.5173362192705886,-7.198895567889834,-7.015890706431956
1770452775332,125,-3,-1.7108068070114053,-6.549395057396715,-6.212232344123757
1770452775336,126,-2,-0.7229733567540741,-5.397871787171388,-5.227561799471308
1770452775340,127,-1,0.3105376846876333,-4.460328627128534,-4.195663018926059
1770452775344,128,0,1.1936047199969924,-3.4364009821148516,-3.3122458200536142
1770452775348,129,1,1.814138480306991,-2.3672630742706775,-2.6905117059370953
1770452775352,129,1,2.2439100580283564,-2.453336491902854,-2.259978948307768
1770452775356,129,1,2.683467436016899,-2.503784853420393,-1.82053261225912
1770452775360,130,2,3.279043356798834,-1.319238570113395,-1.22583151734051
1770452775364,131,3,3.972321214913261,-0.6152063122458395,-0.5340532912372509
1770452775368,131,3,4.524667098922356,-0.1546286009735964,0.0165912982267819
1770452775372,132,4,4.700017520818994,0.251895034558669,0.1908951962167941
1770452775376,131,3,4.4555556611159375,-0.204050019753593,-0.0532426445214508
1770452775380,131,3,3.9892646510086895,-0.6190201730111147,-0.5177793222314802
1770452775384,130,2,3.609105209711609,-1.3232189364989866,-0.8953806420338317
1770452775388,130,2,3.527246952464401,-1.4321663791275037,-0.975138280333942
1770452775392,131,3,3.739936689756581,-0.5379949308521357,-0.7622769973700909
1770452775396,131,3,4.0740766286611585,-0.3888231982915808,-0.4302464733298277
1770452775400,131,3,4.332383145882095,-0.4667859881393759,-0.1745712721745338
1770452775404,131,3,4.401236200784298,-0.4403598843711163,-0.106190874954128
1770452775408,131,3,4.259403477004314,-0.3631472703370892,-0.2452709144887528
1770452775412,131,3,3.93353564028712,-0.6231352805528401,-0.566748908256911
1770452775416,130,2,3.465843006726848,-1.321636302083315,-1.031186719748214
1770452775420,130,2,2.9049602809684085,-1.5196263047327612,-1.5915836111899604
1770452775424,129,1,2.2924201234170027,-2.3912545963880856,-2.2057342281276773
1770452775428,128,0,1.635124353929949,-3.426369485894376,-2.8645146648047617
1770452775432,128,0,0.8974202237610298,-3.603775015159189,-3.6016813319294174
1770452775436,127,-1,0.0513059068224751,-4.328976916300615,-4.444846799832951
1770452775440,126,-2,-0.8388401944430262,-5.525118853017753,-5.33049162890118
1770452775444,125,-3,-1.5845931419347878,-6.360176755876463,-6.071641323356525
1770452775448,125,-3,-1.9572210176640457,-6.500429252511459,-6.441160966765081
1770452775452,125,-3,-1.849448841917872,-6.549874652682334,-6.332714618622974
1770452775456,125,-3,-1.4020189389178628,-6.386618728172437,-5.886460736909507
1770452775460,126,-2,-0.9885603507647612,-5.454395213248911,-5.474188572629505
1770452775464,126,-2,-1.035934760231998,-5.432079042061625,-5.520956975691565
1770452775468,125,-3,-1.775737297289088,-6.450590663654596,-6.257641232152504
1770452775472,124,-4,-3.09197658031806,-7.654935078622602,-7.568769844958389
1770452775476,122,-6,-4.576906087103193,-9.253246389593553,-9.047847032440549
1770452775480,121,-7,-5.761932484026455,-10.620739230064196,-10.227640585202751
1770452775484,120,-8,-6.367251778162953,-11.19685465632293,-10.829541032686157
1770452775488,121,-7,-6.406299414547523,-10.763789804224327,-10.86768240765476
1770452775492,121,-7,-6.098787897999791,-10.322164347144131,-10.561053909073518
1770452775496,121,-7,-5.695247197726493,-10.619574032343449,-10.157701619335311
1770452775500,121,-7,-5.357057817505583,-10.249269188923872,-9.816590514686425
1770452775504,122,-6,-5.138766579624887,-9.532704522608867,-9.5923843068947
1770452775508,122,-6,-5.0174798240650125,-9.513302689771256,-9.4646347399998
1770452775512,122,-6,-4.921505128303772,-9.51342174444391,-9.363692036103824
1770452775516,122,-6,-4.768059700490053,-9.518941194385327,-9.206813545476209
1770452775520,122,-6,-4.518195222556436,-9.264715899536244,-8.954246617733588
1770452775524,123,-5,-4.211794688940393,-8.577093938949185,-8.64566992757782
1770452775528,123,-5,-3.945465873214998,-8.445173021689396,-8.377563549296998
1770452775532,123,-5,-3.809020419487521,-8.618255892277256,-8.238571000511017
1770452775536,123,-5,-3.827231292887437,-8.428819942067848,-8.251924533591904
1770452775540,123,-5,-3.933241346245411,-8.32188339019826,-8.350732000135064
1770452775544,123,-5,-3.978470087386135,-8.565106784660465,-8.388431049114413
1770452775548,123,-5,-3.788037711834797,-8.41052108218312,-8.192597364132837
1770452775552,124,-4,-3.261347693263166,-7.728866875288796,-7.663374847792455
1770452775556,124,-4,-2.4726562677521153,-7.277941408893448,-6.873449662868699
1770452775560,125,-3,-1.6887349387990347,-6.4947543103959,-6.087286882229675
1770452775564,126,-2,-1.2476901467920207,-5.387764180058975,-5.641985216789297
1770452775568,126,-2,-1.3463684151249422,-5.573103961570769,-5.7348693471707275
1770452775572,125,-3,-1.8891489927153875,-6.645961231196336,-6.270933709883511
1770452775576,124,-4,-2.5338388835781265,-7.291915575878861,-6.908268462377119
1770452775580,124,-4,-2.9101682707090912,-7.56538916622717,-7.277410230923464
1770452775584,124,-4,-2.837918095591715,-7.226521534392259,-7.19957573626256
1770452775588,125,-3,-2.388786197004803,-6.789942844989522,-6.747140462047309
1770452775592,125,-3,-1.7826608844620435,-6.422678781630797,-6.138884812954905
1770452775596,126,-2,-1.2281519294113494,-5.5218010896793395,-5.581244523509861
1770452775600,126,-2,-0.822655851505903,-5.372258114526964,-5.170015183012001
1770452775604,126,-2,-0.5527627129321826,-5.370492938889807,-4.891936075823935
1770452775608,127,-1,-0.3557513461949138,-4.685187773780372,-4.6861943277423785
1770452775612,127,-1,-0.175363421970486,-4.515865579489219,-4.498789688436688
1770452775616,127,-1,0.0162866362013458,-4.448879252338118,-4.3024847217993445
1770452775620,127,-1,0.2098901927208096,-4.457339643765084,-4.105158872839476
1770452775624,127,-1,0.3495017151624768,-4.249244071730184,-3.9609263575921263
1770452775628,128,0,0.3476729080078868,-3.852659564286768,-3.956725045311224
1770452775632,127,-1,0.1427772931880018,-4.306044572221695,-4.154794895788028
1770452775636,127,-1,-0.2393123108771493,-4.724415410506883,-4.529750532052054
1770452775640,126,-2,-0.679471983410159,-5.139142484060402,-4.962499593449715
1770452775644,126,-2,-1.0282741308201893,-5.588763980540568,-5.30387045349282
1770452775648,126,-2,-1.1895916943897864,-5.513844029655616,-5.458464597220254
1770452775652,126,-2,-1.1665019701388106,-5.615614693460661,-5.429808554037232
1770452775656,126,-2,-1.0484502367059425,-5.489212223394705,-5.306764168469033
1770452775660,126,-2,-0.9584640239144866,-5.290377547635554,-5.211072324869551
1770452775664,126,-2,-0.9928414420495446,-5.530905999468186,-5.238239582192344
1770452775668,126,-2,-1.179067741883804,-5.484322129069783,-5.4162442294050175
1770452775672,126,-2,-1.4679999759757274,-5.718098384436575,-5.697197148650618
1770452775676,125,-3,-1.7664751691022254,-6.355332854693592,-5.988697910014181
1770452775680,125,-3,-1.9957057821975757,-6.438701231979717,-6.211648979765975
1770452775684,125,-3,-2.135124354647014,-6.387746531563856,-6.344629872444822
1770452775688,125,-3,-2.214233930373054,-6.601175656885868,-6.416591960673897
1770452775692,125,-3,-2.2585853696993965,-6.636076497930907,-6.453217986866029
1770452775696,125,-3,-2.240023566628429,-6.412438254272412,-6.42686656361472
1770452775700,125,-3,-2.082312948301222,-6.4144213308191365,-6.261531026208906
1770452775704,125,-3,-1.7279433677678189,-6.389553490078093,-5.899530775078688
1770452775708,126,-2,-1.2107977991285397,-5.598945151146815,-5.374903714908006
1770452775712,127,-1,-0.6589050972100321,-4.652947434759199,-4.816330012573685
1770452775716,127,-1,-0.2126459116514683,-4.374560654470724,-4.364106000963004
1770452775720,127,-1,0.0672779830312384,-4.492105298292883,-4.077400154792439
1770452775724,127,-1,0.2216658089973779,-4.274336859944252,-3.914064665843618
1770452775728,128,0,0.3474903824644779,-3.7446212245798978,-3.777954202470113
1770452775732,128,0,0.5432678988731792,-3.4897725119521503,-3.572772639168306
1770452775736,128,0,0.8692176127356839,-3.530512378420597,-3.2393499442052107
1770452775740,128,0,1.3095116223709282,-3.3660185982591884,-2.792768597074968
1770452775744,129,1,1.7544884364498188,-2.3571662350106433,-2.3418012665270176
1770452775748,130,2,2.0474852053495214,-1.7201107915493368,-2.042750866914261
1770452775752,129,1,2.085928681971275,-2.4450984570673713,-1.9972948447904024
1770452775756,129,1,1.899600486105042,-2.634683520194345,-2.174316133019726
1770452775760,129,1,1.651907592721872,-2.220177504414957,-2.410554752559448
1770452775764,129,1,1.5774580856190226,-2.5385978753965457,-2.4736464305784023
1770452775768,129,1,1.8857659609735136,-2.5224746696263796,-2.156421909147846
1770452775772,130,2,2.6515264269025542,-1.610116117601598,-1.38461381722072
1770452775776,131,3,3.7386585325268262,-0.5138172888840367,-0.2928171603969476
1770452775780,132,4,4.826256538033984,0.7072201912488567,0.800199534845238
1770452775784,133,5,5.5531620107918505,1.4762034731371392,1.5347980018546703
1770452775788,133,5,5.706421005619414,1.511913209574236,1.6980789510265302
1770452775792,133,5,5.334043931238833,1.3333881351321382,1.3366730802606166
1770452775796,132,4,4.702781133852943,0.5475392293641819,0.7156891770686946
1770452775800,131,3,4.120481198991453,-0.351382426417322,0.1423268521025189
1770452775804,131,3,3.740416146739832,-0.4823747735079284,-0.2298552855925337
1770452775808,131,3,3.489074949215327,-0.4822041304443032,-0.4740645146414168
1770452775812,131,3,3.167525413480173,-0.7062318491932027,-0.7890267193470173
1770452775816,130,2,2.6300935280415088,-1.3657976232043487,-1.3195690767968018
1770452775820,129,1,1.88294120023304,-2.498454405819675,-2.058208514797299
1770452775824,128,0,1.0370382083141776,-3.294491701465091,-2.893729839397354
1770452775828,128,0,0.1951612175159891,-3.691507684064774,-3.724997707752003
1770452775832,127,-1,-0.6068677023472064,-4.457147503071621,-4.51816091101642
1770452775836,126,-2,-1.3732852527521988,-5.623662834584613,-5.277596687549236
1770452775840,125,-3,-2.096038586699344,-6.246212363127958,-5.993582157354
1770452775844,125,-3,-2.734498721879813,-6.5538430509216905,-6.62392627001355
1770452775848,124,-4,-3.230329284636714,-7.420287944798748,-7.110187947503272
1770452775852,124,-4,-3.532586430183959,-7.7095862407447555,-7.402538369198774
1770452775856,124,-4,-3.6138899064851504,-7.358579792599493,-7.474822535982595
1770452775860,124,-4,-3.474825198279966,-7.533088748164136,-7.327799647117958
1770452775864,124,-4,-3.148163490022972,-7.264645317814255,-6.993109091386524
1770452775868,125,-3,-2.7077835637337166,-6.696414741115031,-6.5435872402181605
1770452775872,125,-3,-2.2595613441397733,-6.424325107129089,-6.085998376000626
1770452775876,126,-2,-1.887424188865545,-5.620082777526873,-5.70673775975935
1770452775880,126,-2,-1.5724325107530643,-5.303853207552541,-5.387787421936954
1770452775884,126,-2,-1.1463299581822266,-5.475246107868296,-4.957757129181417
1770452775888,127,-1,-0.3156193115501134,-4.502127816055862,-4.1179685758312745
1770452775892,129,1,1.2794856912968715,-2.560242898207145,-2.5067758738981385
1770452775896,132,4,4.014830756484594,0.4782840103818042,0.2474018545042824
1770452775900,136,8,8.193957859537363,4.6598109077830685,4.441043654937065
1770452775904,141,13,13.825525507616184,9.490719797567891,10.078890611813764
1770452775908,147,19,20.307072460708355,15.606274924061172,16.560040896819686
1770452775912,154,26,26.28196273947107,22.286607909398676,22.53236573251447
1770452775916,158,30,29.95933850339308,26.6848774480014,26.20933213314608
1770452775920,158,30,29.871410023456857,26.41481155555294,26.126469447988818
1770452775924,153,25,25.642763045059695,21.725749471197968,21.910362759475817
1770452775928,146,18,18.2603580843482,14.362780710009016,14.547068360065897
1770452775932,137,9,9.656468154042027,5.513887187487394,5.964141013649376
1770452775936,129,1,1.8659212082747745,-2.4601016188350915,-1.8100420388610203
1770452775940,124,-4,-3.749661529733171,-7.4621059116405775,-7.418032033656679
1770452775944,121,-7,-6.828327153924022,-10.307392259188507,-10.496964657805863
1770452775948,120,-8,-7.82913194513019,-11.681518471111945,-11.50052196426654
1770452775952,120,-8,-7.582157617697091,-11.363140560007608,-11.252705619236613
1770452775956,121,-7,-6.868927291995219,-10.637281148349228,-10.53223364253811
1770452775960,121,-7,-6.203001644359249,-10.230222234209409,-9.854146853039628
1770452775964,122,-6,-5.8070454545662695,-9.565286489042212,-9.444637856187368
1770452775968,122,-6,-5.690464125605604,-9.4190165168364,-9.31581200762596
1770452775972,122,-6,-5.739448470735106,-9.622090682118795,-9.35467007502938
1770452775976,122,-6,-5.7887931634149306,-9.366066599366544,-9.395768264896873
1770452775980,122,-6,-5.68903806301704,-9.472235420796387,-9.289409730965891
1770452775984,122,-6,-5.380700673093511,-9.335686661262296,-8.975860674400153
1770452775988,123,-5,-4.951069582649781,-8.61929975503954,-8.54148256300165
1770452775992,123,-5,-4.621321314576498,-8.454702963296159,-8.205836433357703
1770452775996,123,-5,-4.634430742112323,-8.469227268926648,-8.21070655296497
1770452776000,123,-5,-5.0863470999312,-8.406882786602363,-8.652395111869065
1770452776004,122,-6,-5.812674562332339,-9.338401663124063,-9.368132574373703
1770452776008,121,-7,-6.438914737969209,-10.678732753291497,-9.985025613506476
1770452776012,121,-7,-6.591358469247944,-10.33334723539581,-10.13004939465294
1770452776016,122,-6,-6.125032134991481,-9.604557718607374,-9.65780446866868
1770452776020,122,-6,-5.197043540891569,-9.2339200378011,-8.724113697612236
1770452776024,124,-4,-4.135274571594439,-7.4897181553847965,-7.655623992129538
1770452776028,125,-3,-3.2103897873406932,-6.55774219526331,-6.722842015031853
1770452776032,125,-3,-2.487562320111974,-6.4304994494437215,-5.991754297636335
1770452776036,126,-2,-1.8671961666370631,-5.508993506763981,-5.363511375281169
1770452776040,126,-2,-1.26389071255038,-5.294596667407358,-4.752855433538892
1770452776044,127,-1,-0.7476130630629797,-4.422349532733131,-4.229641623211555
1770452776048,128,0,-0.5044787469907008,-3.618544816417154,-3.9799043941540986
1770452776052,127,-1,-0.6484241184399934,-4.363873086658321,-4.117238532732768
1770452776056,127,-1,-1.0645321161763728,-4.578220544392845,-4.525982558261226
1770452776060,126,-2,-1.440786584173418,-5.168319021249703,-4.893671713061941
1770452776064,126,-2,-1.4706198746790249,-5.592722601315678,-4.914519630915791
1770452776068,127,-1,-1.053899091850498,-4.37366699203505,-4.490196276688477
1770452776072,128,0,-0.3337815444150028,-3.652416101685056,-3.764922639300457
1770452776076,128,0,0.4370654413769197,-3.23485148235814,-2.9901267853299904
1770452776080,129,1,1.066472556903009,-2.5092119009377125,-2.3553576246031778
1770452776084,129,1,1.5006949847739826,-2.252343791374804,-1.9131647738854185
1770452776088,130,2,1.7936946184571256,-1.700364388840167,-1.6111056377694075
1770452776092,130,2,2.031343525193847,-1.3147507884703278,-1.3656386865320105
1770452776096,130,2,2.2690788553957586,-1.5473717625550054,-1.1219021169261074
1770452776100,130,2,2.508385114134222,-1.182250140639339,-0.8772100552716728
1770452776104,131,3,2.7215577116887517,-0.5621697724815462,-0.6581985365579639
1770452776108,131,3,2.9099859228128087,-0.4139206850937516,-0.463354955739899
1770452776112,131,3,3.140142348820937,-0.5335966186136094,-0.2262665075891097
1770452776116,131,3,3.5071062824788917,-0.3663636218909074,0.1480730572919615
1770452776120,132,4,4.052334378189107,0.7186447003590395,0.7003167757575528
1770452776124,133,5,4.717595005073354,1.4768838789655558,1.37112097428891
1770452776128,133,5,5.373553957402804,1.6197246035260222,2.0313347294078317
1770452776132,134,6,5.884785399134625,2.400223418088374,2.5472676491640875
1770452776136,134,6,6.161119553194173,2.7646981412397955,2.8301557747497856
1770452776140,134,6,6.1827908465854975,2.556048779518919,2.8596309128002946
1770452776144,134,6,6.003706043722072,2.6877494141037053,2.6876140020658092
1770452776148,134,6,5.726403740080163,2.3918839172352513,2.415500475615265
1770452776152,133,5,5.445507769834748,1.671447328322127,2.1388387129338344
1770452776156,133,5,5.190702350368162,1.502299155580891,1.8890304740855488
1770452776160,133,5,4.926073997646364,1.8317381637617611,1.6306257231871504
1770452776164,133,5,4.620793381602545,1.4388798369023048,1.33191432966579
1770452776168,132,4,4.318544186416268,0.6281101109125613,1.0358333451113224
1770452776172,132,4,4.115837630926372,0.5017222207207683,0.838775779069429
1770452776176,132,4,4.057310282706574,0.6240919010762913,0.7852041374010992
1770452776180,132,4,4.052048186315021,0.7994522456563269,0.7840620171611632
1770452776184,132,4,3.8936656690419498,0.4176623445757665,0.6296444185376311
1770452776188,131,3,3.3708337876083476,-0.2695084250780533,0.1117020851163235
1770452776192,131,3,2.3917759442828075,-0.6324271165121131,-0.8614318605567908
1770452776196,129,1,1.0429868054886569,-2.208857614324183,-2.204191182411625
1770452776200,127,-1,-0.4624869415623114,-4.34234460039971,-3.704240196093359
1770452776204,126,-2,-1.9174498170220569,-5.454000624177722,-5.1543930503638276
1770452776208,125,-3,-3.2273202954848,-6.312297759350672,-6.4598745218452605
1770452776212,124,-4,-4.4013967984375,-7.659467364395676,-7.629663155174218
1770452776216,122,-6,-5.453793113561865,-9.057413110673195,-8.67735293577189
1770452776220,122,-6,-6.322122926419297,-9.586448962025726,-9.540507916635782
1770452776224,121,-7,-6.879028584809533,-10.093559855283434,-10.092540633523416
1770452776228,121,-7,-7.023141843855634,-10.729833802567924,-10.232685399242367
1770452776232,121,-7,-6.774769150732244,-10.171657025369509,-9.980748943737868
1770452776236,122,-6,-6.293379752243883,-9.530661611904144,-9.49520694133128
1770452776240,122,-6,-5.786970090692866,-9.134532637385307,-8.983858327964079
1770452776244,123,-5,-5.37653776383299,-8.452918137907375,-8.5685477087036
1770452776248,123,-5,-5.0320961750061155,-8.455664760405153,-8.220146748654424
1770452776252,123,-5,-4.643265058728678,-8.30777632146624,-7.828125290203213
1770452776256,124,-4,-4.163031010544341,-7.493126584605095,-7.344499730110011
1770452776260,124,-4,-3.6853026374569384,-7.039006884737052,-6.862554359274452
1770452776264,125,-3,-3.3711895889583885,-6.623759529599875,-6.543897067286439
1770452776268,125,-3,-3.2851237100081274,-6.187077707431646,-6.453899136130298
1770452776272,125,-3,-3.303289526645478,-6.607273140595466,-6.468658381132154
1770452776276,124,-4,-3.2048552636632333,-7.161507434726207,-6.366154662015298
1770452776280,125,-3,-2.8788689360027626,-6.3312817191217015,-6.035119081517654
1770452776284,126,-2,-2.4480973561331507,-5.348372515631498,-5.6001324106361885
1770452776288,126,-2,-2.1831278435735673,-5.37191054858531,-5.333786237226116
1770452776292,126,-2,-2.2914943506725067,-5.469922560619688,-5.442756509559613
1770452776296,125,-3,-2.78008602609241,-6.221568955527182,-5.93028159950681
1770452776300,124,-4,-3.48711679249969,-7.320881913302635,-6.631891775554738
1770452776304,124,-4,-4.199970571570396,-7.282873743655477,-7.336484213388861
1770452776308,124,-4,-4.72660063916375,-7.425614966197419,-7.856366590170286
1770452776312,123,-5,-4.903626105329841,-8.378906350737214,-8.030844181282689
1770452776316,123,-5,-4.628117061278102,-8.292108754121347,-7.755777496970348
1770452776320,124,-4,-3.943222824914197,-7.260442692467068,-7.0714018393685425
1770452776324,125,-3,-3.0811422727764883,-6.294972504808106,-6.208267958946291
1770452776328,126,-2,-2.366398806658302,-5.395045275579713,-5.4908535098414095
1770452776332,126,-2,-2.020658326711099,-5.3399286019845595,-5.141233238238594
1770452776336,126,-2,-2.017456334802805,-5.384780213552872,-5.133484856211121
1770452776340,126,-2,-2.1011334620956363,-5.091858170316912,-5.212772681531577
1770452776344,126,-2,-1.961548505195193,-5.521096372313417,-5.069572490622999
1770452776348,126,-2,-1.4480684143157307,-5.030562303984569,-4.553360037995765
1770452776352,128,0,-0.6739781015269506,-3.7314783128503866,-3.777665101812748
1770452776356,128,0,0.0660645333064152,-2.9507604339941,-3.0376684128652247
1770452776360,129,1,0.4960813272723083,-2.5252954202796905,-2.608835794618543
1770452776364,128,0,0.5100862722823515,-3.094292058120783,-2.594877948183816
1770452776368,128,0,0.1726015684940831,-3.3554398514880583,-2.929073345465272
1770452776372,128,0,-0.3753076520664842,-3.4443687956159748,-3.4708604720675686
1770452776376,127,-1,-0.9804881886001294,-4.144881103802902,-4.070238094534966
1770452776380,127,-1,-1.478399376395744,-4.39653678004157,-4.565444584175708
1770452776384,126,-2,-1.7086485003252618,-5.1268928550795705,-4.795963401488618
1770452776388,126,-2,-1.6057510853858226,-5.330923195974917,-4.694066946380865
1770452776392,127,-1,-1.2992561737833996,-4.405231087159554,-4.387723461461309
1770452776396,127,-1,-1.0920654169540536,-4.1695075239780595,-4.180078457122479
1770452776400,127,-1,-1.2828153303608971,-4.379151948226375,-4.37028208520466
1770452776404,126,-2,-1.957706998168768,-5.079894618102902,-5.043715344433972
1770452776408,125,-3,-2.919494610787261,-6.387371672531372,-6.001860581837722
1770452776412,124,-4,-3.803371477127549,-7.282064010321994,-6.880490631508164
1770452776416,124,-4,-4.279889541759197,-7.289738026732519,-7.352990897402059
1770452776420,124,-4,-4.2067013938954805,-7.22610448043514,-7.279437191433178
1770452776424,124,-4,-3.668941355929564,-7.196191441519459,-6.744279146173735
1770452776428,125,-3,-2.9277894453361903,-6.2412155328848575,-6.005667950316793
1770452776432,126,-2,-2.308241710926918,-5.39900880371279,-5.386457762225726
1770452776436,126,-2,-2.0539026379710688,-5.157432574403281,-5.130590810858941
1770452776440,126,-2,-2.2101160745965833,-5.326715976180313,-5.2847338159006965
1770452776444,125,-3,-2.612712493661835,-6.076083682200333,-5.6851021013915695
1770452776448,125,-3,-2.9959320621012777,-6.310138689888111,-6.065585760583134
1770452776452,125,-3,-3.1382681648076356,-6.328521119257853,-6.205166052850358
1770452776456,125,-3,-2.943065416829198,-6.161020422666568,-6.008897405192613
1770452776460,126,-2,-2.4257808195471524,-5.337577544285677,-5.493412649543901
1770452776464,126,-2,-1.6669655432793289,-4.9769222255486,-4.73795697390978
1770452776468,127,-1,-0.7939147421304913,-4.437526002381484,-3.866641052336451
1770452776472,128,0,0.022289106288539,-3.129294056416074,-3.0486049694963713
1770452776476,129,1,0.6169552764266335,-2.3552157729368144,-2.450037810286571
1770452776480,129,1,0.931976162833532,-2.1194762230632365,-2.132510773797091
1770452776484,129,1,1.0690665872123888,-2.1130583045850355,-1.9961687881446544
1770452776488,129,1,1.2073779458230005,-2.354269664167973,-1.860457906208826
1770452776492,129,1,1.4362378518078676,-2.0954525141808102,-1.63328421809101
1770452776496,130,2,1.6710378213458834,-1.4427378830108442,-1.398112690812111
1770452776500,130,2,1.760291900670884,-0.9217896319953568,-1.3074849399257924
1770452776504,130,2,1.6907844393702327,-1.3069044288722442,-1.3758944697198476
1770452776508,129,1,1.6721449053438509,-2.1420193744417237,-1.39382943290746
1770452776512,130,2,1.989645470366085,-1.2571904127145488,-1.0757961915364356
1770452776516,131,3,2.747083926965942,-0.2995445934164138,-0.3184656363031095
1770452776520,131,3,3.7298534455317114,0.0530567786265994,0.6628601349324565
1770452776524,133,5,4.5090098359815824,1.696246111092806,1.4392746801213372
1770452776528,133,5,4.707247821942348,1.9421097186576184,1.634555188465579
1770452776532,132,4,4.224566190696856,0.5962322448679354,1.1504443036971983
1770452776536,131,3,3.262829584909402,-0.0617362900764453,0.1900141357103688
1770452776540,130,2,2.161755012349351,-1.1750077191234125,-0.9077739075688962
1770452776544,129,1,1.2053145457147856,-2.009137051477647,-1.8615408377658655
1770452776548,129,1,0.5377292648194922,-2.3090720366132675,-2.529356008109725
1770452776552,128,0,0.1888739608119658,-3.1647778557578565,-2.8812935577319236
1770452776556,128,0,0.1159362118739618,-3.2441205572231304,-2.9580020632513135
1770452776560,128,0,0.2037298282664659,-2.957419099119252,-2.872511699927882
1770452776564,128,0,0.2573134925261561,-3.1847344991173583,-2.8194093190979093
1770452776568,128,0,0.0511473330693086,-3.0760383778378957,-3.0255831795665538
1770452776572,128,0,-0.5604290983574378,-3.419820920123107,-3.638058331169141
1770452776576,126,-2,-1.5462098574822118,-4.9210746194189685,-4.625491795795387
1770452776580,125,-3,-2.697939532253056,-6.276508410240595,-5.7782998028687755
1770452776584,124,-4,-3.729309504786563,-6.776843711331372,-6.809285922644122
1770452776588,124,-4,-4.39561742650738,-7.475783477064553,-7.47410202341011
1770452776592,123,-5,-4.565289175871781,-7.98025138866921,-7.64221707367679
1770452776596,124,-4,-4.240845756411877,-7.325937671413921,-7.3174850683283665
1770452776600,124,-4,-3.5556770232499493,-6.844309098465903,-6.634995157220404
1770452776604,125,-3,-2.74871413520823,-6.1357197165252835,-5.834819154089963
1770452776608,126,-2,-2.0940823053979187,-5.110029940198329,-5.189582431910587
1770452776612,126,-2,-1.7694759021837074,-5.291683557626687,-4.872123360436521
1770452776616,126,-2,-1.682242842406364,-5.022452019643273,-4.784463025256419
1770452776620,127,-1,-1.3258216700201653,-4.061856782688498,-4.418999120413667
1770452776624,128,0,0.2060360565724766,-2.9115991404744213,-2.8746298423136434
1770452776628,132,4,3.922087359559251,0.7544804996138303,0.8493846103683671
1770452776632,138,10,10.366115301555071,6.843284694923794,7.291529037399922
1770452776636,146,18,19.038793030571224,14.907007376563524,15.95283299430792
1770452776640,156,28,28.22662076911842,25.030534312868767,25.12454204264663
1770452776644,164,36,35.50607507170604,33.07623107011456,32.38943412846648
1770452776648,167,39,38.75252296492148,35.74982041514669,35.62864259562831
1770452776652,165,37,37.087317601396194,33.88896458193824,33.96669944261204
1770452776656,159,31,31.203040043032352,27.83349596664104,28.09438891219501
1770452776660,150,22,22.922475918539728,19.152064858300683,19.827517704290777
1770452776664,142,14,14.321332652425223,11.052265253926546,11.23350463505797
1770452776668,135,7,6.934627007388046,3.8095825576758617,3.843267956338001
1770452776672,129,1,1.4093531185398032,-2.0679558312824797,-1.69366508767928
1770452776676,126,-2,-2.3566306785805313,-5.252894450652338,-5.472651439021786
1770452776680,123,-5,-4.811356944824175,-7.648333958490689,-7.935295602700655
1770452776684,121,-7,-6.378584408648954,-10.1622244847784,-9.50285778593163
1770452776688,120,-8,-7.302325680129031,-10.857711442669215,-10.421908011719134
1770452776692,121,-7,-7.688460441060634,-10.418369914377053,-10.803857762958234
1770452776696,120,-8,-7.613544630921165,-10.869426435480062,-10.729186864117809
1770452776700,120,-8,-7.203813124584867,-10.976546647945074,-10.323477104952158
1770452776704,121,-7,-6.6527465081277875,-9.80844312672538,-9.776873745968023
1770452776708,122,-6,-6.166993188775127,-9.107797212795909,-9.293958583145914
1770452776712,122,-6,-5.865017961446419,-9.199936615089443,-8.993523924880066
1770452776716,122,-6,-5.711217797180379,-9.002042795957907,-8.840836405452293
1770452776720,122,-6,-5.557808926108827,-8.858068636293513,-8.688102631962629
1770452776724,122,-6,-5.268357476055264,-8.827099294602883,-8.39868449567193
1770452776728,123,-5,-4.816696637733656,-8.052500237263414,-7.947323800208865
1770452776732,124,-4,-4.281990593127395,-7.212558267319938,-7.414837240663567
1770452776736,124,-4,-3.767776026384778,-6.955905632234332,-6.905010611753586
1770452776740,124,-4,-3.345368718263377,-6.880375995164021,-6.486912866640558
1770452776744,124,-4,-3.0724731574895583,-6.7276724967078705,-6.215648691438279
1770452776748,125,-3,-3.0242250147856735,-6.1231243594191,-6.166523270827794
1770452776752,125,-3,-3.252107543833805,-6.070503136133293,-6.393873852441028
1770452776756,124,-4,-3.69691626123844,-7.094894211367775,-6.840660244259826
1770452776760,123,-5,-4.172441414204761,-7.679042126117385,-7.319804285592605
1770452776764,123,-5,-4.46977863706343,-7.889513956182329,-7.619874159705396
1770452776768,123,-5,-4.487400464285276,-7.905294096250257,-7.638093037198733
1770452776772,124,-4,-4.255715536582485,-7.223150270057008,-7.405925876419875
1770452776776,124,-4,-3.842373394407136,-6.925375733534148,-6.992924310173663
1770452776780,124,-4,-3.256144364758189,-6.783951900300231,-6.408754891166265
1770452776784,125,-3,-2.464290512643315,-5.771407404923201,-5.620102260811718
1770452776788,126,-2,-1.5078038348225662,-4.931121177799749,-4.666711284653842
1770452776792,127,-1,-0.5826811796410458,-4.184943779279976,-3.743729671830373
1770452776796,128,0,0.0274055304507635,-2.881383722215784,-3.1348803987731375
1770452776800,128,0,0.1434052712952401,-2.814903134144478,-3.0196896290617463
1770452776804,127,-1,-0.1505946917152378,-3.697623008398423,-3.314131514742778
1770452776808,127,-1,-0.5362301128137389,-3.9276805830317434,-3.699578643733211
1770452776812,127,-1,-0.6708856290442731,-4.179581507826611,-3.833805233619247
1770452776816,127,-1,-0.4096951821809469,-3.785498114235102,-3.573287494301775
1770452776820,128,0,0.1346630775079112,-2.9023438914232846,-3.03184199647138
1770452776824,128,0,0.7208384801698812,-2.5386754947778947,-2.450260680180526
1770452776828,129,1,1.1702564035775938,-2.0401884678825155,-2.0047484701549547
1770452776832,129,1,1.469667503246817,-2.03991556831179,-1.7061727565093707
1770452776836,129,1,1.7369019977096385,-1.8438748371481837,-1.4365742956680414
1770452776840,130,2,2.1188405384286173,-0.8405158486117319,-1.0515483892234183
1770452776844,130,2,2.709840768413432,-0.490947810705872,-0.4596417355764828
1770452776848,131,3,3.5130635745368584,-0.0879104995596655,0.3413269602020934
1770452776852,132,4,4.423866160785405,1.098042216897431,1.2478134427892038
1770452776856,133,5,5.239425041416185,2.040099706566594,2.058848189384394
1770452776860,133,5,5.722324659385836,2.320477899877728,2.538794110993795
1770452776864,133,5,5.7129951626250985,2.4379578836103786,2.5293952113019813
1770452776868,133,5,5.236328645332274,1.982684996174182,2.0554911354758443
1770452776872,132,4,4.5347609009713485,1.1294191979878718,1.3575174608970286
1770452776876,132,4,3.9861303804740222,1.001511332094296,0.810652535397165
1770452776880,131,3,3.916833819364325,0.4606153541465141,0.740252287674366
1770452776884,131,3,4.395242309239341,0.331613983918289,1.215708315328096
1770452776888,133,5,5.149027840716965,2.157569803663688,1.9660185986225656
1770452776892,134,6,5.703600996740339,3.007399152423767,2.517326195034552
1770452776896,133,5,5.666737647708295,2.1450748443111074,2.478587099406541
1770452776900,132,4,4.946391454329042,1.4038625374530578,1.7593680396783378
1770452776904,131,3,3.7539877041015983,0.4054767599035345,0.5708893472207315
1770452776908,130,2,2.4386234375328204,-0.8454405736454085,-0.7407441329984183
1770452776912,129,1,1.3008602800384033,-1.9276384194655949,-1.878081267297917
1770452776916,128,0,0.4864312801698101,-2.881958564849723,-2.695315893474043
1770452776920,127,-1,-0.0248729283338554,-3.478639540780589,-3.209616278554169
1770452776924,127,-1,-0.3559462306382117,-3.699931608149882,-3.5412711408164546
1770452776928,127,-1,-0.628101627123159,-3.6566101747620623,-3.8118604198274166
1770452776932,127,-1,-0.876970129732308,-4.073640412123902,-4.05904593136239
1770452776936,126,-2,-1.0581772248932777,-4.68272543205534,-4.239597498085584
1770452776940,126,-2,-1.1466011923174886,-4.5984165068136065,-4.327916360484828
1770452776944,126,-2,-1.2327651228634178,-4.57898044942512,-4.413881965236334
1770452776948,126,-2,-1.504502856088096,-4.656947983193338,-4.685536828751064
1770452776952,126,-2,-2.112566076167046,-5.081405558991998,-5.293879305256032
1770452776956,124,-4,-3.0427086102468293,-6.542655308879244,-6.223930520936143
1770452776960,123,-5,-4.113912952652067,-7.7645966528795105,-7.293655597242361
1770452776964,122,-6,-5.095251835817532,-8.299114943622044,-8.272322801076484
1770452776968,122,-6,-5.828335922759093,-8.925024867342504,-9.002904790898498
1770452776972,121,-7,-6.266878106444631,-9.70615136670612,-9.44014967693978
1770452776976,121,-7,-6.441575512393499,-9.867640776747066,-9.614747677523273
1770452776980,121,-7,-6.408921923429538,-9.405414454980368,-9.582643247889166
1770452776984,121,-7,-6.226417973129006,-9.584255046211586,-9.400510840020544
1770452776988,121,-7,-5.960138138963733,-9.617601967144306,-9.133355042560888
1770452776992,122,-6,-5.6946803756730535,-8.889468513533426,-8.865318700236934
1770452776996,122,-6,-5.50336688786046,-8.674131940290561,-8.670707415330263
1770452777000,122,-6,-5.383638646677934,-8.512358424639922,-8.54848798619717
1770452777004,122,-6,-5.230514282631509,-8.45515758603042,-8.393963546130083
1770452777008,122,-6,-4.909535199650987,-8.668838706071835,-8.071594041384277
1770452777012,123,-5,-4.384706260901155,-7.772780680217831,-7.544754156243257
1770452777016,124,-4,-3.7775694241853577,-6.714799655057117,-6.935811141366026
1770452777020,124,-4,-3.291547264957508,-6.440782761485248,-6.448990195878381
1770452777024,124,-4,-3.0738182373360043,-6.442570324560808,-6.230574069460162
1770452777028,124,-4,-3.139896569363174,-6.6660534717047355,-6.29443895847171
1770452777032,124,-4,-3.400377409640889,-6.661884857107086,-6.551136695742123
1770452777036,124,-4,-3.728121675259544,-6.801942752531444,-6.875237167131152
1770452777040,123,-5,-4.003211227045023,-7.257703320217907,-7.147923619768525
1770452777044,123,-5,-4.133750075917504,-7.590302960545304,-7.276392155772937
1770452777048,123,-5,-4.071576393650283,-7.4591127636413646,-7.211146785577899
1770452777052,124,-4,-3.816517152937071,-6.782263273482961,-6.952399895826847
1770452777056,124,-4,-3.400836976470111,-6.646676215596545,-6.534087009968449
1770452777060,124,-4,-2.8767709043666674,-6.302513473932365,-6.0090493248127
1770452777064,125,-3,-2.32934802628425,-5.540660341765097,-5.460800910037932
1770452777068,125,-3,-1.8873866469567275,-5.412141026882088,-5.016094025916507
1770452777072,126,-2,-1.6799731764672556,-4.7906675189903405,-4.803662684214156
1770452777076,126,-2,-1.7394526262620338,-4.5508863984764005,-4.857516594882981
1770452777080,125,-3,-1.9373707379427416,-5.32547199063477,-5.050996060494575
1770452777084,125,-3,-2.0476623664590337,-5.499045814297378,-5.158292692097865
1770452777088,125,-3,-1.91945343322288,-5.338115882120089,-5.027621865979507
1770452777092,126,-2,-1.615219653342315,-4.8736405781622505,-4.720757202828528
1770452777096,126,-2,-1.3785268529014487,-4.29521410928234,-4.481206574624646
1770452777100,126,-2,-1.4469263898413027,-4.594106178895771,-4.546487653301299
1770452777104,125,-3,-1.867624355101997,-5.125214756506784,-4.963396846908373
1770452777108,125,-3,-2.4674955685609503,-5.688570144782757,-5.558404151264707
1770452777112,124,-4,-2.990293705716467,-6.461764593231418,-6.0754497406193595
1770452777116,124,-4,-3.276062993125708,-6.582144965666387,-6.355502728560472
1770452777120,124,-4,-3.337278171567423,-6.282324648721402,-6.412172819639289
1770452777124,124,-4,-3.2912055016332067,-6.3242373604256255,-6.363090371820581
1770452777128,124,-4,-3.2377793740495293,-6.498690134677593,-6.307265666113967
1770452777132,124,-4,-3.2029083040152493,-6.5346397122790405,-6.269144668412533
1770452777136,124,-4,-3.1765653890791024,-6.463748094194327,-6.238039356991656
1770452777140,124,-4,-3.1712822578141795,-6.297787932048634,-6.227019462505278
1770452777144,124,-4,-3.2205623907124026,-6.261759936525296,-6.270473583099237
1770452777148,124,-4,-3.3188581114926374,-6.505671129432377,-6.363209308760611
1770452777152,124,-4,-3.3759991119133015,-6.465563835774231,-6.4149292699734275
1770452777156,124,-4,-3.2492467860283893,-6.435465537302561,-6.282856685320528
1770452777160,124,-4,-2.842981828182885,-6.2746321270241,-5.871649664495371
1770452777164,125,-3,-2.1991984601974464,-5.178451241321065,-5.223529035936512
1770452777168,126,-2,-1.5005703821473708,-4.585265521790369,-4.520856296673113
1770452777172,126,-2,-0.974330546882181,-4.2677325027907,-3.9900877305342126
1770452777176,127,-1,-0.7616656318239987,-3.5939784976891507,-3.771845953691225
1770452777180,126,-2,-0.8420942171090129,-4.009103110794756,-3.845761751852386
1770452777184,126,-2,-1.0628313710492754,-4.401378192413425,-4.059609472006739
1770452777188,126,-2,-1.2485295175121207,-4.297199028495051,-4.238604677837292
1770452777192,126,-2,-1.3083738226100128,-4.477253728687514,-4.2923012501887685
1770452777196,126,-2,-1.2649396078027766,-4.318719962620395,-4.243408442145319
1770452777200,126,-2,-1.198437022025299,-4.16553275703904,-4.171979451195761
1770452777204,126,-2,-1.1674604261789288,-4.232942070469616,-4.136095014597149
1770452777208,126,-2,-1.1751795758083436,-4.355305983563435,-4.138202114768066
1770452777212,126,-2,-1.196353345083198,-4.401591593722366,-4.15266960798703
1770452777216,126,-2,-1.2184071529783296,-4.258864837161882,-4.167348480627929
1770452777220,126,-2,-1.2427317710538135,-4.179839545987222,-4.184504134234159
1770452777224,126,-2,-1.248707442591951,-4.124742839084933,-4.183841768916414
1770452777228,126,-2,-1.175790734567457,-4.423822372942697,-4.1043502636853795
1770452777232,126,-2,-0.9600873693408304,-4.260279054502183,-3.8818781544352823
1770452777236,127,-1,-0.5935860407474742,-3.2972329891976573,-3.508970511872182
1770452777240,127,-1,-0.1467784751760548,-3.0850622903039873,-3.0564337528884575
1770452777244,127,-1,0.2619644690578597,-3.1013582355180223,-2.6417121871857434
1770452777248,128,0,0.5238525531230906,-2.4560452747339836,-2.372494425574461
1770452777252,128,0,0.5975561324329388,-2.084793893384268,-2.2904767435296107
1770452777256,128,0,0.5428658419417565,-2.4668799800251886,-2.3373115062157197
1770452777260,127,-1,0.4971525837857073,-2.7416661548263654,-2.376390620802793
1770452777264,128,0,0.5948017139630062,-2.442645669018958,-2.272743409117558
1770452777268,128,0,0.893229422688619,-2.0130392656032026,-1.9677465764576392
1770452777272,129,1,1.3731694351206256,-1.4745614316548066,-1.479699415953568
1770452777276,129,1,2.0043544511742577,-0.985461877986202,-0.8387982989842104
1770452777280,130,2,2.798532041651125,-0.1132849519083261,-0.0345997182393467
1770452777284,131,3,3.7830529460384774,0.9719661403014808,0.9580778602515396
1770452777288,132,4,4.902518086788625,1.6502097093934376,2.082582200608598
1770452777292,133,5,5.931453239904308,2.921275599108359,3.114633671019843
1770452777296,134,6,6.501369731889763,3.7253428645512905,3.688908307241004
1770452777300,133,5,6.278476204810307,3.2594891215715966,3.474372395904102
1770452777304,133,5,5.202163901036057,2.671907729953572,2.4104873220966416
1770452777308,131,3,3.605629735391407,0.992118913295852,0.8276972250164629
1770452777312,129,1,2.082174136361112,-1.3221067269998152,-0.6842428803374219
1770452777316,128,0,1.1380983536742313,-1.9745115871599932,-1.6210682927325308
1770452777320,128,0,0.8630963621021573,-1.866142801001073,-1.89257643668549
1770452777324,128,0,0.8751722247229774,-2.2228024955320773,-1.878155949191889
1770452777328,128,0,0.6068626787733858,-1.9428384395158735,-2.142020625027307
1770452777332,128,0,-0.2624226044509662,-2.420482892844329,-3.0023888430484367
1770452777336,125,-3,-1.548782495459593,-4.713446634613155,-4.274915235579909
1770452777340,124,-4,-2.680808346600374,-6.072756299882293,-5.390628038012676
1770452777344,124,-4,-3.0988828174308787,-5.936092629071425,-5.7951052139912544
1770452777348,125,-3,-2.6291121054649578,-5.1262777191137205,-5.31897818003402
1770452777352,126,-2,-1.5822887712859683,-4.204663039247178,-4.271910787583833
1770452777356,126,-2,-0.565847236890214,-3.762165451926812,-3.254315214153862
1770452777360,127,-1,-0.1599151924128735,-3.0201058744980056,-2.8400271411877274
1770452777364,127,-1,-0.6176843798341847,-2.852001620217825,-3.2831041819069804
1770452777368,126,-2,-1.7194822059314128,-4.200957791377473,-4.370416838039596
1770452777372,124,-4,-2.877336556504394,-6.003713606186741,-5.5189138119305925
1770452777376,123,-5,-3.4595832347017783,-6.874524771092002,-6.09587004157607
1770452777380,124,-4,-3.110111366219289,-5.831355264838785,-5.740522859595634
1770452777384,126,-2,-1.8001095124434854,-3.935066885024165,-4.4206324726352175
1770452777388,128,0,0.4082902631885927,-2.061172936536445,-2.19839531385756
1770452777392,131,3,3.606861576717747,0.9671179173522422,1.015068917380729
1770452777396,135,7,7.985212451020228,5.234772670800247,5.405559514634607
1770452777400,140,12,13.455096797854871,10.12767439790929,10.88233160688733
1770452777404,146,18,19.27616026292517,16.20623810382685,16.705500166230987
1770452777408,152,24,24.080677583972964,21.870817072574862,21.5108214624439
1770452777412,154,26,26.417552572713564,24.13325750767081,23.851958785131902
1770452777416,153,25,25.51204106445727,23.139161506730034,22.95749668656051
1770452777420,149,21,21.722345606507545,19.270526277807384,19.185310728129252
1770452777424,143,15,16.361775887730598,13.160199788704071,13.844615862664764
1770452777428,138,10,11.000053767118189,7.975946918145455,8.499651253180737
1770452777432,134,6,6.710225142267294,4.216495933609151,4.219884761152158
1770452777436,131,3,3.727207672588845,1.080292107646322,1.2405022449600769
1770452777440,129,1,1.654035919663003,-0.4990581933743794,-0.8317894397424324
1770452777444,128,0,-0.0355523509634583,-2.085544738748609,-2.5182344501115788
1770452777448,125,-3,-1.6039163580678126,-4.628392124299152,-4.077397507145052
1770452777452,124,-4,-3.0012140848103037,-6.124633100736078,-5.459293656978037
1770452777456,123,-5,-4.072967353582854,-6.457776523651999,-6.51357425511119
1770452777460,123,-5,-4.756989411775222,-6.88228685795819,-7.183465416140115
1770452777464,122,-6,-5.112741048486302,-7.633948653119919,-7.530558928950994
1770452777468,122,-6,-5.2437628919101344,-7.9602149203092845,-7.655981293304383
1770452777472,122,-6,-5.242708100857876,-7.744727876529091,-7.64855519333764
1770452777476,122,-6,-5.193491545408398,-7.686023949695151,-7.590266188964123
1770452777480,122,-6,-5.178052713596497,-7.632060972767385,-7.563273727140471
1770452777484,122,-6,-5.247623792343489,-7.726171495314132,-7.619795619919506
1770452777488,122,-6,-5.37562906535537,-7.852525095898764,-7.734511776343117
1770452777492,122,-6,-5.440968856938953,-7.690009861483601,-7.787928781820434
1770452777496,122,-6,-5.2807764352749205,-7.704871757177769,-7.618259631567145
1770452777500,122,-6,-4.805869219502105,-7.473894305577376,-7.135664389475726
1770452777504,123,-5,-4.103994556241741,-6.822305474676661,-6.425897066717929
1770452777508,124,-4,-3.4237580502283738,-5.657948214324724,-5.73599409569557
1770452777512,125,-3,-3.00801041729199,-4.7813036140586345,-5.308533020875782
1770452777516,124,-4,-2.895292606405944,-5.533579739399853,-5.182589746974459
1770452777520,124,-4,-2.870668871767705,-5.539444850598597,-5.14432739999827
1770452777524,125,-3,-2.627205461130407,-4.682992583579447,-4.888546066865932
1770452777528,125,-3,-2.013821271103476,-4.6973725520977405,-4.265512785098149
1770452777532,126,-2,-1.1762033148891022,-3.6427174946187058,-3.4204402822092006
1770452777536,127,-1,-0.4812148982220459,-2.5450128084973924,-2.71808370742144
1770452777540,127,-1,-0.2685839235743996,-2.485237845958435,-2.4960057033106193
1770452777544,127,-1,-0.6025677831019194,-2.5960133456750527,-2.8173942115028137
1770452777548,126,-2,-1.211595157996037,-3.765898168883182,-3.4111311166453557
1770452777552,125,-3,-1.6673545059741703,-4.398926364114734,-3.851196172433392
1770452777556,126,-2,-1.6639647904641486,-3.7385370729077017,-3.8351569457607626
1770452777560,126,-2,-1.1887194123307383,-3.153598796315248,-3.35219581113466
1770452777564,127,-1,-0.4883100868300415,-2.849890814810867,-2.6468094243602853
1770452777568,127,-1,0.1062993020847146,-2.4406702842262424,-2.0450621006794725
1770452777572,128,0,0.3767656224134453,-1.570469847271906,-1.7622211818564906
1770452777576,128,0,0.3451914689882799,-1.5605428101989216,-1.7774673907807683
1770452777580,127,-1,0.268955346999179,-2.1072540672781477,-1.8372031968299312
1770452777584,128,0,0.4803858417738506,-1.9385006464260244,-1.6121656317801556
1770452777588,128,0,1.1510129201806785,-1.131152168011068,-0.9317886545980684
1770452777592,130,2,2.1449941494367795,0.1231095539380859,0.0690991698206944
1770452777596,130,2,3.0801191279227624,0.9114815667416112,1.0108142085017615
1770452777600,131,3,3.5624342608957185,1.5223954397757111,1.5023512385597173
1770452777604,131,3,3.4373681101001456,1.466876764786953,1.3906913387016568
1770452777608,130,2,2.894695053393258,0.641970136745448,0.8645707605361101
1770452777612,130,2,2.361767694952201,0.3286038500329153,0.3483435778552834
1770452777616,129,1,2.25057272255344,-0.0409374995799818,0.2509942683536645
1770452777620,130,2,2.7140682683687833,0.4541415171442211,0.7242441188458555
1770452777624,131,3,3.5619410294422544,1.7486996835463202,1.5789388028458338
1770452777628,132,4,4.383135396282983,2.3582363017654067,2.4070032208513648
1770452777632,132,4,4.788518251925733,2.7711732570493135,2.8224446931082627
1770452777636,132,4,4.619742943171591,2.59745873104493,2.6680198786833116
1770452777640,131,3,4.01186599219016,1.923304798766309,2.0767845625131054
1770452777644,131,3,3.2964089838246453,1.387503923909164,1.3766904369052555
1770452777648,130,2,2.812499064011302,0.7938781988312025,0.904830035390748
1770452777652,130,2,2.728704522289066,0.4723216980413327,0.8308204049804302
1770452777656,130,2,2.9729770710166497,0.9761519266349898,1.0851061061855347
1770452777660,131,3,3.315082381245655,1.7026141987325991,1.4386515684153045
1770452777664,131,3,3.544666703528047,1.6414052128104828,1.6803786358517163
1770452777668,131,3,3.605112111172176,1.7055149351700778,1.7527880532748137
1770452777672,131,3,3.573728867794083,1.5896767208384213,1.733629944201054
1770452777676,130,2,3.5202748192004902,1.0385987121930986,1.69355400718681
1770452777680,131,3,3.3973814068359016,1.696999918222962,1.5846051704509136
1770452777684,131,3,3.0841265095806847,1.7946747501002709,1.2839510149757656
1770452777688,130,2,2.533423647376669,0.6212747369009697,0.7438972862181119
1770452777692,129,1,1.8490566768889989,-0.2115466861378205,0.0703141507928433
1770452777696,128,0,1.1964037754284702,-1.043570638488501,-0.569034359012337
1770452777700,128,0,0.646503876392096,-1.1416867166725415,-1.103702898285663
1770452777704,128,0,0.126003671374397,-1.2008576703394174,-1.6102379585260196
1770452777708,127,-1,-0.4869511194792499,-2.333366140109697,-2.212493363306125
1770452777712,126,-2,-1.24363199567418,-3.1063569063378123,-2.9600660523060416
1770452777716,125,-3,-2.1045218326465336,-4.076680046574112,-3.8098958045414486
1770452777720,124,-4,-3.001765375282594,-4.9995053700266485,-4.69254191209547
1770452777724,124,-4,-3.877245221107581,-5.20033799760746,-5.551756392682673
1770452777728,123,-5,-4.64835720122641,-6.2496643989551846,-6.308070242927579
1770452777732,122,-6,-5.171944215721413,-7.060029497691275,-6.819578587352728
1770452777736,122,-6,-5.297061358623916,-7.034168339265472,-6.933901422242375
1770452777740,122,-6,-4.990167648987668,-6.945453794315021,-6.615267777624287
1770452777744,123,-5,-4.41131742968177,-6.1002686574451666,-6.023018016624526
1770452777748,124,-4,-3.8435567359887775,-5.26845449291636,-5.441461128916176
1770452777752,124,-4,-3.514033026274404,-4.893049496887236,-5.099256229019169
1770452777756,124,-4,-3.458576337984605,-5.149405146791654,-5.032034661142154
1770452777760,123,-5,-3.547729113660914,-5.693580212089196,-5.108655946603084
1770452777764,124,-4,-3.632199517395665,-5.2511949389587445,-5.178837159693738
1770452777768,124,-4,-3.649321010270989,-4.980809386837963,-5.180820476531561
1770452777772,124,-4,-3.5939773605991174,-5.058676609678148,-5.111002756518146
1770452777776,124,-4,-3.42264728622492,-4.906737024305501,-4.926210639393197
1770452777780,124,-4,-3.0311725049359044,-4.799363353978894,-4.521633257525223
1770452777784,125,-3,-2.351866197042414,-4.074589095542638,-3.82938138486118
1770452777788,126,-2,-1.474263621319738,-2.9701056318231376,-2.9395722586335573
1770452777792,127,-1,-0.6595911512934469,-2.006623438376476,-2.1134961679928725
1770452777796,127,-1,-0.2135035897822865,-1.800194322900814,-1.6555073799393722
1770452777800,127,-1,-0.2998101982782369,-1.862925236170325,-1.727869973856225
1770452777804,127,-1,-0.8212970738612386,-1.8492047791495043,-2.2332070465859295
1770452777808,126,-2,-1.4532327720931777,-3.10394032061305,-2.848098042273594
1770452777812,125,-3,-1.8241423657381275,-3.7200633343747618,-3.2028718816123236
1770452777816,126,-2,-1.7346728407027916,-2.987545836390354,-3.0997259216288247
1770452777820,126,-2,-1.264235678530242,-2.578465864576369,-2.6185319044547604
1770452777824,127,-1,-0.6976572808136895,-1.99354749902238,-2.042487685848984
1770452777828,127,-1,-0.3419678776748674,-1.8510552321279672,-1.675476064693142
1770452777832,127,-1,-0.3611935904629502,-1.8301152204915063,-1.6795035157010472
1770452777836,127,-1,-0.7087461951030823,-1.800609733090565,-2.009126659445533
1770452777840,126,-2,-1.1683105562867842,-2.6365164039695936,-2.451254129199639
1770452777844,126,-2,-1.476336576910544,-2.8342073480746417,-2.7446063215316565
1770452777848,126,-2,-1.470107024322412,-2.844943933035956,-2.7260789384879085
1770452777852,126,-2,-1.1780402042526377,-2.7397563051359493,-2.422073365234713
1770452777856,127,-1,-0.7860940823761489,-1.7647801935394378,-2.017027211906578
1770452777860,127,-1,-0.4973111231968299,-1.5714895828823037,-1.7138672171552831
1770452777864,127,-1,-0.3927970644906739,-1.7825551828014383,-1.594344397814388
1770452777868,127,-1,-0.4066664354553899,-1.7415135089691125,-1.5931739347656448
1770452777872,127,-1,-0.4248165297718473,-1.753242395192835,-1.5966032644776111
1770452777876,127,-1,-0.4065726059558846,-1.611787229003706,-1.5640240033792283
1770452777880,127,-1,-0.4179518428172948,-1.6335801924932067,-1.56118418254859
1770452777884,127,-1,-0.5548091742250514,-1.5725264260086895,-1.6835496030597483
1770452777888,127,-1,-0.8342586685667024,-1.8281706680258645,-1.948104487514704
1770452777892,126,-2,-1.159206076062394,-2.5474693656683467,-2.258067840725989
1770452777896,126,-2,-1.3923520433178431,-2.6988900706601213,-2.476723499372189
1770452777900,126,-2,-1.4722325877332616,-2.451221815390043,-2.54285060341672
1770452777904,126,-2,-1.4641303941755432,-2.579258359736728,-2.521028681449934
1770452777908,126,-2,-1.4991315270041494,-2.7414657573286325,-2.5411691583016203
1770452777912,126,-2,-1.6501209110769195,-2.443672820607612,-2.6759717254007773
1770452777916,126,-2,-1.845127160217475,-2.7710258399717373,-2.854760102049065
1770452777920,125,-3,-1.8988964837314557,-3.1988612432418195,-2.893596835135644
1770452777924,126,-2,-1.6584797431111915,-2.729825179110964,-2.639322738975456
1770452777928,126,-2,-1.1526014439768129,-2.447317457201702,-2.1193977740088066
1770452777932,127,-1,-0.6031749836887046,-1.5820096782683768,-1.5551834614634072
1770452777936,128,0,-0.2619202166142798,-0.5852242152359124,-1.1990450530822807
1770452777940,127,-1,-0.2032295067587328,-1.178603271714703,-1.125760365358226
1770452777944,127,-1,-0.2661036125077264,-1.7196863922811008,-1.173496861439168
1770452777948,127,-1,-0.2026933342858444,-1.2187244378976303,-1.0936264739952173
1770452777952,128,0,0.1129342999694249,-0.7688900324120258,-0.7610577057744008
1770452777956,128,0,0.6105215664723926,-0.2266169080004094,-0.2478299175397209
1770452777960,129,1,1.1266059939275108,0.5867665330405085,0.2820097331117908
1770452777964,129,1,1.5549701789092922,0.6103063128877535,0.7236446442128996
1770452777968,129,1,1.8969164653594244,0.6425535763817587,1.0801811647976174
1770452777972,130,2,2.1921905181638075,1.423132752224464,1.3915870830530732
1770452777976,130,2,2.4330694302057423,1.7671875584039594,1.6488655939814183
1770452777980,130,2,2.5569689691139708,1.6905086626533403,1.7884664422220933
1770452777984,130,2,2.5135165859250135,1.652309600368775,1.7602686008079544
1770452777988,130,2,2.332726560680832,1.7439431599762107,1.594897195769827
1770452777992,130,2,2.1306098444168984,1.407934924645713,1.4084419848820389
1770452777996,129,1,2.041547337799309,0.955843700493411,1.3349989243500673
1770452778000,130,2,3.244224893185431,3.0098627971076084,3.6338882138729174
1770452778004,131,3,3.2862211807921713,3.530288550500223,3.676097176968759
1770452778008,131,3,3.308388848529071,3.908568740208026,3.6981274191968097
1770452778012,131,3,3.098674205669943,3.6013125404127164,3.4869385174537495
1770452778016,130,2,2.538984452451436,3.018550367530117,2.9253236471738777
1770452778020,129,1,1.7093801168416571,1.6751232340159714,2.0955267135596665
1770452778024,128,0,0.8127091214178498,0.8210656489408181,1.201028996024566
1770452778028,128,0,0.017722331094448,0.6823001241718015,0.408342543303399
1770452778032,127,-1,-0.6308564303513593,-0.2786582500297944,-0.2406642084963633
1770452778036,126,-2,-1.1883890092055749,-1.0040529564638665,-0.8016575034535021
1770452778040,126,-2,-1.732978116585699,-1.385782253934985,-1.3501699191836076
1770452778044,125,-3,-2.3031234108617635,-2.04783783281424,-1.9217907522016584
1770452778048,125,-3,-2.870561409647867,-2.5057400799059293,-2.487481357376321
1770452778052,124,-4,-3.3433831065546293,-3.0826923550047636,-2.9571507765990437
1770452778056,124,-4,-3.599406017527741,-3.197926739504344,-3.21160893699066
1770452778060,124,-4,-3.5504734128041684,-3.2058420817785493,-3.164670989703122
1770452778064,124,-4,-3.217792043573184,-3.195243968905996,-2.836931070267641
1770452778068,125,-3,-2.768505427518031,-2.405935559344438,-2.39258641872517
1770452778072,125,-3,-2.460468759809582,-2.158270663495775,-2.0862906483204475
1770452778076,125,-3,-2.4959235379448845,-2.153819551272635,-2.1193669300367377
1770452778080,125,-3,-2.869533223185471,-2.231466309334282,-2.4889525358440183
1770452778084,124,-4,-3.333584156953437,-3.166420074485968,-2.951730018167408
1770452778088,124,-4,-3.5357155642054243,-3.4775869538960276,-3.158259955686257
1770452778092,124,-4,-3.243626431161013,-3.0425382535362377,-2.874751342330931
1770452778096,125,-3,-2.4728065059244297,-2.32982407055054,-2.1110287363760256
1770452778100,126,-2,-1.3838554154807827,-0.9832701912698208,-1.0221101556648104
1770452778104,128,0,-0.0026244643183801,0.5414291550088622,0.3663342194288129
1770452778108,130,2,1.9955477420935248,2.8111177221772605,2.3728109893430887
1770452778112,133,5,5.169545788485702,5.672208641008474,5.549041761702536
1770452778116,136,8,9.816867039646274,8.91708487505296,10.19048427693647
1770452778120,142,14,15.420733299910864,14.836140971196052,15.783765453910677
1770452778124,149,21,20.55860731296886,21.67076413430545,20.91092887027651
1770452778128,152,24,23.51586473269776,24.71739720760652,23.860636233140017
1770452778132,151,23,23.246076494481223,23.695532940346716,23.5889951071548
1770452778136,147,19,19.967204723589717,19.913799198400596,20.31507357266492
1770452778140,142,14,14.961267327230924,14.773157310856789,15.318091519088554
1770452778144,137,9,9.779855133410894,9.794599301388809,10.143168182431442
1770452778148,133,5,5.460379734236882,5.572574818876335,5.822130850705403
1770452778152,130,2,2.2450042651129656,2.901449627923581,2.597127788519478
1770452778156,128,0,-0.1482655447420588,0.6641105343903688,0.1919478053831134
1770452778160,125,-3,-2.040844949016771,-1.9716436694670176,-1.7077450339513844
1770452778164,124,-4,-3.4973472768260825,-3.4947375054562775,-3.1637686181294815
1770452778168,123,-5,-4.374135670772652,-4.108130032449045,-4.035941523416882
1770452778172,123,-5,-4.5695471788445605,-4.426744089499413,-4.228853785531767
1770452778176,123,-5,-4.222886797581864,-3.998837256329216,-3.8853168624309182
1770452778180,124,-4,-3.7105831082186063,-3.3310389723359584,-3.380134973478937
1770452778184,124,-4,-3.460733893429368,-3.156160108669101,-3.1370146186490917
1770452778188,124,-4,-3.724676969916291,-3.426969298764206,-3.4041855253454782
1770452778192,123,-5,-4.4570045348170035,-4.126995491282872,-4.1363729995352445
1770452778196,122,-6,-5.374905240754231,-5.275936904055378,-5.053106658662975
1770452778200,121,-7,-6.147603068136523,-6.1064482400071265,-5.826030002206085
1770452778204,121,-7,-6.582318892479006,-6.341459055166256,-6.263563425859821
1770452778208,121,-7,-6.685408249041529,-6.288136355934441,-6.371729255294222
1770452778212,121,-7,-6.582161461029147,-6.1862997726291775,-6.274123408532958
1770452778216,121,-7,-6.387680281789023,-6.300638650392001,-6.083715069554617
1770452778220,121,-7,-6.135823224354971,-6.027174156738611,-5.833486931529
1770452778224,122,-6,-5.794984077313865,-5.50293883741478,-5.4931473848107295
1770452778228,122,-6,-5.324767354648634,-5.061756396197208,-5.024514740833882
1770452778232,123,-5,-4.723091463814233,-4.43218939853681,-4.426280875839648
1770452778236,123,-5,-4.046061397323459,-4.051389676964897,-3.753340001878942
1770452778240,124,-4,-3.395500300364588,-3.28728610317519,-3.106193051571492
1770452778244,125,-3,-2.8698296896492113,-2.291590310663042,-2.583399019040388
1770452778248,125,-3,-2.503081075851872,-2.20683221743531,-2.2197361984511836
1770452778252,125,-3,-2.249060067711606,-2.3437750269138804,-1.9688411957148224
1770452778256,125,-3,-2.0338618076974826,-2.0669090428766466,-1.7561673504408124
1770452778260,126,-2,-1.819265246722392,-1.384989606088036,-1.5438136771999285
1770452778264,126,-2,-1.605185180913636,-1.1184597925980866,-1.33267250588414
1770452778268,126,-2,-1.3818128624118642,-1.4375203338336848,-1.1130010702196087
1770452778272,126,-2,-1.1046006689386014,-1.0408893943615736,-0.8393138806390559
1770452778276,127,-1,-0.7240426925715713,-0.4249295914438052,-0.4616280285370608
1770452778280,127,-1,-0.2303504226720968,-0.0320632264731569,0.0293273601894206
1770452778284,128,0,0.3319267392419793,0.5195420144561552,0.588509400959778
1770452778288,128,0,0.8817444022364342,0.9371217090403472,1.135082634569672
1770452778292,129,1,1.331868936316075,1.6029268898982765,1.5821408642860653
1770452778296,129,1,1.6162759711607058,1.9041175063177016,1.863433227845277
1770452778300,129,1,1.7045360995362866,1.6238956136300138,1.947989497728536
1770452778304,129,1,1.5999276209202982,1.8447985245242096,1.8390266880218251
1770452778308,129,1,1.3317981288887004,1.6511661947011569,1.5667991244156578
1770452778312,128,0,0.956669337994494,0.8661073356808832,1.1891181575700216
1770452778316,128,0,0.5712700466300726,0.6679666350043661,0.8027903085816078
1770452778320,128,0,0.3259099521286919,0.78781482713063,0.556252306644386
1770452778324,128,0,0.4087834205508109,0.7266578348557695,0.6356743881080503
1770452778328,128,0,0.9686864699466724,0.7412726245859509,1.1901830789314327
1770452778332,129,1,1.998046933227945,1.831971951472883,2.2146153564438276
1770452778336,131,3,3.278407580198596,3.641916230861714,3.492116586491761
1770452778340,132,4,4.475949174642931,4.831221717046248,4.687944157904048
1770452778344,133,5,5.334263072510133,5.641404024955215,5.543640525445849
1770452778348,133,5,5.7956592935298925,5.878317374091723,6.000766476609878
1770452778352,133,5,5.940886507087419,5.659687941759145,6.141229479205811
1770452778356,133,5,5.821003081173778,5.823388846846628,6.017655590024413
1770452778360,133,5,5.368386349110964,5.615446327955198,5.562762975436387
1770452778364,132,4,4.491396658512608,4.865995200450101,4.683988777584283
1770452778368,131,3,3.2584089880788336,3.6824289878512126,3.4487801983386115
1770452778372,129,1,1.967272918037952,1.8277237060232436,2.154869784245669
1770452778376,128,0,0.9969344373823894,0.6639035731240167,1.1813752924922656
1770452778380,128,0,0.5539335932245897,0.7220906704667138,0.7346078228636408
1770452778384,128,0,0.5369454492925383,0.8165325616063103,0.7131214176453061
1770452778388,128,0,0.6362377903275369,0.7100930245843322,0.8080073328557473
1770452778392,128,0,0.5778281567842054,0.8409548734412176,0.7464798477899615
1770452778396,128,0,0.3111291881314053,0.5732300125111864,0.4780978800683333
1770452778400,127,-1,-0.0017582610279294,-0.17888426799322,0.163824110363024
1770452778404,127,-1,-0.1754500099928088,-0.2877495174473557,-0.0121971754254634
1770452778408,127,-1,-0.2068139396154139,-0.1510375072047635,-0.0472192745513957
1770452778412,127,-1,-0.3166676243386634,-0.2937324782258371,-0.1617189858861383
1770452778416,127,-1,-0.7812311697302698,-0.336095400151025,-0.631229491872733
1770452778420,126,-2,-1.6907957244317635,-1.2759796145916065,-1.5448734983782035
1770452778424,124,-4,-2.8457513213478536,-3.203700858554623,-2.701618128335643
1770452778428,123,-5,-3.881821707596168,-4.196031452530814,-3.737078921971982
1770452778432,123,-5,-4.508473318368313,-4.255258172267933,-4.363163854371687
1770452778436,123,-5,-4.657380012940442,-4.397516350223833,-4.514773963371253
1770452778440,123,-5,-4.455986245200433,-4.224398000340412,-4.319770534161882
1770452778444,123,-5,-4.110494871377689,-4.245961240517332,-3.981124736183185
1770452778448,123,-5,-3.812690328969648,-4.155330502478586,-3.687250077222098
1770452778452,124,-4,-3.6912210331194304,-3.2765046883434223,-3.5668465474125663
1770452778456,124,-4,-3.7731569637775446,-3.430159935762241,-3.6495557483947247
1770452778460,123,-5,-3.966964511533089,-4.174358070882559,-3.8452531909019494
1770452778464,123,-5,-4.111561004992293,-4.3071073251228995,-3.9919552842794017
1770452778468,123,-5,-4.074599543257541,-4.080141455651956,-3.9564901835453488
1770452778472,124,-4,-3.817943542318423,-3.3504911427749664,-3.701647300398581
1770452778476,124,-4,-3.38939381980821,-3.375582726816259,-3.276481450394406
1770452778480,124,-4,-2.886031818948556,-3.23632987683531,-2.7777973016753736
1770452778484,125,-3,-2.437429946742906,-2.2379451572070814,-2.3337289242745713
1770452778488,125,-3,-2.1899466426059995,-2.162309468736923,-2.0894947696987636
1770452778492,125,-3,-2.252973104933371,-2.2468141777702972,-2.1541988689980207
1770452778496,125,-3,-2.621666258829368,-2.5160472166870473,-2.523348475620457
1770452778500,124,-4,-3.1390584753452315,-3.0838577610120144,-3.0407583893320487
1770452778504,124,-4,-3.5485506482831632,-3.4122012777679775,-3.4508047466139007
1770452778508,123,-5,-3.6273078487340937,-3.9675418400897255,-3.531544172680789
1770452778512,124,-4,-3.3213868001765285,-3.44006026898002,-3.2296036534983656
1770452778516,125,-3,-2.7817830919027102,-2.3464753609446816,-2.695547724829347
1770452778520,125,-3,-2.267761761714959,-2.226151998920801,-2.1864981649173867
1770452778524,125,-3,-1.9877673487837235,-2.334124105648542,-1.9082545375153317
1770452778528,125,-3,-1.9815748227157195,-1.9665105576600463,-1.9004339984183312
1770452778532,126,-2,-2.0992576313276654,-1.5333452304094777,-2.016264472682442
1770452778536,125,-3,-2.0872411985567876,-2.175760265929778,-2.0053362822053247
1770452778540,125,-3,-1.759806553839801,-2.465957073151141,-1.6818202931657855
1770452778544,126,-2,-1.161621443631266,-1.0604146304540176,-1.087938317843624
1770452778548,127,-1,-0.5765260826895572,-0.2417508405633477,-0.5058714378520061
1770452778552,127,-1,-0.3370999124713816,-0.2889650435688459,-0.2683401739020021
1770452778556,127,-1,-0.5798094213930165,-0.3699440417445492,-0.5124424050170158
1770452778560,126,-2,-1.156147959751185,-1.3486836662034667,-1.0897597819584806
1770452778564,125,-3,-1.7685769617183031,-2.1405862865305316,-1.7026494112267492
1770452778568,125,-3,-2.1979650309025462,-2.1786044715544826,-2.1324156341439067
1770452778572,125,-3,-2.421384930316615,-2.3512646698635593,-2.356991486439819
1770452778576,125,-3,-2.5390877899994795,-2.2673554925131714,-2.4769447031089147
1770452778580,125,-3,-2.613387137169404,-2.520010101511939,-2.553771427118332
1770452778584,124,-4,-2.591416264657442,-2.92617515608775,-2.533410167658105
1770452778588,125,-3,-2.3806675597994715,-2.4545952025965923,-2.3231708038106658
1770452778592,125,-3,-1.9868533353194369,-2.0121454116915594,-1.929919622232074
1770452778596,126,-2,-1.5679134047436347,-1.639743379117147,-1.5128378402487352
1770452778600,126,-2,-1.3455630186525067,-1.1348319244778968,-1.2934839345258604
1770452778604,126,-2,-1.4480274123218737,-1.3364450595789106,-1.3983788059832811
1770452778608,125,-3,-1.81405096288116,-2.066558672648916,-1.76451447721689
1770452778612,125,-3,-2.2295259890267154,-2.3646755132651696,-2.1779069580188017
1770452778616,125,-3,-2.4574188630992246,-2.3106727428899267,-2.4038600481099412
1770452778620,125,-3,-2.363226144830215,-2.442373396531674,-2.3104287017632994
1770452778624,125,-3,-1.968001117938332,-2.0593190401401267,-1.918985520159287
1770452778628,126,-2,-1.4207838790129894,-1.3450508794401426,-1.3762660885617866
1770452778632,126,-2,-0.9148477388377908,-1.0780909243516106,-0.872656680801109
1770452778636,127,-1,-0.5823079342943269,-0.5997426504092584,-0.5392717899536541
1770452778640,127,-1,-0.4126310376583317,-0.1575012401180434,-0.3670885969377346
1770452778644,127,-1,-0.2474399024878029,-0.3507979683926852,-0.2001113941553606
1770452778648,127,-1,0.1227554328311684,-0.0926644805362695,0.1699405961107024
1770452778652,128,0,0.8060627371335669,0.7360779516912992,0.851557425205634
1770452778656,129,1,1.711833795904791,1.5082180839235095,1.7550230983873272
1770452778660,130,2,2.5965747027901265,2.832110912468756,2.6375794676933566
1770452778664,131,3,3.226543283258783,3.542728005277461,3.2662903332922193
1770452778668,130,2,3.526353388036923,3.092301831766271,3.566671493570949
1770452778672,131,3,3.598300343663855,3.4792441124853224,3.640906524415578
1770452778676,131,3,3.6170228105741553,3.816896039160087,3.6618267895166103
1770452778680,131,3,3.698838275722102,3.5029781097147996,3.743713358086117
1770452778684,131,3,3.8339957290077056,3.8550416310065545,3.8767266852616378
1770452778688,131,3,3.905360053078915,3.8158112158025825,3.9456720693086846
1770452778692,131,3,3.771382221296214,3.67460031946342,3.810919847901696
1770452778696,131,3,3.3664191834941475,3.719564765515473,3.4070907052642703
1770452778700,130,2,2.7551654112241213,2.508891395187702,2.79777234476345
1770452778704,129,1,2.095800880875546,1.902160533625854,2.139928632978497
1770452778708,129,1,1.5312289701346065,1.7444565606092917,1.5759417067599295
1770452778712,128,0,1.0890237696967495,0.7075581246956035,1.1335544812432108
1770452778716,128,0,0.6667898926322452,0.7689988965254575,0.7107668860446644
1770452778720,128,0,0.1129350931509095,0.36844500601089,0.1562635237900276
1770452778724,126,-2,-0.6612365333152126,-0.8789038730674819,-0.6183413228407049
1770452778728,126,-2,-1.624603961053412,-1.5628032779531205,-1.581393615263773
1770452778732,124,-4,-2.658420536255098,-2.9345066874224037,-2.6137730551822864
1770452778736,124,-4,-3.6313628046138855,-3.62079133348835,-3.584489157331721
1770452778740,123,-5,-4.445740433675683,-4.2119863098544155,-4.396799863186947
1770452778744,122,-6,-5.0325654906077455,-5.313788256906754,-4.9826060692232845
1770452778748,122,-6,-5.333064634383424,-5.150863645825666,-5.283318911646272
1770452778752,122,-6,-5.310648931217539,-5.321908138954467,-5.261526183699788
1770452778756,122,-6,-4.994109375279539,-5.27815408016352,-4.944562779879295
1770452778760,123,-5,-4.50583921931803,-4.486376018683819,-4.454146467305521
1770452778764,123,-5,-4.020715734604719,-4.10865199191811,-3.9666265366339526
1770452778768,124,-4,-3.653370999039634,-3.3214368258789397,-3.5993015869514675
1770452778772,124,-4,-3.3522046414263196,-3.1893333845762117,-3.301119930293086
1770452778776,124,-4,-2.8972587705814896,-3.3957553311003896,-2.848691998690314
1770452778780,125,-3,-2.004247323032779,-2.3642445824955747,-1.9532179018663032
1770452778784,127,-1,-0.4214085733648613,-0.2395920951573847,-0.3624228408562882
1770452778788,130,2,2.0678917555482776,2.80286544798902,2.1357305150532406
1770452778792,133,5,5.65614436095767,5.6971054937100565,5.728395360243775
1770452778796,137,9,10.373779188799592,9.702265875183103,10.444484308062846
1770452778800,143,15,15.810328394415045,15.554697413236662,15.875899625044838
1770452778804,148,20,20.95675835558937,20.81024044791056,21.016936744347472
1770452778808,152,24,24.441184271877155,24.76074457995819,24.498094414538404
1770452778812,153,25,25.12612406372403,25.73493824523924,25.18336991042469
1770452778816,150,22,22.699864945290564,22.636621280499774,22.761736071559156
1770452778820,145,17,17.851123083325668,17.612620145634615,17.92103331512687
1770452778824,139,11,11.909600430856887,11.719185344022904,11.988163353458258
1770452778828,133,5,6.210423161443451,5.889876329457888,6.294832647750791
1770452778832,129,1,1.5954010371664111,1.6118946204907028,1.680962373886157
1770452778836,126,-2,-1.6934267172199151,-1.2019280052498873,-1.610571661067869
1770452778840,124,-4,-3.786133580137811,-3.5884278459558665,-3.706830549103216
1770452778844,122,-6,-4.896352439106289,-5.08651028893621,-4.81819992910066
1770452778848,122,-6,-5.205475304431924,-5.300316457541025,-5.124830496991136
1770452778852,122,-6,-4.9293561253384155,-5.214154425131914,-4.844204177103416
1770452778856,123,-5,-4.3972111933772435,-4.319982408258116,-4.308497342332938
1770452778860,124,-4,-3.9942054672763927,-3.553393527516082,-3.904311773683916
1770452778864,123,-5,-3.9883311789779583,-4.0681546906302595,-3.898076646162905
1770452778868,123,-5,-4.392268273716414,-4.4062835208072535,-4.299581202470255
1770452778872,122,-6,-4.980149123549131,-5.020430049062343,-4.882095438610105
1770452778876,122,-6,-5.44227233037757,-5.577891906215169,-5.338454821100957
1770452778880,122,-6,-5.563948262806604,-5.249994643470122,-5.457492612443102
1770452778884,122,-6,-5.32674922250704,-5.405300673300595,-5.221523597740456
1770452778888,122,-6,-4.89889979716987,-5.090856710815121,-4.795751233007755
1770452778892,123,-5,-4.532482025834132,-4.273893251377137,-4.4284196151595765
1770452778896,123,-5,-4.412214220861646,-4.405492529553194,-4.3033135858356255
1770452778900,123,-5,-4.531149225764728,-4.337860787427327,-4.416108052797747
1770452778904,123,-5,-4.682382962628891,-4.422015813350828,-4.5632127802462445
1770452778908,122,-6,-4.600283203327622,-5.005607488773578,-4.479813067107351
1770452778912,123,-5,-4.165662715314112,-4.408530434147084,-4.044823630679825
1770452778916,124,-4,-3.505973587491524,-3.2220139986185767,-3.3835501935771535
1770452778920,125,-3,-2.885942050346958,-2.551751325929154,-2.7602824693417407
1770452778924,125,-3,-2.4743077505636655,-2.2106878349707424,-2.344693015621538
1770452778928,125,-3,-2.2040364285492955,-2.2234385515817015,-2.070761596942118
1770452778932,125,-3,-1.8630987203487503,-2.2133447844303165,-1.727034391883748
1770452778936,126,-2,-1.3301171353476775,-1.3826068594672942,-1.1923130324573332
1770452778940,127,-1,-0.7279204507026347,-0.4187772178878136,-0.5889670673010077
1770452778944,127,-1,-0.3447869807792981,-0.3203637527151158,-0.2041087894641844
1770452778948,127,-1,-0.3846467697560478,-0.1495867004120347,-0.2406801654049869
1770452778952,127,-1,-0.758346922129899,-0.2749606536365613,-0.6096670729735684
1770452778956,126,-2,-1.1015827961936084,-1.3438763656086057,-0.947772239867866
1770452778960,126,-2,-1.0269182495359348,-1.4337239500419616,-0.8686585021690932
1770452778964,127,-1,-0.4165750366862789,-0.3211003918530615,-0.2555352394326277
1770452778968,128,0,0.4888398672091455,0.8605568123812335,0.6504838559565258
1770452778972,129,1,1.2797399687935442,1.700459145288432,1.4408457586529724
1770452778976,129,1,1.6762850075271247,1.6894270324326734,1.8383032902558376
1770452778980,129,1,1.6930929550210927,1.5085716321002718,1.8594472740202836
1770452778984,129,1,1.5744005867359858,1.7414440236585045,1.7477126097680622
1770452778988,129,1,1.5972598199007582,1.784304589182711,1.7772393278307597
1770452778992,129,1,1.9034049791262977,1.7914129994789991,2.0873975974109293
1770452778996,130,2,2.453045432724256,2.5996034492650453,2.638192918260752
1770452779000,131,3,3.0939436053769036,3.589348413291112,3.2789803824957846
1770452779004,131,3,3.671076971639505,3.647957479420677,3.8569571461342864
1770452779008,131,3,4.095066426467544,3.876059375283755,4.284228668992552
1770452779012,132,4,4.3463325923134875,4.6978217516223415,4.5408470964642635
1770452779016,132,4,4.454490766218065,4.701330616362238,4.6545493185212585
1770452779020,132,4,4.486393899446151,4.469621767909699,4.6905966320179875
1770452779024,132,4,4.5306084929888994,4.773414294950822,4.737526351001566
1770452779028,132,4,4.660098325965153,4.731227382556326,4.869355320201694
1770452779032,132,4,4.890776533538536,4.854907876368156,5.102837582924
1770452779036,133,5,5.172888651849784,5.544990362922298,5.388246938938907
1770452779040,133,5,5.426983351902689,5.620548593600859,5.64581035928962
1770452779044,133,5,5.593855624647546,5.610570901197386,5.81626849603178
1770452779048,133,5,5.656089655337296,5.892339356159977,5.882303188529858
1770452779052,133,5,5.62070280933796,5.685554145230043,5.8507229480235
1770452779056,133,5,5.48837187542115,5.722611812869628,5.721803439123135
1770452779060,133,5,5.238288799140731,5.446339871151811,5.47469300899618
1770452779064,132,4,4.838571274937834,4.75670922963258,5.077939349707295
1770452779068,132,4,4.274676192344925,4.762415478033234,4.517487425020652
1770452779072,131,3,3.576130630723843,3.794041214259904,3.8230665633440606
1770452779076,130,2,2.8171650025585766,2.6281374712842194,3.068654603636757
1770452779080,130,2,2.0842387591609572,2.543536018924728,2.339930449756753
1770452779084,129,1,1.4332210117814517,1.6339847392297964,1.6919896734191855
1770452779088,128,0,0.8647466455978106,0.8964378176948313,1.125719856117772
1770452779092,128,0,0.3274398440892645,0.6479263691827528,0.5911018426613851
1770452779096,127,-1,-0.2528047716992594,-0.2123605380332934,0.0150512457654619
1770452779100,127,-1,-0.9240453016614908,-0.6316737517718871,-0.6511203127267955
1770452779104,126,-2,-1.6654730885856122,-1.1868629068096086,-1.388242878281214
1770452779108,125,-3,-2.3928258724898352,-2.3047094390933154,-2.112730886897175
1770452779112,124,-4,-3.0264424944335557,-3.139358461000666,-2.7439120619053767
1770452779116,124,-4,-3.566307096271938,-3.420842119911845,-3.28052009671099
1770452779120,124,-4,-4.0874739928150206,-3.4457291487182813,-3.797546600408798
1770452779124,123,-5,-4.643810285601808,-4.340649597500626,-4.349530871188595
1770452779128,122,-6,-5.177190881843203,-5.210763951824054,-4.87866170713604
1770452779132,122,-6,-5.534839250195837,-5.175084193161244,-5.232137297098054
1770452779136,122,-6,-5.587656138471702,-5.44864493144131,-5.28109817909125
1770452779140,122,-6,-5.343383452066831,-5.363126553924939,-5.033761642229369
1770452779144,123,-5,-4.953896909911696,-4.463317597853709,-4.642065355567231
1770452779148,123,-5,-4.607719713490099,-4.068991640435121,-4.293624573208135
1770452779152,123,-5,-4.397047923026226,-4.338520347073732,-4.079162101473237
1770452779156,123,-5,-4.266696778290607,-4.284592793501268,-3.9430645808451614
1770452779160,124,-4,-4.0727091793052566,-3.531578182963892,-3.743015503122301
1770452779164,124,-4,-3.691764238959372,-3.2942787885199136,-3.357877130594219
1770452779168,124,-4,-3.1107476433067447,-3.237393401915642,-2.7747694031992145
1770452779172,125,-3,-2.4550224307435045,-2.1741244287718624,-2.1172795938326088
1770452779176,126,-2,-1.9336660043246177,-1.457797460212091,-1.592970871798115
1770452779180,126,-2,-1.7178905473640835,-1.364818393100342,-1.3731710596922448
1770452779184,126,-2,-1.8320279019929795,-1.4548381460069186,-1.4831063108547458
1770452779188,125,-3,-2.1467394737686054,-2.086100474993442,-1.7938370162641286
1770452779192,125,-3,-2.4797469263934153,-2.330152171290634,-2.122896888727038
1770452779196,125,-3,-2.7109032372149584,-2.308859834585246,-2.3499987200874974
1770452779200,125,-3,-2.8128446669626936,-2.5095435575861926,-2.447916183412353
1770452779204,125,-3,-2.7903202271160037,-2.3101845812559425,-2.421488184985996
1770452779208,125,-3,-2.6130069121293387,-2.2204395580795593,-2.240246253961586
1770452779212,125,-3,-2.2266296805040797,-2.2317626616180894,-1.849905302196393
1770452779216,126,-2,-1.6387869772817414,-1.3873519091530166,-1.2585951018519828
1770452779220,127,-1,-0.9903494932445422,-0.454776850822669,-0.6078127046266598
1770452779224,127,-1,-0.5282464694787812,-0.3351663568980301,-0.1441844817473708
1770452779228,127,-1,-0.4805716237560311,-0.2163384569902492,-0.0944051740415233
1770452779232,127,-1,-0.9137283505689088,-0.2418999565326094,-0.523485700110076
1770452779236,126,-2,-1.6674337375628687,-1.3972549893709856,-1.2709502185543309
1770452779240,125,-3,-2.418357212530296,-2.4389925310147555,-2.0148445118444847
1770452779244,125,-3,-2.841058168007268,-2.3353586921079432,-2.4319996585906125
1770452779248,125,-3,-2.7701221851031494,-2.2253440657516315,-2.358461380964545
1770452779252,125,-3,-2.2752889356960955,-2.2300790118769926,-1.8632152984623889
1770452779256,126,-2,-1.619453240653738,-1.4333356646869078,-1.2069683916488527
1770452779260,127,-1,-1.1200168668013346,-0.3881681087831892,-0.7055743615574782
1770452779264,127,-1,-0.9783649173226108,-0.3984436055562323,-0.5601186148255943
1770452779268,126,-2,-1.1802913295235105,-1.1472588471888698,-0.7565157308124026
1770452779272,126,-2,-1.537218429201464,-1.340061993352457,-1.1067989982467374
1770452779276,126,-2,-1.825842991650344,-1.3213175968738702,-1.3895411310522536
1770452779280,126,-2,-1.9107012601728115,-1.505460706554634,-1.4714407609572404
1770452779284,126,-2,-1.7811181716149047,-1.2646393839152512,-1.341733432051023
1770452779288,126,-2,-1.5236201486373149,-1.2699979284538845,-1.0839395747528924
1770452779292,126,-2,-1.2728966860523916,-1.2595931974648913,-0.829718299898406
1770452779296,127,-1,-1.1496937710412238,-0.3883543569455762,-0.7001297399466541
1770452779300,127,-1,-1.1925593495279538,-0.4624096001143916,-0.7370390213670974
1770452779304,126,-2,-1.335680997456417,-1.274771617609224,-0.8772906810358301
1770452779308,126,-2,-1.4805437884034047,-1.2637805726104212,-1.0218114073801974
1770452779312,126,-2,-1.6102684394049211,-1.2996905899290458,-1.1509560993452086
1770452779316,126,-2,-1.818357981539321,-1.344079733078145,-1.3559506765953857
1770452779320,126,-2,-2.1911154018883185,-1.5153779951000286,-1.7229972497803834
1770452779324,125,-3,-2.639743805291177,-2.1860399004902336,-2.165218905711246
1770452779328,125,-3,-2.856075637831429,-2.375570845553334,-2.376794955998507
1770452779332,125,-3,-2.4782250802590693,-2.202781757976287,-1.996664968428285
1770452779336,126,-2,-1.3676665098784848,-1.4548147013245074,-0.8850732189918832
1770452779340,128,0,0.2277552912360172,0.6032490210935063,0.7118133416674326
1770452779344,130,2,1.7923501084329918,2.7413297499904457,2.2786641230014077
1770452779348,131,3,2.8791904673436424,3.6524850967206177,3.3680362158131016
1770452779352,131,3,3.3904902837538495,3.773056827895993,3.8824297120104903
1770452779356,131,3,3.561200068859884,3.514862177296456,4.057759384246719
1770452779360,131,3,3.6801303585089338,3.657929676962015,4.1824062197914795
1770452779364,132,4,3.825032365708333,4.719239259087313,4.3316888024976254
1770452779368,132,4,3.8455741387550506,4.667761522921376,4.353407990361644
1770452779372,131,3,3.563364325644975,3.74750557606813,4.070461656032844
1770452779376,131,3,2.9667070031169196,3.499149926798954,3.474583955132341
1770452779380,130,2,2.231974283469383,2.6747208474783823,2.744250013344283
1770452779384,129,1,1.5899137765345428,1.7362540365367132,2.1089657731744493
1770452779388,129,1,1.1741877803394711,1.6537762850388749,1.6989090536326896
1770452779392,129,1,0.9678243089155276,1.757159729551455,1.494425430530484
1770452779396,129,1,0.8546037671056051,1.441789257481819,1.3799860124588847
1770452779400,128,0,0.6962328098778743,0.7442687341906941,1.2208881759877317
1770452779404,128,0,0.375490323274151,0.6848723650959911,0.9028058709317456
1770452779408,128,0,-0.1758580684574983,0.7044897579048401,0.3568574217564363
1770452779412,127,-1,-0.9353753613874662,-0.2854740874003005,-0.3974675175381217
1770452779416,126,-2,-1.7737548998377646,-1.5836774509089937,-1.2327410768536613
1770452779420,125,-3,-2.519699994701686,-2.1853470682345977,-1.977180585155332
1770452779424,125,-3,-3.075849281641184,-2.412434804548343,-2.5319511908707653
1770452779428,124,-4,-3.4841823935284295,-3.1475858426346375,-2.938230476689046
1770452779432,124,-4,-3.877471222785199,-3.4649896477533404,-3.3291653233775103
1770452779436,124,-4,-4.353840760020192,-3.431132332114037,-3.803709070986683
1770452779440,123,-5,-4.879637814870073,-4.329634561090562,-4.32805686077046
1770452779444,122,-6,-5.308069531302918,-5.285185109893805,-4.753910987599759
1770452779448,122,-6,-5.496975683008322,-5.21490833744681,-4.938151905240914
1770452779452,123,-5,-5.406762320196989,-4.462439960214792,-4.842738958808276
1770452779456,123,-5,-5.083962425504896,-4.400999804293273,-4.517299274821959
1770452779460,123,-5,-4.568403509847379,-4.412711384006833,-4.003237480875
1770452779464,124,-4,-3.833457886078627,-3.1543122186744093,-3.2721389885853904
1770452779468,125,-3,-2.7999136083013827,-2.3535812164586054,-2.2405295834661065
1770452779472,126,-2,-1.3632277466833829,-1.34766277994089,-0.8001468362103619
1770452779476,129,1,0.6340835294880507,1.5090607210243383,1.206432599217219
1770452779480,132,4,3.457927716905308,4.611871008248156,4.040835152878294
1770452779484,135,7,7.431601691760971,7.910220406367449,8.021160467551265
1770452779488,140,12,12.671810725759476,12.512707987431506,13.261607528723657
1770452779492,146,18,18.723764195495793,18.84097755824933,19.308175622013753
1770452779496,153,25,24.41867091315895,25.248820577691298,24.9949938428042
1770452779500,156,28,28.201105297388697,28.90157957824137,28.77098749231449
1770452779504,157,29,28.81980418191037,29.623720658160646,29.38945501770864
1770452779508,154,26,25.96593856352536,26.75095506644803,26.54335880278137
1770452779512,148,20,20.450258735207353,20.63583651137077,21.040174357665087
1770452779516,142,14,13.807975345566582,14.330280288605554,14.40857220882766
1770452779520,135,7,7.57371173298564,7.983129187545222,8.178325680073424
1770452779524,130,2,2.652914260321503,2.4263196169671515,3.254872061408401
1770452779528,127,-1,-0.8629864970315264,0.1105597938756312,-0.2668702146156643
1770452779532,126,-2,-3.387374494092019,-1.864517359976032,-2.796333530002807
1770452779536,122,-6,-5.325016490539535,-5.124415729587342,-4.735372668153216
1770452779540,121,-7,-6.764297641296493,-6.575939180825311,-6.171220910655138
1770452779544,120,-8,-7.558525690332275,-7.023455748622603,-6.9587788475509855
1770452779548,120,-8,-7.622429681476595,-7.391745773557626,-7.016684191151879
1770452779552,121,-7,-7.127464504218304,-6.436691967264671,-6.519908993943096
1770452779556,122,-6,-6.437395404537966,-5.50088287989686,-5.832517738473884
1770452779560,122,-6,-5.881140391813629,-5.263247049563406,-5.280113766397925
1770452779564,122,-6,-5.579522152083136,-5.2734139127269435,-4.9792147641970645
1770452779568,122,-6,-5.451638366613553,-5.189757880842592,-4.847388404429858
1770452779572,123,-5,-5.344615125386365,-4.631143145188424,-4.734435855771398
1770452779576,123,-5,-5.149308677048777,-4.3190752258707015,-4.535467366826868
1770452779580,123,-5,-4.837649103061406,-4.439432751755264,-4.224263884819569
1770452779584,123,-5,-4.454955908488055,-4.08460988464997,-3.844456849039226
1770452779588,124,-4,-4.104851163492322,-3.386828341179129,-3.4966774465347235
1770452779592,124,-4,-3.915642947198383,-3.4610748096877217,-3.307502538895374
1770452779596,124,-4,-3.9717753523551584,-3.477602869819292,-3.361558611332815
1770452779600,124,-4,-4.23885620443428,-3.2912548936241537,-3.625662791960587
1770452779604,123,-5,-4.543468968885642,-4.206661257269159,-3.9275748120732503
1770452779608,123,-5,-4.6455378924987,-4.301019149315769,-4.027972920153992
1770452779612,124,-4,-4.371416022860769,-3.5297834815494333,-3.753603970787424
1770452779616,124,-4,-3.720485491530407,-3.4429665144967876,-3.10374078872209
1770452779620,125,-3,-2.8716114104898107,-2.2855677970881754,-2.256461119096332
1770452779624,126,-2,-2.0840094924283026,-1.2204739466773369,-1.4699307065381786
1770452779628,126,-2,-1.5539648669398891,-1.3055640572219374,-0.939852743109013
1770452779632,127,-1,-1.314602060030964,-0.5326659619713026,-0.6994019186592831
1770452779636,127,-1,-1.238695440051811,-0.4576540240319519,-0.621565791050857
1770452779640,126,-2,-1.138347820942456,-1.2475333608168495,-0.5187785026548076
1770452779644,127,-1,-0.8869322562851116,-0.2624627670473806,-0.265533583021569
1770452779648,128,0,-0.4732728303585581,0.7461227290038762,0.1477675661772751
1770452779652,128,0,0.0312421357341969,0.3681321279178769,0.6496541521372382
1770452779656,128,0,0.5269842224388972,0.676810963008087,1.1426546831909623
1770452779660,129,1,0.9109560173886736,1.5968977710413903,1.5259686835602455
1770452779664,129,1,1.10001616970347,1.8989478907055952,1.7164569290942442
1770452779668,129,1,1.0840435354841658,1.6041429416298143,1.7023777376637703
1770452779672,129,1,0.9684255670243722,1.4399085885851477,1.5878332942255358
1770452779676,129,1,0.9426530006366968,1.680244296734493,1.5621870249180645
1770452779680,129,1,1.175980807486384,1.5077055723721546,1.7951943954488143
1770452779684,129,1,1.712173846089971,2.080299103047417,2.330892788459507
1770452779688,131,3,2.444262988549404,3.353971437850213,3.062033689457434
1770452779692,131,3,3.189846401334369,3.7173680893474086,3.8059879214710266
1770452779696,132,4,3.8045786051264288,4.383073058911636,4.419054381935814
1770452779700,132,4,4.2443129217732745,4.7942623396536295,4.8583364570853345
1770452779704,132,4,4.544147486882247,4.823789783124657,5.159452525663387
1770452779708,133,5,4.7593242903653925,5.5641548934393334,5.376590286045824
1770452779712,133,5,4.9273655420376,5.556165089632013,5.545379568520775
1770452779716,133,5,5.064029191917715,5.4711333728053315,5.680425281930917
1770452779720,133,5,5.167203048621949,5.78226516179117,5.780149270790626
1770452779724,133,5,5.214319736960007,5.761522763878465,5.823974757872164
1770452779728,133,5,5.168626180771409,5.6873437170601795,5.777358277707863
1770452779732,133,5,5.013129953265855,5.380630460640258,5.623910952073014
1770452779736,133,5,4.8029814386868575,5.66378348931595,5.416825509668135
1770452779740,133,5,4.686537815973894,5.593733911929877,5.301457647102324
1770452779744,132,4,4.833879031515924,4.920576765937868,5.44667371414223
1770452779748,133,5,5.280546822401627,5.579261853391813,5.889455583323487
1770452779752,134,6,5.810510765876548,6.410726046368698,6.41595449555669
1770452779756,134,6,6.023619586969971,6.711535627104416,6.626979206403871
1770452779760,134,6,5.585354351112781,6.4639070028299805,6.187861447482863
1770452779764,132,4,4.47224629368918,5.127267173399734,5.075051576179759
1770452779768,131,3,3.0033311499673436,3.290261231503929,3.6077062382092464
1770452779772,129,1,1.623928608222417,1.737644613404525,2.2303307083234576
1770452779776,129,1,0.6186349317065525,1.3667879146705584,1.2253892544050848
1770452779780,128,0,-0.0249537438158031,0.8160617282086249,0.5788084433752103
1770452779784,127,-1,-0.53192640956062,-0.1834888413245142,0.0664157465155523
1770452779788,127,-1,-1.144711922368296,-0.4724948630917445,-0.5511435615020921
1770452779792,126,-2,-1.9701105463562911,-1.448296339493206,-1.3781434288811614
1770452779796,125,-3,-2.9424368532572363,-2.5297205107616194,-2.348887827381028
1770452779800,124,-4,-3.885052589333682,-3.1997256496196385,-3.2888245901023065
1770452779804,123,-5,-4.611707411597883,-4.211045777374858,-4.0141684618024165
1770452779808,123,-5,-5.012574318280272,-4.4385726451389464,-4.4165759864669
1770452779812,123,-5,-5.093501175721759,-4.482716447840639,-4.501835313023495
1770452779816,123,-5,-4.963190339599399,-4.5470569404349455,-4.376978000988549
1770452779820,123,-5,-4.781377670814318,-4.100012271039981,-4.1990660686928205
1770452779824,123,-5,-4.686972855419261,-4.370294000134403,-4.105046088024563
1770452779828,123,-5,-4.72522069746103,-4.25053306386039,-4.140809041525827
1770452779832,124,-4,-4.804006040500764,-3.70775110094897,-4.217329764639618
1770452779836,123,-5,-4.727869600400798,-4.334527599833561,-4.141940239253328
1770452779840,123,-5,-4.334427121444866,-4.265347311346154,-3.752370307744177
1770452779844,124,-4,-3.660446672656424,-3.2372188346631328,-3.08345827275912
1770452779848,125,-3,-2.983654050359187,-2.358638613913615,-2.41106732689609
1770452779852,126,-2,-2.6577852968419133,-1.6560120118331834,-2.0878245054566658
1770452779856,125,-3,-2.850802826195718,-2.345740009739261,-2.2810059087843384
1770452779860,124,-4,-3.4030067398052433,-3.287280859071477,-2.8313423188879834
1770452779864,124,-4,-3.921486977584848,-3.1826581612059175,-3.348272785371472
1770452779868,124,-4,-4.034254624476294,-3.448493007677641,-3.4624861947217926
1770452779872,124,-4,-3.6243344232780825,-3.5659751210921846,-3.057193476184234
1770452779876,125,-3,-2.8940806789655147,-2.411932315852328,-2.332227665622301
1770452779880,126,-2,-2.2160342173536036,-1.243354573854278,-1.6576112929281146
1770452779884,126,-2,-1.866454100266564,-1.1978403934099933,-1.3091647827961437
1770452779888,126,-2,-1.8396880960791968,-1.488819954625067,-1.282454451700246
1770452779892,126,-2,-1.8934020938158775,-1.499444113723108,-1.336565785988102
1770452779896,126,-2,-1.7819938275671778,-1.513171708318013,-1.2266387658595723
1770452779900,126,-2,-1.472325814485116,-1.0918426646636543,-0.91952261745775
1770452779904,127,-1,-1.1572493637775094,-0.3810168871732436,-0.6076332945397465
1770452779908,127,-1,-1.0651869403252148,-0.2863622705260547,-0.5188061998494039
1770452779912,127,-1,-1.2442778711308051,-0.7475200157847661,-0.7005151870911133
1770452779916,126,-2,-1.5172073874142082,-1.2431855105576466,-0.974963096584632
1770452779920,126,-2,-1.641115853163703,-1.3760552005649769,-1.0995249312927342
1770452779924,126,-2,-1.518563253345714,-1.0726548815705934,-0.9778561243598838
1770452779928,127,-1,-1.2683987854753045,-0.6134942712436532,-0.7300232029091621
1770452779932,127,-1,-1.1055059543909196,-0.418808447272449,-0.5711171047328927
1770452779936,127,-1,-1.1534018664790806,-0.5916403951105491,-0.6233886688386581
1770452779940,126,-2,-1.360721592019322,-1.0117076792245714,-0.8336158436523426
1770452779944,126,-2,-1.578689159451508,-1.4539886489923972,-1.052340249414055
1770452779948,126,-2,-1.7005491263896355,-1.218745347056322,-1.1742328946561773
1770452779952,127,-1,-1.7215248099851503,-0.8313291475919347,-1.1967071901890816
1770452779956,126,-2,-1.6847898030437245,-1.1746810107401984,-1.1634406333054834
1770452779960,126,-2,-1.6047694984735772,-1.4233556822990538,-1.0872384516106497
1770452779964,126,-2,-1.4589803345215586,-1.0631358191797262,-0.9441474797761024
1770452779968,127,-1,-1.2376636241465302,-0.5906344071444029,-0.7248558905305607
1770452779972,127,-1,-0.9808047333759192,-0.4968400130494478,-0.4705587096899163
1770452779976,127,-1,-0.7682030619874346,-0.4631300993592123,-0.2610040186804709
1770452779980,127,-1,-0.6801001953329604,-0.1823598926972743,-0.1753173923469898
1770452779984,127,-1,-0.754383618390297,-0.2703585592848656,-0.2510763800980952
1770452779988,127,-1,-0.960243802325864,-0.4269289396706585,-0.4585883994351198
1770452779992,127,-1,-1.2121199946231642,-0.6362375680264651,-0.7133590093190223
1770452779996,126,-2,-1.4325887427977586,-1.325309522023008,-0.9375993120148152
1770452780000,126,-2,-1.6223916598854768,-1.340949573755588,-1.1308555830585405
1770452780004,126,-2,-1.8632171071660688,-1.0772642101712635,-1.3742953901261556
1770452780008,126,-2,-2.22920736595971,-1.686807042601878,-1.742459459206283
1770452780012,125,-3,-2.683590387460349,-2.3033581904890887,-2.198976971072148
1770452780016,125,-3,-3.068071842404535,-2.725571033032226,-2.585582653483792
1770452780020,124,-4,-3.2060699760329876,-2.896142472805054,-2.7257994514294244
1770452780024,125,-3,-3.031481182832954,-2.555314179124121,-2.553850154206444
1770452780028,125,-3,-2.635691732984174,-2.2067074889419,-2.161269660558649
1770452780032,126,-2,-2.2007931124375184,-1.7515070568478344,-1.729974177789131
1770452780036,126,-2,-1.876937684290404,-1.3354131083273832,-1.4098555733196845
1770452780040,126,-2,-1.69769697328121,-1.220902041244638,-1.2341183342119773
1770452780044,126,-2,-1.5915636250235907,-1.3327176294918863,-1.1306342156573423
1770452780048,126,-2,-1.4664896072316302,-1.3275996642556556,-1.007038163998628
1770452780052,127,-1,-1.2806946904012215,-0.7224716475583199,-0.8223550303535988
1770452780056,127,-1,-1.034764106870617,-0.2799688433362404,-0.5785927927132211
1770452780060,127,-1,-0.7167055148567929,-0.3458866419064533,-0.2641513578853643
1770452780064,127,-1,-0.2903740712311987,-0.1840333372005484,0.1581849506363377
1770452780068,128,0,0.243848997966328,0.5181845531182852,0.6889832069110695
1770452780072,129,1,0.792414655717107,1.408373826683269,1.2342941820456532
1770452780076,129,1,1.2004782538166403,1.6447718096043424,1.638492885602606
1770452780080,129,1,1.359871132270159,1.6591589898606656,1.7938361647030123
1770452780084,129,1,1.3019839622221696,1.8616363421422697,1.7331670613223285
1770452780088,129,1,1.2020991997027008,1.412436577271838,1.6325083789372887
1770452780092,129,1,1.2953139120050978,1.5459185486885594,1.725831334924404
1770452780096,130,2,1.7581164795020785,2.5206665179528818,2.187427574742649
1770452780100,130,2,2.6135418188763513,2.7528100171973664,3.0389604942564548
1770452780104,131,3,3.695274006052175,3.800430452041121,4.114544257038623
1770452780108,133,5,4.689911454969932,5.41521662692602,5.102451596033753
1770452780112,133,5,5.255868413014148,5.589545437160865,5.663090050520593
1770452780116,133,5,5.172557958822794,5.442117164535841,5.577379202430315
1770452780120,132,4,4.442763744365346,4.864703644046289,4.847990107864316
1770452780124,131,3,3.295563496946669,3.635442192843333,3.7017059930643335
1770452780128,130,2,2.0885533292308107,2.600321696894305,2.493200920433922
1770452780132,129,1,1.1465733625592216,1.3978000820304457,1.5464887490967911
1770452780136,128,0,0.6059724240997548,0.6467728021757773,0.9999462427875772
1770452780140,128,0,0.3576766255121034,0.673776114012082,0.7470300400544334
1770452780144,128,0,0.1487341210539279,0.7832608437316598,0.5351953875042053
1770452780148,128,0,-0.214211204556974,0.4792189278849591,0.169668314099907
1770452780152,127,-1,-0.724344067572469,-0.5187849289151265,-0.343618597277305
1770452780156,126,-2,-1.223489751770097,-1.3841074423666269,-0.8459341049350717
1770452780160,126,-2,-1.584782800943236,-1.3579251525125584,-1.2098361293491209
1770452780164,126,-2,-1.838452436292645,-1.1350240270737766,-1.4659799753654743
1770452780168,126,-2,-2.1207084812918904,-1.6633950115638818,-1.7511148198477708
1770452780172,125,-3,-2.5187258331855755,-2.3139276568186244,-2.152245745280942
1770452780176,125,-3,-2.978961563868715,-2.6295104181959656,-2.6157196190846306
1770452780180,124,-4,-3.3610443257018905,-3.113409866986967,-3.001755614900756
1770452780184,124,-4,-3.5754084928936014,-3.3756939635707837,-3.220968812441286
1770452780188,124,-4,-3.676354906732215,-3.4525747439681345,-3.3262294640139265
1770452780192,124,-4,-3.823111410120529,-3.4592954625695898,-3.4748213312263885
1770452780196,124,-4,-4.127550226516291,-3.5541293896300656,-3.778786838593967
1770452780200,123,-5,-4.50901818947924,-4.138029880271596,-4.160671153002713
1770452780204,123,-5,-4.6922429041214535,-4.423214263060973,-4.348889971656577
1770452780208,123,-5,-4.374906330089655,-4.353845754830598,-4.041358878244674
1770452780212,124,-4,-3.427314365064692,-3.5692947082333153,-3.103856298567482
1770452780216,126,-2,-1.9187716073840704,-1.4454960509141932,-1.5996430128753778
1770452780220,128,0,0.1035573663694531,0.7743747840484855,0.4264600687175758
1770452780224,131,3,2.898961086807681,3.5975660766091533,3.230043881631201
1770452780228,135,7,7.043835395272147,7.6941476192916864,7.380488242054105
1770452780232,140,12,12.988739595559371,12.327664226749844,13.322998829883316
1770452780236,147,19,20.393333412344596,19.69726342850852,20.716389314261267
1770452780240,156,28,27.79017204874044,28.62214331499794,28.09665222564237
1770452780244,161,33,32.9958721601084,33.71793759780472,33.28664337281758
1770452780248,162,34,34.13455104267206,34.60424398971503,34.417030880803
1770452780252,159,31,30.634722809528057,31.35228221624791,30.919396634279476
1770452780256,151,23,23.546671644271708,23.66610093528687,23.841199110484304
1770452780260,142,14,14.989313723229865,14.632245907826888,15.294388870834634
1770452780264,134,6,7.104493302065119,6.733775722611506,7.414039295372934
1770452780268,129,1,1.1803701231123318,1.6354479582454555,1.485134126973043
1770452780272,126,-2,-2.580073788049969,-1.671090809579579,-2.2877747036146214
1770452780276,123,-5,-4.671941786244257,-4.313552391303646,-4.394404691851183
1770452780280,122,-6,-5.716341795472439,-5.415715272961258,-5.449555489479135
1770452780284,121,-7,-6.1347182692497615,-6.22449061644741,-5.87113956181602
1770452780288,121,-7,-6.168128156998657,-6.394884439427926,-5.901552515290268
1770452780292,122,-6,-6.027040754853204,-5.641053200925146,-5.756320997756769
1770452780296,122,-6,-5.926939562395315,-5.342705844576009,-5.655903348367162
1770452780300,122,-6,-5.980235068160624,-5.422416393701925,-5.71391798842312
1770452780304,121,-7,-6.114434488184054,-6.206789798303363,-5.854976556921617
1770452780308,121,-7,-6.15533933347115,-6.4251465784717015,-5.90126362374428
1770452780312,122,-6,-6.010013715681359,-5.590653182890917,-5.758900212317025
1770452780316,122,-6,-5.761605614474559,-5.397198520534185,-5.512584805965251
1770452780320,122,-6,-5.584297813715922,-5.383054303456225,-5.337914537503623
1770452780324,122,-6,-5.571651360602959,-5.245119953428502,-5.328390262373891
1770452780328,122,-6,-5.64303654024748,-5.395742978560697,-5.402774605665694
1770452780332,122,-6,-5.607941844600976,-5.62451051775702,-5.37052137983041
1770452780336,122,-6,-5.328046417219825,-5.335925175433718,-5.093783268401763
1770452780340,123,-5,-4.8364488313882665,-4.492563661009854,-4.605925835528902
1770452780344,123,-5,-4.311056162789315,-4.082831436517544,-4.084486988150937
1770452780348,124,-4,-3.925502604418102,-3.6260824269754415,-3.7023337684363296
1770452780352,124,-4,-3.70757258122272,-3.330156659355432,-3.4867740041381685
1770452780356,124,-4,-3.527332814543981,-3.6865604391483178,-3.308228239562738
1770452780360,124,-4,-3.22343390027987,-3.1210995436393625,-3.0064047664954674
1770452780364,125,-3,-2.757157838777043,-2.4504411035417353,-2.543529074398939
1770452780368,125,-3,-2.262767298955435,-2.298522164656988,-2.0538421153304487
1770452780372,126,-2,-1.9519826290962792,-1.5811946024905978,-1.7480166754999231
1770452780376,126,-2,-1.9481540302736975,-1.5332499832422477,-1.7480372752098048
1770452780380,125,-3,-2.179824309880126,-2.192187100164675,-1.9816218825019245
1770452780384,125,-3,-2.41557671162194,-2.469508560470193,-2.21776019293793
1770452780388,125,-3,-2.4082138885210407,-2.210369516947391,-2.2109500186955544
1770452780392,126,-2,-2.0356085475771666,-1.7037963263209108,-1.8408817568619915
1770452780396,126,-2,-1.3485985453112983,-1.394463920359529,-1.158733287322491
1770452780400,127,-1,-0.520294321261656,-0.3306303306297637,-0.3361735473682282
1770452780404,128,0,0.2515498167955992,0.6296860073138211,0.431030372115751
1770452780408,128,0,0.8309357909294148,0.7300772558663035,1.0079486938501
1770452780412,129,1,1.1826858259101884,1.3145558896096436,1.3588578499726671
1770452780416,129,1,1.3611910828438727,1.6281850375436415,1.53643868167286
1770452780420,129,1,1.4683483138654914,1.605807318559911,1.6412000297785927
1770452780424,129,1,1.5998110481668493,1.6981621108570522,1.76896204000169
1770452780428,129,1,1.7984409168425164,1.6776214243017795,1.96382041622625
1770452780432,130,2,2.0442130170616037,2.327441326318775,2.206500696162351
1770452780436,130,2,2.295492224031451,2.686108962127439,2.4551145971880657
1770452780440,130,2,2.5465870631303047,2.45431880887896,2.703609176001011
1770452780444,130,2,2.8409979146489173,2.9250202811253976,2.9956403412167436
1770452780448,131,3,3.2242825352652287,3.382327320554211,3.37692916826541
1770452780452,131,3,3.685269086964656,3.6627182232924658,3.8358540415840734
1770452780456,132,4,4.143537002394115,4.353721812532236,4.291216135112013
1770452780460,132,4,4.49236493557569,4.749194297210754,4.636119983140721
1770452780464,132,4,4.656281238833007,4.673982075294929,4.7960319370245195
1770452780468,132,4,4.618265951882405,4.557415765607348,4.7552627184334995
1770452780472,132,4,4.411539204283097,4.568815302573712,4.547387663939581
1770452780476,132,4,4.103533557177528,4.374308749025227,4.238774530185094
1770452780480,131,3,3.7856847258507096,3.793069935859125,3.91935742241094
1770452780484,131,3,3.552748388523995,3.5711975664974647,3.683225313251063
1770452780488,131,3,3.461053170562368,3.678469356308877,3.587370350954048
1770452780492,131,3,3.4881811826630824,3.4580624929064188,3.610900117345065
1770452780496,131,3,3.5319229455228096,3.451648546742578,3.65271375168049
1770452780500,131,3,3.4657205013760946,3.779346141046573,3.5857319366354803
1770452780504,131,3,3.22142012851163,3.4893126021917915,3.3400315930960685
1770452780508,130,2,2.829765616408106,2.837988840769062,2.94530081698925
1770452780512,130,2,2.3690218434642474,2.229543805360674,2.480689968214248
1770452780516,129,1,1.8629973339917685,1.7283229240651892,1.9717175099262632
1770452780520,129,1,1.2406354670352835,1.4885218595238154,1.3478578968120594
1770452780524,128,0,0.4195574227546974,0.7562430276883751,0.5257161292228947
1770452780528,127,-1,-0.5607591773086726,-0.3951124747386179,-0.4563044451241282
1770452780532,126,-2,-1.502597345916942,-1.5888574512145597,-1.400394446149314
1770452780536,125,-3,-2.1711011182742004,-2.4063687036333543,-2.0709546704148876
1770452780540,125,-3,-2.472872898660524,-2.4114944000052847,-2.374472866986246
1770452780544,125,-3,-2.5278062380394095,-2.328914851751851,-2.431549573542493
1770452780548,125,-3,-2.5704546005784867,-2.304280488199479,-2.4771919085744156
1770452780552,125,-3,-2.7757224650222194,-2.7045673783303985,-2.685714476525262
1770452780556,124,-4,-3.1607221514584314,-3.2745964757750397,-3.0731372493689344
1770452780560,124,-4,-3.6274150470613273,-3.5670354365480517,-3.540957323423676
1770452780564,123,-5,-4.079970400222468,-4.175364363280903,-3.9939430586738256
1770452780568,123,-5,-4.4996763184707795,-4.423280581976278,-4.414536578259046
1770452780572,123,-5,-4.918799349673252,-4.643389172836868,-4.835829189177161
1770452780576,122,-6,-5.336845180333442,-5.2608838924703525,-5.257107022540542
1770452780580,122,-6,-5.67491628163753,-5.688224044001674,-5.59818928258576
1770452780584,121,-7,-5.819744281415884,-5.953723942929863,-5.744485191545822
1770452780588,122,-6,-5.712726242078198,-5.730096819045612,-5.637455454727517
1770452780592,122,-6,-5.3915234246581685,-5.2695255536327075,-5.316500180760176
1770452780596,123,-5,-4.945092494414515,-4.668890412670363,-4.872356832588329
1770452780600,123,-5,-4.439494395792303,-4.297210732783309,-4.370782958363161
1770452780604,123,-5,-3.900388402222345,-4.309314682526503,-3.8350339211357114
1770452780608,124,-4,-3.360825553486742,-3.4379510750804942,-3.296222057134607
1770452780612,125,-3,-2.89448655908783,-2.4871751071161032,-2.828795131824665
1770452780616,125,-3,-2.574579531107331,-2.5166779116064673,-2.5086336144229664
1770452780620,125,-3,-2.4044275443837173,-2.4132917309221855,-2.3408446455210035
1770452780624,125,-3,-2.3134271339622146,-2.2135012452635054,-2.254050779548456
1770452780628,125,-3,-2.236189163036682,-2.5571856964275668,-2.180425683811134
1770452780632,125,-3,-2.1864850037595773,-2.3221350220997277,-2.1319755615219944
1770452780636,126,-2,-2.2275343401410375,-1.7276493778351365,-2.172293208518504
1770452780640,125,-3,-2.3501910578814247,-2.1577543672650363,-2.293985111575792
1770452780644,125,-3,-2.3920952227531664,-2.5185934374901056,-2.336015310205126
1770452780648,125,-3,-2.1177463676811623,-2.2323570654533293,-2.0630967789800687
1770452780652,126,-2,-1.4211965939015925,-1.6571644456579648,-1.3690325721573506
1770452780656,127,-1,-0.4729866627681559,-0.3907695053136996,-0.4241265953508996
1770452780660,128,0,0.3373993999657465,0.536433361517864,0.3826824995298992
1770452780664,128,0,0.6403925069602785,0.7291588897066678,0.6829724280629665
1770452780668,128,0,0.3290527166316286,0.5633053745814091,0.371079216562402
1770452780672,127,-1,-0.3778026035945538,-0.5213455031925656,-0.3338414554978501
1770452780676,126,-2,-1.0936288260784224,-1.4677369852565303,-1.0467374292715812
1770452780680,126,-2,-1.5144021534500731,-1.4163344130906734,-1.4665064085679873
1770452780684,126,-2,-1.5763901662797375,-1.29746035561904,-1.531505295444206
1770452780688,126,-2,-1.4365794801152725,-1.4226405460753555,-1.3975945400321337
1770452780692,126,-2,-1.3343306122592322,-1.5496483071268286,-1.3003319982424
1770452780696,126,-2,-1.4426696017498544,-1.421194778890698,-1.409788884194081
1770452780700,126,-2,-1.7751978722442583,-1.4940738649413805,-1.7400772525258157
1770452780704,125,-3,-2.17512861334498,-2.1793585726430154,-2.1373034732320284
1770452780708,125,-3,-2.3987402783104774,-2.5961146609726793,-2.360096048748807
1770452780712,125,-3,-2.2639778657979384,-2.3258004713662155,-2.226764550995301
1770452780716,126,-2,-1.774696513167482,-1.7039944816363255,-1.7401692543617109
1770452780720,126,-2,-1.1305492737053324,-1.1481967616605524,-1.098791982642688
1770452780724,127,-1,-0.6131248127321681,-0.5738131729231407,-0.583556560273287
1770452780728,127,-1,-0.4292213502622002,-0.1750646729476433,-0.4010958121463979
1770452780732,127,-1,-0.6175663971968426,-0.7749335401612785,-0.5900516304399477
1770452780736,126,-2,-1.0706055802431098,-1.2736662781961916,-1.042744694505363
1770452780740,126,-2,-1.6310751961372514,-1.5241743764394793,-1.6022302803232225
1770452780744,125,-3,-2.1718242215974204,-2.2734877554118977,-2.1423930110645166
1770452780748,125,-3,-2.6054421525299007,-2.3745720416188436,-2.5768285128095196
1770452780752,125,-3,-2.855202142476009,-2.6990676722620144,-2.8286325169424154
1770452780756,124,-4,-2.8560647954997096,-3.24326344953747,-2.831392250708476
1770452780760,125,-3,-2.603129132590676,-2.6491570106070896,-2.5791619753050945
1770452780764,125,-3,-2.1885388275978173,-2.0648284146261338,-2.164622086583255
1770452780768,126,-2,-1.7663736880733163,-1.642223742446467,-1.743158622300879
1770452780772,126,-2,-1.4655439215424135,-1.408692592452267,-1.4438996494455612
1770452780776,126,-2,-1.329580673119443,-1.5469703875248064,-1.3091772224883542
1770452780780,126,-2,-1.3266156864267815,-1.369573827719548,-1.3061384016722033
1770452780784,126,-2,-1.396623737623744,-1.2983683072066696,-1.3753335035666017
1770452780788,126,-2,-1.4815157197074442,-1.4585125308170452,-1.4601471839108937
1770452780792,126,-2,-1.5269959389754055,-1.5463972438219185,-1.506912976283031
1770452780796,126,-2,-1.4842925166228136,-1.4582488214400386,-1.465908516368717
1770452780800,126,-2,-1.3295585870271602,-1.4377170717797112,-1.3118190267723129
1770452780804,126,-2,-1.0833444465895112,-1.23343855871148,-1.0649358797195398
1770452780808,127,-1,-0.8017297200313074,-0.5261375988403915,-0.7827472343906083
1770452780812,127,-1,-0.5420752592953746,-0.4659907743252475,-0.5241443472082419
1770452780816,127,-1,-0.3425206135296776,-0.5746639699633522,-0.3270493670038242
1770452780820,127,-1,-0.2390981106438189,-0.2973860690623464,-0.2256652823056979
1770452780824,127,-1,-0.285599815478301,-0.4000437103522418,-0.2723705308835966
1770452780828,127,-1,-0.5215119791080756,-0.3352112030106569,-0.507091715300829
1770452780832,127,-1,-0.8966414125379246,-0.663579980858093,-0.8811662461923966
1770452780836,126,-2,-1.2373285430837733,-1.397505115016091,-1.221757350408095
1770452780840,126,-2,-1.324584247867593,-1.4601623814825482,-1.30943843180499
1770452780844,126,-2,-1.0451805260018192,-1.2629898240521522,-1.0304580709008688
1770452780848,127,-1,-0.4867992195269175,-0.4384041432470762,-0.4729644034782331
1770452780852,128,0,0.1157916794697332,0.4270257165970949,0.1274944363163674
1770452780856,128,0,0.5428920191792079,0.5060700128365765,0.5517489971999053
1770452780860,128,0,0.7255443684648938,0.6302248650896279,0.7329086242662021
1770452780864,128,0,0.7589830565884046,0.6195238226823485,0.767832638100193
1770452780868,128,0,0.8171752852785801,0.7188581590387512,0.8295408321015066
1770452780872,129,1,1.059912713650455,1.2339488428819625,1.074683800663946
1770452780876,129,1,1.585131471782669,1.7496011131288007,1.598828122924224
1770452780880,130,2,2.4044738600384186,2.3177238590880576,2.4144982134783697
1770452780884,130,2,3.412621613890467,2.977215148311164,3.419492838935533
1770452780888,132,4,4.384817543060309,4.327043717859677,4.390947127883451
1770452780892,133,5,5.062105281640431,5.645834384863621,5.068999049889553
1770452780896,133,5,5.297241690495523,5.355838728992739,5.30471868224768
1770452780900,132,4,5.135946148039306,4.640571302173185,5.143561956684033
1770452780904,132,4,4.75065869483079,4.727780213901069,4.758517942272738
1770452780908,132,4,4.29318285580051,4.469060794517687,4.3011802915207085
1770452780912,131,3,3.803051061180691,3.634735837912935,3.810374424592598
1770452780916,131,3,3.232054358018936,3.2691378461691247,3.237978473715241
1770452780920,130,2,2.5344698591430532,2.795315955310566,2.539289802017874
1770452780924,129,1,1.7337352182631198,1.5007847957974696,1.7385478498743585
1770452780928,128,0,0.9153418251776432,0.7108089125950413,0.9207914979962346
1770452780932,128,0,0.1654226864088896,0.4342215468954035,0.1707918629061493
1770452780936,127,-1,-0.4854596994942675,-0.5811743943595523,-0.4815296257413404
1770452780940,126,-2,-1.0715402267623206,-1.2857256030470052,-1.06932426108206
1770452780944,126,-2,-1.6523464041576583,-1.526924086916317,-1.6504463589711649
1770452780948,125,-3,-2.249492257235534,-2.1801257155313136,-2.246208879286799
1770452780952,125,-3,-2.8043390078806594,-2.7300758542402503,-2.7994618443209336
1770452780956,124,-4,-3.203204215351273,-3.353428444318895,-3.198412484813492
1770452780960,124,-4,-3.36998084220497,-3.564054107219883,-3.367577881347077
1770452780964,124,-4,-3.355326383432073,-3.251048361004814,-3.3562692180331175
1770452780968,124,-4,-3.3343082192473625,-3.4536547008005325,-3.3369960849533324
1770452780972,124,-4,-3.49095279279359,-3.4586464441241973,-3.4921132999952165
1770452780976,124,-4,-3.8637810594915982,-3.587828707456795,-3.861320101061102
1770452780980,123,-5,-4.273148358870992,-4.379610194813129,-4.268583672218254
1770452780984,123,-5,-4.407384990154565,-4.437495628556775,-4.405138425345388
1770452780988,123,-5,-4.0242677281454675,-4.263119290267067,-4.027906079420006
1770452780992,124,-4,-3.106320947278878,-3.650611339590258,-3.1151440477240144
1770452780996,126,-2,-1.8070092464766645,-1.3486814781352627,-1.816297515608372
1770452781000,128,0,-0.1905934764194856,0.333869791040258,-0.1952160016498768
1770452781004,129,1,2.008492620087676,1.8419570124658815,2.010411323126301
1770452781008,133,5,5.324375880775808,5.457207159278516,5.330528155086525
1770452781012,137,9,10.13628466041324,9.629334118276834,10.14208768324016
1770452781016,143,15,16.16084513857202,15.403992837341445,16.162029848106553
1770452781020,150,22,22.287915528565826,22.56453498349933,22.281826528236166
1770452781024,155,27,26.97860198542017,27.598218537576862,26.96473878769997
1770452781028,157,29,29.00519268971951,29.66987420492334,28.9864129573814
1770452781032,155,27,28.018585010712687,27.44003629724297,28.00137939262749
1770452781036,151,23,24.575581471493223,23.532684335509632,24.566384434265164
1770452781040,148,20,19.71007845154637,20.488615264278316,19.70962499939781
1770452781044,142,14,14.430011693290414,14.62143954808064,14.43239164178937
1770452781048,136,8,9.43045428762315,8.704668552694383,9.428699919180824
1770452781052,133,5,5.057652396846057,5.409210750260269,5.049418206496454
1770452781056,129,1,1.423588424211594,1.5389542643046132,1.411170067632067
1770452781060,126,-2,-1.444224883594203,-1.507764685865478,-1.457625212467073
1770452781064,124,-4,-3.5211976572898767,-3.396423428913004,-3.533929057014544
1770452781068,122,-6,-4.817876072536728,-5.250157083650037,-4.829653337921178
1770452781072,122,-6,-5.462212872696038,-5.655081325654879,-5.473373662218736
1770452781076,122,-6,-5.710807485066738,-5.382691040166184,-5.722289850985155
1770452781080,122,-6,-5.841964549116691,-5.634755687756108,-5.855057481014822
1770452781084,121,-7,-6.017830650171505,-6.2271264359283105,-6.033070007990967
1770452781088,121,-7,-6.241849297177158,-6.447165817780028,-6.258328542575755
1770452781092,121,-7,-6.434860602654839,-6.443526870560329,-6.451052936869119
1770452781096,121,-7,-6.536108167254241,-6.612940447021251,-6.551276530002781
1770452781100,121,-7,-6.534340334611985,-6.41120287829597,-6.549021819414043
1770452781104,121,-7,-6.426654904001484,-6.43042018056469,-6.44204177569507
1770452781108,121,-7,-6.176139891319706,-6.259602382246557,-6.1931505465319105
1770452781112,122,-6,-5.7300156558165,-5.616677404584891,-5.7486679209828635
1770452781116,122,-6,-5.090955386658276,-5.471690253114502,-5.110430383134474
1770452781120,123,-5,-4.370287382122034,-4.53844832587848,-4.389872763957291
1770452781124,124,-4,-3.7531234779048934,-3.3054727728982067,-3.773202235359288
1770452781128,124,-4,-3.386219380019293,-3.3720366067920233,-3.407864433663873
1770452781132,124,-4,-3.2863773452491367,-3.5299584251836635,-3.309790675338252
1770452781136,124,-4,-3.352439473064827,-3.544138682841677,-3.3763897466858395
1770452781140,124,-4,-3.453415490968955,-3.516319182471257,-3.476594665297469
1770452781144,124,-4,-3.4955239747468307,-3.2583516633515384,-3.5179797413512204
1770452781148,124,-4,-3.421987717592615,-3.4679819578364097,-3.4448048250658485
1770452781152,124,-4,-3.188399622054696,-3.384942169137589,-3.212408458968671
1770452781156,125,-3,-2.769031467908368,-2.759294440660603,-2.794391658499845
1770452781160,125,-3,-2.191417593609047,-2.2610898588845645,-2.218183095826518
1770452781164,126,-2,-1.5553631802266503,-1.5467610392966256,-1.5837174598659225
1770452781168,126,-2,-1.0067287201960058,-1.1153530871359658,-1.0365285225269183
1770452781172,127,-1,-0.6721856856638786,-0.8037705799415357,-0.7027464048212113
1770452781176,127,-1,-0.5871709842959832,-0.3111444198715766,-0.6177098045396107
1770452781180,127,-1,-0.6628959905077381,-0.755075061109538,-0.6929810632369208
1770452781184,126,-2,-0.7274351551902181,-1.0244252071379394,-0.7571063361959065
1770452781188,127,-1,-0.6251685907419119,-0.6062978377507353,-0.6550788856951847
1770452781192,127,-1,-0.304676866810888,-0.3691421029817437,-0.3360512695819193
1770452781196,128,0,0.1670375196690205,0.3038989486148094,0.1332736431249905
1770452781200,128,0,0.6604179266628393,0.5500190936710678,0.6247343299662185
1770452781204,128,0,1.058599515863883,0.752720337266582,1.0225219762944748
1770452781208,129,1,1.311468043273108,1.5654361613197851,1.275763797048023
1770452781212,129,1,1.453151875776066,1.4951983765227213,1.416907179274228
1770452781216,129,1,1.5726134694875331,1.3858587468205903,1.534719824513744
1770452781220,129,1,1.7436138114056854,1.4950114550697866,1.7046860071784624
1770452781224,129,1,1.9669228923244704,1.791687940957862,1.9287442624044953
1770452781228,130,2,2.188698569988308,2.558527140127365,2.151688973560306
1770452781232,130,2,2.381648153237528,2.481328107911675,2.3438068736462485
1770452781236,130,2,2.5878071996809533,2.387144390365906,2.546773208410968
1770452781240,130,2,2.8524922950312024,2.4942313309372808,2.808211021058316
1770452781244,130,2,3.1182355842853995,2.774115634218827,3.0729095865049607
1770452781248,131,3,3.225527046997518,3.630418284330739,3.181100988887693
1770452781252,131,3,3.062782122452378,3.3516107934569455,3.019264419377823
1770452781256,130,2,2.723190952971096,2.5731723942916913,2.6795999679825764
1770452781260,130,2,2.4842183212174067,2.205277044628303,2.440238473956326
1770452781264,129,1,2.5964285538893925,2.163685558723408,2.552251476375964
1770452781268,131,3,3.069113579388534,3.154616000658646,3.024000710366098
1770452781272,131,3,3.6495499630269865,3.935195915868493,3.60173260214892
1770452781276,132,4,4.007415620036801,3.903444939719612,3.956043690012915
1770452781280,131,3,3.957856961813041,3.884614949194823,3.9046120976782017
1770452781284,131,3,3.551796058011295,3.496318794769545,3.4998853283259805
1770452781288,130,2,2.9969994419281107,2.7557996909858584,2.9483047620762663
1770452781292,130,2,2.5000123079477388,2.4758214707888,2.453227270108528
1770452781296,130,2,2.145592588717834,2.2019241821693525,2.097176365032306
1770452781300,129,1,1.873112003390536,1.730793788479366,1.8202522888425483
1770452781304,129,1,1.5373674266695487,1.4895655780859731,1.480327758705526
1770452781308,128,0,1.00633496935212,0.9013560851861742,0.9481208753616492
1770452781312,128,0,0.2488332637305619,0.2433207171446275,0.1925883313248442
1770452781316,127,-1,-0.628695631775291,-0.5056336487013617,-0.6821330625602233
1770452781320,126,-2,-1.4274735273907475,-1.615357919282859,-1.479834403583125
1770452781324,125,-3,-1.976879547326714,-2.1683583919410925,-2.0307475900458876
1770452781328,125,-3,-2.2606543028134625,-2.4034794304487157,-2.3175593240063543
1770452781332,125,-3,-2.4497106925858736,-2.4864291301351007,-2.509468756644454
1770452781336,125,-3,-2.7965680594972957,-2.7126736661720408,-2.8579379514145664
1770452781340,124,-4,-3.454282304804857,-3.506496382904226,-3.5160074709983027
1770452781344,123,-5,-4.35261145166107,-4.21244892766973,-4.413837158522572
1770452781348,122,-6,-5.2310483968609205,-5.423453810730531,-5.291070564703634
1770452781352,121,-7,-5.808873663415407,-6.39259286650439,-5.86732579125909
1770452781356,122,-6,-5.957519731297558,-5.850245963346131,-6.015431687424846
1770452781360,122,-6,-5.740184537066003,-5.352485784327433,-5.800172540255315
1770452781364,122,-6,-5.314780938014659,-5.39188816557269,-5.378868248691406
1770452781368,122,-6,-4.8205673203420325,-5.234367158116521,-4.8877111884855795
1770452781372,123,-5,-4.3422712331623154,-4.565246348978906,-4.409089750117214
1770452781376,124,-4,-3.924360263810256,-3.71138633136253,-3.988626514491103
1770452781380,124,-4,-3.5692432066106914,-3.457776428692364,-3.631893294788167
1770452781384,124,-4,-3.228074411158892,-3.347240001362405,-3.291528472025621
1770452781388,124,-4,-2.8380573055169975,-3.209321463512854,-2.903514830425112
1770452781392,125,-3,-2.395270943624829,-2.657970798300892,-2.4623240891673746
1770452781396,126,-2,-1.980186114004112,-1.5580621215620074,-2.048208780526614
1770452781400,126,-2,-1.6945877610735771,-1.6667069083695458,-1.7632073006676097
1770452781404,125,-3,-1.5735703182317726,-2.107334294948914,-1.6420321222304608
1770452781408,126,-2,-1.5600825207936098,-1.465347450220334,-1.6275434249364855
1770452781412,126,-2,-1.5532789977640071,-1.4090279640327832,-1.6200857807850055
1770452781416,126,-2,-1.4805459541645156,-1.7895231548553578,-1.548325835835295
1770452781420,126,-2,-1.348167195701711,-1.462912799836566,-1.4181959421952333
1770452781424,126,-2,-1.244531169815519,-1.269811099615823,-1.3163805156763928
1770452781428,126,-2,-1.2832314090340735,-1.369333874398463,-1.355228754276269
1770452781432,126,-2,-1.5108508419564102,-1.4323665598282556,-1.5816763991658596
1770452781436,126,-2,-1.8478799537102957,-1.8472059490466937,-1.917622648438165
1770452781440,125,-3,-2.1236499769177586,-2.331221573300265,-2.1934863640172564
