timestamp_ms,ecg_u8_raw,ecg_counts_raw_int,ecg_counts_filt_monitor,ecg_counts_filt_diagnostic,ecg_counts_filt_st
1768730085372,112,-16,-14.690083054046603,-13.78669659158967,-13.324679818767876
1768730085376,106,-22,-21.114087853416063,-19.740430575063694,-19.764066465401964
1768730085380,105,-23,-22.525189371274458,-20.763867708909196,-21.19899429553567
1768730085384,107,-21,-20.58192378960632,-18.878766955562597,-19.275705181976463
1768730085388,110,-18,-17.164628227948207,-15.799751508509464,-15.865876891708975
1768730085392,113,-15,-13.666905002875517,-12.80899591140744,-12.362034441412703
1768730085396,116,-12,-10.7798874294382,-9.683893607826503,-9.461862765315692
1768730085400,119,-9,-8.63919911674938,-6.894724209095576,-7.310605189550234
1768730085404,120,-8,-7.089807935431123,-5.732481669373708,-5.759097624616941
1768730085408,121,-7,-5.916510892274981,-5.007573519111986,-4.590786144189348
1768730085412,122,-6,-4.990565236260492,-3.5590854287685563,-3.671286247901455
1768730085416,123,-5,-4.306881482784922,-2.97234015052663,-2.991267221433187
1768730085420,123,-5,-3.9097823672806937,-2.6092940206535986,-2.5948061043248645
1768730085424,124,-4,-3.775900081082833,-2.0251718070057914,-2.460381843311979
1768730085428,123,-5,-3.7648783738716185,-2.7724452801694666,-2.4486590225007396
1768730085432,123,-5,-3.6887217916840993,-2.7478573889724425,-2.371443364461987
1768730085436,124,-4,-3.432700754463472,-1.8459910057613729,-2.114285596670076
1768730085440,124,-4,-3.01077522680261,-1.695777739840682,-1.692476035694633
1768730085444,125,-3,-2.5166937574391275,-1.0010772437580044,-1.2004469222024947
1768730085448,125,-3,-2.0426000294442654,-0.7760459307133565,-0.7289732327514438
1768730085452,125,-3,-1.647014820481183,-0.7894888838991045,-0.3343509323954663
1768730085456,126,-2,-1.3686524875320845,0.1987158373078226,-0.0546396726387379
1768730085460,126,-2,-1.2264492259778188,0.2593618114217202,0.0897476058899573
1768730085464,126,-2,-1.1886571343848278,-0.0083374319689939,0.128770453662149
1768730085468,126,-2,-1.1616296566971511,0.2721970571815317,0.1557041413928384
1768730085472,126,-2,-1.0402826704544514,0.0799880007374573,0.2764817873727878
1768730085476,126,-2,-0.7885389726039715,0.3680938205930824,0.5279332077696002
1768730085480,127,-1,-0.4737969879868703,1.061613405658711,0.8426602524536317
1768730085484,127,-1,-0.2172877560004625,1.1676233159172655,1.0991915772198566
1768730085488,127,-1,-0.1011688378489763,1.1138856887871555,1.2155021841522902
1768730085492,127,-1,-0.109781346789612,1.1642671256568669,1.2075645400753603
1768730085496,127,-1,-0.1453384202156948,1.3213412689731587,1.1732063958177852
1768730085500,127,-1,-0.0965156572301345,1.061533795194915,1.223520211147338
1768730085504,127,-1,0.0940926331589003,1.1800232580773522,1.415504334141057
1768730085508,128,0,0.4108396329089285,2.0878316519178477,1.73294174323905
1768730085512,128,0,0.8008772408136604,2.1448736639541512,2.122736682194845
1768730085516,128,0,1.221814881673042,2.3591125096273444,2.543172766621615
1768730085520,129,1,1.6533130527520274,2.9857884133080517,2.975052626011042
1768730085524,129,1,2.0770423108914993,3.2607394873974784,3.400434930802295
1768730085528,130,2,2.4690844433562056,3.991132709726088,3.7946533935631463
1768730085532,130,2,2.822917309625949,4.2019551584371735,4.150204121911262
1768730085536,130,2,3.1710276633887204,4.324783723805953,4.4992881055797955
1768730085540,131,3,3.5686987005339907,4.959367468009951,4.89757720206832
1768730085544,131,3,4.047202645526931,5.332995007213698,5.376849309988522
1768730085548,132,4,4.579350285511415,5.843905544282029,5.9101524506950245
1768730085552,132,4,5.091800332365372,6.384293683397158,6.424014970143477
1768730085556,133,5,5.5186528549298846,7.090018887304521,6.852243614040812
1768730085560,133,5,5.852351161780593,7.1989745882386,7.187249641505919
1768730085564,133,5,6.145069173080772,7.083897360900787,7.481497306678122
1768730085568,134,6,6.459097456599514,8.051336740723412,7.797431330505833
1768730085572,134,6,6.814243109557817,8.201582592050272,8.154642615359535
1768730085576,134,6,7.176888943020267,8.208800187926748,8.519158684111856
1768730085580,135,7,7.491088780933742,9.12146883198443,8.834729642357276
1768730085584,135,7,7.719237121186482,9.106604887131295,9.06370630329436
1768730085588,135,7,7.857038524829833,9.02289107439725,9.202361740462294
1768730085592,135,7,7.911723311262719,9.230214429630502,9.258855033897884
1768730085596,135,7,7.872336485469195,9.124440020379897,9.222480780615554
1768730085600,135,7,7.713619862087865,9.252446625365137,9.06703247440881
1768730085604,135,7,7.432494382179335,8.902408562408395,8.788196651089821
1768730085608,134,6,7.066131915141832,8.26079190336338,8.422947346501907
1768730085612,134,6,6.653757937194689,7.931479006533086,8.011472816774116
1768730085616,133,5,6.174128552290946,7.439230891068112,7.53350171296426
1768730085620,133,5,5.533263617612585,6.909152104487821,6.895061088943489
1768730085624,132,4,4.634074061327072,6.242177899619532,5.998415552161726
1768730085628,131,3,3.471207538135645,4.90715901426392,4.837943807254547
1768730085632,129,1,2.158165690641397,3.243588405213657,3.527490406645662
1768730085636,128,0,0.856520598634906,2.138826541792334,2.228697062523306
1768730085640,127,-1,-0.3256406340684736,1.1695329395374396,1.048973675930296
1768730085644,126,-2,-1.3752889978314076,0.0040399342200991,0.0008889247890344
1768730085648,125,-3,-2.334172796687493,-0.8898922591598759,-0.95654007757333
1768730085652,124,-4,-3.228565859129742,-1.971619726337933,-1.848331028658068
1768730085656,123,-5,-4.028492050431129,-2.6756178068003114,-2.644449209837913
1768730085660,123,-5,-4.658527359812148,-3.0174037986391617,-3.270823010686528
1768730085664,122,-6,-5.051240379770799,-3.825671644671191,-3.6611175856768474
1768730085668,122,-6,-5.214518318809666,-4.056899015743104,-3.822866398622383
1768730085672,122,-6,-5.2616082668569035,-3.85368735682036,-3.8683137752627457
1768730085676,122,-6,-5.358185334029286,-3.784785255966355,-3.962719705853261
1768730085680,122,-6,-5.607850921573617,-3.958148484130237,-4.209699852155584
1768730085684,121,-7,-5.97116000038089,-4.839048002181913,-4.569576203707081
1768730085688,121,-7,-6.2950967152218205,-5.122550729239208,-4.889265064800032
1768730085692,121,-7,-6.426029776617112,-4.753756650538383,-5.015965075322114
1768730085696,121,-7,-6.308981742998701,-4.956384123779313,-4.895848593234064
1768730085700,121,-7,-6.008028655897507,-4.752922171465019,-4.5932100829157445
1768730085704,122,-6,-5.655849140283855,-4.0606629070683695,-4.239833266433672
1768730085708,122,-6,-5.378624826759908,-3.936791109593123,-3.960753889310062
1768730085712,122,-6,-5.2414518787345905,-3.941835259478792,-3.820430902813264
1768730085716,122,-6,-5.2378002974976425,-3.821622339470372,-3.812498562043153
1768730085720,122,-6,-5.31426123620661,-3.859340570696234,-3.8844318798700694
1768730085724,122,-6,-5.4027709927548475,-3.983598337524685,-3.96921377370961
1768730085728,122,-6,-5.442642477168699,-4.020970897447475,-4.006549841559064
1768730085732,122,-6,-5.39417465719289,-3.88854833376751,-3.95608057378796
1768730085736,122,-6,-5.249232111072545,-3.903253094546168,-3.8085096918050487
1768730085740,122,-6,-5.032799303437933,-3.761374050943,-3.588353036281212
1768730085744,123,-5,-4.784050519525587,-3.114845379308104,-3.335561648606545
1768730085748,123,-5,-4.524669399014307,-2.878352039860345,-3.0728509623585865
1768730085752,123,-5,-4.248738184730431,-3.0926654851164797,-2.7942642364994787
1768730085756,123,-5,-3.953594379528979,-2.694383429751558,-2.4962777945114696
1768730085760,124,-4,-3.675744436663864,-1.9883104629634911,-2.21502635041573
1768730085764,124,-4,-3.4789277270722705,-1.897847121031412,-2.014648571468311
1768730085768,124,-4,-3.3987869474302577,-2.088084522151905,-1.9311101810058224
1768730085772,124,-4,-3.402815099176937,-1.955845890539491,-1.9317842866316663
1768730085776,124,-4,-3.4055563907000086,-1.8005278649458472,-1.931020394136683
1768730085780,124,-4,-3.32405466589347,-1.9521015094877057,-1.845801922877241
1768730085784,124,-4,-3.1293359787681565,-1.8668329069847864,-1.647282638660069
1768730085788,125,-3,-2.855466610552111,-1.1999738675978042,-1.3699577015427518
1768730085792,125,-3,-2.5603881873495107,-0.8191295331408197,-1.0720931790341277
1768730085796,125,-3,-2.2782388122383623,-1.0052425785710537,-0.787341427905738
1768730085800,125,-3,-2.0121246601353593,-0.7287932336569702,-0.5178427833679984
1768730085804,126,-2,-1.7652458066414722,-0.1001235098693307,-0.2666004554435734
1768730085808,126,-2,-1.561994674400549,0.0039848321247912,-0.0589314480258309
1768730085812,126,-2,-1.4326702860648672,-0.0239758458490833,0.0738591892169404
1768730085816,126,-2,-1.3859500495892283,0.1403327234051024,0.1230147561669641
1768730085820,126,-2,-1.4020023009731566,0.1512127333091801,0.1092695506643659
1768730085824,126,-2,-1.4494794070842638,-0.016411201309872,0.0651997801435371
1768730085828,126,-2,-1.5050749213382977,-0.0713545311261563,0.0145998275117569
1768730085832,126,-2,-1.553394324912339,0.0119243914813544,-0.0282397546245363
1768730085836,126,-2,-1.5670757950756578,0.082856898492464,-0.037992971573288
1768730085840,126,-2,-1.4993806439426802,0.2011819274001474,0.0313442437674531
1768730085844,126,-2,-1.323267323563876,-0.0721494234678203,0.2086461574914664
1768730085848,126,-2,-1.0932350453916069,-0.0388494131442862,0.4418742111793809
1768730085852,127,-1,-0.944461533598938,0.9690322411248716,0.5958549024296536
1768730085856,127,-1,-0.9843218282662568,1.0751493481170655,0.5608651694866753
1768730085860,126,-2,-1.167779137866558,0.2350531224818004,0.3805676611919415
1768730085864,126,-2,-1.307498658401896,-0.1495660228524133,0.2435948352935564
1768730085868,126,-2,-1.2366165246327616,0.048725949655882,0.3184671419698031
1768730085872,127,-1,-0.9619141533389466,0.8250831165219792,0.5977745701511437
1768730085876,127,-1,-0.6487342222825709,1.2293303597879568,0.9141883907077109
1768730085880,127,-1,-0.46432794220377,1.0668901613007222,1.100074893557737
1768730085884,127,-1,-0.4471288301153604,1.0016068305251302,1.1189904495886598
1768730085888,127,-1,-0.5159172231131082,0.8797501101350311,1.0541774613626398
1768730085892,127,-1,-0.5749350643966478,0.9370567679942472,1.0010622463154324
1768730085896,127,-1,-0.5919406563694001,1.146169534942972,0.9895211083538726
1768730085900,127,-1,-0.5874172824824369,1.1191236636329374,0.9971525370475418
1768730085904,127,-1,-0.580210423817427,0.9620258403290664,1.0055266384511397
1768730085908,127,-1,-0.5667598752511818,0.863218219458729,1.020360339663877
1768730085912,127,-1,-0.548514849189244,0.932778707755242,1.041838446082464
1768730085916,127,-1,-0.5532399649089004,1.138347316793203,1.0418402878504036
1768730085920,127,-1,-0.6061097734140453,1.1401582098031875,0.9935831381395336
1768730085924,127,-1,-0.6786169869429388,0.9154920369682706,0.9245840266148172
1768730085928,127,-1,-0.6839318112034996,0.8851015572104886,0.9221255237881204
1768730085932,127,-1,-0.5423299868772089,0.8601127578129575,1.066813021889147
1768730085936,127,-1,-0.2587411749001296,1.2221394168619824,1.3536329512617784
1768730085940,128,0,0.0681303123408403,2.051801379295259,1.6830541918994395
1768730085944,128,0,0.3171678614958813,2.0042664201852194,1.9340208374357637
1768730085948,128,0,0.4259426420812382,1.7408353730960875,2.045512871805526
1768730085952,128,0,0.413168570455898,1.9808856307489635,2.037093666820416
1768730085956,128,0,0.3492385459309519,2.0785590499884203,1.97783553030376
1768730085960,128,0,0.3208383683414493,2.21430201821312,1.9524184647468013
1768730085964,128,0,0.401773796370579,1.8422656899374967,2.034722189742226
1768730085968,128,0,0.6186621126880154,1.8360069010793567,2.253499462645938
1768730085972,129,1,0.934402722741018,2.884701050384073,2.5729850003638512
1768730085976,129,1,1.2872372492586677,3.1164604234754107,2.9303035744467856
1768730085980,129,1,1.6595668815333142,3.2439014202569165,3.305905836028608
1768730085984,130,2,2.091778530279293,3.75805832423812,3.739791765823736
1768730085988,130,2,2.6054037415464673,3.9112004532915914,4.254852168970517
1768730085992,131,3,3.111993352562577,4.73348235299868,4.763904321281217
1768730085996,131,3,3.420990476558196,5.288999270632257,5.076122030120382
1768730086000,131,3,3.367458696424961,5.076203078640573,5.025366481887252
1768730086004,131,3,2.950261085316024,4.909634370072514,4.610203439659136
1768730086008,130,2,2.3429061338727246,3.738936459418399,4.005358975806453
1768730086012,129,1,1.7565548400840032,2.798131701363297,3.422905830005434
1768730086016,129,1,1.286331857148066,3.3036755822258916,2.9566412910290425
1768730086020,129,1,0.8882198519145719,3.004997197155973,2.560273305250205
1768730086024,128,0,0.4839077569283634,2.043189018185946,2.1556761648204974
1768730086028,128,0,0.0548773055876521,1.513434711455102,1.7274069429002317
1768730086032,127,-1,-0.3665202831503015,0.9708767567734652,1.3098156617276009
1768730086036,127,-1,-0.7541166073961116,1.14948639177786,0.926981969982509
1768730086040,127,-1,-1.1006301170238946,1.1475280171309818,0.5826310398324406
1768730086044,126,-2,-1.3946762212625243,-0.0398256975323243,0.2880534919839479
1768730086048,126,-2,-1.6319080879709065,-0.5287118648479363,0.0511594617717925
1768730086052,126,-2,-1.852188306007145,0.0176610021755445,-0.1656423788051908
1768730086056,126,-2,-2.118688577396804,0.0362255532771804,-0.4275886412819321
1768730086060,125,-3,-2.4309016660602856,-0.6551798425984758,-0.7376037221905669
1768730086064,125,-3,-2.6875714142490255,-1.2518738213095562,-0.9947100662253624
1768730086068,125,-3,-2.7813543462132,-1.3940451932850595,-1.0886433651667824
1768730086072,125,-3,-2.735955190510914,-1.1520446738351215,-1.0409757144314136
1768730086076,125,-3,-2.7159835625528927,-0.8384105531350228,-1.0176293764269069
1768730086080,125,-3,-2.869043066446335,-0.6853685331641399,-1.1689896615618791
1768730086084,125,-3,-3.158920178244961,-1.2601312666772766,-1.4590581517933767
1768730086088,124,-4,-3.3829169844709113,-2.4368264688395804,-1.6822438922204963
1768730086092,124,-4,-3.3711785253688396,-2.191573338849716,-1.6669708255990066
1768730086096,125,-3,-3.151829074860637,-0.7999918580383687,-1.4440519048626048
1768730086100,125,-3,-2.9017418526190615,-0.6492464274052985,-1.1941975845859116
1768730086104,125,-3,-2.7598396558034963,-1.3092054532438984,-1.055396924021526
1768730086108,125,-3,-2.7286763597086305,-1.4527212947854502,-1.0245897059961924
1768730086112,125,-3,-2.744737506689806,-1.2744636548569197,-1.0349578662676446
1768730086116,125,-3,-2.7750656422877253,-0.7166378394627948,-1.0577852313858411
1768730086120,125,-3,-2.792833332098005,-0.647917877066654,-1.0747298886943466
1768730086124,125,-3,-2.666002393676598,-1.3049258757987414,-0.9578278978067072
1768730086128,126,-2,-2.093577416221714,-0.5668648952727793,-0.4002545883062813
1768730086132,127,-1,-0.6310732675020241,0.8143684853208657,1.0556307000077254
1768730086136,130,2,2.26914339222572,4.077868776137341,3.9687645769443582
1768730086140,135,7,7.227797657993857,9.80091153395436,8.958823483487185
1768730086144,143,15,14.78734932784696,16.13342783026166,16.55027805404572
1768730086148,153,25,24.979133208740983,26.92945329618176,26.748150442044963
1768730086152,165,37,36.674067306103574,38.39189645196317,38.41032557167618
1768730086156,174,46,47.12643533785501,48.065830570839545,48.80920032281422
1768730086160,177,49,52.31733385666303,52.58702772978384,53.96522263127027
1768730086164,176,48,48.50550244895014,47.42881776334977,50.161392240201
1768730086168,167,39,34.60897585332016,43.46592444937941,36.30222262400533
1768730086172,152,24,13.89848566958919,21.86924813499937,15.628471395968912
1768730086176,106,-22,-6.8493822755498215,-15.753847037709315,-5.095658888377667
1768730086180,105,-23,-20.907754066130643,-23.881388362459305,-19.140647659500473
1768730086184,106,-22,-25.389239426740367,-17.934809468408034,-23.625530055969534
1768730086188,109,-19,-22.257206943451248,-19.03084263414332,-20.524363989547624
1768730086192,112,-16,-16.083635411492914,-13.956098146939652,-14.397398460840286
1768730086196,116,-12,-10.822300588901776,-9.41632886923566,-9.165336309967648
1768730086200,119,-9,-8.030995673409457,-7.155474465320817,-6.364618158396323
1768730086204,120,-8,-7.15809011320156,-5.833649841736447,-5.455058351979677
1768730086208,121,-7,-6.920585471612109,-5.929540928635836,-5.184071050448217
1768730086212,122,-6,-6.4868985053309105,-4.296617605004034,-4.74171562043264
1768730086216,122,-6,-5.794648358065774,-3.5609396602218593,-4.0650235440556
1768730086220,123,-5,-5.152910688029935,-2.9206994553916297,-3.446864482701566
1768730086224,123,-5,-4.7319423888448435,-3.147842031312353,-3.040626770982648
1768730086228,123,-5,-4.417902141563663,-3.6444393095751497,-2.725930822298383
1768730086232,124,-4,-4.032736851002845,-2.4086392703919435,-2.3303495333007285
1768730086236,124,-4,-3.5704032625224125,-1.5748665924147494,-1.8591891568596275
1768730086240,125,-3,-3.1784083088705137,-0.9748528246528774,-1.4675029863878866
1768730086244,125,-3,-2.9562867687632384,-1.1415546734598738,-1.2532377189078208
1768730086248,125,-3,-2.8381214493232836,-1.6380947582075986,-1.1427601817131197
1768730086252,125,-3,-2.6852417798849495,-1.3323117260641304,-0.9916408195415976
1768730086256,125,-3,-2.4500197637289283,-0.7056511485004,-0.753565798908288
1768730086260,126,-2,-2.205989121012137,0.0547938821974649,-0.5078049878432433
1768730086264,126,-2,-2.026778025580393,-0.1949967316886649,-0.3312964145281127
1768730086268,126,-2,-1.88413189996495,-0.5758299634715716,-0.1935601127076238
1768730086272,126,-2,-1.692751588136263,-0.3266254061281719,-0.0052369851487847
1768730086276,126,-2,-1.4302566758025677,0.2292598802692071,0.2567102539439587
1768730086280,127,-1,-1.1700850471764292,1.0355169884213915,0.5160039594103603
1768730086284,127,-1,-0.9897208431160032,0.7942544264811393,0.6933749541000462
1768730086288,127,-1,-0.8775361853205559,0.4543473239310762,0.8022669980854689
1768730086292,127,-1,-0.7489327253598814,0.69445296784131,0.9297121868184248
1768730086296,127,-1,-0.5332799994855859,1.1461721788480683,1.1453802613453157
1768730086300,128,0,-0.2203019432600145,2.0431665385610644,1.456227909265776
1768730086304,128,0,0.1595347910975231,1.7617701600847506,1.830908502414612
1768730086308,128,0,0.5536774286032314,1.5053479945845454,2.219954725897418
1768730086312,129,1,0.8813758164759303,2.685552986110885,2.545540234191945
1768730086316,129,1,1.0652880223044865,3.0957753517963256,2.7292820401958267
1768730086320,129,1,1.1210668659009893,3.010936910301664,2.783689577586204
1768730086324,129,1,1.202075288787641,2.792155681174039,2.8612936585804856
1768730086328,129,1,1.5014515088332034,2.467410401900683,3.1572470338985252
1768730086332,130,2,2.0806244568612673,3.7741704518617567,3.734251184009182
1768730086336,131,3,2.8050121167296727,4.948639216352246,4.456202197910355
1768730086340,131,3,3.4613454090155775,5.087098527951317,5.107949349661718
1768730086344,132,4,3.931393114435783,5.706525616180787,5.57223162785996
1768730086348,132,4,4.248643468210375,5.552063790558654,5.885632341167048
1768730086352,132,4,4.512916271112591,5.704407631563422,6.149285405595437
1768730086356,133,5,4.790001959444308,6.99155154753356,6.426541750993854
1768730086360,133,5,5.102959975163092,6.962150004721513,6.737000683604601
1768730086364,133,5,5.478039577197291,6.8338088458233095,7.106473509602682
1768730086368,134,6,5.942006380876277,7.41963190434387,7.564476703037638
1768730086372,134,6,6.46100445863932,7.85077703414632,8.079474579577226
1768730086376,135,7,6.917943513122909,8.80063355882673,8.533830352929964
1768730086380,135,7,7.188556526053637,9.108144529430872,8.80141166125783
1768730086384,135,7,7.247428643182162,8.656670875782849,8.856404664209027
1768730086388,135,7,7.189100376280621,8.60790076492274,8.79452960400706
1768730086392,135,7,7.143465053232872,8.66766777332281,8.74621175442365
1768730086396,135,7,7.174996823445316,8.924985973002258,8.774824187422642
1768730086400,135,7,7.252070742824472,8.98111144201593,8.847618816725914
1768730086404,135,7,7.284210132065271,8.70701465772336,8.8745660705888
1768730086408,135,7,7.172848429238213,8.625937966561699,8.758359919285528
1768730086412,135,7,6.84537646384584,8.574690889863856,8.426781550064971
1768730086416,134,6,6.274932124346561,8.047408280551036,7.85246686507086
1768730086420,133,5,5.483760654911617,6.760158733465575,7.05746871944034
1768730086424,132,4,4.524655834225621,5.948114642046912,6.094842336861552
1768730086428,132,4,3.458906996791587,5.363704294278423,5.025687446528638
1768730086432,130,2,2.3539524636847564,3.8329052483720023,3.9167605118165225
1768730086436,129,1,1.2879738178444209,2.7776901382458083,2.8460413079503297
1768730086440,128,0,0.3306876557824254,1.9499654577594976,1.8838512970702488
1768730086444,127,-1,-0.4949726465303485,0.7885024900591708,1.0537118177125104
1768730086448,127,-1,-1.2281778690906524,0.453730866487688,0.3163003181107431
1768730086452,126,-2,-1.9366450576564405,-0.1722143239486104,-0.3966243576295252
1768730086456,125,-3,-2.660855931366507,-1.3474405386117914,-1.125610489422098
1768730086460,124,-4,-3.3871393629955344,-1.872950162766906,-1.856552949558882
1768730086464,124,-4,-4.067293193416364,-2.497249418755213,-2.5410039635447457
1768730086468,123,-5,-4.655597783707773,-3.2050196965517816,-3.133456124660099
1768730086472,123,-5,-5.128481683482112,-3.534790502787331,-3.610588544181944
1768730086476,122,-6,-5.480418266576046,-4.022090945784897,-3.9668986885103217
1768730086480,122,-6,-5.711570487699128,-4.217935598409279,-4.202586818285941
1768730086484,122,-6,-5.823627124280228,-4.218427933616172,-4.319543619552995
1768730086488,122,-6,-5.829596410803254,-4.438347358917632,-4.330848545188063
1768730086492,122,-6,-5.768725462082298,-4.34818463815076,-4.275428844142461
1768730086496,122,-6,-5.705944272623045,-4.190704763134667,-4.217722831922907
1768730086500,122,-6,-5.701610670881505,-4.147890323805642,-4.217829860220506
1768730086504,122,-6,-5.766636618543723,-4.264248981852645,-4.2867999806900094
1768730086508,122,-6,-5.842446387946785,-4.441956526728853,-4.366519301034995
1768730086512,122,-6,-5.832506006083955,-4.299843132861364,-4.3610197845680565
1768730086516,122,-6,-5.670121069939366,-4.3075715908277505,-4.203924995702282
1768730086520,122,-6,-5.373828071841028,-4.050021589316142,-3.913573698898223
1768730086524,123,-5,-5.045176568298799,-3.400186371085843,-3.590852566332528
1768730086528,123,-5,-4.804855875108832,-3.307747414966918,-3.355704064459345
1768730086532,123,-5,-4.712358756366666,-3.4203078502923336,-3.267419307054453
1768730086536,123,-5,-4.727408424112298,-3.249416700265738,-3.286440423227911
1768730086540,123,-5,-4.7383755363520645,-3.118468203718076,-3.302096160372277
1768730086544,123,-5,-4.6389963830093,-3.3970449481179212,-3.208094073757016
1768730086548,123,-5,-4.404665385724581,-3.270164326493727,-2.9789082533929228
1768730086552,124,-4,-4.1089105245386675,-2.4850264182943502,-2.6878089532849057
1768730086556,124,-4,-3.8551412380267354,-2.2085504317720357,-2.4391555640162976
1768730086560,124,-4,-3.680208909100845,-2.1998191185394425,-2.270364780248384
1768730086564,124,-4,-3.529842521134861,-2.359681605108153,-2.126064772477065
1768730086568,124,-4,-3.334181041971678,-2.2864944118250157,-1.9349296584059656
1768730086572,125,-3,-3.093419465928225,-1.493684567374065,-1.6975182658320205
1768730086576,125,-3,-2.8698460411927806,-1.211223576539603,-1.4780923117396585
1768730086580,125,-3,-2.7000119505909783,-1.2477415902416236,-1.314240739224292
1768730086584,125,-3,-2.5418816441801244,-1.3413216428057422,-1.1626765930152203
1768730086588,125,-3,-2.325853324821198,-1.3016953472787356,-0.9519874613561616
1768730086592,126,-2,-2.0464312604769432,-0.5048836803782089,-0.6766798933140228
1768730086596,126,-2,-1.7828624955689094,-0.1936439556505647,-0.417607471298246
1768730086600,126,-2,-1.6266667905396166,-0.3341274693747253,-0.2672139475877295
1768730086604,126,-2,-1.600247381112741,-0.2592676051465719,-0.2469870480572251
1768730086608,126,-2,-1.6482242871831394,-0.4125194164222678,-0.300084335597568
1768730086612,126,-2,-1.6952683612712551,-0.4043634924345975,-0.3510000574625502
1768730086616,126,-2,-1.7032011398601643,-0.2926648379002796,-0.3628526238970564
1768730086620,126,-2,-1.6798090881485654,-0.300099154648894,-0.3447441081055302
1768730086624,126,-2,-1.6505472877639906,-0.290496430176077,-0.3220549199662841
1768730086628,126,-2,-1.6340101413107206,-0.4237107251452245,-0.3120048807542117
1768730086632,126,-2,-1.6398925588864424,-0.3910379074758934,-0.3230646002101496
1768730086636,126,-2,-1.67122635233532,-0.3187586795481132,-0.3584339622434158
1768730086640,126,-2,-1.7107748336961668,-0.32904091137287,-0.4020874611342151
1768730086644,126,-2,-1.7063566879297396,-0.2587676565464702,-0.4025906201195015
1768730086648,126,-2,-1.5903925406338366,-0.506719642566261,-0.2919155990638153
1768730086652,126,-2,-1.3355693817819103,-0.2911601323578319,-0.0421261779286377
1768730086656,127,-1,-0.9954463867929724,0.5482074377199744,0.2928466572507247
1768730086660,127,-1,-0.6822116093895807,0.7716865516457194,0.6000967120984109
1768730086664,127,-1,-0.5010972575934465,0.6285778561072464,0.7748219277044732
1768730086668,127,-1,-0.5032414150926017,0.5582989701247074,0.7672280454607243
1768730086672,127,-1,-0.6810743349005932,0.6623330227115649,0.5853505915537243
1768730086676,127,-1,-0.9795393609516044,0.5372160740108192,0.2832363966554378
1768730086680,126,-2,-1.307002442855815,-0.2055860488513912,-0.0485977190686837
1768730086684,126,-2,-1.56285787012155,-0.454381877443061,-0.3096516769392736
1768730086688,126,-2,-1.6848106596654444,-0.3532346958753991,-0.4371771218413665
1768730086692,126,-2,-1.6810915431090836,-0.4597359650797403,-0.4391546957913546
1768730086696,126,-2,-1.6171351866339254,-0.3517410677625237,-0.380883241300284
1768730086700,126,-2,-1.568143020030248,-0.3324950708560212,-0.3372213416688177
1768730086704,126,-2,-1.5741944729024566,-0.3805819484335151,-0.3479718954779365
1768730086708,126,-2,-1.6234262728770787,-0.4181201914507531,-0.4015461527007717
1768730086712,126,-2,-1.6647497899554222,-0.4514999625751255,-0.4474973104044095
1768730086716,126,-2,-1.6381222438449627,-0.332506460833724,-0.4259678936734064
1768730086720,126,-2,-1.5082112415454636,-0.4176890286221368,-0.3010459025540557
1768730086724,126,-2,-1.2843133913553908,-0.2849728795586919,-0.0815990952941847
1768730086728,127,-1,-1.0088895268932068,0.4240488567995264,0.1892892965663071
1768730086732,127,-1,-0.7201574265285549,0.724064668615958,0.472495744058119
1768730086736,127,-1,-0.4292546463119235,0.450246677017553,0.7572094377089429
1768730086740,127,-1,-0.1419580968756113,0.7878908131352169,1.0390026252147553
1768730086744,128,0,0.1087909595376939,1.480992263158032,1.2855178123927824
1768730086748,128,0,0.2797536415097528,1.606685665655094,1.4526901583998195
1768730086752,128,0,0.3783124114608831,1.578988131495139,1.5469608059993285
1768730086756,128,0,0.4912179060956081,1.5148696691296006,1.6550848546457593
1768730086760,128,0,0.7318869284139065,1.7660983893067144,1.890912501779734
1768730086764,129,1,1.147857844032377,2.395365247997815,2.302001333620087
1768730086768,129,1,1.672568324629384,2.741926425355824,2.8215495648655864
1768730086772,130,2,2.1610814601432247,3.375373675386802,3.304739514424752
1768730086776,130,2,2.476483550530039,3.748668409466125,3.6151050225153543
1768730086780,130,2,2.560275678373871,3.465879534615354,3.694309673051917
1768730086784,130,2,2.4424095109115207,3.669572573061444,3.571984326671604
1768730086788,130,2,2.195125941948664,3.461252079897494,3.320164284302628
1768730086792,129,1,1.8709973112225364,2.613876134821771,2.991703715863893
1768730086796,129,1,1.4740247856586857,2.545686926526158,2.5906931568845852
1768730086800,129,1,0.9893199144129292,2.5784423183822085,2.1016130073242114
1768730086804,128,0,0.4406632359709843,1.574780838414267,1.547769307603151
1768730086808,127,-1,-0.0954952868086068,0.4934278153714604,1.0061696998928704
1768730086812,127,-1,-0.5462043118343308,0.6027717933097896,0.5506138613278808
1768730086816,127,-1,-0.905052151372717,0.522971954427013,0.1875976217044024
1768730086820,126,-2,-1.2279417781024953,-0.4265571146660445,-0.1392344682657422
1768730086824,126,-2,-1.5679583887998398,-0.4443101325941505,-0.4833225098786644
1768730086828,126,-2,-1.917518853730472,-0.5202442869390445,-0.8372697381911838
1768730086832,125,-3,-2.2128867698835215,-1.3925468780675327,-1.13733524376334
1768730086836,125,-3,-2.400255212071304,-1.4974834763395752,-1.3294743596879082
1768730086840,125,-3,-2.5042521357396215,-1.4401514302109617,-1.438216960866214
1768730086844,125,-3,-2.625086543083987,-1.4532596296724765,-1.5639619806354663
1768730086848,125,-3,-2.853736318205774,-1.5459624300793289,-1.7975401130875497
1768730086852,124,-4,-3.181620720092591,-2.359733992325592,-2.1295824066254285
1768730086856,124,-4,-3.4907240372088455,-2.5842360618624283,-2.441584950561259
1768730086860,124,-4,-3.631548922447379,-2.341770567817223,-2.584841186892131
1768730086864,124,-4,-3.523065580029954,-2.625226749155199,-2.4799078308855234
1768730086868,124,-4,-3.2058189267008657,-2.3529816646184862,-2.168354024908598
1768730086872,125,-3,-2.8199860622845065,-1.5849560453304274,-1.789938240874089
1768730086876,125,-3,-2.524389733208115,-1.3876098218839807,-1.501464354054855
1768730086880,125,-3,-2.4084053303741983,-1.54505923078342,-1.389457496791937
1768730086884,125,-3,-2.4530040555074004,-1.49547841274794,-1.4334454084240749
1768730086888,125,-3,-2.556723656042944,-1.4502081604320178,-1.5343510475960749
1768730086892,125,-3,-2.599571723327651,-1.552486107915667,-1.5779618092013412
1768730086896,125,-3,-2.5113928247651396,-1.3988701270229895,-1.4989983389094026
1768730086900,125,-3,-2.313157509040823,-1.5832160403523663,-1.31747108122665
1768730086904,125,-3,-2.0771801109450165,-1.499690105019293,-1.098043303266222
1768730086908,126,-2,-1.751123770501547,-0.4255327426293664,-0.7787587347399203
1768730086912,127,-1,-0.8892369868667229,0.3481521959765188,0.0906718728503777
1768730086916,129,1,1.495705642685781,2.7551201746465326,2.492830548985229
1768730086920,135,7,6.678218000734635,8.170628210181421,7.6905886784910065
1768730086924,142,14,15.474095813466237,15.769226969860023,16.488290197937793
1768730086928,154,26,27.314388381300404,27.265643710559047,28.31267036432996
1768730086932,167,39,39.775332105379206,40.657754269227325,40.744932152102024
1768730086936,177,49,49.10622071402496,50.44149002410304,50.04579002705205
1768730086940,180,52,51.71336248734749,53.38167504369893,52.6340696142732
1768730086944,174,46,45.86270770539648,47.54917159517258,46.78351329790373
1768730086948,160,32,32.6134008458221,33.34253494812968,33.55202522998141
1768730086952,142,14,15.420919899010933,15.629570639406165,16.384600049520515
1768730086956,126,-2,-1.349299470454401,-0.5712627100916432,-0.3678062243535862
1768730086960,113,-15,-14.150921542110927,-13.544149370992477,-13.169073490059091
1768730086964,106,-22,-21.35303585914026,-20.532379979125313,-20.38856137434412
1768730086968,105,-23,-23.30986749446571,-21.572331745905164,-22.371554780245756
1768730086972,106,-22,-21.622131670803626,-20.48860921940316,-20.70647847783802
1768730086976,109,-19,-18.16766196130135,-17.4780766439996,-17.262444671345648
1768730086980,113,-15,-14.418182529072254,-13.668398804436771,-13.510413289738436
1768730086984,116,-12,-11.2134720138975,-10.468297031778114,-10.296795538635976
1768730086988,119,-9,-8.852943683797657,-7.65252417692745,-7.929662106398507
1768730086992,120,-8,-7.290581328591424,-6.454875884456413,-6.367582913533994
1768730086996,121,-7,-6.314394944226555,-5.5154036751411235,-5.397246348236572
1768730087000,122,-6,-5.682234782534669,-4.660578878279447,-4.772400219150777
1768730087004,122,-6,-5.207353633105497,-4.505519729714994,-4.3035060553273805
1768730087008,123,-5,-4.788177853302833,-3.63838040283598,-3.888725112184978
1768730087012,123,-5,-4.395337756620204,-3.4803251548605356,-3.4994497499954713
1768730087016,123,-5,-4.04385634648552,-3.5205778940087806,-3.1511219564573403
1768730087020,124,-4,-3.7648743252961214,-2.6642815705954987,-2.8751229890864227
1768730087024,124,-4,-3.573479206317779,-2.5516406189587304,-2.6869386985257937
1768730087028,124,-4,-3.442453892872346,-2.6035603596835535,-2.55934617933818
1768730087032,124,-4,-3.3102215411154132,-2.5406001984219353,-2.4301582166723703
1768730087036,124,-4,-3.124285562570563,-2.4706480248543254,-2.2467479241116832
1768730087040,125,-3,-2.8755386833755647,-1.7604044189504084,-2.001016317971591
1768730087044,125,-3,-2.5886458776019787,-1.455415123771596,-1.7184283056378944
1768730087048,125,-3,-2.292704737564555,-1.7561534583859748,-1.4271335906225948
1768730087052,125,-3,-2.013895931756057,-1.3781093576156649,-1.1516038322114943
1768730087056,126,-2,-1.7812894208381662,-0.6709740700249913,-0.9208335606372122
1768730087060,126,-2,-1.6089257302963578,-0.5978608662410507,-0.7505975680404324
1768730087064,126,-2,-1.4664398306027182,-0.6109099017798578,-0.6116820238967127
1768730087068,126,-2,-1.2925771075764714,-0.667028964014369,-0.4419832392076697
1768730087072,126,-2,-1.0569452790860885,-0.4458774866847368,-0.2097292224757407
1768730087076,127,-1,-0.7990266578257676,0.3326419912115861,0.0455740427071793
1768730087080,127,-1,-0.5881381123457343,0.4056492984713815,0.253587937158505
1768730087084,127,-1,-0.4447844173394777,0.3421043193107218,0.3935757617590592
1768730087088,127,-1,-0.3140756984318026,0.3689984269366453,0.5212386592555247
1768730087092,127,-1,-0.1184569496724625,0.4790233960979517,0.7144576152645115
1768730087096,128,0,0.1737707812058931,1.38435033110273,1.0040919415926648
1768730087100,128,0,0.5321279278911974,1.3496336015193018,1.358948051037374
1768730087104,128,0,0.8994397314963505,1.3485539916960685,1.7223825273369897
1768730087108,129,1,1.236510649025061,2.378347015901455,2.0562289696520795
1768730087112,129,1,1.5475530622534186,2.382171556306738,2.3649811495554487
1768730087116,129,1,1.8776232265919015,2.510635655702636,2.6931705772179364
1768730087120,130,2,2.2809271577641916,3.164690250346802,3.094322676882136
1768730087124,130,2,2.777059400538972,3.543906790158852,3.5875752456500996
1768730087128,131,3,3.328237321822712,4.132749169635535,4.13505641749725
1768730087132,131,3,3.8571414063649634,4.607699231358087,4.659866793056972
1768730087136,132,4,4.293568092966356,5.259394653795805,5.092703799814636
1768730087140,132,4,4.617440885496242,5.389815955898027,5.414355817598787
1768730087144,132,4,4.871030136722848,5.318633605913976,5.666986877297136
1768730087148,133,5,5.138563834018755,6.289281482685823,5.933455623885832
1768730087152,133,5,5.507192430404071,6.474656755866116,6.299550978746778
1768730087156,133,5,6.017544731690826,6.307236851849575,6.806032762601841
1768730087160,134,6,6.620085316511183,7.390630205292576,7.404584776543369
1768730087164,135,7,7.179883025783788,8.240607522750192,7.961045824855312
1768730087168,135,7,7.552957522262596,8.366138956773845,8.3314196354202
1768730087172,135,7,7.683294474986913,8.366635373756692,8.459632715655717
1768730087176,135,7,7.636991900030186,8.370336548787835,8.411782496948053
1768730087180,135,7,7.547808585396182,8.338639084671604,8.321216080369718
1768730087184,135,7,7.523481686420029,8.236175011185313,8.295019006880118
1768730087188,135,7,7.579697195002241,8.371097745092657,8.348622965557954
1768730087192,135,7,7.636582919921957,8.327030521253182,8.402363355344157
1768730087196,135,7,7.57079079465355,8.370641927533505,8.333158317298246
1768730087200,135,7,7.284081799362629,8.348511226464542,8.043100136921183
1768730087204,134,6,6.740339541906218,7.155534144139057,7.496668181641728
1768730087208,133,5,5.953987220499235,6.472435737682089,6.708651240488214
1768730087212,133,5,4.963014491880267,6.159655256646531,5.7165506019325445
1768730087216,131,3,3.825855266811785,4.534588162803493,4.5779443201642085
1768730087220,130,2,2.632021626573058,3.1623004114848703,3.3820441341559717
1768730087224,129,1,1.4886284682521684,2.3060138752764514,2.236149228702014
1768730087228,128,0,0.4787207975925369,1.3152303586885403,1.2234345681395435
1768730087232,127,-1,-0.375641133600139,0.2606986472511261,0.3661337887713238
1768730087236,126,-2,-1.1165183259156746,-0.5545008758950449,-0.3773890018152435
1768730087240,126,-2,-1.8134891074772876,-0.7991616145792166,-1.0763919745816009
1768730087244,125,-3,-2.506404784137524,-1.7390445628831332,-1.770843040808515
1768730087248,124,-4,-3.1692157344033234,-2.6754398229439245,-2.435084751759131
1768730087252,124,-4,-3.728950487848427,-2.7891196266907197,-2.9965111213847995
1768730087256,123,-5,-4.128504095548044,-3.494623153206678,-3.398184396762981
1768730087260,123,-5,-4.3818037494433755,-3.927051980949624,-3.6540059214667218
1768730087264,123,-5,-4.572813568897835,-3.580504255914681,-3.847811782253389
1768730087268,123,-5,-4.794136182930984,-3.91083053976492,-4.071846212090211
1768730087272,122,-6,-5.07526390852203,-4.558813064997135,-4.354956757001881
1768730087276,122,-6,-5.361619285990394,-4.741483538672279,-4.642299208926749
1768730087280,122,-6,-5.555011966865612,-4.741173983292291,-4.83643264581214
1768730087284,122,-6,-5.574939735463912,-4.729397435944972,-4.857888690110987
1768730087288,122,-6,-5.402791288973565,-4.85622493699454,-4.688094743930282
1768730087292,122,-6,-5.095743626452544,-4.5759817109287955,-4.383467906286658
1768730087296,123,-5,-4.762966074230717,-3.8033123140060336,-4.052923000125725
1768730087300,123,-5,-4.508342855575583,-3.667448886292322,-3.8007637501119182
1768730087304,123,-5,-4.378041399694583,-3.8450448491840774,-3.673099702876659
1768730087308,123,-5,-4.356732695122759,-3.762107169686579,-3.653710532918114
1768730087312,123,-5,-4.404758902284776,-3.6991723106789376,-3.7023812031151384
1768730087316,123,-5,-4.484481115413754,-3.712046378284427,-3.7822089121642666
1768730087320,123,-5,-4.550077637718803,-3.7724797703914734,-3.8487614079199486
1768730087324,123,-5,-4.534355393572712,-3.7615302041348224,-3.835436470308854
1768730087328,123,-5,-4.377127807973849,-3.87955327970528,-3.681311233011344
1768730087332,123,-5,-4.084427415087361,-3.6068644690141385,-3.391284907798573
1768730087336,124,-4,-3.752827709129311,-2.8356940288020662,-3.061518506798824
1768730087340,124,-4,-3.5134562455761036,-2.6657067447742993,-2.823429072471839
1768730087344,124,-4,-3.433689504962774,-2.8794816827257113,-2.7447153156320376
1768730087348,124,-4,-3.464326894062109,-2.816223493492058,-2.7764045816421574
1768730087352,124,-4,-3.4786037344212,-2.6750207085705617,-2.7920465356865503
1768730087356,124,-4,-3.369023208269576,-2.830615602987682,-2.6842689701779956
1768730087360,124,-4,-3.1257248405217317,-2.6450527826228907,-2.4429305473536944
1768730087364,125,-3,-2.835589744850763,-1.9470954233568811,-2.1546592784838827
1768730087368,125,-3,-2.600826425523791,-1.7686206255837358,-1.921714977437095
1768730087372,125,-3,-2.4471909599050803,-1.7579749119404358,-1.769767810500768
1768730087376,125,-3,-2.3092219729686816,-1.7903132894321772,-1.6329720710983673
1768730087380,125,-3,-2.1066849808978967,-1.6765005739805652,-1.431159059793701
1768730087384,126,-2,-1.8323227724504647,-0.962978254736064,-1.1579940184548714
1768730087388,126,-2,-1.5635873305876724,-0.7526066607516655,-0.8916634807228228
1768730087392,126,-2,-1.3959403660106546,-0.8352793204388571,-0.7269352873798174
1768730087396,126,-2,-1.3688241585740972,-0.720748247030869,-0.7016665819983545
1768730087400,126,-2,-1.4434845274552672,-0.7820762848305858,-0.7765094425107795
1768730087404,126,-2,-1.533169488823156,-0.8677054793645798,-0.8659427261191881
1768730087408,126,-2,-1.5538528054859773,-0.8799316601496643,-0.8876867572893117
1768730087412,126,-2,-1.469327365450965,-0.7330552464769107,-0.8058830127483385
1768730087416,126,-2,-1.3146956907122265,-0.8639449642902648,-0.6542940063790985
1768730087420,126,-2,-1.1814858504748489,-0.6418875510373607,-0.5230205427881796
1768730087424,127,-1,-1.1576982315402733,-0.0540804604767977,-0.4999968517253683
1768730087428,126,-2,-1.255709984152288,-0.6850433940033085,-0.5985366441851971
1768730087432,126,-2,-1.392845912708797,-1.004317983648937,-0.7366422499363985
1768730087436,126,-2,-1.4547637415442465,-0.5772573986717215,-0.7999506239109999
1768730087440,126,-2,-1.3914247363294137,-0.993416862943422,-0.738189346612893
1768730087444,126,-2,-1.2593021430107527,-0.6922017936392166,-0.6078358109286846
1768730087448,127,-1,-1.1714811354319274,-0.0714975782170443,-0.5220695014108725
1768730087452,126,-2,-1.201466319436842,-0.6747051862543039,-0.5540928763903605
1768730087456,126,-2,-1.3282678493691669,-0.9037489399744896,-0.682278817155439
1768730087460,126,-2,-1.4666285966228283,-0.7366042261798045,-0.8212167716110164
1768730087464,126,-2,-1.5423542500552614,-0.9230039443816168,-0.8974292936575856
1768730087468,126,-2,-1.5411353993886658,-0.9002043489175873,-0.8974414558793966
1768730087472,126,-2,-1.50073338066767,-0.8369310252759083,-0.8591097321284
1768730087476,126,-2,-1.469091515717318,-0.817837844489957,-0.8298006584052651
1768730087480,126,-2,-1.4679542370880474,-0.812195831817756,-0.8306299238974053
1768730087484,126,-2,-1.486552245212538,-0.8988028194154278,-0.8505461541080925
1768730087488,126,-2,-1.502387796497876,-0.917774937608756,-0.8671779531742385
1768730087492,126,-2,-1.5050131131701694,-0.8673845588770204,-0.8705350283674365
1768730087496,126,-2,-1.5003762728667656,-0.8140466454779851,-0.86711165410634
1768730087500,126,-2,-1.4967129130257073,-0.8458292931167026,-0.8653569998776582
1768730087504,126,-2,-1.4933531202099055,-0.8860958872334643,-0.864234808776589
1768730087508,126,-2,-1.4873635139753685,-0.9422273701316723,-0.8601757568874089
1768730087512,126,-2,-1.4868041805030112,-0.8888466526656917,-0.8609849780409604
1768730087516,126,-2,-1.5065244579494186,-0.8084602599251491,-0.8818812087673396
1768730087520,126,-2,-1.542331521625438,-0.8997519573812287,-0.9191196709206456
1768730087524,126,-2,-1.5510504995351415,-0.8309308657303036,-0.9293701422620032
1768730087528,126,-2,-1.466723568017575,-1.0286526780189476,-0.8461442108733992
1768730087532,126,-2,-1.2460706804855863,-0.8386381637943046,-0.6262651839976419
1768730087536,127,-1,-0.901036718695293,0.1244543544340279,-0.2826403824019023
1768730087540,127,-1,-0.4911445048409102,0.1175973729538657,0.1246263387204045
1768730087544,127,-1,-0.0940436944420253,0.1582051430256108,0.5186314741764344
1768730087548,128,0,0.2187891588096624,0.9455313138079704,0.8290912934273689
1768730087552,128,0,0.4057433680663278,1.1463025314038209,1.0147265720281455
1768730087556,128,0,0.4858949776309891,1.1281943303875424,1.094212463870066
1768730087560,128,0,0.5505096364178605,1.054788232621189,1.1584621878173658
1768730087564,128,0,0.7256108283632683,1.2504369638510526,1.3331043357674943
1768730087568,129,1,1.1011690301114312,1.7758653844220786,1.7073047366562069
1768730087572,129,1,1.6740499284487145,2.329719215670103,2.2773496247248626
1768730087576,130,2,2.3357460322481343,2.8840150334311927,2.93532765552746
1768730087580,130,2,2.907244100602349,3.282903652677182,3.5036277003855445
1768730087584,131,3,3.2116984325791416,4.0195894230150335,3.8062043237272727
1768730087588,131,3,3.161093005174057,3.935606292311075,3.7546898498952137
1768730087592,130,2,2.8063405955297624,3.1919189099740883,3.399294670944137
1768730087596,130,2,2.304699636095422,2.9346604605788693,2.8969058647222226
1768730087600,129,1,1.8192442916302516,2.253872171266925,2.410289598691688
1768730087604,129,1,1.4259899458967251,2.0028884207311637,2.0149275131331152
1768730087608,129,1,1.0952109263386376,1.9303389294812336,1.6808753943249175
1768730087612,128,0,0.7449009972631824,1.1954187384147252,1.3268975837340322
1768730087616,128,0,0.310183530003961,0.8391432149197557,0.8894525777030324
1768730087620,127,-1,-0.2196895967398873,0.4028959863950834,0.3583562438575289
1768730087624,127,-1,-0.8025678873780735,-0.2604380600307723,-0.2250943716919742
1768730087628,126,-2,-1.3657981805633543,-0.7411044625359695,-0.7895929401025974
1768730087632,126,-2,-1.838781210409356,-1.227949931563646,-1.264946348198709
1768730087636,125,-3,-2.1890131510248256,-1.7366534298231673,-1.6178970855951365
1768730087640,125,-3,-2.4427327406035464,-2.049906230126157,-1.8740108705516008
1768730087644,125,-3,-2.665809752268742,-1.8579080757204085,-2.099510473709711
1768730087648,125,-3,-2.910143503505195,-2.1150947359175785,-2.346858982730605
1768730087652,124,-4,-3.1736070613881875,-2.9426429350658703,-2.6133998032452808
1768730087656,124,-4,-3.4132460979491026,-3.001257399477508,-2.855038415049827
1768730087660,124,-4,-3.587351752164374,-2.8617573741186897,-3.030020437002678
1768730087664,124,-4,-3.670745972891723,-3.036185742392183,-3.1144640500001617
1768730087668,124,-4,-3.638145395469847,-2.967936971183919,-3.084114702057599
1768730087672,124,-4,-3.464741091987736,-3.112168039659014,-2.913929107266247
1768730087676,124,-4,-3.165664037954974,-2.8781733163619476,-2.6184437595841494
1768730087680,125,-3,-2.82658768247644,-2.0087851627147475,-2.283331565147092
1768730087684,125,-3,-2.570714758408232,-1.9152541165813592,-2.0315993521271705
1768730087688,125,-3,-2.478084995419004,-2.0973722093273306,-1.9417980911384791
1768730087692,125,-3,-2.5278153759907527,-2.0155361463473502,-1.9913335338702836
1768730087696,125,-3,-2.60943850833132,-2.0258063393769916,-2.070323371113089
1768730087700,125,-3,-2.5928001178922955,-1.8847243973630912,-2.052272048819237
1768730087704,125,-3,-2.416532831858154,-2.0557674313823666,-1.88031665617486
1768730087708,125,-3,-2.1405704980718587,-1.9713229042745093,-1.6162298816286969
1768730087712,126,-2,-1.8947587945522049,-1.1654461702407837,-1.3863922592967777
1768730087716,126,-2,-1.6913939494481542,-0.939862991932726,-1.19444439008978
1768730087720,126,-2,-1.17643499403688,-0.9759659505549454,-0.6773650685346122
1768730087724,128,0,0.5075843040502646,0.992207680570016,1.02345727952073
1768730087728,133,5,4.566954367036529,6.002885974617302,5.103788201249074
1768730087732,140,12,12.017576149807088,12.80273628318364,12.563963748502044
1768730087736,149,21,22.862570174450212,22.08898593264857,23.398367363489943
1768730087740,162,34,35.397402195962364,34.95250340584439,35.90618736577913
1768730087744,174,46,46.255081165842654,47.04524321842261,46.732586229309675
1768730087748,180,52,51.52742285410966,52.9218568246843,51.98257808376646
1768730087752,177,49,48.55502019634264,49.81499980864152,49.00553337415931
1768730087756,165,37,37.36095547643862,38.00702451463486,37.82546209899021
1768730087760,148,20,20.806921804567928,20.951345249859273,21.29605008340322
1768730087764,130,2,3.339993618449922,3.046797964615001,3.85080073940042
1768730087768,116,-12,-10.92904494209257,-11.044711034094457,-10.41143007346356
1768730087772,108,-20,-19.73249625084068,-19.17927291533592,-19.226779089302863
1768730087776,105,-23,-23.023739437250363,-22.00313443060008,-22.54278070889196
1768730087780,106,-22,-22.279336430192096,-21.093131430023973,-21.82410642362227
1768730087784,108,-20,-19.386320394616664,-18.94989487075074,-18.946430903275488
1768730087788,111,-17,-15.831704723930066,-16.071642528314534,-15.392318232528416
1768730087792,115,-13,-12.477593474377905,-12.192660919162712,-12.02874724255695
1768730087796,118,-10,-9.722002705007096,-9.004051290372418,-9.26392597884512
1768730087800,120,-8,-7.703137032298672,-7.1834294530873075,-7.243722477152818
1768730087804,121,-7,-6.391204068896793,-5.847761133215967,-5.9385334777833805
1768730087808,122,-6,-5.6237682940443845,-5.230697545697486,-5.180567111700479
1768730087812,122,-6,-5.172838999208649,-5.026430335619661,-4.736747279256104
1768730087816,123,-5,-4.84059813552396,-4.2077790911753326,-4.408168503244121
1768730087820,123,-5,-4.520449193132789,-4.0233871084644175,-4.090291359877586
1768730087824,123,-5,-4.189226101257102,-4.020620131200118,-3.762145482576888
1768730087828,124,-4,-3.8569450416904063,-3.0952331100780053,-3.4343167883190255
1768730087832,124,-4,-3.524694161653149,-3.1575495650206085,-3.1071384793604446
1768730087836,124,-4,-3.1801646422597347,-3.1450404669661483,-2.7673968179180246
1768730087840,125,-3,-2.820066434038142,-2.079814996498368,-2.411512252202946
1768730087844,125,-3,-2.4646279469193884,-2.040452509187913,-2.059893985118781
1768730087848,125,-3,-2.1448102697421625,-2.0494525887444937,-1.7437288711835108
1768730087852,126,-2,-1.8745889218849972,-1.259668891157195,-1.4773023854787106
1768730087856,126,-2,-1.6334015333443272,-1.0507574827890886,-1.2404449703736609
1768730087860,126,-2,-1.3788332215937764,-1.236083748670372,-0.9907388909240028
1768730087864,126,-2,-1.08902565968967,-0.8898371417611932,-0.7058607880991381
1768730087868,127,-1,-0.7979529037628916,-0.2347686055338598,-0.4194920473894354
1768730087872,127,-1,-0.5788587905009466,-0.0902530389835407,-0.2049820745177601
1768730087876,127,-1,-0.4819446304289086,-0.2426711587883596,-0.1126016045292752
1768730087880,127,-1,-0.4838044498271968,-0.1115352141148307,-0.1188293867388601
1768730087884,127,-1,-0.4944866209255816,-0.0013323916636316,-0.1336715009682336
1768730087888,127,-1,-0.4160461950928658,-0.1979349819732798,-0.0593170000804792
1768730087892,127,-1,-0.2075533903658208,-0.0834678865800131,0.1448109990009978
1768730087896,128,0,0.0939429235034724,0.658299876164822,0.4411381591338663
1768730087900,128,0,0.4128525358614229,1.0044530660276862,0.7540487308275405
1768730087904,128,0,0.6946709450365512,0.8034040781706937,1.0300989539657714
1768730087908,128,0,0.929736794543038,1.0160591792708835,1.2607873461331625
1768730087912,129,1,1.1367447014787349,1.6500650421866945,1.4644082297419485
1768730087916,129,1,1.3457322907893208,1.9142468261232024,1.6693393537776386
1768730087920,129,1,1.5942102629369412,1.702050647893894,1.912301097794254
1768730087924,129,1,1.9125830775182724,2.079480148808552,2.2246718320366337
1768730087928,130,2,2.297426100729891,2.7193067593824316,2.6042695686614863
1768730087932,130,2,2.709891429905474,2.9159422112021076,3.012187298608713
1768730087936,131,3,3.11611190692376,3.6294227474794583,3.413616939475625
1768730087940,131,3,3.5290708732201144,3.9470322357978618,3.8212420105585343
1768730087944,131,3,3.999016932253099,3.804611990278562,4.28602567855966
1768730087948,132,4,4.556421119274715,4.960463681309053,4.838922019072326
1768730087952,133,5,5.169782338538812,5.6725867597276745,5.447740302297687
1768730087956,133,5,5.7640379954820355,5.811290811401984,6.036376494423812
1768730087960,134,6,6.274955809215836,6.7840091758872,6.540679724461637
1768730087964,134,6,6.680974068171292,6.8762564465570915,6.940463779847224
1768730087968,134,6,6.990503401385726,6.902672684746222,7.245339203092201
1768730087972,135,7,7.2170492949852925,7.684252211417068,7.468316415931458
1768730087976,135,7,7.38136084891687,7.782554911012706,7.628337852820717
1768730087980,135,7,7.530521672451741,7.791741104464629,7.771503967602391
1768730087984,135,7,7.725149381723342,7.8135837268409025,7.959497638783782
1768730087988,135,7,7.983012348994676,7.956221910233794,8.211758030971636
1768730087992,136,8,8.239087761574908,8.582531376496565,8.463313259341229
1768730087996,136,8,8.381894899211275,8.89187069687453,8.60119037577089
1768730088000,136,8,8.337483762428961,8.630076743239055,8.550630980068302
1768730088004,135,7,8.108802724672262,7.951834730811656,8.315569728236461
1768730088008,135,7,7.731538353202099,7.774656230411253,7.932933276112907
1768730088012,135,7,7.21131455109779,7.732892730973463,7.408129644374132
1768730088016,134,6,6.521652163723532,6.7475868135074375,6.7135953252704255
1768730088020,133,5,5.65542928834305,5.721107899200307,5.841833899093038
1768730088024,132,4,4.659744564613598,4.85312013056493,4.840395626709601
1768730088028,131,3,3.615670609700082,3.7952033587665985,3.790634488378144
1768730088032,130,2,2.587815596366325,2.7223869091515107,2.7570098736135735
1768730088036,129,1,1.5900112066209302,1.7216478252736709,1.7533538712612078
1768730088040,128,0,0.5935287008532713,0.746499000988085,0.7512603886654046
1768730088044,127,-1,-0.4276424553375046,-0.2371799172397302,-0.2751225140573785
1768730088048,126,-2,-1.448648319245251,-1.1375170184282002,-1.301212319192727
1768730088052,125,-3,-2.386403037013854,-2.385981862815316,-2.244291835140064
1768730088056,124,-4,-3.1483075423842015,-3.1679249891777888,-3.0118604583930852
1768730088060,124,-4,-3.700482319837957,-3.3901976552932824,-3.5698898207002907
1768730088064,123,-5,-4.094701105169498,-4.15045861705759,-3.9699809446251417
1768730088068,123,-5,-4.4266292689451365,-4.250564489309437,-4.307728678513018
1768730088072,123,-5,-4.758884856759707,-4.314887324268954,-4.645673059176715
1768730088076,122,-6,-5.075798906394935,-5.233158517165772,-4.967925769291534
1768730088080,122,-6,-5.310402129359716,-5.371391416996468,-5.20746257044296
1768730088084,122,-6,-5.415684059723409,-5.188940799277184,-5.317801357156924
1768730088088,122,-6,-5.4105587780536775,-5.277985017290968,-5.318524808795655
1768730088092,122,-6,-5.363852416213035,-5.281429614924003,-5.2782939253710195
1768730088096,122,-6,-5.34222952983415,-5.302040313215052,-5.262819637420251
1768730088100,122,-6,-5.367842434997625,-5.314120527071628,-5.293727570143823
1768730088104,122,-6,-5.4076749160400635,-5.305658110828084,-5.338531525916841
1768730088108,122,-6,-5.394367003066665,-5.1886437597199135,-5.330536345997982
1768730088112,122,-6,-5.270289520205539,-5.396289675384363,-5.2118876363100135
1768730088116,122,-6,-5.032224234065622,-5.20056567769353,-4.978837270750491
1768730088120,123,-5,-4.738754456943905,-4.432305540006699,-4.690417959888001
1768730088124,123,-5,-4.465736156677121,-4.258985919172849,-4.423554153515663
1768730088128,123,-5,-4.253572676661749,-4.233355141545681,-4.218548306309463
1768730088132,123,-5,-4.105753845307638,-4.417860573610817,-4.077275067357299
1768730088136,123,-5,-4.030284307121249,-4.1520007828114665,-4.006599467003819
1768730088140,124,-4,-4.051339290575868,-3.5477026002348495,-4.031509276765674
1768730088144,123,-5,-4.159652318665573,-4.15637088376091,-4.144297647510383
1768730088148,123,-5,-4.267695462269792,-4.386638174980424,-4.257775211320581
1768730088152,123,-5,-4.248069584542112,-4.283560706324272,-4.243760503114034
1768730088156,123,-5,-4.035700336285313,-4.300927485829903,-4.036893002045537
1768730088160,124,-4,-3.6931161656032265,-3.445223587449253,-3.7003673299283526
1768730088164,124,-4,-3.3720993511678934,-3.2547012510083873,-3.386219195990551
1768730088168,124,-4,-3.206989939071393,-3.3794763372106025,-3.227627434020793
1768730088172,124,-4,-3.2288774274768315,-3.2536496312087935,-3.2542367989515992
1768730088176,124,-4,-3.3534706758167543,-3.424665895877531,-3.381949951396382
1768730088180,124,-4,-3.4319036165698904,-3.2902551650866028,-3.4637809731220237
1768730088184,124,-4,-3.3290866411016524,-3.4747839632116446,-3.36619377211201
1768730088188,124,-4,-2.9976822831634022,-3.183515213968581,-3.0415270315667637
1768730088192,125,-3,-2.5124887923043473,-2.4612315522065487,-2.563055419889077
1768730088196,125,-3,-2.033219111557857,-2.2815541607555,-2.0895613160395756
1768730088200,126,-2,-1.7048345170638906,-1.4093609383530965,-1.7662796386127948
1768730088204,126,-2,-1.5643225045225542,-1.437424825075342,-1.6306421112623737
1768730088208,125,-3,-1.5335212397611124,-2.2128135900249815,-1.6043236116538733
1768730088212,126,-2,-1.5036371630934116,-1.503619991396108,-1.5785028612137522
1768730088216,126,-2,-1.4262617451997033,-1.2280983391516236,-1.505589850942051
1768730088220,126,-2,-1.3282925441063242,-1.517516905288234,-1.413229646136389
1768730088224,126,-2,-1.259510522823997,-1.3259673821955742,-1.3507170883671722
1768730088228,126,-2,-1.2416088194436432,-1.3811413250338598,-1.3385357160300837
1768730088232,126,-2,-1.2596023483595329,-1.375471804469055,-1.3611733718223993
1768730088236,126,-2,-1.283722248758939,-1.358372558028854,-1.3894102771619317
1768730088240,126,-2,-1.2930797635946465,-1.440954932770127,-1.4031693110293766
1768730088244,126,-2,-1.2852618466402894,-1.388930828686148,-1.400315964233844
1768730088248,126,-2,-1.2712686179189934,-1.392708932675626,-1.3915756909990096
1768730088252,126,-2,-1.263194475603709,-1.3798263719489336,-1.388660767341204
1768730088256,126,-2,-1.2644092656871215,-1.387674219060551,-1.3947614365746088
1768730088260,126,-2,-1.2690389844942944,-1.4301646462093944,-1.404027615964018
1768730088264,126,-2,-1.2696624917969483,-1.420106627488755,-1.4091572998401771
1768730088268,126,-2,-1.2649489633370838,-1.410054728795738,-1.4089706831661528
1768730088272,126,-2,-1.259711500509916,-1.3939216083889585,-1.4084061831857215
1768730088276,126,-2,-1.2583483957899426,-1.401379707809722,-1.411865229989518
1768730088280,126,-2,-1.2597623423865112,-1.43311557827117,-1.4180899137673015
1768730088284,126,-2,-1.2595040303318938,-1.4440568282059574,-1.422426660933219
1768730088288,126,-2,-1.2558988666805375,-1.4281969005459003,-1.4231579308432818
1768730088292,126,-2,-1.252140402453892,-1.4118086122354778,-1.423664324584857
1768730088296,126,-2,-1.2516716214114418,-1.4092798016037291,-1.4276329816972837
1768730088300,126,-2,-1.2530446708194989,-1.4406044004314245,-1.4336677634814154
1768730088304,126,-2,-1.2515096060395583,-1.4673028571766529,-1.4368176087722622
1768730088308,126,-2,-1.245928501313108,-1.443376426328528,-1.4356822819400576
1768730088312,126,-2,-1.2418781160703536,-1.4354776778670373,-1.435751992760829
1768730088316,126,-2,-1.2454316674783588,-1.4107451732339564,-1.4432438569996662
1768730088320,126,-2,-1.2538499884989582,-1.4512097955818153,-1.4556599695578816
1768730088324,126,-2,-1.2551981130372405,-1.4943724594759151,-1.4612444645038176
1768730088328,126,-2,-1.2405146364421038,-1.4471162050542616,-1.451068918039945
1768730088332,126,-2,-1.217616544995428,-1.4768577622688557,-1.4328131825694694
1768730088336,126,-2,-1.2105473815349357,-1.3940629862644685,-1.4302529926948224
1768730088340,126,-2,-1.2392934224261427,-1.4690761861335035,-1.4631219693469977
1768730088344,126,-2,-1.2920164232440112,-1.5385994248164596,-1.5195127509691144
1768730088348,126,-2,-1.312580850265943,-1.3975015607138817,-1.5434187836092417
1768730088352,126,-2,-1.2202941608334432,-1.616706999433566,-1.4543801369402614
1768730088356,126,-2,-0.956328046272276,-1.232677481126775,-1.19391072919175
1768730088360,127,-1,-0.5265033101172003,-0.6690709987880028,-0.7682661091807965
1768730088364,127,-1,-0.0077128335664078,-0.3751754067080701,-0.2545014692446248
1768730088368,128,0,0.4876905347613876,0.4370631760381618,0.2355999141450202
1768730088372,128,0,0.8650704860695337,0.4476916591716919,0.6085115281158495
1768730088376,128,0,1.0886610294575187,0.7474766484066939,0.8291673249033128
1768730088380,129,1,1.1959081718472315,1.266638966542306,0.934546006498786
1768730088384,128,0,1.2812492957220998,0.7154881305527512,1.0177497643403983
1768730088388,129,1,1.450042258065268,1.2661133440405024,1.1830067127031116
1768730088392,129,1,1.7570494741262737,1.6102937617613595,1.4850692052817016
1768730088396,129,1,2.162710848140531,1.53989328739348,1.88552060804022
1768730088400,130,2,2.5415524223924866,2.4668266287987644,2.2601898606759567
1768730088404,130,2,2.7504189957008776,2.4926414243891117,2.466174752818273
1768730088408,130,2,2.719590961480261,2.426412946346284,2.4328324431808985
1768730088412,130,2,2.4985220798398338,2.4410956074197476,2.208683366018871
1768730088416,129,1,2.2100232663697694,1.6489136721662394,1.9166459287221436
1768730088420,129,1,1.9427453861082795,1.368283868400748,1.6460762023336122
1768730088424,129,1,1.6779062248200298,1.5462368020392134,1.3782391584811886
1768730088428,129,1,1.323103908617716,1.3519201354817496,1.0200475374795646
1768730088432,128,0,0.8178081966431416,0.4537202653312864,0.5107895323982121
1768730088436,127,-1,0.1988426311801184,-0.3530086090217836,-0.1119363713862886
1768730088440,127,-1,-0.435746512029746,-0.7110788300914941,-0.7494485724878472
1768730088444,126,-2,-1.013383521760571,-1.328552741419796,-1.329541035993269
1768730088448,126,-2,-1.5318925222976725,-1.8843786406971368,-1.8508429107223976
1768730088452,125,-3,-2.02806029771069,-2.270381439013594,-2.3503861558260595
1768730088456,125,-3,-2.5117212736234182,-2.7164985898698237,-2.8374948028300446
1768730088460,124,-4,-2.932780526707405,-3.3422987005725178,-3.26141319299576
1768730088464,124,-4,-3.21309531083674,-3.726313195313891,-3.5439640603318834
1768730088468,124,-4,-3.3130025487543553,-3.5487655076421105,-3.646280670629899
1768730088472,124,-4,-3.270893583296542,-3.5798854403128613,-3.6075822340548025
1768730088476,124,-4,-3.1837017941307297,-3.518303074109798,-3.5245811619954854
1768730088480,124,-4,-3.1497512160359356,-3.468293219364292,-3.494373725313589
1768730088484,124,-4,-3.2165077296248388,-3.735897346366252,-3.5634898498119125
1768730088488,124,-4,-3.3594587892190013,-3.4769442575833507,-3.707749636780106
1768730088492,124,-4,-3.499228575571869,-3.761422509455483,-3.848919325851336
1768730088496,123,-5,-3.5523834199484567,-4.3130121546496065,-3.904507459043087
1768730088500,124,-4,-3.489474290588709,-3.723213897066696,-3.8454101135601992
1768730088504,124,-4,-3.355405331182821,-3.509450183456728,-3.716083355404039
1768730088508,124,-4,-3.232588758337148,-3.725074800669774,-3.597332077427672
1768730088512,124,-4,-3.180356421582461,-3.56214212590455,-3.54638797494445
1768730088516,124,-4,-3.2001824037507225,-3.5214736568569647,-3.5643244394756186
1768730088520,124,-4,-3.245300643686698,-3.5680899065082445,-3.607296294583741
1768730088524,124,-4,-3.260970824904278,-3.668126829366532,-3.625456547772473
1768730088528,124,-4,-3.224896050535697,-3.62393011696013,-3.599333646083104
1768730088532,124,-4,-3.1428131726828092,-3.664704931968088,-3.5317664733643985
1768730088536,124,-4,-2.9538480042277,-3.4852637539755356,-3.3536100608024277
1768730088540,125,-3,-2.348389421827689,-2.5870168511271827,-2.7469994340643176
1768730088544,127,-1,-0.6044333683102776,-0.7335683150962893,-0.9886503549170214
1768730088548,131,3,3.35486979458684,3.4810011073778613,2.9900140525995194
1768730088552,138,10,10.507964289307154,10.13888500612924,10.154385552877276
1768730088556,147,19,20.947547445096657,19.745729356556673,20.588024363656455
1768730088560,160,32,33.17480418748865,32.119828603393756,32.79274458210672
1768730088564,171,43,44.0716358400597,43.54108457445064,43.660159050084985
1768730088568,178,50,49.87797050888166,50.17921700462386,49.44344379235704
1768730088572,176,48,47.847570496823955,48.334644390056496,47.406572103979784
1768730088576,165,37,37.684658095548144,37.54117153660679,37.25614989673401
1768730088580,149,21,21.869971001470898,21.187839373321133,21.466141870765853
1768730088584,131,3,4.629436349104103,3.521748589432025,4.249612528569005
1768730088588,117,-11,-9.870595797395293,-10.839190775652478,-10.239548524276964
1768730088592,108,-20,-19.091331933000102,-19.588103591399783,-19.46807156792155
1768730088596,105,-23,-22.686747696628387,-22.52939457930341,-23.085668256823613
1768730088600,106,-22,-21.988442878315823,-21.804053817885222,-22.4123481524813
1768730088604,108,-20,-18.95168107943681,-19.490651494095783,-19.391125559336643
1768730088608,112,-16,-15.25089042628789,-15.9230427020513,-15.690807746259653
1768730088612,115,-13,-11.891592086182143,-12.499226291148638,-12.320959873475529
1768730088616,118,-10,-9.271443702544127,-9.674642616517067,-9.689156725447631
1768730088620,120,-8,-7.417260294032804,-7.701704141156609,-7.830329915030233
1768730088624,121,-7,-6.191060130883272,-6.609820844862045,-6.607659869542184
1768730088628,122,-6,-5.410832503793272,-5.878956710196015,-5.8345002551571925
1768730088632,122,-6,-4.910408520420554,-5.513819028228403,-5.339521725171188
1768730088636,123,-5,-4.560895346634082,-4.734241722443339,-4.992150271664289
1768730088640,123,-5,-4.2667836183011305,-4.625221397751042,-4.698464318137108
1768730088644,123,-5,-3.959444071973094,-4.760356209405391,-4.391981496320398
1768730088648,124,-4,-3.605548508454609,-3.7419845917627583,-4.040085607163796
1768730088652,124,-4,-3.2198744548675378,-3.6754950129905337,-3.656758809786457
1768730088656,124,-4,-2.858111373679206,-3.6184271190551818,-3.2966326512022657
1768730088660,125,-3,-2.580256187170447,-2.728463556567678,-3.019712593795266
1768730088664,125,-3,-2.401734555831266,-2.7486054012736965,-2.8424415535001333
1768730088668,125,-3,-2.2723356399664896,-2.743584907193738,-2.7151133615130263
1768730088672,125,-3,-2.1145395251934573,-2.728933686289375,-2.5593488075125523
1768730088676,125,-3,-1.8950284707632208,-2.577303322795161,-2.340837528602946
1768730088680,126,-2,-1.6534310582546936,-1.7956154621322848,-2.0996501840321597
1768730088684,126,-2,-1.4498425782587094,-1.7289107711113088,-1.89726498977472
1768730088688,126,-2,-1.28931870844171,-1.7854789835960063,-1.739140621631159
1768730088692,126,-2,-1.11532219698358,-1.7255588282247285,-1.5675778254323531
1768730088696,126,-2,-0.8825556141392727,-1.5985614319857344,-1.336113562887042
1768730088700,127,-1,-0.6211239963780182,-0.8191777956804194,-1.0751570365734069
1768730088704,127,-1,-0.4128090873722534,-0.7105013520198447,-0.8676948151747998
1768730088708,127,-1,-0.3044045982584584,-0.8736578437133629,-0.7609944080367377
1768730088712,127,-1,-0.254174189703083,-0.6228246159250614,-0.7125891514162754
1768730088716,127,-1,-0.167230178827151,-0.7821353580871169,-0.6267565501074452
1768730088720,127,-1,0.0198974418993108,-0.6238551358702749,-0.4402303335621682
1768730088724,128,0,0.2910722420069658,0.0406236725439896,-0.1701436606954178
1768730088728,128,0,0.5800655383197892,0.355330680787257,0.1168816110318846
1768730088732,128,0,0.8375733817595516,0.1261628235267939,0.3724362068248595
1768730088736,128,0,1.0676607736196893,0.4028746693419879,0.6015709254991991
1768730088740,129,1,1.3140052912129514,1.207327497790322,0.8476311454740444
1768730088744,129,1,1.6250280393062784,1.1206229762492266,1.1579610260639892
1768730088748,129,1,2.022289310286033,1.3175593063114293,1.5538536170216304
1768730088752,130,2,2.4811227576530066,2.072002242632986,2.011226115366503
1768730088756,130,2,2.9399445200317595,2.460986313964301,2.468733793264425
1768730088760,131,3,3.3447491679504577,3.0980534034076364,2.872057849383187
1768730088764,131,3,3.69386646761107,3.198788253948986,3.2196287072468452
1768730088768,131,3,4.03584136746614,3.2456687596679785,3.5607207118083157
1768730088772,132,4,4.423153957627315,4.050280731964195,3.948063593934669
1768730088776,132,4,4.87460684944803,4.52501040312968,4.399574927909092
1768730088780,133,5,5.380281657366083,4.912462612907289,4.904285725095929
1768730088784,133,5,5.923913819551289,5.456473837141068,5.445983304698375
1768730088788,134,6,6.482228489278562,5.878231780867115,6.002381086309482
1768730088792,134,6,7.004958741665885,6.431464863510372,6.523879122872278
1768730088796,135,7,7.416101441141614,7.090599883983555,6.934218444419226
1768730088800,135,7,7.654790462565134,7.301629888322469,7.17208460575723
1768730088804,135,7,7.721918411229937,7.092051283342431,7.238522400244881
1768730088808,135,7,7.6851336664493966,7.143582531851363,7.201522573180154
1768730088812,135,7,7.636790600080412,7.203478553310506,7.15311244903286
1768730088816,135,7,7.640588393122819,7.204849560529586,7.156248843307501
1768730088820,135,7,7.698307530977187,7.238874148491756,7.212627211510198
1768730088824,135,7,7.743501351995953,7.071030858759357,7.256484344808573
1768730088828,135,7,7.662903372907655,7.17495896222171,7.174877926322206
1768730088832,135,7,7.345612694335705,7.106611620637703,6.856389786825627
1768730088836,134,6,6.737024005437297,6.269572399691229,6.246188199761052
1768730088840,133,5,5.855082684291304,5.167428623576217,5.363168627038089
1768730088844,132,4,4.758395687607848,4.085666829557285,4.266876787708147
1768730088848,131,3,3.5124640229265323,3.1690120709773453,3.022023468172408
1768730088852,130,2,2.19699720666572,2.023776751881444,1.7064262992495545
1768730088856,128,0,0.92580169892123,0.3768444060071488,0.4333795692279883
1768730088860,127,-1,-0.183965517015918,-1.0154615743341209,-0.678339023373633
1768730088864,126,-2,-1.0876194787214426,-1.7158530343905785,-1.5825496239211865
1768730088868,126,-2,-1.845747731195079,-2.0927413083542787,-2.3405021562714445
1768730088872,125,-3,-2.558646954371561,-2.739468650577461,-3.054126316662905
1768730088876,124,-4,-3.2663583029574834,-3.873045848021059,-3.7635241104729977
1768730088880,123,-5,-3.9230919275189953,-4.8318413266521505,-4.421360087787418
1768730088884,123,-5,-4.461311885314082,-4.882422025583763,-4.959303197211409
1768730088888,123,-5,-4.857731908644541,-5.018319326051337,-5.355064303168957
1768730088892,122,-6,-5.133629168003766,-5.782042595031329,-5.631149879128963
1768730088896,122,-6,-5.315216958758235,-5.907252504957848,-5.81379964839718
1768730088900,122,-6,-5.412848301480041,-5.7910018314637535,-5.912713546443033
1768730088904,122,-6,-5.433720622242066,-5.991288328521889,-5.934738177765293
1768730088908,122,-6,-5.402798092405148,-5.924935163546242,-5.90472419125795
1768730088912,122,-6,-5.3666142326678905,-5.897051940127165,-5.868938694549379
1768730088916,122,-6,-5.37146669643771,-5.840817486205879,-5.873538708098747
1768730088920,122,-6,-5.427228688403842,-5.856027738318652,-5.928875233642069
1768730088924,122,-6,-5.48631098908423,-6.0116546506950215,-5.988203316602912
1768730088928,122,-6,-5.466222952005339,-5.88648317596015,-5.96930582978721
1768730088932,122,-6,-5.311751022568019,-5.999604769371678,-5.816214575778534
1768730088936,122,-6,-5.04903798571257,-5.741093683621487,-5.554111991481522
1768730088940,123,-5,-4.774016609288979,-4.9939513695290705,-5.278930538537077
1768730088944,123,-5,-4.57107334042125,-4.926012809683231,-5.075897074207903
1768730088948,123,-5,-4.435624041054229,-4.9738954312180415,-4.94089143566665
1768730088952,123,-5,-4.284535741270792,-4.975375219513715,-4.7904123240073035
1768730088956,123,-5,-4.049888159984841,-4.759118685604241,-4.556209770842465
1768730088960,124,-4,-3.758861925579029,-4.041001916243942,-4.265766782991804
1768730088964,124,-4,-3.516398427486454,-3.8864121883881215,-4.024260679716342
1768730088968,124,-4,-3.410154980392349,-4.05533631689106,-3.918819862523134
1768730088972,124,-4,-3.4295045468244374,-3.925231381528651,-3.9381316474092567
1768730088976,124,-4,-3.4660609795922444,-3.829689668265308,-3.9739322752029302
1768730088980,124,-4,-3.390657332344164,-4.029949435733952,-3.8978760956767182
1768730088984,124,-4,-3.1488751398014303,-3.891127374100097,-3.656305904504004
1768730088988,125,-3,-2.8051087606386487,-3.1116758609684436,-3.3138997061301914
1768730088992,125,-3,-2.499244245311683,-2.8691110414793255,-3.0101432563446804
1768730088996,125,-3,-2.3489775923536578,-2.945921461440054,-2.861575583870829
1768730089000,125,-3,-2.374555082802366,-2.927478360587785,-2.8872444706122313
1768730089004,125,-3,-2.4937821455793534,-3.0449402491923565,-3.004929023929781
1768730089008,125,-3,-2.5729624995796474,-2.9675321579692477,-3.082311996691357
1768730089012,125,-3,-2.492519756861964,-3.057012187041631,-3.0013891239330457
1768730089016,125,-3,-2.19907495175963,-2.7737484217501693,-2.709208048701229
1768730089020,126,-2,-1.7300466006706436,-2.1472166536151187,-2.242295060665363
1768730089024,126,-2,-1.2004772564575688,-1.847619559529694,-1.7143821223006597
1768730089028,127,-1,-0.7515271022017742,-1.1996505461109366,-1.2659223011945129
1768730089032,127,-1,-0.4817790237498448,-0.8510592809473319,-0.9957294664869554
1768730089036,127,-1,-0.4007057769940523,-1.009452960001271,-0.9140048514419752
1768730089040,127,-1,-0.436565124458807,-0.9615616279198174,-0.9496065625367772
1768730089044,127,-1,-0.4936355905620202,-1.041378845172244,-1.0069963634570898
1768730089048,127,-1,-0.5149020459876625,-1.0673891590593376,-1.028953900635168
1768730089052,127,-1,-0.503866031769499,-0.9671656701424748,-1.018565839041348
1768730089056,127,-1,-0.4956845081327927,-0.9662021588922798,-1.010665282464406
1768730089060,127,-1,-0.5095785866619217,-1.0062799009978485,-1.0245357864869653
1768730089064,127,-1,-0.5267006054187168,-1.0582659558295238,-1.0417686309536085
1768730089068,127,-1,-0.5124432428176557,-1.0596838266949435,-1.0281287568237578
1768730089072,127,-1,-0.4618544096556503,-1.0125480413909431,-0.9784748368011978
1768730089076,127,-1,-0.4244497861891276,-0.9435547204629032,-0.9416967482442252
1768730089080,127,-1,-0.4776406289469755,-1.0698888728729292,-0.9949406240461328
1768730089084,127,-1,-0.6590043385908824,-1.028989084646608,-1.1762881392739168
1768730089088,127,-1,-0.9114074370797998,-1.114041941122321,-1.4290668586349151
1768730089092,126,-2,-1.102053271107155,-1.9913573743928463,-1.6200106556458185
1768730089096,126,-2,-1.11732316703827,-1.987461945322743,-1.634846567582334
1768730089100,127,-1,-0.9512478786554326,-1.0709254930090577,-1.4681717303690212
1768730089104,127,-1,-0.7015536054804647,-1.0483418520960566,-1.2190334472518205
1768730089108,127,-1,-0.4874553649598724,-1.1359499359671057,-1.0068105138445271
1768730089112,127,-1,-0.3825437277514727,-0.9730570749104932,-0.9037410129154416
1768730089116,127,-1,-0.4138551304650235,-1.077952759565259,-0.9357409574477328
1768730089120,127,-1,-0.5875870107153622,-0.982946536046744,-1.1092781927777668
1768730089124,127,-1,-0.8870693856071973,-1.1959648835109835,-1.4084290597667222
1768730089128,126,-2,-1.2483883325738174,-1.9829810868521192,-1.7693308017851703
1768730089132,126,-2,-1.557784974730276,-2.1771324349440895,-2.0780255542902815
1768730089136,126,-2,-1.6903839015357482,-1.9011523914008293,-2.210181382860369
1768730089140,126,-2,-1.5714241061082703,-2.198639987994789,-2.0919471685726068
1768730089144,126,-2,-1.2298049399746331,-2.0137878028817435,-1.752320815442287
1768730089148,127,-1,-0.8117700441087689,-1.1595425147670673,-1.3366563248402872
1768730089152,127,-1,-0.5263622612331897,-1.0753278459273827,-1.0529542748036842
1768730089156,127,-1,-0.5330383674101375,-0.9998287905918464,-1.0601011994576612
1768730089160,127,-1,-0.8384597047104823,-1.1750288589499158,-1.3647348331909277
1768730089164,126,-2,-1.2798997976351705,-2.0413228679154884,-1.8046431625971535
1768730089168,126,-2,-1.6142807695258887,-2.159852156833488,-2.13779111973092
1768730089172,126,-2,-1.654009584101169,-2.117549032872602,-2.177705612353325
1768730089176,126,-2,-1.3612441151093415,-1.967298173459814,-1.8868465788528892
1768730089180,127,-1,-0.8497293006604574,-1.2780421947650824,-1.3780362813975024
1768730089184,127,-1,-0.3059893342938753,-0.9177333531037138,-0.8364223051350559
1768730089188,128,0,0.1177325815914835,-0.3630893014230189,-0.4135645404169955
1768730089192,128,0,0.3783880239201752,0.0988818284720448,-0.1527350627021974
1768730089196,128,0,0.5436089918288598,-0.2537581066245169,0.0131722585305762
1768730089200,128,0,0.7245061617721222,-0.0202491473367124,0.1947239884026098
1768730089204,129,1,0.9950782357137328,0.8243929624859413,0.4652731695375756
1768730089208,129,1,1.3569673061928769,0.8191043965931382,0.8260591423903144
1768730089212,129,1,1.75673798900202,0.9511197834583288,1.223904576624106
1768730089216,130,2,2.1216070379956857,1.791649650286924,1.5866729270055857
1768730089220,130,2,2.387156748138576,1.9486464295150143,1.8505735801636736
1768730089224,130,2,2.511228204730364,1.793645539941631,1.9739995713693217
1768730089228,130,2,2.477436567372667,1.8429440634532417,1.940657854643989
1768730089232,130,2,2.299448792463969,1.898781151627972,1.7633116263618565
1768730089236,130,2,2.0296571495497493,1.7797953062750924,1.493090057447805
1768730089240,129,1,1.748483900510349,0.9726900221961328,1.2101996310441303
1768730089244,129,1,1.514620710436725,0.6772636363186489,0.9742823485964978
1768730089248,129,1,1.311854673771323,1.0133551749806615,0.7699493297801674
1768730089252,129,1,1.056334270059868,0.6168183875231389,0.5133973640968922
1768730089256,128,0,0.6704144946916125,0.0952512112021307,0.126819779364136
1768730089260,128,0,0.1548350560387588,-0.4233005515513639,-0.3891174012450982
1768730089264,127,-1,-0.4061141125077427,-0.9460231488790574,-0.9504900866934494
1768730089268,127,-1,-0.9067768850157572,-1.3681416514319271,-1.452213038025072
1768730089272,126,-2,-1.2981573242183382,-2.080947253067008,-1.845375174526866
1768730089276,126,-2,-1.622632303278542,-2.1646742533462215,-2.171792713198052
1768730089280,126,-2,-1.9753647629153508,-2.287012802304657,-2.526030802849096
1768730089284,125,-3,-2.417723279965146,-3.0230256081002618,-2.969299901113266
1768730089288,125,-3,-2.914313874453226,-3.4060925641164745,-3.466457120169899
1768730089292,124,-4,-3.3514044518353643,-3.995819254930626,-3.904257508715288
1768730089296,124,-4,-3.6228913432343193,-4.343641925826892,-4.1770944602495845
1768730089300,124,-4,-3.70946707187837,-4.105913077423446,-4.265720837961443
1768730089304,124,-4,-3.6858078977656694,-4.238170967272388,-4.244126530511211
1768730089308,124,-4,-3.6556857422764018,-4.242441010442731,-4.215187145845418
1768730089312,124,-4,-3.671863073790659,-4.14166295499676,-4.231722380386075
1768730089316,124,-4,-3.7025198120901703,-4.296342600692781,-4.263223618138678
1768730089320,124,-4,-3.66812252495859,-4.133572570920383,-4.231331381431069
1768730089324,124,-4,-3.521933974671713,-4.270291470973117,-4.088745321887339
1768730089328,124,-4,-3.3074265010343176,-4.231495597385551,-3.876896200634275
1768730089332,125,-3,-3.1298115854287443,-3.163024842135436,-3.699302368380009
1768730089336,125,-3,-3.052854340910683,-3.343444958265358,-3.6198387315157423
1768730089340,124,-4,-3.022673211389596,-4.092910162150574,-3.586954861256911
1768730089344,125,-3,-2.911113652341741,-3.354115284337923,-3.476525391166178
1768730089348,125,-3,-2.64548748252757,-3.1841769097437105,-3.219108270578915
1768730089352,125,-3,-2.284499607267799,-3.2099869650981723,-2.8718597486432684
1768730089356,126,-2,-1.9227612631747772,-2.376047238945363,-2.521709659366197
1768730089360,126,-2,-1.4315801841585838,-2.0200450832592507,-2.030916527151033
1768730089364,128,0,-0.1931356111785653,-0.5620517421091127,-0.7791036544921299
1768730089368,131,3,2.915087210142344,3.115709979773313,2.348768447455259
1768730089372,137,9,9.07534343952431,8.348957571554674,8.522095110657066
1768730089376,145,17,18.679468451377502,17.14427110954437,18.123206380105028
1768730089380,158,30,30.51917093225294,29.370260436216483,29.94326015077449
1768730089384,169,41,41.6619625979591,41.03453548904796,41.057812450757275
1768730089388,177,49,48.36819309812432,48.49509594184045,47.73961262037
1768730089392,176,48,47.721825206028214,47.875417209399885,47.08370101275028
1768730089396,167,39,39.083278020100614,38.58985628725395,38.45470734361135
1768730089400,152,24,24.50014819409823,23.806124474901917,23.894709009022165
1768730089404,135,7,7.83136915047531,6.613704783680325,7.249856332759014
1768730089408,120,-8,-6.897291571287132,-8.108675505789517,-7.467009678341247
1768730089412,111,-17,-16.997953698329685,-17.450904308328315,-17.573822832382124
1768730089416,106,-22,-21.770736777763975,-22.118431370920387,-22.366742736601005
1768730089420,106,-22,-22.168964036152992,-22.49021978394039,-22.7885832515862
1768730089424,108,-20,-19.900534319411513,-20.171949877235747,-20.536585826174807
1768730089428,111,-17,-16.56872548163608,-17.317027424150965,-17.208615775640077
1768730089432,114,-14,-13.237704607614626,-14.331830514789708,-13.87061735245551
1768730089436,117,-11,-10.426256907696905,-11.197916553969886,-11.048664797358608
1768730089440,120,-8,-8.287423834840851,-8.56240622487044,-8.9039995840876
1768730089444,121,-7,-6.762843563904193,-7.035414054491116,-7.381958235340122
1768730089448,122,-6,-5.683164117607292,-6.577194175197789,-6.310320933420571
1768730089452,122,-6,-4.874503041316408,-6.005895142249899,-5.509384122015225
1768730089456,124,-4,-4.2559327311721775,-4.6167173737394425,-4.8950459937126265
1768730089460,124,-4,-3.8448520706353095,-4.153206991801855,-4.48575947072054
1768730089464,124,-4,-3.6608012876365454,-4.480291541385788,-4.303321825769984
1768730089468,124,-4,-3.632831009269117,-4.176526926140145,-4.277466414316072
1768730089472,124,-4,-3.6084199683984495,-4.3858635298263415,-4.255258961288188
1768730089476,124,-4,-3.4486452164317667,-4.344452954221812,-4.097977756856341
1768730089480,125,-3,-3.115081207722868,-3.3768009883908996,-3.767982109815489
1768730089484,125,-3,-2.679757613802607,-3.3680817172803463,-3.3371644506230695
1768730089488,125,-3,-2.2664705898553765,-3.2420825894471386,-2.927929212837262
1768730089492,126,-2,-1.9727681461999569,-2.3959482693394145,-2.636854860957149
1768730089496,126,-2,-1.8133105002154224,-2.3568278614478166,-2.47928793605636
1768730089500,126,-2,-1.7129966725957513,-2.401165979732538,-2.381411656804177
1768730089504,126,-2,-1.5648706465736386,-2.378293707623142,-2.2365366547514594
1768730089508,126,-2,-1.3204302157475447,-2.2412771629240025,-1.995568346672256
1768730089512,127,-1,-1.0331306107018663,-1.4467153421083203,-1.7117436964407204
1768730089516,127,-1,-0.8065488581990021,-1.3171470926031743,-1.4889677230489895
1768730089520,127,-1,-0.6942774102760152,-1.5087029203783142,-1.3807521291147158
1768730089524,127,-1,-0.650197117371379,-1.2617751888296929,-1.3401526088326126
1768730089528,127,-1,-0.5734334217753501,-1.4216928880929909,-1.2657094080953963
1768730089532,127,-1,-0.3960415160462466,-1.2710913410182851,-1.0901985823746752
1768730089536,128,0,-0.1268770316722004,-0.5390070518423274,-0.8240874201155699
1768730089540,128,0,0.1786057548556044,-0.3140320860301394,-0.5235069085856187
1768730089544,128,0,0.4728322821684864,-0.4851160919100221,-0.2347065510761808
1768730089548,128,0,0.7348506777096141,-0.2290031704797519,0.0232690765040809
1768730089552,129,1,0.9582160822817816,0.4948190797294293,0.2442389990377109
1768730089556,129,1,1.1520509823502094,0.6782768597604956,0.4359511598462455
1768730089560,129,1,1.357193113856067,0.4187840000244767,0.6381294949767489
1768730089564,129,1,1.63662309713374,0.7837327389487796,0.913739729860748
1768730089568,130,2,2.0317771698753577,1.429918218523926,1.3044788284588804
1768730089572,130,2,2.5281753857004032,1.840806187609246,1.7959947135273426
1768730089576,131,3,3.0651904341847342,2.268701029019388,2.3282436811468865
1768730089580,131,3,3.579005935493798,2.832374952893304,2.8384141335279804
1768730089584,132,4,4.0468889413358,3.318703021089408,3.304048467805446
1768730089588,132,4,4.507007443475645,3.8576574125862058,3.762223020312371
1768730089592,133,5,5.035605710492358,4.401294418804468,4.287662388956456
1768730089596,133,5,5.680510762934446,4.641462691650157,4.927613094256029
1768730089600,134,6,6.390890423281523,5.489384456606706,5.631888895389995
1768730089604,135,7,7.011928387718929,6.564578838477957,6.246979187841734
1768730089608,135,7,7.3740005136228035,6.640442067224553,6.604662267012024
1768730089612,135,7,7.418986651699675,6.525711265885291,6.647500416918418
1768730089616,135,7,7.264977561397607,6.539488292704359,6.492515217785113
1768730089620,135,7,7.155830586009625,6.519616796714464,6.381162618496184
1768730089624,135,7,7.31830574573935,6.532492340454586,6.5388300776347394
1768730089628,135,7,7.805287254165284,6.628981404811626,7.019556226747143
1768730089632,136,8,8.431408800046702,7.508644724270564,7.640013051396452
1768730089636,137,9,8.875863861946275,8.533234788170088,8.07985013445475
1768730089640,137,9,8.90339969655994,8.485672352112855,8.103023423864194
1768730089644,136,8,8.524757391347537,7.539373725304963,7.720394956864571
1768730089648,135,7,7.9480256797615745,6.5846436899896705,7.141066423149346
1768730089652,135,7,7.37360829836005,6.510657981821299,6.5649868319297315
1768730089656,135,7,6.838722229836473,6.5151585269174035,6.026963793435147
1768730089660,134,6,6.24109467658104,5.4844941911261,5.42325354435412
1768730089664,133,5,5.471291626926272,4.498935109637007,4.646112975052728
1768730089668,132,4,4.5028006073826,3.610603924519237,3.6720533001029905
1768730089672,131,3,3.385336090617765,2.39239825824772,2.55168184294948
1768730089676,130,2,2.198901715972482,1.6654424989716052,1.3631626954553568
1768730089680,129,1,1.02730901067992,0.2781141178619968,0.1882970076194865
1768730089684,127,-1,-0.0519508973676496,-1.300839724944128,-0.895577318892685
1768730089688,127,-1,-0.9841687962673388,-1.6289255204576727,-1.832729849356002
1768730089692,126,-2,-1.7535600831671587,-2.452709616293372,-2.6067675037103504
1768730089696,125,-3,-2.3820139095237467,-3.4439424773884433,-3.2396749187427583
1768730089700,125,-3,-2.9148627952204813,-3.7049151723550846,-3.777011372824788
1768730089704,124,-4,-3.40575587793896,-4.254216965644851,-4.27254797443525
1768730089708,124,-4,-3.9001476634110337,-4.82468174685848,-4.771755648567888
1768730089712,123,-5,-4.415422363156049,-5.212535214565572,-5.29174018979893
1768730089716,123,-5,-4.927348973577762,-5.768850228089913,-5.807666754912973
1768730089720,122,-6,-5.375438385777907,-6.359648120011644,-6.258736169834143
1768730089724,122,-6,-5.686915404372183,-6.620643740618194,-6.572978500636848
1768730089728,122,-6,-5.805759365895045,-6.5537102639645894,-6.695978678865787
1768730089732,122,-6,-5.717915564923876,-6.457716355690176,-6.614301445441028
1768730089736,122,-6,-5.474931830543935,-6.615309000406657,-6.377978642433678
1768730089740,122,-6,-5.202796168564082,-6.461088675857543,-6.110898157690505
1768730089744,123,-5,-5.056612691226097,-5.5950252702257295,-5.968012942049024
1768730089748,123,-5,-5.115405811613299,-5.612661900775368,-6.030017085322373
1768730089752,122,-6,-5.301317142343133,-6.4345063703967655,-6.21997558451432
1768730089756,122,-6,-5.425850581343958,-6.679448487877346,-6.348602347172045
1768730089760,122,-6,-5.344019328780882,-6.38392356610628,-6.270359071734567
1768730089764,123,-5,-5.071271998786299,-5.732383811919299,-6.001790895106054
1768730089768,123,-5,-4.754781209351197,-5.49177287068878,-5.691248878345379
1768730089772,123,-5,-4.545178541116465,-5.6069955282813035,-5.488487257129617
1768730089776,123,-5,-4.4980994845099245,-5.532389027169495,-5.44679587591804
1768730089780,123,-5,-4.571418594787027,-5.54644954884734,-5.5229000387411995
1768730089784,123,-5,-4.679689753630264,-5.615034808606953,-5.63280161254021
1768730089788,123,-5,-4.740375385116616,-5.628840999470494,-5.696555539976819
1768730089792,123,-5,-4.693617026440627,-5.516774555339165,-5.655408278799344
1768730089796,123,-5,-4.51783363103458,-5.642262950301358,-5.486386499181595
1768730089800,123,-5,-4.2488105703865715,-5.467141046280391,-5.223023208594916
1768730089804,124,-4,-3.9717922835998634,-4.717971581890589,-4.94982467216643
1768730089808,124,-4,-3.763764635622616,-4.570947603525647,-4.744919141214226
1768730089812,124,-4,-3.6260710437515415,-4.594139497201852,-4.610929400352369
1768730089816,124,-4,-3.482227859678278,-4.612568204084832,-4.471497057268043
1768730089820,124,-4,-3.2567676999516504,-4.504771918036519,-4.250725558555942
1768730089824,125,-3,-2.9590034091579636,-3.7347730321687305,-3.95791199271756
1768730089828,125,-3,-2.685762937749423,-3.5548234122618707,-3.6899514410594
1768730089832,125,-3,-2.5418962323932917,-3.673730236508556,-3.5511076611016232
1768730089836,125,-3,-2.55394924329777,-3.531937717632095,-3.567190427607342
1768730089840,125,-3,-2.6451578466309336,-3.649041618312037,-3.6616455937194985
1768730089844,125,-3,-2.6824666191376068,-3.6007333063949583,-3.702425541576477
1768730089848,125,-3,-2.56195909797224,-3.722495292498457,-3.5862289075219844
1768730089852,125,-3,-2.279588702790975,-3.5382188595367445,-3.3088193671911834
1768730089856,126,-2,-1.9356713291903305,-2.6879044371355674,-2.9701612731320117
1768730089860,126,-2,-1.6628414640090816,-2.540739495532034,-2.702652294377471
1768730089864,126,-2,-1.5342611666666213,-2.727258347838456,-2.578967385694028
1768730089868,126,-2,-1.529563164874836,-2.634086761458214,-2.57819013221433
1768730089872,126,-2,-1.576195282307053,-2.651142886817994,-2.627974126175414
1768730089876,126,-2,-1.6130193385319185,-2.617932292455554,-2.6682167650807735
1768730089880,126,-2,-1.6198793007140606,-2.6230250611129597,-2.6795811407748067
1768730089884,126,-2,-1.6065270729356511,-2.6929407770318714,-2.6715628636035915
1768730089888,126,-2,-1.589566713172918,-2.677752633938196,-2.659803858156496
1768730089892,126,-2,-1.579764502815978,-2.6597185511586243,-2.6544514097461915
1768730089896,126,-2,-1.580095553501742,-2.6289406374697517,-2.658696647446151
1768730089900,126,-2,-1.586878367359475,-2.645786643510213,-2.6694509764765506
1768730089904,126,-2,-1.5924344089890838,-2.6972657057060316,-2.6793127122446987
1768730089908,126,-2,-1.5909386334904312,-2.701814057801408,-2.6822857193626164
1768730089912,126,-2,-1.583818262141229,-2.673907600896086,-2.679576900615151
1768730089916,126,-2,-1.5781092790538391,-2.6427347960201195,-2.678248906134183
1768730089920,126,-2,-1.5784012644784973,-2.661453135096419,-2.6830124656331207
1768730089924,126,-2,-1.581716517875526,-2.7084461129099724,-2.690821556886143
1768730089928,126,-2,-1.5818509332184816,-2.7220156702641245,-2.695254877153341
1768730089932,126,-2,-1.577612721399928,-2.689353447123801,-2.6950733060170453
1768730089936,126,-2,-1.574005078167455,-2.656908801028064,-2.6955419920393053
1768730089940,126,-2,-1.5747077472662745,-2.675261419335987,-2.7006468992715043
1768730089944,126,-2,-1.5762925746901784,-2.7211287700848135,-2.706951699381056
1768730089948,126,-2,-1.5728533941036058,-2.742254050518765,-2.708206207676015
1768730089952,126,-2,-1.5655419121870968,-2.704216930462807,-2.705209899101817
1768730089956,126,-2,-1.5635057069903455,-2.671363287043497,-2.7070598286757073
1768730089960,126,-2,-1.5725586944664376,-2.688887998105604,-2.7198494168322376
1768730089964,126,-2,-1.5843112055696251,-2.732387017131633,-2.735610406848485
1768730089968,126,-2,-1.5808776089383605,-2.766160517656902,-2.736769747377726
1768730089972,126,-2,-1.5543253465647673,-2.7150782111842777,-2.7153391186253635
1768730089976,126,-2,-1.5225682969037857,-2.6880310177486417,-2.68868394583974
1768730089980,126,-2,-1.522422658931577,-2.7036042773318205,-2.692902057560522
1768730089984,126,-2,-1.5772207608876163,-2.735768934709832,-2.751174169135876
1768730089988,126,-2,-1.658527073628118,-2.8068429847659115,-2.835828008246371
1768730089992,126,-2,-1.6754238771121572,-2.701723662729616,-2.856833924343371
1768730089996,126,-2,-1.5169175488428988,-2.7335967859120984,-2.7030380182591585
1768730090000,126,-2,-1.1333301141386167,-2.6879756129162744,-2.3237789680233965
1768730090004,127,-1,-0.591739011698553,-1.7641415903348352,-1.7859716087007644
1768730090008,128,0,-0.0410105725790563,-0.8321724715251599,-1.2396848777569014
1768730090012,128,0,0.3945835372939001,-0.6838776745152085,-0.8099252440728701
1768730090016,128,0,0.6907341231229145,-0.8131835660738795,-0.5196923946411305
1768730090020,128,0,0.8986425479625479,-0.6049714069923828,-0.3158266757590803
1768730090024,129,1,1.072073688238933,0.0847863113083311,-0.1445232939068336
1768730090028,129,1,1.2427266740216003,0.3315677492553452,0.0239714981305649
1768730090032,129,1,1.4535341617767163,0.0845639794606023,0.2309649987172937
1768730090036,129,1,1.7716879107449013,0.4275454850291134,0.5437507059755597
1768730090040,130,2,2.2350010498424115,1.0798549828813673,1.0012333380628822
1768730090044,130,2,2.7806099465488403,1.4049442728388215,1.5414383790427195
1768730090048,131,3,3.2393137093717663,1.9555247394381707,1.9954807882100305
1768730090052,131,3,3.42281889652145,2.4629009001959874,2.1749696728194996
1768730090056,131,3,3.2466303503005705,1.9966057968896649,1.9951463471883937
1768730090060,130,2,2.791199955168544,1.4685874053408374,1.5362266230131802
1768730090064,130,2,2.246237948595356,1.0143098433223678,0.9877149410556196
1768730090068,129,1,1.7787086634230889,0.2619700779223854,0.5162738013131288
1768730090072,129,1,1.429780841459678,0.2249783360340637,0.1627297996900247
1768730090076,129,1,1.1192067249409787,0.0985792054768829,-0.1531537264375003
1768730090080,128,0,0.7407256339849333,-0.5620308543863487,-0.5369662390314764
1768730090084,128,0,0.2575446956140316,-1.0899388958837335,-1.0246209654243534
1768730090088,127,-1,-0.2786147434588478,-1.580994413436798,-1.564259016903897
1768730090092,127,-1,-0.7830949236835922,-2.0081807968225047,-2.072083274691938
1768730090096,126,-2,-1.207677030315215,-2.673512925545787,-2.5008912797618765
1768730090100,126,-2,-1.565546544969626,-2.8184710841820397,-2.864025033379869
1768730090104,126,-2,-1.8984424963249928,-2.896948810738454,-3.202267246756625
1768730090108,125,-3,-2.221315430645094,-3.757423182548487,-3.5293004053597943
1768730090112,125,-3,-2.494724393863399,-3.907460602362813,-3.805540609896925
1768730090116,125,-3,-2.6441656782026604,-3.751543417171944,-3.957991273188985
1768730090120,125,-3,-2.608711934656876,-3.8219446458169593,-3.9272951734619808
1768730090124,125,-3,-2.3942302954285246,-3.888400904614156,-3.7189643904820286
1768730090128,125,-3,-2.103255945391785,-3.814857803682739,-3.43371644462753
1768730090132,126,-2,-1.9012563846166215,-2.8706800961175194,-3.2360080270749174
1768730090136,126,-2,-1.912156119985969,-2.8108355483216942,-3.250300723904075
1768730090140,125,-3,-2.1209125026806035,-3.8115389929133334,-3.46235288611361
1768730090144,125,-3,-2.3846783799790385,-3.916718745029774,-3.729748907736521
1768730090148,125,-3,-2.551447290098446,-3.827370653791057,-3.9011351742098257
1768730090152,125,-3,-2.5732832295774544,-3.884978608376027,-3.929047141869821
1768730090156,125,-3,-2.5173564673191087,-3.80482076924668,-3.8794228530057184
1768730090160,125,-3,-2.4853813536153284,-3.8640488451653434,-3.851256478166401
1768730090164,125,-3,-2.522075880377736,-3.88891483520892,-3.888075538413463
1768730090168,125,-3,-2.5804795130170968,-3.900684458743638,-3.945930640887579
1768730090172,125,-3,-2.5607609515010417,-3.832194155439729,-3.930719556018579
1768730090176,125,-3,-2.3897178860742385,-3.8774268850055345,-3.772378651110549
1768730090180,125,-3,-2.0668814975018406,-3.818173477239209,-3.4666687428929626
1768730090184,126,-2,-1.589170511362988,-2.980649660345886,-3.0011592276051338
1768730090188,127,-1,-0.7323815673289634,-1.830129105865932,-2.143506810570393
1768730090192,129,1,1.174393841979529,0.0547462284028328,-0.2229673600056181
1768730090196,133,5,5.210355678107498,4.24634955352483,3.829828460103795
1768730090200,140,12,12.3532356426511,11.005078635485688,10.979334831941406
1768730090204,149,21,22.61110333787965,20.188594442484913,21.225989917487304
1768730090208,161,33,34.310813701783744,31.95259877693553,32.89932202380747
1768730090212,172,44,44.19330453379139,43.260295421680986,42.75088971535543
1768730090216,177,49,48.57470896211625,48.00909419107625,47.10943969314514
1768730090220,173,45,45.08259106209979,44.15864773190075,43.61142240413437
1768730090224,162,34,33.95382208710316,32.98890225393984,32.494857396786664
1768730090228,145,17,18.06531189612758,16.03651960870457,16.62902260184959
1768730090232,128,0,1.6572304911594775,-0.7742185786656819,0.2409133139207631
1768730090236,116,-12,-11.486004479819918,-12.971350984207918,-12.897108913819151
1768730090240,108,-20,-19.37694570867069,-20.783389967940053,-20.801881625046423
1768730090244,106,-22,-22.09075846387807,-23.135012264343768,-23.54251260318332
1768730090248,107,-21,-21.082807495010307,-21.835619788501013,-22.5614642883467
1768730090252,109,-19,-18.175645646666844,-19.99822439768467,-19.66934402448561
1768730090256,112,-16,-14.814366880546569,-16.731682560350638,-16.30759443285678
1768730090260,116,-12,-11.811484585210223,-13.075459673206812,-13.295080745300442
1768730090264,118,-10,-9.443111516407711,-10.884185374886442,-10.918722458063955
1768730090268,120,-8,-7.663710130484448,-9.12977783931634,-9.1399445334109
1768730090272,121,-7,-6.30716538992945,-7.7531454067864765,-7.7917927703261425
1768730090276,122,-6,-5.234208091641786,-6.974718847184864,-6.729288717595479
1768730090280,123,-5,-4.400601973103678,-5.870495066432511,-5.903466145467597
1768730090284,124,-4,-3.8285303201359033,-5.086412112829587,-5.335915991740635
1768730090288,124,-4,-3.5169843055855368,-5.019847721275513,-5.027797807283659
1768730090292,124,-4,-3.3795933712940966,-4.83987028394605,-4.894449232812422
1768730090296,124,-4,-3.275174836100962,-4.9637856358613215,-4.7945221531672235
1768730090300,124,-4,-3.102550763544977,-4.8540870877631095,-4.626050623620495
1768730090304,125,-3,-2.8620192264756277,-4.157442365387492,-4.38959762637057
1768730090308,125,-3,-2.620528083720174,-3.984097614226297,-4.153171737443495
1768730090312,125,-3,-2.422882325537989,-3.897927687583483,-3.961689182215758
1768730090316,125,-3,-2.248301568192823,-3.9474171947522474,-3.7929121556195646
1768730090320,125,-3,-2.0520845433193555,-3.873096076742855,-3.600775391188763
1768730090324,126,-2,-1.828786802335272,-3.184233950194267,-3.380413122097363
1768730090328,126,-2,-1.614515074914822,-2.984545593191862,-3.1698980426091192
1768730090332,126,-2,-1.4316967104814364,-2.9288378003448954,-2.9926179068403975
1768730090336,126,-2,-1.2552668263039282,-2.945072642040066,-2.8223449482218075
1768730090340,126,-2,-1.0466031222562586,-2.893732104331277,-2.618769607254515
1768730090344,127,-1,-0.8083374137948391,-2.2062611307388424,-2.3844196904143025
1768730090348,127,-1,-0.5853918920630417,-1.983009521685292,-2.1655179808080707
1768730090352,127,-1,-0.4098212169238983,-1.964361813600238,-1.9948347346062605
1768730090356,127,-1,-0.2598138786199,-1.935403511880491,-1.8498437522087567
1768730090360,127,-1,-0.0815261087395735,-1.922557120965933,-1.6759535079521723
1768730090364,128,0,0.1575552403083652,-1.237873645512699,-1.44118441104344
1768730090368,128,0,0.4445940192607227,-0.9353521157473228,-1.1592873487155568
1768730090372,128,0,0.7395491694565122,-1.0903858697368474,-0.8699577263618499
1768730090376,128,0,1.0037714600501528,-0.7759550007674646,-0.6106097979406492
1768730090380,129,1,1.22088683472923,-0.1752316138035422,-0.3973268858835442
1768730090384,129,1,1.4132001516755148,0.0292995412487296,-0.2088198668279567
1768730090388,129,1,1.6401467559668883,-0.2583505265912736,0.013513874237054
1768730090392,129,1,1.959079724708085,0.2226416889449063,0.3272501423109084
1768730090396,130,2,2.372639270210053,0.889500980501349,0.735601921372667
1768730090400,130,2,2.819585390527509,1.0959943942022914,1.177527799432068
1768730090404,131,3,3.2271542746920088,1.774113651848618,1.5802930565707216
1768730090408,131,3,3.5773702081200707,1.9186770026749027,1.926106209209249
1768730090412,131,3,3.925724108139882,2.075001538681348,2.270554936140689
1768730090416,132,4,4.356732782590404,2.949943349561313,2.6978105554675187
1768730090420,132,4,4.91440480355202,3.05863317579338,3.2512160126809286
1768730090424,133,5,5.561953235883999,3.7286768401031583,3.8934947580932215
1768730090428,134,6,6.200057876011123,4.996069448075337,4.5255582888423
1768730090432,134,6,6.726887173883391,4.924996670290938,5.046709712155031
1768730090436,134,6,7.091730274134345,5.092055623511856,5.407405422659763
1768730090440,135,7,7.310345848749437,5.881574760469634,5.623144845870436
1768730090444,135,7,7.449474170802942,5.856084762959823,5.759003642390425
1768730090448,135,7,7.594090047356249,5.880896019508898,5.898856964470538
1768730090452,135,7,7.797384777110939,5.984116385521667,6.09662468860935
1768730090456,135,7,8.034238909236706,6.024980745128822,6.328480663097
1768730090460,136,8,8.207882390372387,6.890261304699091,6.497764896216556
1768730090464,136,8,8.222727264110254,6.84780947397562,6.5081788486117595
1768730090468,135,7,8.057032179840888,5.838120082592911,6.3378963447704635
1768730090472,135,7,7.759824333397246,6.0337502408791615,6.036456730600152
1768730090476,135,7,7.383066069056692,5.9049991492340945,5.655824918560305
1768730090480,134,6,6.927362832730305,4.998439496790905,5.196047521377273
1768730090484,134,6,6.348887630195318,4.711009159289487,4.613055182476252
1768730090488,133,5,5.607321312636521,3.959501037292828,3.8668152560939664
1768730090492,132,4,4.707423794187825,2.8773127411931965,2.962371544831204
1768730090496,131,3,3.70272585009078,2.0247952015483652,1.9532868449125265
1768730090500,130,2,2.662042836329493,0.8486876344059024,0.9084097532435568
1768730090504,129,1,1.628284907264815,-0.1705852936529756,-0.1292059646917126
1768730090508,128,0,0.6056936103340163,-1.146401607056165,-1.1554202248910497
1768730090512,127,-1,-0.4122758345909356,-2.0963460339291435,-2.1773291807080115
1768730090516,126,-2,-1.402028857232863,-2.978194123994352,-3.171750043205908
1768730090520,125,-3,-2.3030334618978325,-4.249566470835713,-4.077682396400074
1768730090524,124,-4,-3.0609344457076384,-5.024561384913655,-4.839803446874216
1768730090528,124,-4,-3.676285009285056,-5.368624127468247,-5.458462353870205
1768730090532,123,-5,-4.198407513298448,-5.860453030125143,-5.983902830926396
1768730090536,123,-5,-4.664527257669389,-6.277357111658355,-6.454193364745885
1768730090540,122,-6,-5.053234157017661,-6.9726117800999825,-6.847564224300288
1768730090544,122,-6,-5.308455967932459,-7.320229828188251,-7.106926644012758
1768730090548,122,-6,-5.407304771573084,-7.112474585497756,-7.209124372257108
1768730090552,122,-6,-5.39494093491369,-7.1110440170687195,-7.200077769038816
1768730090556,122,-6,-5.351178166614257,-7.102635524828044,-7.160278414940929
1768730090560,122,-6,-5.329972672862765,-7.130556577480064,-7.143427449250118
1768730090564,122,-6,-5.333720621597221,-7.239355749243052,-7.151201836286444
1768730090568,122,-6,-5.337752023048523,-7.173343595135909,-7.158707212089067
1768730090572,122,-6,-5.3293569365711315,-7.106710995201141,-7.153649677077941
1768730090576,122,-6,-5.321436297146232,-7.118148701798453,-7.149291500974835
1768730090580,122,-6,-5.334503912198663,-7.156350397301557,-7.166004766788044
1768730090584,122,-6,-5.369751123836438,-7.235702888764551,-7.204728297574469
1768730090588,122,-6,-5.397001848728682,-7.209036530143712,-7.235422659525786
1768730090592,122,-6,-5.36654978229117,-7.081280343899277,-7.208627255673459
1768730090596,122,-6,-5.2397243446216715,-7.194715037215476,-7.085451770519329
1768730090600,122,-6,-5.018736378547343,-7.082040021640738,-6.867684211261145
1768730090604,123,-5,-4.746867705673199,-6.371286099082508,-6.598738775591065
1768730090608,123,-5,-4.470779006714551,-6.062587127522037,-6.325803901886796
1768730090612,123,-5,-4.202602292057269,-6.283387231439019,-6.061065991944105
1768730090616,123,-5,-3.9280258386877054,-5.9980054259442905,-5.789841406160826
1768730090620,124,-4,-3.650190819204571,-5.326585254657986,-5.515303791021571
1768730090624,124,-4,-3.412487092766599,-5.156086736208496,-5.281163001218762
1768730090628,124,-4,-3.272601794332113,-5.2786924791348255,-5.144790430376397
1768730090632,124,-4,-3.256740523171862,-5.124538969824819,-5.131605116050147
1768730090636,124,-4,-3.3327041257662704,-5.143716977907548,-5.209429947211482
1768730090640,124,-4,-3.4156241649067227,-5.273479227117214,-5.294518334694895
1768730090644,124,-4,-3.405514308132497,-5.172838512684694,-5.287708844161472
1768730090648,124,-4,-3.2462033836791884,-5.3340959572239255,-5.1322342132811976
1768730090652,124,-4,-2.97024945363788,-5.052593210236944,-4.859475694321123
1768730090656,125,-3,-2.6814033603570655,-4.268910942476651,-4.573029424921498
1768730090660,125,-3,-2.470229985617827,-4.184875535847329,-4.364309985205521
1768730090664,125,-3,-2.3348877516688487,-4.265780919878214,-4.231818732723864
1768730090668,125,-3,-2.19152539987265,-4.292081337281254,-4.091013931750396
1768730090672,125,-3,-1.9685314275161865,-4.0874215241902885,-3.869861972557624
1768730090676,126,-2,-1.6846717594166412,-3.3016630072738864,-3.587928608414794
1768730090680,126,-2,-1.431077746040369,-3.147249107165801,-3.3372953029046992
1768730090684,126,-2,-1.2865337599020772,-3.352871537433348,-3.1963334481708428
1768730090688,126,-2,-1.258740449318011,-3.209489946551165,-3.1713748556778287
1768730090692,126,-2,-1.296959293730822,-3.2111559819199083,-3.211117846888797
1768730090696,126,-2,-1.342055895119182,-3.2156484643538255,-3.257295063546533
1768730090700,126,-2,-1.3616637903921591,-3.238109694673813,-3.278666875460598
1768730090704,126,-2,-1.3542008058527737,-3.3072177258276714,-3.273812540469192
1768730090708,126,-2,-1.3355562480594088,-3.253724169760679,-3.2579356505961115
1768730090712,126,-2,-1.323405509851162,-3.223238675872586,-3.24811349524001
1768730090716,126,-2,-1.3256230524757735,-3.220734371213069,-3.252197317867091
1768730090720,126,-2,-1.3368346413658987,-3.2618184514785664,-3.265073810164506
1768730090724,126,-2,-1.345340938879466,-3.3036501703587957,-3.2751820052019043
1768730090728,126,-2,-1.3448285269609193,-3.279168021681667,-3.27623527286143
1768730090732,126,-2,-1.3393925411946566,-3.2371148215740595,-3.272454395303541
1768730090736,126,-2,-1.3369499880868885,-3.2320939427889197,-3.2719280033071088
1768730090740,126,-2,-1.3395946791977456,-3.277048690735411,-3.2766741225223597
1768730090744,126,-2,-1.3428685499804178,-3.305815829470951,-3.2818323229039885
1768730090748,126,-2,-1.3439022261998383,-3.30430049519596,-3.2841583438877144
1768730090752,126,-2,-1.3461592927233796,-3.247368183224392,-3.2872038787722424
1768730090756,126,-2,-1.3529250251356808,-3.2465671935824516,-3.2948146910749965
1768730090760,126,-2,-1.3581798179500235,-3.292295494799841,-3.301524436443095
1768730090764,126,-2,-1.3502972820098156,-3.301955949786923,-3.295732915242163
1768730090768,126,-2,-1.3294424288631908,-3.342036590431017,-3.277034080326412
1768730090772,126,-2,-1.3186319202634855,-3.2431647034228224,-3.2677349094722348
1768730090776,126,-2,-1.3473048094318445,-3.2676252548443383,-3.297029433296002
1768730090780,126,-2,-1.412137857640077,-3.319399495450873,-3.3620207118753975
1768730090784,126,-2,-1.45007439831811,-3.2548494992131825,-3.4003384278590443
1768730090788,126,-2,-1.360031638237985,-3.465620534216014,-3.311221848954081
1768730090792,126,-2,-1.071340590546032,-3.1049911613319368,-3.0237850123044296
1768730090796,127,-1,-0.6083667523811094,-2.470143340713983,-2.5620376362161483
1768730090800,127,-1,-0.0923105932488574,-2.117865104427427,-2.047136866382896
1768730090804,128,0,0.3305866979305045,-1.4744126315143922,-1.6255782497427336
1768730090808,128,0,0.5821774411477403,-1.2933845740958143,-1.3755347392087087
1768730090812,128,0,0.6943777531912508,-1.2876113825226687,-1.2644234034662798
1768730090816,128,0,0.7701351758264874,-1.344175487818708,-1.1884089159334223
1768730090820,128,0,0.905334451961714,-1.2411325915509643,-1.051762029335845
1768730090824,129,1,1.1450583096080036,-0.3817391644498132,-0.8109821618707862
1768730090828,129,1,1.4984603916848225,-0.4015151205865491,-0.458413073107633
1768730090832,129,1,1.9616698976666531,-0.224932008232236,0.0024023070125296
1768730090836,130,2,2.4972527185344906,0.5771943249807392,0.5358444538707983
1768730090840,130,2,2.99635068768165,0.7917969923934352,1.034340514943087
1768730090844,131,3,3.297006830741619,1.5959816740052486,1.3355242068706268
1768730090848,131,3,3.2773306534643867,1.5746154882715444,1.3163159236497202
1768730090852,130,2,2.947916449356132,0.7783741866771418,0.9869013620944866
1768730090856,130,2,2.4504797451963705,0.5313310938089199,0.489572164648176
1768730090860,129,1,1.956009809510729,-0.1908610799660308,-0.0042757210451226
1768730090864,129,1,1.5518303941984386,-0.4178919931854755,-0.4078545601959013
1768730090868,129,1,1.2105987679177697,-0.4565166307063739,-0.7493405185075428
1768730090872,128,0,0.849756981766495,-1.176736601182399,-1.1112840123476335
1768730090876,128,0,0.4117281815782201,-1.616484973959725,-1.5503249306102762
1768730090880,127,-1,-0.1027874154460891,-1.9969776381832305,-2.06492916138032
1768730090884,127,-1,-0.6549731113893629,-2.696854165806047,-2.6163115856044383
1768730090888,126,-2,-1.20246254248248,-3.1432730077134097,-3.1626905200072
1768730090892,126,-2,-1.7141137360798415,-3.53362447616308,-3.673383850605163
1768730090896,125,-3,-2.161950877604113,-4.3224681558622855,-4.1205891910789365
1768730090900,125,-3,-2.5100690553675657,-4.268305743689684,-4.468461344115262
1768730090904,125,-3,-2.722123004192342,-4.499005013309338,-4.680546362146946
1768730090908,124,-4,-2.791503783297514,-5.305265847515569,-4.749918958031881
1768730090912,125,-3,-2.768988504576373,-4.432736846462117,-4.727183900698894
1768730090916,125,-3,-2.7502324044546373,-4.450408819641273,-4.708121350409918
1768730090920,124,-4,-2.819346279186623,-5.166733981724441,-4.776841088722913
1768730090924,125,-3,-2.9934556001109773,-4.626507231969197,-4.950125173855839
1768730090928,124,-4,-3.2152331323679952,-5.1735475732890945,-5.170385975733002
1768730090932,124,-4,-3.397633382749988,-5.626289123319529,-5.350899398288612
1768730090936,124,-4,-3.484843178714554,-5.259846411059339,-5.436791336493313
1768730090940,124,-4,-3.4841477533945615,-5.407374070760352,-5.436250570088525
1768730090944,124,-4,-3.4497713468439395,-5.393854334839901,-5.403300102508765
1768730090948,124,-4,-3.4390880534416386,-5.403113940204964,-5.393628379956641
1768730090952,124,-4,-3.4745709461212675,-5.469880682327105,-5.427628490194413
1768730090956,124,-4,-3.528425292362338,-5.405926448292458,-5.476837619741487
1768730090960,124,-4,-3.5334776261985734,-5.3316913541182585,-5.475894387636283
1768730090964,124,-4,-3.4217027316761786,-5.446365322031365,-5.360630726939607
1768730090968,124,-4,-3.175357674875551,-5.386962762531658,-5.117136939454409
1768730090972,125,-3,-2.843228822983314,-4.512938405005434,-4.7945917215792395
1768730090976,125,-3,-2.4698891994333523,-4.395398837357567,-4.431891883072074
1768730090980,125,-3,-1.9350080350371257,-4.377281042549942,-3.899095096259728
1768730090984,127,-1,-0.7716586518368214,-2.400986154406199,-2.7233469815239717
1768730090988,130,2,1.9012256727154029,0.5473895760017609,-0.0280144012752274
1768730090992,135,7,7.155641208151129,5.516541429527619,5.246002193273481
1768730090996,143,15,15.641368430650989,13.571693338102184,13.73671433266483
1768730091000,153,25,26.773430973066727,23.61160906432267,24.8567015995939
1768730091004,165,37,38.26491416111291,35.61340595338448,36.32597181164886
1768730091008,175,47,46.5788384746268,45.50974586283863,44.61823734225904
1768730091012,177,49,48.347399661897214,47.48487150280979,46.375407448938205
1768730091016,170,42,42.04374685259451,40.568670276448046,40.0768939692814
1768730091020,156,28,28.868023660188644,26.511289688711585,26.92273458832727
1768730091024,139,11,12.276955129848528,9.705344730478153,10.36086080811616
1768730091028,124,-4,-3.5313405282781094,-5.587088363448111,-5.424895870956246
1768730091032,112,-16,-15.278620059627476,-17.373032473556787,-17.167205955973667
1768730091036,106,-22,-21.581841707103937,-23.549375483570273,-23.483326204875667
1768730091040,105,-23,-22.936418738792153,-24.405524771640433,-24.859022721128365
1768730091044,107,-21,-20.96595020518802,-22.39753743357149,-22.905234876992083
1768730091048,110,-18,-17.490676522229144,-19.54939958482827,-19.43386437377677
1768730091052,113,-15,-13.88988846820936,-16.383336494233145,-15.8241014218365
1768730091056,117,-11,-10.90805656576179,-12.628860445982172,-12.827627173629388
1768730091060,119,-9,-8.762421502031707,-10.31270586307798,-10.670649686826518
1768730091064,120,-8,-7.348441562320461,-9.592267602748269,-9.252941431847065
1768730091068,121,-7,-6.434503508992081,-8.324532594423209,-8.340757901421826
1768730091072,122,-6,-5.806616830118053,-7.637384316668901,-7.715286066442894
1768730091076,122,-6,-5.33361098876814,-7.403905363188215,-7.242489048158812
1768730091080,123,-5,-4.949394065749016,-6.5290670972118745,-6.856583966131358
1768730091084,123,-5,-4.6013499878847135,-6.473972611983816,-6.506434183122263
1768730091088,123,-5,-4.2314425848094785,-6.388516430312118,-6.134588983804201
1768730091092,124,-4,-3.8083155261885246,-5.655660090816347,-5.709426436582167
1768730091096,124,-4,-3.361757438605101,-5.338787493169493,-5.260844825156089
1768730091100,125,-3,-2.9634588063344514,-4.689351834654791,-4.861163907992136
1768730091104,125,-3,-2.662885597937412,-4.288296009140798,-4.559767840827799
1768730091108,125,-3,-2.44525694316227,-4.645683933398293,-4.340616614496109
1768730091112,125,-3,-2.2539363931158287,-4.375824924219495,-4.146241207594672
1768730091116,126,-2,-2.0418933691817505,-3.6576578950247383,-3.930787047045668
1768730091120,126,-2,-1.7921489986082173,-3.401826056346702,-3.6792655829309626
1768730091124,126,-2,-1.506336698885065,-3.5860711839080675,-3.3934331427914857
1768730091128,126,-2,-1.2042254589675023,-3.3948648335609892,-3.0910468828625586
1768730091132,127,-1,-0.9355536974283264,-2.620533651074884,-2.8202866093646772
1768730091136,127,-1,-0.7594715236068006,-2.453718540707796,-2.6409679919750877
1768730091140,127,-1,-0.6866764286217535,-2.6193254651034987,-2.5655023978557048
1768730091144,127,-1,-0.6479186444097407,-2.4013128038443696,-2.525263079219707
1768730091148,127,-1,-0.5408675058399125,-2.6002346105858183,-2.417041275327056
1768730091152,127,-1,-0.3207996854732192,-2.4474464510060177,-2.195184548668497
1768730091156,128,0,-0.0428411829718522,-1.6220920664320997,-1.9150997371471603
1768730091160,128,0,0.1937111634869425,-1.5015301065486553,-1.6769872161004316
1768730091164,128,0,0.3445633758900647,-1.5146546687876383,-1.525109340023274
1768730091168,128,0,0.4601761152644958,-1.5438883478422964,-1.4078830945251783
1768730091172,128,0,0.6308399466329233,-1.5063605163296976,-1.2344259354705622
1768730091176,129,1,0.904452100028014,-0.6006547653409324,-0.9577970238771896
1768730091180,129,1,1.2593498786997706,-0.5141963012926404,-0.6010334348240871
1768730091184,129,1,1.639637331887514,-0.5545008156898781,-0.2201656604430057
1768730091188,130,2,2.001228305168253,0.4935542252552711,0.1418798705640814
1768730091192,130,2,2.329734545907576,0.4093833618737632,0.4719059592452463
1768730091196,130,2,2.6323433329066916,0.4607006353242369,0.7772533810960587
1768730091200,131,3,2.925891663647478,1.4465816058807772,1.0737906924929288
1768730091204,131,3,3.2353099087316046,1.4024353417378013,1.3852917112436969
1768730091208,131,3,3.593094624183598,1.5750004306778909,1.7440570782236289
1768730091212,132,4,4.022908598966556,2.234327610476703,2.1746322712756623
1768730091216,132,4,4.515574218599249,2.66936109429347,2.668817385672405
1768730091220,133,5,5.026412339269066,3.193068170452741,3.182065359580097
1768730091224,133,5,5.504478061541279,3.6465683388511314,3.6626408587177544
1768730091228,134,6,5.928772177937478,4.307844105097848,4.08862093358339
1768730091232,134,6,6.313862916164911,4.443442395334377,4.4744964710096395
1768730091236,134,6,6.6738652260540965,4.485925287327829,4.835224786146936
1768730091240,135,7,6.9821654381815454,5.310103366855937,5.144960886218014
1768730091244,135,7,7.180788552922296,5.564604726390374,5.3456949469701645
1768730091248,135,7,7.242102903180626,5.314734773749633,5.4093122618547005
1768730091252,135,7,7.219190248476358,5.43211165873694,5.38856909007174
1768730091256,135,7,7.22325491804985,5.480353887271793,5.394560202894086
1768730091260,135,7,7.335852540005632,5.2666226144880515,5.508722876451123
1768730091264,135,7,7.526970530563125,5.651205949698167,5.70084719806986
1768730091268,136,8,7.651027098688554,6.131696355548821,5.825315440979125
1768730091272,135,7,7.530253900932002,5.651073713590137,5.704850209730081
1768730091276,135,7,7.0615511850380415,5.190034101385242,5.237221729461298
1768730091280,134,6,6.268251245314149,4.563407721436379,4.446197978355157
1768730091284,133,5,5.270562438536434,3.337694698110381,3.4514429821437904
1768730091288,132,4,4.208686512822228,2.3917444832801293,2.3920656314215503
1768730091292,131,3,3.173652238847499,1.4171321002680617,1.3583638046833668
1768730091296,130,2,2.183109769688743,0.3410929874943382,0.3681188718800738
1768730091300,129,1,1.204562242895206,-0.5425023622333385,-0.6104078064856013
1768730091304,128,0,0.2009673111128744,-1.6218473506247757,-1.6135131362856578
1768730091308,127,-1,-0.8319507176128798,-2.6534835432044455,-2.6451872647691226
1768730091312,126,-2,-1.8547948612442955,-3.557704135080768,-3.66617953661453
1768730091316,125,-3,-2.800134567596374,-4.731978351141566,-4.609426128159407
1768730091320,124,-4,-3.600171038706538,-5.447195912321496,-5.407628124009415
1768730091324,124,-4,-4.208055505959609,-5.772645595427625,-6.014385054001773
1768730091328,123,-5,-4.6065286123273586,-6.499146628579805,-6.412424711427377
1768730091332,123,-5,-4.811566603934498,-6.752128532034712,-6.617191047467323
1768730091336,123,-5,-4.873151113736909,-6.557071596050531,-6.678175310386703
1768730091340,123,-5,-4.861981024742486,-6.628717169521785,-6.666035236311386
1768730091344,123,-5,-4.840213390171206,-6.630661395811461,-6.643085641264775
1768730091348,123,-5,-4.836610996790566,-6.635626103000762,-6.638158554573617
1768730091352,123,-5,-4.846234108707101,-6.677014082546339,-6.646471910808513
1768730091356,123,-5,-4.8513480904679325,-6.621214745557617,-6.650691570308682
1768730091360,123,-5,-4.843882621455439,-6.607370537750237,-6.643008952974647
1768730091364,123,-5,-4.834211695732416,-6.648249678714395,-6.633429742171381
1768730091368,123,-5,-4.8432186971771465,-6.655858518798905,-6.6420474384229635
1768730091372,123,-5,-4.88191525171846,-6.672484764922927,-6.679521408112105
1768730091376,123,-5,-4.928772694456769,-6.6611468383647106,-6.72486162355513
1768730091380,123,-5,-4.924289394807233,-6.565105381610984,-6.719361787986562
1768730091384,123,-5,-4.801638781451978,-6.726309165402159,-6.596354885249768
1768730091388,123,-5,-4.543316672869688,-6.580720324709032,-6.337968016423887
1768730091392,124,-4,-4.215120942989962,-5.793459826232422,-6.009864555396361
1768730091396,124,-4,-3.934613591255531,-5.546912567766489,-5.7296997683205015
1768730091400,124,-4,-3.793453149114967,-5.699730626605403,-5.588757136907036
1768730091404,124,-4,-3.800985511686963,-5.6118157525941506,-5.595676908043823
1768730091408,124,-4,-3.890006681195319,-5.707953839400738,-5.683294788607977
1768730091412,124,-4,-3.9644362070694688,-5.724655458583628,-5.756587586732542
1768730091416,124,-4,-3.947154129355374,-5.586714786483429,-5.739289082055541
1768730091420,124,-4,-3.8084303423540673,-5.724176051498717,-5.601274647969051
1768730091424,124,-4,-3.5723368087251313,-5.548602718448298,-5.365653433029247
1768730091428,125,-3,-3.2954621443590515,-4.851636504906321,-5.088818749423713
1768730091432,125,-3,-3.023278255373044,-4.566619059505566,-4.8167246695109505
1768730091436,125,-3,-2.7609510603772636,-4.789649704953387,-4.554567128752059
1768730091440,125,-3,-2.492481654438188,-4.5160333648240325,-4.285920202678389
1768730091444,126,-2,-2.225052132641677,-3.7819380182177817,-4.018167980074241
1768730091448,126,-2,-2.0011468074973537,-3.6527300771561775,-3.794636544673064
1768730091452,126,-2,-1.8650226278972089,-3.7733694676763183,-3.659765252161325
1768730091456,126,-2,-1.8271486298158144,-3.619172653700844,-3.623069756958441
1768730091460,126,-2,-1.861709324543716,-3.6746029873305224,-3.6577859457125848
1768730091464,126,-2,-1.9260710077604073,-3.681159511476669,-3.7214828094094954
1768730091468,126,-2,-1.9762492006657055,-3.730569416164472,-3.77130060906758
1768730091472,126,-2,-1.9741484616653575,-3.773594029153423,-3.76999736932198
1768730091476,126,-2,-1.899507018166751,-3.570664800990026,-3.6970466956001817
1768730091480,126,-2,-1.769365562534354,-3.8020225529137823,-3.5684879772817673
1768730091484,126,-2,-1.6440654580086167,-3.521246740607063,-3.4441067885654055
1768730091488,127,-1,-1.5961009046441132,-2.953231393450589,-3.396757587378005
1768730091492,126,-2,-1.6556369930789017,-3.5487891222151644,-3.45705631364772
1768730091496,126,-2,-1.7843161719324696,-3.8195470476995146,-3.586505487317967
1768730091500,126,-2,-1.906909827375917,-3.574625697027101,-3.709693202157428
1768730091504,126,-2,-1.9684970345985344,-3.757640407805237,-3.772088601915008
1768730091508,126,-2,-1.964541296150489,-3.7610792178874934,-3.769632433848052
1768730091512,126,-2,-1.9288751401075617,-3.7212906331617983,-3.735978526627244
