timestamp_ms,ecg_u8_raw,ecg_counts_raw_int,ecg_counts_filt_monitor,ecg_counts_filt_diagnostic,ecg_counts_filt_st
1770454135404,119,-9,-8.439470827652316,-23.440793176337227,-24.1219971906759
1770454135408,118,-10,-8.346711758238575,-23.815749835837856,-24.039599959206896
1770454135412,118,-10,-8.334049450578444,-24.376365940642245,-24.03115286216811
1770454135416,118,-10,-8.277433955560854,-23.953308752263293,-23.972171063848815
1770454135420,119,-9,-8.119881374114254,-23.349419554692457,-23.810624366002955
1770454135424,119,-9,-7.905759618847686,-23.179508548938017,-23.59622722114847
1770454135428,119,-9,-7.694047756690879,-23.102086478581356,-23.38890591526335
1770454135432,119,-9,-7.488561284870317,-23.223794696857805,-23.188981860433564
1770454135436,119,-9,-7.2667020749494196,-23.07987648852255,-22.970137544796177
1770454135440,120,-8,-7.044317460141327,-22.35279623474355,-22.74786937461367
1770454135444,120,-8,-6.872359862647645,-22.199640161464277,-22.57550897672545
1770454135448,120,-8,-6.76063091296546,-22.19313928096439,-22.464620300590312
1770454135452,120,-8,-6.626263447590487,-22.16423004115054,-22.331759200590415
1770454135456,120,-8,-6.340568878382349,-22.221368950517324,-22.04696446728362
1770454135460,121,-7,-5.833661103094539,-21.24740587184039,-21.54068805218087
1770454135464,122,-6,-5.153883040132849,-20.40015956874305,-20.86282254764054
1770454135468,122,-6,-4.4350787730372225,-20.034885383108833,-20.14742453631551
1770454135472,123,-5,-3.8168125766892858,-19.40760076627101,-19.532000777475105
1770454135476,123,-5,-3.380958721046603,-19.01730652735948,-19.09641283954617
1770454135480,124,-4,-3.121480662828297,-18.533516379018007,-18.83524343772171
1770454135484,124,-4,-2.9417996047927333,-18.173017709407816,-18.65452689253815
1770454135488,124,-4,-2.695781690018925,-18.318678953988915,-18.40971519835366
1770454135492,124,-4,-2.2817272030446136,-18.205409405099616,-17.998218541780382
1770454135496,125,-3,-1.7325777303776342,-17.246914532501997,-17.451252035749068
1770454135500,126,-2,-1.2074249986627008,-16.402088247242887,-16.927343551255962
1770454135504,126,-2,-0.8658384007293743,-16.33636461591435,-16.58647272036913
1770454135508,126,-2,-0.7309241993600333,-16.234883607694673,-16.451859641355416
1770454135512,126,-2,-0.6686592565516247,-16.351176247627624,-16.38920492492403
1770454135516,126,-2,-0.4992791628682321,-16.16182593624189,-16.219033910048534
1770454135520,127,-1,-0.1359151607331519,-15.550351604292318,-15.855589139792206
1770454135524,127,-1,0.3655089601216036,-15.236441347694962,-15.355679419880628
1770454135528,128,0,0.8704458682129426,-14.397101836026856,-14.85333228878923
1770454135532,128,0,1.2735864485812245,-14.25093081922691,-14.452080493269005
1770454135536,128,0,1.5615268718526618,-14.339717310467588,-14.163920425634789
1770454135540,129,1,1.8000205728794436,-13.41970878843168,-13.923559996681806
1770454135544,129,1,2.079217651916129,-13.42913077134546,-13.642765826621622
1770454135548,129,1,2.459623697815663,-13.255380682952971,-13.26250010260565
1770454135552,130,2,2.937764948360209,-12.451196971704944,-12.7860639154808
1770454135556,130,2,3.44118766418496,-12.217965950635318,-12.284619932722038
1770454135560,131,3,3.861381749654245,-11.591663123002116,-11.865460511995424
1770454135564,131,3,4.113792874908864,-11.309086113748512,-11.612692007388477
1770454135568,131,3,4.188498213866788,-11.435675804235396,-11.5366230098961
1770454135572,131,3,4.154638575201865,-11.327253940777265,-11.56904868209235
1770454135576,131,3,4.112008847234069,-11.416739555889444,-11.611113594007696
1770454135580,131,3,4.119961666674067,-11.447503464316046,-11.60377651591748
1770454135584,131,3,4.150729834609415,-11.495108680676136,-11.574284037506803
1770454135588,131,3,4.102034445462673,-11.31039261186124,-11.62398555560958
1770454135592,131,3,3.865567639841898,-11.506661159037025,-11.860455325275629
1770454135596,130,2,3.403942076874947,-12.316405561585356,-12.32093261059119
1770454135600,130,2,2.7771487275389974,-12.593949173670456,-12.945971573987224
1770454135604,129,1,2.096712239170805,-13.408666934351562,-13.625017506755364
1770454135608,128,0,1.4407965736992356,-14.428861808428756,-14.280715599317022
1770454135612,128,0,0.7937611771431375,-14.478823131813751,-14.92879783639693
1770454135616,127,-1,0.0575547617943135,-15.359794900250634,-15.66646703898224
1770454135620,126,-2,-0.871272746767314,-16.67734362690397,-16.59581717646968
1770454135624,125,-3,-2.0129845041263392,-17.28718165458912,-17.736319801920338
1770454135628,124,-4,-3.2630309771222024,-18.689244745326413,-18.983939947165503
1770454135632,122,-6,-4.4256175277817835,-20.20809935866867,-20.14426716348823
1770454135636,122,-6,-5.3078112068446694,-20.735301938839385,-21.025515854455133
1770454135640,121,-7,-5.818987494381013,-21.340791134020883,-21.5371832827821
1770454135644,121,-7,-6.010989783956764,-21.6547799521832,-21.730204500686565
1770454135648,121,-7,-6.032322402728128,-21.405533757071037,-21.75191754698112
1770454135652,121,-7,-6.027526796808175,-21.499497096754546,-21.746384600969908
1770454135656,121,-7,-6.049966983584113,-21.57698557541262,-21.767374694603053
1770454135660,121,-7,-6.0488335512013665,-21.47541634808517,-21.764693699100057
1770454135664,121,-7,-5.938555122045124,-21.64472247581789,-21.653000501070192
1770454135668,121,-7,-5.692888080656873,-21.39205631427229,-21.406127023280128
1770454135672,122,-6,-5.381893655713826,-20.62383036313738,-21.094490121806047
1770454135676,122,-6,-5.120489183393517,-20.479491074318855,-20.83325111155546
1770454135680,122,-6,-4.982418354535413,-20.64113404838161,-20.695551774750328
1770454135684,122,-6,-4.962167380075404,-20.526140953561548,-20.67474614812767
1770454135688,122,-6,-5.007089735282261,-20.547852945347945,-20.71775836760014
1770454135692,122,-6,-5.069288447765244,-20.547955211001387,-20.777531869088463
1770454135696,122,-6,-5.123294989923112,-20.575738213413597,-20.82991897281594
1770454135700,122,-6,-5.147964692200721,-20.6367597170211,-20.854316975273555
1770454135704,122,-6,-5.110824145728785,-20.531629506660437,-20.817472833201755
1770454135708,122,-6,-4.98288465753074,-20.63784824208616,-20.68901817167545
1770454135712,122,-6,-4.7686680500907155,-20.470690027226055,-20.47297751178757
1770454135716,123,-5,-4.509254551400553,-19.742625259049035,-20.21144870061173
1770454135720,123,-5,-4.24492219573843,-19.486965987203007,-19.945973556811673
1770454135724,123,-5,-3.981211417676481,-19.75133362891241,-19.681966620545865
1770454135728,123,-5,-3.70556567918534,-19.4532559083201,-19.40571832326856
1770454135732,124,-4,-3.433075708134236,-18.717603306956832,-19.131870544106103
1770454135736,124,-4,-3.2161860249134646,-18.553370806620933,-18.91349295938832
1770454135740,124,-4,-3.1019755020923467,-18.699325461838686,-18.79808965459762
1770454135744,124,-4,-3.0888081530948064,-18.61214492820239,-18.78366174527913
1770454135748,124,-4,-3.1285300881133553,-18.61262580113606,-18.82178171669988
1770454135752,124,-4,-3.164799479516098,-18.652629066545497,-18.85655525663498
1770454135756,124,-4,-3.169722640176887,-18.62779929884729,-18.860606212057675
1770454135760,124,-4,-3.1548821588587685,-18.692784019607032,-18.845262500123717
1770454135764,124,-4,-3.15465034819547,-18.645745837174573,-18.84411043629371
1770454135768,124,-4,-3.1918879636438477,-18.636514312622804,-18.87966652862833
1770454135772,124,-4,-3.2458435639182497,-18.696546821623137,-18.93163990920731
1770454135776,124,-4,-3.2493448498304476,-18.606104631917898,-18.93342158189634
1770454135780,124,-4,-3.130407453747797,-18.777712266677387,-18.81301672460398
1770454135784,124,-4,-2.8749110847138635,-18.58233343063187,-18.556114820841756
1770454135788,125,-3,-2.5540443180629917,-17.76768866934023,-18.234229512569
1770454135792,125,-3,-2.2822557459531634,-17.61147886786967,-17.962191300105733
1770454135796,125,-3,-2.140412963572678,-17.73609895586611,-17.82022768078737
1770454135800,125,-3,-2.1339110671145587,-17.685963254819573,-17.81234321830391
1770454135804,125,-3,-2.210590475117929,-17.72269139245966,-17.88594757930296
1770454135808,125,-3,-2.300751527247648,-17.67854507124721,-17.972750748910038
1770454135812,125,-3,-2.340059488407522,-17.7449771979811,-18.01031095287459
1770454135816,125,-3,-2.2810901456172665,-17.65180710547562,-17.951459829727817
1770454135820,125,-3,-2.116856367477549,-17.787299132735665,-17.787569592307058
1770454135824,125,-3,-1.902935777444835,-17.704715649121333,-17.57272045660931
1770454135828,126,-2,-1.7316512011516378,-16.69803309260029,-17.399528331917747
1770454135832,126,-2,-1.6518445855695387,-16.829703369276817,-17.317907369610136
1770454135836,125,-3,-1.6081449350537032,-17.538591231605928,-17.272476985349112
1770454135840,126,-2,-1.474582136908229,-17.01083673627106,-17.13658691264152
1770454135844,126,-2,-1.1550041843231371,-16.460922274878364,-16.814528932057073
1770454135848,127,-1,-0.6512230658179425,-16.057892096101604,-16.30953709367262
1770454135852,127,-1,-0.0495689024853089,-15.441661405949116,-15.708266120353606
1770454135856,128,0,0.5367638172053557,-15.011691242253182,-15.122352362496454
1770454135860,128,0,1.0174606485209052,-14.559645137501263,-14.640426997514515
1770454135864,129,1,1.355103137689072,-13.961817631219295,-14.299992821261243
1770454135868,129,1,1.5802100055945076,-13.628448679020284,-14.07198788686475
1770454135872,129,1,1.7763097933298029,-13.857361548135216,-13.873899284194426
1770454135876,129,1,2.0223759289932164,-13.687670114596587,-13.62665335076396
1770454135880,130,2,2.3263785053492234,-12.875430148666531,-13.321881871965807
1770454135884,130,2,2.6094086720089495,-12.738204103552404,-13.038309772996628
1770454135888,130,2,2.755845346071106,-12.866849707566072,-12.891264743167492
1770454135892,130,2,2.684857802609313,-12.65147498593782,-12.961138000636335
1770454135896,130,2,2.391157754858426,-12.955898612762324,-13.253076310441829
1770454135900,129,1,1.936471822045759,-13.61631134834128,-13.705626793101931
1770454135904,129,1,1.4059228025948598,-14.088010569324307,-14.234118605404012
1770454135908,128,0,0.862918507758407,-14.50969543542859,-14.775608499712057
1770454135912,128,0,0.3340785105420784,-15.071304511028824,-15.303702260110825
1770454135916,127,-1,-0.1736662747964441,-15.559565008664736,-15.81105711419185
1770454135920,127,-1,-0.6514365818484094,-16.045446792301185,-16.287867960754433
1770454135924,126,-2,-1.0855568048293738,-16.745348941374782,-16.72000123610532
1770454135928,126,-2,-1.4667385185969168,-16.8232479384221,-17.098945375274337
1770454135932,126,-2,-1.7922286716853495,-16.868859331766462,-17.423167814838912
1770454135936,125,-3,-2.0637948075051,-17.705675676205146,-17.694512371426278
1770454135940,125,-3,-2.2974205550887197,-18.033657392400126,-17.927813256233925
1770454135944,125,-3,-2.531960681648767,-17.723297585781616,-18.161112881231706
1770454135948,125,-3,-2.8052902221168416,-17.94777942211809,-18.43256797462257
1770454135952,124,-4,-3.1090734014739088,-18.719319390422697,-18.734372360895225
1770454135956,124,-4,-3.377233427288009,-18.920151059209044,-19.00070424198736
1770454135960,124,-4,-3.530918511502384,-18.847175057872768,-19.153161121542
1770454135964,124,-4,-3.5380292206854276,-18.96819353118468,-19.160113993377756
1770454135968,124,-4,-3.4365564237497277,-18.726231831910138,-19.05897438676531
1770454135972,124,-4,-3.311057575284578,-18.958910984002536,-18.93275916728574
1770454135976,124,-4,-3.238824800887455,-18.7317892991288,-18.858097770745523
1770454135980,125,-3,-3.2306758378057174,-18.053143714541427,-18.847130147605696
1770454135984,124,-4,-3.207939236902302,-18.849797586409693,-18.823101886775586
1770454135988,124,-4,-3.0544816368849332,-18.82559912813453,-18.670306092193663
1770454135992,125,-3,-2.7185065905151578,-17.922963519674212,-18.33549755431931
1770454135996,125,-3,-2.27064238291424,-17.765629578714258,-17.88708712260409
1770454136000,126,-2,-1.854363406715846,-17.09518547046109,-17.467010505409295
1770454136004,126,-2,-1.5738339018810552,-16.813240627454746,-17.180108398027745
1770454136008,126,-2,-1.4293463389208647,-16.93474587032981,-17.030440784142183
1770454136012,126,-2,-1.3621752843726114,-16.794754672831328,-16.964557133239243
1770454136016,126,-2,-1.3548347415409427,-16.968463107746903,-16.9673092187992
1770454136020,126,-2,-1.4515054793072748,-16.895615061624998,-17.078087022798265
1770454136024,126,-2,-1.5944845069164004,-17.078075124962574,-17.228237955518242
1770454136028,126,-2,-1.3172498620594053,-16.67395861694779,-16.941732018364835
1770454136032,129,1,0.4832466787105236,-14.10431770064859,-15.11630891436926
1770454136036,133,5,5.380263884712568,-9.653668581250107,-10.191661456129516
1770454136040,142,14,14.677960783021842,-1.2728427490105003,-0.8808502799618729
1770454136044,155,27,28.317834086603547,12.305742084013843,12.74806276822094
1770454136048,171,43,44.08876218285715,27.91090609430509,28.489001280931653
1770454136052,185,57,57.874618150721105,42.26588707018574,42.242412274498086
1770454136056,194,66,65.15844010765338,50.97947428237891,49.50890285099765
1770454136060,192,64,63.14037250388335,48.92976043420046,47.49705912274682
1770454136064,180,52,52.238490507192054,37.11302734262988,36.62094003688493
1770454136068,163,35,35.96882026239337,19.954984578773004,20.38374803337434
1770454136072,145,17,19.20452271553067,2.298602676801149,3.643720124411164
1770454136076,133,5,5.889042471642659,-10.085737470962435,-9.666240514188928
1770454136080,126,-2,-2.411474812100236,-16.925859777653155,-17.981351245625362
1770454136084,122,-6,-6.420828198799063,-21.06355813221082,-22.016347024275795
1770454136088,120,-8,-7.935443098875544,-22.90715487078167,-23.5527049908255
1770454136092,119,-9,-8.512315289469152,-23.880064993945517,-24.13560625313234
1770454136096,118,-10,-8.869524657828574,-24.995124515866124,-24.481842169848285
1770454136100,118,-10,-9.078485419002485,-24.981970806965585,-24.672148026338725
1770454136104,119,-9,-9.06075450150758,-24.078869571859,-24.640788691528215
1770454136108,119,-9,-8.877617603644548,-23.870544031661623,-24.456139057317912
1770454136112,119,-9,-8.681381715730273,-24.003408036821867,-24.267922028720413
1770454136116,119,-9,-8.546741625423342,-23.876221250081272,-24.14212865578144
1770454136120,119,-9,-8.424900618134629,-24.144783913602645,-24.02271712047286
1770454136124,119,-9,-8.245515409099887,-23.920417459716,-23.83880298628487
1770454136128,120,-8,-8.01552346284618,-23.040407294967373,-23.602649955901903
1770454136132,120,-8,-7.798001718108212,-22.893872367063924,-23.38294530187148
1770454136136,120,-8,-7.6193652812400705,-22.987198884698746,-23.206864036459155
1770454136140,120,-8,-7.438464026013896,-23.095961795519692,-23.029235439841997
1770454136144,120,-8,-7.217095155536716,-22.949881219904157,-22.807895159657065
1770454136148,121,-7,-6.9882914079411425,-22.063770207836523,-22.576116036950435
1770454136152,121,-7,-6.818289093963885,-21.866421688625316,-22.403585956449227
1770454136156,121,-7,-6.702375350749534,-22.073854173229297,-22.28781971580043
1770454136160,121,-7,-6.532891838685463,-22.015684180067332,-22.11981166238828
1770454136164,121,-7,-6.196258092236553,-22.057653914860587,-21.783325366875214
1770454136168,122,-6,-5.69383348496101,-20.99289054372965,-21.27931012288338
1770454136172,123,-5,-5.1442842616346045,-19.909278964971676,-20.728449105167805
1770454136176,123,-5,-4.663816810799982,-20.12597817837304,-20.248345830883228
1770454136180,123,-5,-4.262360950238244,-19.910039419101324,-19.84791070894611
1770454136184,124,-4,-3.86335342505191,-19.27242594578483,-19.448817389405868
1770454136188,124,-4,-3.404931531907943,-18.736723341199944,-18.9889972730035
1770454136192,125,-3,-2.9038475287830847,-18.21200702647073,-18.486470004759944
1770454136196,125,-3,-2.4274450686724496,-17.83373892045328,-18.009667031349824
1770454136200,126,-2,-2.019386848024449,-17.209185466792253,-17.60219418286088
1770454136204,126,-2,-1.6580967267961166,-17.05536408905148,-17.241545702560103
1770454136208,126,-2,-1.2847719469495118,-16.903449551041103,-16.867979013517076
1770454136212,127,-1,-0.8684474719406391,-16.140213913952465,-16.450429281815065
1770454136216,127,-1,-0.4397271041330459,-15.824159332761484,-16.02043284784706
1770454136220,128,0,-0.0585909561312328,-15.34153863257258,-15.639059852220178
1770454136224,128,0,0.2465607523149295,-14.868149068406565,-15.334700067482933
1770454136228,128,0,0.4999563227882838,-15.174903295090887,-15.081868131834874
1770454136232,128,0,0.738586580131598,-14.849558048531769,-14.842540697682306
1770454136236,129,1,0.9649101905357348,-14.118840251758837,-14.614823541046391
1770454136240,129,1,1.1534515486118284,-14.111180831320926,-14.425626380984568
1770454136244,129,1,1.2995552280189917,-14.064071465681746,-14.279950201166796
1770454136248,129,1,1.4432329098651602,-14.063882568301915,-14.136640534475026
1770454136252,129,1,1.6385127336919154,-13.919651205146282,-13.940696702540787
1770454136256,130,2,1.9099796656200612,-13.100376086743742,-13.667964408304618
1770454136260,130,2,2.244372629363376,-13.118183889842182,-13.332802560153986
1770454136264,130,2,2.6125957689048604,-13.101763032684,-12.964785069596024
1770454136268,131,3,2.9889616146243827,-12.031285566336022,-12.589197665943248
1770454136272,131,3,3.3537388330519775,-11.979831753328188,-12.224883513507253
1770454136276,131,3,3.686717815095352,-12.044209061525658,-11.891196255130843
1770454136280,132,4,3.9645328248488503,-11.18778440381254,-11.6114965833925
1770454136284,132,4,4.171561900634061,-11.0564848111355,-11.402633989708344
1770454136288,132,4,4.314663195456143,-11.10395867219404,-11.259165657337544
1770454136292,132,4,4.411322020344972,-10.904325749267588,-11.163681886197548
1770454136296,132,4,4.443838017696379,-11.147293073257927,-11.132494236121184
1770454136300,132,4,4.326475354172038,-11.087894886441012,-11.249932755473257
1770454136304,132,4,3.9431745882661753,-11.171468457983426,-11.631940107744995
1770454136308,131,3,3.246883585697591,-12.032282145804873,-12.326504100982673
1770454136312,130,2,2.331556191998665,-12.94850489253774,-13.240439322459585
1770454136316,129,1,1.3911791141595895,-14.1578519920171,-14.179826192093138
1770454136320,128,0,0.5821233438133004,-15.05348271408367,-14.988305289018127
1770454136324,128,0,-0.0936506811662922,-15.246785859581752,-15.664363569812526
1770454136328,127,-1,-0.7780209920956356,-15.957129294312097,-16.350015816978395
1770454136332,126,-2,-1.629030852282204,-17.031073088327762,-17.202229220606114
1770454136336,125,-3,-2.686191014894467,-18.097297608383546,-18.25890147542287
1770454136340,124,-4,-3.828177461307297,-19.12353402235498,-19.398301299027732
1770454136344,123,-5,-4.837211680214963,-20.20034218350636,-20.404055049154582
1770454136348,122,-6,-5.516086262674916,-21.009211804753672,-21.08089902614352
1770454136352,122,-6,-5.788207535846892,-20.971395573339365,-21.353064297324632
1770454136356,122,-6,-5.73142006023291,-21.185925185814757,-21.29769155840742
1770454136360,122,-6,-5.532448294826005,-21.02922764008712,-21.100181643543145
1770454136364,123,-5,-5.387639662986868,-20.337170305512736,-20.95590060709613
1770454136368,122,-6,-5.405756601400933,-20.854077415855535,-20.973104420490124
1770454136372,122,-6,-5.570425390803812,-21.15794395892073,-21.135341557149
1770454136376,122,-6,-5.7773356639279765,-20.985012454316855,-21.33908735305107
1770454136380,122,-6,-5.905804090369303,-21.2678258489658,-21.465280126378858
1770454136384,122,-6,-5.875515880359522,-21.100603990123233,-21.43476623683724
1770454136388,122,-6,-5.674804959452807,-21.084641695843935,-21.235325720521768
1770454136392,122,-6,-5.366211287858253,-20.953381259465893,-20.92771956759867
1770454136396,123,-5,-5.061693687047977,-20.172463469647045,-20.62261988897565
1770454136400,123,-5,-4.861147053068071,-20.121210984959504,-20.4200959691382
1770454136404,123,-5,-4.78516161420539,-20.24520000930218,-20.341838759902167
1770454136408,123,-5,-4.758034214864297,-19.939052706190207,-20.3130785333273
1770454136412,123,-5,-4.665100682873127,-20.116399783050937,-20.219297587537284
1770454136416,123,-5,-4.444654572333185,-20.007354086673995,-19.99830527553928
1770454136420,124,-4,-4.139827052085952,-19.30061258961947,-19.692740666401395
1770454136424,124,-4,-3.864884549379903,-19.07952509138344,-19.41677870264105
1770454136428,124,-4,-3.7145564316105593,-19.088274896886382,-19.265342008252865
1770454136432,124,-4,-3.696431161527745,-18.996025296398404,-19.246210467664273
1770454136436,124,-4,-3.742073397935742,-19.115046115124585,-19.2909479774291
1770454136440,124,-4,-3.7783269960998647,-19.228542977513623,-19.32612398512408
1770454136444,124,-4,-3.788452409576042,-19.13148782628516,-19.3346677583488
1770454136448,124,-4,-3.805713931118804,-19.04754339206254,-19.34991948975589
1770454136452,124,-4,-3.8473350899920145,-19.036489637486422,-19.389651034213152
1770454136456,124,-4,-3.859994745507026,-19.077521481684823,-19.400954663912323
1770454136460,124,-4,-3.745958543421878,-19.296744149947926,-19.285912897523097
1770454136464,124,-4,-3.4594808069302068,-19.03897808594406,-18.998405553036143
1770454136468,125,-3,-3.0802639427405545,-18.161701092594097,-18.618126872966748
1770454136472,125,-3,-2.781081823716995,-17.8982900037425,-18.317949392643506
1770454136476,125,-3,-2.708538643378529,-18.23928798249502,-18.24422373010775
1770454136480,125,-3,-2.8773698313921425,-18.14530671101728,-18.41137854762777
1770454136484,125,-3,-3.1602171312778453,-18.18782727081267,-18.692076280283807
1770454136488,124,-4,-3.375504728108981,-19.025417054116005,-18.904840366458448
1770454136492,124,-4,-3.4067684754888177,-19.00297662867453,-18.933386518068932
1770454136496,125,-3,-3.2625135170131307,-18.16269404719595,-18.786947701597516
1770454136500,125,-3,-3.032727609577905,-18.21056676108905,-18.556310063167818
1770454136504,125,-3,-2.796805243559646,-18.147960756051333,-18.320433852566513
1770454136508,125,-3,-2.5816630506376823,-18.032130979500145,-18.104663776040137
1770454136512,125,-3,-2.394907113584672,-18.02885577515738,-17.91573281450978
1770454136516,126,-2,-2.2616596662892188,-17.104784635954694,-17.779521759124627
1770454136520,126,-2,-2.2034096740050297,-17.303312769545546,-17.718579439599345
1770454136524,125,-3,-2.188360408433274,-18.0343699495272,-17.701139452272976
1770454136528,126,-2,-2.1223205790326496,-17.151053021474812,-17.63264140599054
1770454136532,126,-2,-1.8977852121299688,-16.907266020956925,-17.405829385241518
1770454136536,126,-2,-1.4635171037245809,-17.22648038805622,-16.96995047095193
1770454136540,127,-1,-0.8681385540588011,-16.182279595367408,-16.373573535164205
1770454136544,128,0,-0.2439485861574946,-15.14036332871536,-15.748381206181367
1770454136548,128,0,0.2691095695866301,-15.074197386837165,-15.23346210641999
1770454136552,128,0,0.6077787858173869,-14.932425591035738,-14.891586661339428
1770454136556,129,1,0.8157170474645115,-14.26607499353931,-14.679735363132028
1770454136560,129,1,1.0032547728488326,-14.074042173550088,-14.488957175380309
1770454136564,129,1,1.2645028808765504,-14.30870452427045,-14.22574727953181
1770454136568,129,1,1.5994610839488272,-13.8436570922111,-13.889456128758289
1770454136572,130,2,1.898776042820377,-13.19571261839208,-13.58864713039844
1770454136576,130,2,2.0187026146406826,-12.98988288489068,-13.466791828153385
1770454136580,130,2,1.8918065296011584,-13.335963694544365,-13.591043329390804
1770454136584,129,1,1.573147023007596,-14.074257482625493,-13.906070399710806
1770454136588,129,1,1.1849479762128547,-14.02959116978231,-14.290285955037271
1770454136592,129,1,0.8219309765281109,-14.055774907215728,-14.6503025242877
1770454136596,128,0,0.4970838627894365,-15.071480028545428,-14.97355701650965
1770454136600,128,0,0.1523065182914476,-15.291560354410944,-15.31708218690484
1770454136604,128,0,-0.2845331197644063,-15.07791960635278,-15.751705053645365
1770454136608,127,-1,-0.8314624370025492,-16.049081500685208,-16.295053105669673
1770454136612,126,-2,-1.4224001512481528,-17.022955988965077,-16.881613336307847
1770454136616,126,-2,-1.945058690481437,-17.07875649228409,-17.400287031936784
1770454136620,126,-2,-2.3176323208458354,-17.31379510949178,-17.77026958663977
1770454136624,125,-3,-2.544632118520126,-17.999684647428722,-17.99578622366864
1770454136628,125,-3,-2.715746647887959,-18.16970372076027,-18.165135273540866
1770454136632,125,-3,-2.944657987984695,-17.854766969755254,-18.39108746520981
1770454136636,125,-3,-3.2772154866469596,-18.26299683790074,-18.71978899039859
1770454136640,124,-4,-3.637210680164612,-19.119687675968947,-19.07563759484023
1770454136644,124,-4,-3.86963863993437,-19.164167753970123,-19.30386754012773
1770454136648,124,-4,-3.8569828530140287,-19.039536686749425,-19.287268586139184
1770454136652,124,-4,-3.609633523149765,-18.921867695629096,-19.036856607345708
1770454136656,125,-3,-3.256648658567202,-18.237906464079153,-18.681917730507493
1770454136660,125,-3,-2.9558739604936184,-18.078430791699503,-18.379452265527977
1770454136664,125,-3,-2.803367546738029,-18.24664448474018,-18.224154096951303
1770454136668,125,-3,-2.801840844296768,-17.927189003900295,-18.218234711456585
1770454136672,125,-3,-2.8853309369865743,-18.02265921601045,-18.296603209614418
1770454136676,125,-3,-2.963876720440345,-18.154734248766868,-18.37045833497098
1770454136680,125,-3,-2.964826596958976,-18.075995175723172,-18.367435953848933
1770454136684,125,-3,-2.8628434102056737,-18.33366589952628,-18.261976513482978
1770454136688,125,-3,-2.6853083828679356,-17.740310966970437,-18.08171341620876
1770454136692,126,-2,-2.484491335066167,-17.2792122144945,-17.879181117112555
1770454136696,125,-3,-2.2993893673775463,-17.819701912859408,-17.69214949115397
1770454136700,126,-2,-2.1438879638460886,-17.424652247528513,-17.531983985076316
1770454136704,126,-2,-2.0218095651270342,-16.974273026776473,-17.40133631369371
1770454136708,126,-2,-1.936511805185236,-17.08396441170916,-17.306040562690534
1770454136712,126,-2,-1.8857543168195292,-16.94085945644792,-17.249177878461815
1770454136716,126,-2,-1.8648653422350536,-17.10264447980628,-17.23042106824783
1770454136720,126,-2,-1.875330390068077,-17.163871209115136,-17.250225856270497
1770454136724,126,-2,-1.8784736584516344,-17.19573713278686,-17.262060632726975
1770454136728,126,-2,-1.6343658602183464,-16.876666924001817,-17.015358818888785
1770454136732,128,0,-0.4732869584029444,-15.122747244316482,-15.835015086848792
1770454136736,131,3,2.792410251390086,-11.870181760347336,-12.539242613983197
1770454136740,138,10,9.546384403489538,-5.417836680268302,-5.759530236151914
1770454136744,148,20,20.55478184445222,5.131244774695595,5.255636446423207
1770454136748,162,34,34.992289070066846,18.759880896077433,19.677387155633603
1770454136752,177,49,49.990932448603914,34.30110436984423,34.648228617569856
1770454136756,190,62,61.30872415020975,46.72711432136723,45.94381313596479
1770454136760,194,66,65.0728397936281,50.928785163363486,49.70503150086165
1770454136764,189,61,59.72397834580548,45.83034332804979,44.37516148201579
1770454136768,175,47,46.939535787399414,31.916709041200683,31.6233955240584
1770454136772,157,29,30.84569086285067,14.276098245747065,15.562340561082692
1770454136776,143,15,15.95261931691384,-0.3050843719236518,0.6893530135726422
1770454136780,133,5,5.119642436056921,-9.845567553367664,-10.143100718271585
1770454136784,128,0,-1.2359649305123313,-15.416736501822434,-16.514779213270415
1770454136788,124,-4,-4.447001756631053,-18.757180611442084,-19.746083287232462
1770454136792,122,-6,-6.202106083714803,-21.079701843869636,-21.510897268195723
1770454136796,120,-8,-7.504170562501962,-22.977434281287103,-22.804947823617542
1770454136800,119,-9,-8.505006496713115,-24.101684953006796,-23.785067480060047
1770454136804,119,-9,-8.986694050065275,-24.20236418250865,-24.245761483467316
1770454136808,119,-9,-8.891321135418465,-23.85091503911177,-24.13919101851427
1770454136812,120,-8,-8.475287316310819,-23.071945848127022,-23.722925496865216
1770454136816,120,-8,-8.097145093419298,-22.893586371781034,-23.348865905924924
1770454136820,120,-8,-7.939590375703954,-23.239787902831544,-23.19174145246693
1770454136824,120,-8,-7.930728252460581,-22.98053664152774,-23.17640703771401
1770454136828,120,-8,-7.886818942883569,-23.06585628066621,-23.121768572966403
1770454136832,120,-8,-7.7040257051359955,-22.850071645571106,-22.929119764840134
1770454136836,121,-7,-7.42730356682985,-22.066155176266292,-22.64662369364965
1770454136840,121,-7,-7.170069125507539,-22.094115179433867,-22.38689976794571
1770454136844,121,-7,-6.99394655116057,-22.04265625533479,-22.20807291182409
1770454136848,121,-7,-6.866402718945314,-22.014813837568845,-22.074820761529985
1770454136852,121,-7,-6.710346778767676,-21.870121233115203,-21.910494480787538
1770454136856,122,-6,-6.469706621754679,-21.02730865797674,-21.66182698012476
1770454136860,122,-6,-6.130632063017255,-21.116170396918335,-21.31685588143761
1770454136864,122,-6,-5.7104652508877045,-20.968719817202786,-20.892078474070782
1770454136868,123,-5,-5.248679592336404,-20.076496249459844,-20.425003801381045
1770454136872,123,-5,-4.797155852638668,-19.786653763692883,-19.966936182644496
1770454136876,124,-4,-4.393982121593099,-19.100871075859516,-19.55693157765308
1770454136880,124,-4,-4.039419529123926,-18.994360403741016,-19.196038313863724
1770454136884,124,-4,-3.706368116477144,-19.07234575882415,-18.8569017550351
1770454136888,125,-3,-3.3762187617862627,-17.938246345526395,-18.520349155246254
1770454136892,125,-3,-3.055715875413021,-17.90437007501823,-18.19298070487105
1770454136896,125,-3,-2.7561848519872294,-17.986608813104848,-17.88633082659492
1770454136900,126,-2,-2.4636763195174267,-17.022235230020534,-17.586800218342056
1770454136904,126,-2,-2.1361343068571093,-17.071423988646437,-17.252641286540566
1770454136908,126,-2,-1.735697609776491,-16.858367354983212,-16.845923276928513
1770454136912,127,-1,-1.271820522101068,-16.009718894815713,-16.375646656951982
1770454136916,127,-1,-0.8131017894471471,-15.82009941900141,-15.910095075426902
1770454136920,128,0,-0.4440678375303641,-15.185059650861238,-15.533936042932195
1770454136924,128,0,-0.1950684520752676,-14.830559883330778,-15.27776667235936
1770454136928,128,0,-0.0083506287293437,-15.128505589583378,-15.083762312800296
1770454136932,128,0,0.2239432805399528,-14.664911756562788,-14.843859696705444
1770454136936,129,1,0.5816659001986069,-14.182744355094268,-14.47830353374719
1770454136940,129,1,1.0657106306681088,-13.757219219555576,-13.98655499161477
1770454136944,130,2,1.6094035633867083,-13.211234560962792,-13.435582101449938
1770454136948,130,2,2.1314068731880025,-12.75762005248004,-12.906871254802189
1770454136952,131,3,2.584055302328955,-11.963234754894437,-12.447897052747749
1770454136956,131,3,2.9626711937931978,-11.922540818234031,-12.062440219861967
1770454136960,131,3,3.275917257353879,-11.909764636383162,-11.740776465177632
1770454136964,132,4,3.5178755101440147,-11.070929438571634,-11.489085591552996
1770454136968,132,4,3.6846684878256486,-10.832374192699394,-11.313079968606203
1770454136972,132,4,3.8165283452558394,-10.888847941887189,-11.17390363336066
1770454136976,132,4,3.9924303400800065,-10.961422433711176,-10.991729403780042
1770454136980,132,4,4.252004665642179,-10.819904235168488,-10.724959488726968
1770454136984,133,5,4.524946749982078,-10.139106267119468,-10.443350294899744
1770454136988,133,5,4.665154892816229,-9.708344012566789,-10.29428477670389
1770454136992,133,5,4.5723750847180185,-10.004143367854182,-10.379002375381164
1770454136996,132,4,4.275414904827077,-10.812901942274877,-10.66799456952102
1770454137000,132,4,3.8893303816444393,-10.920122723384647,-11.045112103607952
1770454137004,132,4,3.4976956560321533,-11.026212773213466,-11.427113755085024
1770454137008,131,3,3.080816419886526,-11.741759489917415,-11.835123260748755
1770454137012,131,3,2.5462295253856952,-11.980268404975083,-12.362285838199307
1770454137016,130,2,1.815086856103099,-12.762677876984853,-13.086457995275335
1770454137020,129,1,0.8832143915848576,-13.981030295541862,-14.01011745582078
1770454137024,128,0,-0.1811216184636515,-14.88696634753062,-15.06437334605014
1770454137028,127,-1,-1.2782308668768887,-15.86989015918051,-16.15068077994191
1770454137032,126,-2,-2.3133127671994074,-16.788632464312634,-17.17592322055934
1770454137036,125,-3,-3.215993412327224,-17.941543750739363,-18.070183969168177
1770454137040,124,-4,-3.956776895874275,-18.748218064845535,-18.80302880226988
1770454137044,124,-4,-4.557385450322547,-19.099809817734418,-19.395234144992717
1770454137048,123,-5,-5.072103363290638,-19.592905868234304,-19.9009858518974
1770454137052,123,-5,-5.5409495083524005,-20.040318334149912,-20.360437414942957
1770454137056,122,-6,-5.9542509337856675,-20.64961676758184,-20.7636701389642
1770454137060,122,-6,-6.26153951872576,-20.997331448794608,-21.06022415336234
1770454137064,122,-6,-6.410663395608206,-20.841537391384072,-21.198917632334357
1770454137068,122,-6,-6.3799718577527,-20.7522992185159,-21.159148777679174
1770454137072,122,-6,-6.191122799094213,-20.89961025671282,-20.96217412652858
1770454137076,122,-6,-5.911010975506078,-20.68682487124033,-20.67329339520103
1770454137080,123,-5,-5.634737855355612,-19.988478398132763,-20.386765873760137
1770454137084,123,-5,-5.43525924950661,-19.769011924651497,-20.176328667126548
1770454137088,123,-5,-5.308648520762559,-19.790944914648335,-20.03914007604968
1770454137092,123,-5,-5.177385557058082,-19.819005931604277,-19.897736202328964
1770454137096,123,-5,-4.966345370827482,-19.71031096645726,-19.676525010743003
1770454137100,124,-4,-4.6818404972570296,-18.968742857644596,-19.38193731221513
1770454137104,124,-4,-4.413434236773764,-18.699920003802735,-19.103972570298247
1770454137108,124,-4,-4.259729954277323,-18.84242163897496,-18.940905702116236
1770454137112,124,-4,-4.252656666104006,-18.694355981512388,-18.923671500275105
1770454137116,124,-4,-4.340613330167213,-18.812688870481672,-19.000307695455653
1770454137120,124,-4,-4.426698687664395,-18.8506518173068,-19.074720567121553
1770454137124,124,-4,-4.423121852650191,-18.72453127205206,-19.060081666099254
1770454137128,124,-4,-4.291544258291034,-18.815445025389835,-18.91813304531251
1770454137132,124,-4,-4.054738353425554,-18.60692963982652,-18.671182541349573
1770454137136,125,-3,-3.7727781044797553,-17.93448962165017,-18.379121560060685
1770454137140,125,-3,-3.4968007614585943,-17.639413114594177,-18.09296580181462
1770454137144,125,-3,-3.2402154816172417,-17.919419350768514,-17.825481148379644
1770454137148,125,-3,-2.9942011279586405,-17.545866637025153,-17.56742505975006
1770454137152,126,-2,-2.759568473325442,-16.817266112801743,-17.32055589818557
1770454137156,126,-2,-2.5494322952569637,-16.73151768611024,-17.099462895893666
1770454137160,126,-2,-2.3699294326204043,-16.738091890940314,-16.910194712832546
1770454137164,126,-2,-2.2226739730407217,-16.84279212233533,-16.75266091590148
1770454137168,126,-2,-2.1282628020889263,-16.485970170211935,-16.64645716964697
1770454137172,127,-1,-2.121461504282393,-15.901923368949774,-16.627279504401095
1770454137176,126,-2,-2.2068562827827947,-16.546765040844715,-16.701006574683912
1770454137180,126,-2,-2.333415938628443,-16.92437152476322,-16.816559740731023
1770454137184,126,-2,-2.4313561989145156,-16.578032953310657,-16.90334484625211
1770454137188,126,-2,-2.4719246178260583,-16.69852762742887,-16.932413520915734
1770454137192,126,-2,-2.48181080788128,-16.657562943475646,-16.9308333281243
1770454137196,126,-2,-2.5011353101851848,-16.695790787070244,-16.938783620497585
1770454137200,126,-2,-2.5323951089500083,-16.80396430227099,-16.958354156527474
1770454137204,126,-2,-2.527426327516109,-16.569185157430542,-16.941093572427448
1770454137208,126,-2,-2.421647060837562,-16.722450662029864,-16.822660760308878
1770454137212,126,-2,-2.188384535248616,-16.523007981903685,-16.577084989849524
1770454137216,127,-1,-1.8708220719220792,-15.808022948004398,-16.248208411115424
1770454137220,127,-1,-1.5668753137143767,-15.648782935927072,-15.933768478690723
1770454137224,127,-1,-1.38221130165048,-15.651057284130127,-15.738241602630245
1770454137228,127,-1,-1.3856003776605998,-15.616990753460644,-15.729362653854976
1770454137232,127,-1,-1.5821532667347582,-15.53449117148179,-15.912611401105416
1770454137236,127,-1,-1.9053353380090343,-15.7841023448331,-16.222716100968256
1770454137240,126,-2,-2.2398264667533008,-16.590901477733276,-16.544925685768064
1770454137244,126,-2,-2.4808977510153385,-16.684444108388007,-16.774030277604147
1770454137248,126,-2,-2.5935121632937483,-16.498507171031846,-16.874553204641835
1770454137252,126,-2,-2.6175963525867756,-16.617137457352754,-16.886638395536508
1770454137256,126,-2,-2.6152947893154854,-16.62679961272007,-16.872709764022723
1770454137260,126,-2,-2.6131550007285247,-16.711847613497476,-16.85902065384652
1770454137264,126,-2,-2.5884845031940484,-16.511969482944444,-16.822177802104427
1770454137268,126,-2,-2.499523743805873,-16.598413705011986,-16.71999084132039
1770454137272,126,-2,-2.3213460763198936,-16.48459199521822,-16.527961872391614
1770454137276,127,-1,-2.0531746298114335,-15.657227343542315,-16.246476578401953
1770454137280,127,-1,-1.7003993979986878,-15.681659893211403,-15.881765919228844
1770454137284,127,-1,-1.2674897468289112,-15.440211061374836,-15.437870162389284
1770454137288,128,0,-0.7815568245879185,-14.651678640645404,-14.940607581927573
1770454137292,128,0,-0.3147015668568744,-14.341665103852,-14.46123803597076
1770454137296,129,1,0.0412962689242601,-13.753598558453303,-14.091832902720132
1770454137300,129,1,0.2432380854511773,-13.527495021353316,-13.876458405414924
1770454137304,129,1,0.3445761015336894,-13.537094877078117,-13.762107133308866
1770454137308,129,1,0.464637112973342,-13.509034512257678,-13.629182654373391
1770454137312,129,1,0.6913787804023188,-13.401599510932742,-13.389441774769397
1770454137316,130,2,0.9995655983695376,-12.653300306078496,-13.068522405191285
1770454137320,130,2,1.2591415585856445,-12.539273959349655,-12.797194774049029
1770454137324,130,2,1.3268518081681235,-12.50110006692422,-12.718609411260536
1770454137328,130,2,1.1415148819794525,-12.45844193779914,-12.89258445058332
1770454137332,129,1,0.7508030819360099,-13.41566426240808,-13.269916387716174
1770454137336,129,1,0.2683709070375524,-13.561293290454708,-13.73698001528742
1770454137340,129,1,-0.184128085061902,-13.569386927025018,-14.174092213736618
1770454137344,128,0,-0.5105598343333526,-14.415582393464602,-14.487303537946914
1770454137348,128,0,-0.6617590065767993,-14.476920233095976,-14.627781391512793
1770454137352,128,0,-0.6659162357047574,-14.334051052514404,-14.621983713523331
1770454137356,128,0,-0.6447852372102623,-14.58941638465268,-14.589547674320436
1770454137360,128,0,-0.7689641264510467,-14.462649862568734,-14.700387554750384
1770454137364,128,0,-1.149882473515673,-14.466426641629536,-15.066932711298575
1770454137368,127,-1,-1.742123823029966,-15.370568261671206,-15.64506852405274
1770454137372,126,-2,-2.3520792644125272,-16.362952059037173,-16.24158685370053
1770454137376,126,-2,-2.767600356993378,-16.52213777317759,-16.644180977126155
1770454137380,126,-2,-2.9054907108299712,-16.433143218549464,-16.76973892209751
1770454137384,126,-2,-2.8516401883104536,-16.44764400165493,-16.70422438476745
1770454137388,126,-2,-2.770204461152919,-16.30853981174662,-16.611211811801248
1770454137392,126,-2,-2.7700479427555034,-16.365786196262526,-16.598687536430823
1770454137396,126,-2,-2.83504035659605,-16.477646503184516,-16.650295453508797
1770454137400,126,-2,-2.8587407198506227,-16.380050549783565,-16.660171570570782
1770454137404,126,-2,-2.7438945343930343,-16.46309196676964,-16.531747751206144
1770454137408,126,-2,-2.4857948262991982,-16.185726832807763,-16.26069566452825
1770454137412,127,-1,-2.175274078947486,-15.453461924211544,-15.938029064327589
1770454137416,127,-1,-1.9242565416808932,-15.31487412833066,-15.67552678150285
1770454137420,127,-1,-1.7858229573194742,-15.473778494930295,-15.525480855493234
1770454137424,127,-1,-1.741553597490079,-15.311095412808283,-15.468469344454368
1770454137428,127,-1,-1.754619856596656,-15.24003123618543,-15.467529851319709
1770454137432,127,-1,-1.821197523211984,-15.372550075399136,-15.520010521233395
1770454137436,127,-1,-1.9665393011957677,-15.28509538348174,-15.652717788976023
1770454137440,127,-1,-2.199916077185942,-15.47517636372356,-15.875320398037108
1770454137444,126,-2,-2.4854659624439845,-16.198683945862705,-16.150582907125433
1770454137448,126,-2,-2.759631404140576,-16.313755928492526,-16.412898637297225
1770454137452,126,-2,-2.965761689070503,-16.207583572910345,-16.60461359042573
1770454137456,126,-2,-3.0621407414367976,-16.399017580708758,-16.68467344807766
1770454137460,126,-2,-3.011107831306181,-16.270523020896682,-16.617240156784355
1770454137464,126,-2,-2.795778693832501,-16.3349782140655,-16.388015380106324
1770454137468,126,-2,-2.46900121392406,-16.11449712402888,-16.052716221408993
1770454137472,127,-1,-2.162440615963222,-15.3245912818915,-15.743987683905289
1770454137476,127,-1,-1.976499224637504,-15.231412691081555,-15.55807968752724
1770454137480,127,-1,-1.7606513232418253,-15.330128979234283,-15.335279262560988
1770454137484,128,0,-0.898960547447738,-14.233930838359132,-14.451861306432246
1770454137488,131,3,1.7353088244197528,-11.111914567057466,-11.782933227159743
1770454137492,137,9,7.502038997893747,-5.287521139173691,-5.981296836348173
1770454137496,146,18,17.332968850826436,3.8604603128884065,3.8697674516719296
1770454137500,159,31,30.869658724954395,16.638035185895163,17.40544262724609
1770454137504,174,46,45.90086898049193,31.89597291750367,32.42100389906482
1770454137508,188,60,58.6778619250536,45.8077370182867,45.182462049766215
1770454137512,195,67,65.26468444065046,52.84197244075084,51.767912365855494
1770454137516,193,65,63.34365598787056,50.79260230509917,49.86555075850062
1770454137520,183,55,53.42525614688693,40.72119347015239,39.981225676658646
1770454137524,167,39,38.659441253252155,24.8913226873126,25.253351501836818
1770454137528,151,23,23.3036753031294,8.856289092515219,9.927544111483927
1770454137532,139,11,10.77395573271145,-3.024293453759064,-2.5872719490149905
1770454137536,132,4,2.445610408884142,-10.253895150251058,-10.91609827395493
1770454137540,128,0,-2.220165228346956,-14.07168640413343,-15.591190165858912
1770454137544,125,-3,-4.61155595346952,-17.299289267040127,-17.989368267814246
1770454137548,122,-6,-5.89942639627749,-19.888464078854483,-19.271344291937424
1770454137552,122,-6,-6.638593237246885,-20.225400519042186,-19.990279013254792
1770454137556,122,-6,-6.994961421185072,-19.9642779656177,-20.320315146039658
1770454137560,122,-6,-7.106675978891097,-20.23331350896587,-20.410753887235547
1770454137564,122,-6,-7.197612390985272,-20.102652578408772,-20.490764525247137
1770454137568,122,-6,-7.443889981661435,-19.98792783100142,-20.733097381750024
1770454137572,121,-7,-7.83250815092916,-21.125157893022433,-21.11696749645796
1770454137576,120,-8,-8.194175256806723,-21.905339417674337,-21.46775854770979
1770454137580,121,-7,-8.3693203347734,-21.22895084975513,-21.627068123280388
1770454137584,121,-7,-8.326406602298828,-20.992687547912713,-21.56895709096708
1770454137588,121,-7,-8.134508498314542,-21.05473823535221,-21.366484408722343
1770454137592,121,-7,-7.870034320510838,-20.99674990824196,-21.09479861964109
1770454137596,121,-7,-7.58072718383605,-20.921004595030706,-20.797422826941947
1770454137600,122,-6,-7.315037109501399,-20.142395359376792,-20.520390840702177
1770454137604,122,-6,-7.133497802329496,-19.940880644091155,-20.325440725395644
1770454137608,122,-6,-7.062539528548996,-20.105688498052768,-20.24174780090391
1770454137612,122,-6,-7.045807241303166,-19.814820003958214,-20.214423853660424
1770454137616,122,-6,-6.964441743082409,-20.068688704964575,-20.12389460623297
1770454137620,122,-6,-6.724197297700884,-19.84980149838775,-19.87413934172841
1770454137624,123,-5,-6.330946320772097,-19.15487178562826,-19.469995274726777
1770454137628,123,-5,-5.877232894264439,-18.828352337949937,-19.00460254323059
1770454137632,124,-4,-5.446470367248079,-18.008113899713035,-18.562744021846328
1770454137636,124,-4,-5.031037545835231,-17.801074654945307,-18.137269755910935
1770454137640,124,-4,-4.55695388443133,-18.000456896885623,-17.653397581136975
1770454137644,125,-3,-3.996052034240567,-16.92297292553827,-17.082316715961678
1770454137648,126,-2,-3.4414858618239164,-15.97284482202209,-16.517675118478227
1770454137652,126,-2,-3.0547806824116983,-15.817296843590457,-16.121537329515935
1770454137656,126,-2,-2.9320997090002003,-15.85234283321628,-15.989365545529736
1770454137660,126,-2,-3.01747376278249,-15.905918339297129,-16.06403929106254
1770454137664,126,-2,-3.132901462141181,-15.865716056871872,-16.167660714831914
1770454137668,126,-2,-3.0898250246505587,-16.019481280653395,-16.113126353047456
1770454137672,126,-2,-2.798373841545907,-15.629958035277456,-15.811830644305932
1770454137676,127,-1,-2.309502998329342,-14.982012246269694,-15.314617355437946
1770454137680,127,-1,-1.7734182940114636,-14.65007280447866,-14.77051972013208
1770454137684,128,0,-1.3458982967590094,-14.038060838998184,-14.33425419561376
1770454137688,128,0,-1.1006077880498666,-13.787042384043351,-14.079217339864195
1770454137692,128,0,-0.9986365992919098,-13.754186846590894,-13.966726881950745
1770454137696,128,0,-0.9294785609046816,-13.789750138246983,-13.886579293727426
1770454137700,128,0,-0.7878145602474067,-13.705340047089752,-13.734035016087226
1770454137704,129,1,-0.525433669891277,-12.918618626788689,-13.46183466520817
1770454137708,129,1,-0.1492067974442472,-12.80864565531885,-13.07732674309874
1770454137712,129,1,0.3061985540118198,-12.65339542570905,-12.614371376794349
1770454137716,130,2,0.7904234543181535,-11.799049018212088,-12.121890128542082
1770454137720,130,2,1.2380323955971937,-11.56648898556698,-11.664750844555543
1770454137724,131,3,1.5896782773586084,-11.011141931485811,-11.303048623582104
1770454137728,131,3,1.8352011886239357,-10.57072095518508,-11.04792324101552
1770454137732,131,3,2.03589494058083,-10.872802464291,-10.838150031893836
1770454137736,131,3,2.290157724340488,-10.42153862749644,-10.574692674142046
1770454137740,132,4,2.66271491209809,-9.875361651725296,-10.192588202911224
1770454137744,132,4,3.136268142538545,-9.598326827701836,-9.709757955222589
1770454137748,133,5,3.6205988580320136,-8.875415515106862,-9.217165200108475
1770454137752,133,5,3.999607138711091,-8.517576468733154,-8.830794840565101
1770454137756,133,5,4.172211591019979,-8.634967928425358,-8.650705431708943
1770454137760,133,5,4.067159929826792,-8.600531738725875,-8.747215543239264
1770454137764,133,5,3.6490971393483744,-8.742505170794782,-9.155740685275214
1770454137768,132,4,2.935296933356563,-9.660036750264194,-9.859845590723932
1770454137772,131,3,2.0093113609521165,-10.639282889559178,-10.776691282914884
1770454137776,130,2,1.001005430546673,-11.398032850413124,-11.77652984016152
1770454137780,129,1,0.0299674083374057,-12.761618128438572,-12.739541662433574
1770454137784,128,0,-0.8507303522345184,-13.445329212449703,-13.612492789523436
1770454137788,128,0,-1.6654062046264235,-13.892906087941864,-14.419664203896676
1770454137792,126,-2,-2.470707257747225,-15.288283348580354,-15.217507644731834
1770454137796,126,-2,-3.2901650494943206,-15.66845963317991,-16.02907928017151
1770454137800,125,-3,-4.078895137958489,-16.367659924381677,-16.80906085613519
1770454137804,124,-4,-4.7426509624197655,-17.75869383088376,-17.46336633312226
1770454137808,124,-4,-5.192880021118274,-17.466101581874543,-17.904433210610435
1770454137812,124,-4,-5.395335925896755,-17.61906884861598,-18.099140280059835
1770454137816,123,-5,-5.385145712740961,-18.2540047607564,-18.082662883713432
1770454137820,124,-4,-5.252068585955749,-17.63572468715236,-17.94351863616587
1770454137824,124,-4,-5.106145126698817,-17.44110688982711,-17.790401486101022
1770454137828,124,-4,-5.028857201874416,-17.634319561526983,-17.70452981130307
1770454137832,124,-4,-5.028614413460933,-17.402263938781058,-17.69518563998481
1770454137836,124,-4,-5.033780127172798,-17.316011497723963,-17.691809715403846
1770454137840,124,-4,-4.941669297356836,-17.519654599128746,-17.592047940220805
1770454137844,124,-4,-4.700526858737766,-17.39799706263227,-17.343791538742934
1770454137848,125,-3,-4.3625874620614296,-16.6309959367879,-16.999079865287335
1770454137852,125,-3,-4.055911636588142,-16.257380956158215,-16.6860873916882
1770454137856,125,-3,-3.893121197834715,-16.38352934117586,-16.517051880032092
1770454137860,125,-3,-3.8962943221408217,-16.335605328903995,-16.513017488615716
1770454137864,125,-3,-3.99519158643081,-16.468661070566647,-16.60326263865744
1770454137868,125,-3,-4.081615405698382,-16.49493398543888,-16.680594741620745
1770454137872,125,-3,-4.065971796242442,-16.234631878530422,-16.65706020806941
1770454137876,125,-3,-3.908227231639266,-16.348153390287123,-16.49317223517373
1770454137880,125,-3,-3.629267965544416,-16.212073694103687,-16.208803518817803
1770454137884,126,-2,-3.305850056124216,-15.528365576352526,-15.879366586653996
1770454137888,126,-2,-3.038295268209892,-15.313924402670548,-15.604755257125582
1770454137892,126,-2,-2.896768402440713,-15.310915236763906,-15.455628048233407
1770454137896,126,-2,-2.8819760837426216,-15.162724187395945,-15.43338291399791
1770454137900,126,-2,-2.9326615628368646,-15.27636252563679,-15.477098649688404
1770454137904,126,-2,-2.974597583721593,-15.382945839329944,-15.512403651513797
1770454137908,126,-2,-2.972321274229928,-15.329656932802898,-15.50348578223652
1770454137912,126,-2,-2.943128576471884,-15.206412830980874,-15.467521980551776
1770454137916,126,-2,-2.9248431814864504,-15.125965754033448,-15.442550342710064
1770454137920,126,-2,-2.931105017777669,-15.2232242821918,-15.44241851058634
1770454137924,126,-2,-2.939768889752714,-15.32161396043478,-15.444915300515037
1770454137928,126,-2,-2.924236762421898,-15.292243211033297,-15.42324335952524
1770454137932,126,-2,-2.8902432455631772,-15.12781906098348,-15.38299805772388
1770454137936,126,-2,-2.874967993702148,-15.077589777636993,-15.361202459154724
1770454137940,126,-2,-2.907148903051003,-15.17087668242878,-15.38643035984166
1770454137944,126,-2,-2.967979815724185,-15.256227931326997,-15.440109833293922
1770454137948,126,-2,-2.991460946647172,-15.269947059685816,-15.457019776233013
1770454137952,126,-2,-2.908981382332133,-15.017701671365456,-15.369046621945309
1770454137956,126,-2,-2.710021054500007,-15.07117379742628,-15.164996530868384
1770454137960,126,-2,-2.473345932370062,-15.064160098370186,-14.92246560496688
1770454137964,127,-1,-2.328037229071742,-14.246556077240085,-14.770491775437431
1770454137968,127,-1,-2.352653389833116,-14.196562319125537,-14.788734141307147
1770454137972,126,-2,-2.4955036173595406,-14.940978985456685,-14.925927580239282
1770454137976,126,-2,-2.605795284386695,-15.06228240091504,-15.030315863732282
1770454137980,126,-2,-2.557938969882552,-14.911642319670351,-14.97560860395372
1770454137984,127,-1,-2.3444378463986273,-14.350292156308418,-14.755219666690095
1770454137988,127,-1,-2.0477488905692747,-13.913457215075644,-14.452950893333972
1770454137992,127,-1,-1.7387950057968151,-14.158619501031398,-14.139564795688234
1770454137996,127,-1,-1.4189857834849255,-13.683696526646344,-13.814956043368896
1770454138000,128,0,-1.0527299860830854,-13.192422020211996,-13.442583032027509
1770454138004,128,0,-0.6319695225445239,-12.985216077965958,-13.015041986741252
1770454138008,129,1,-0.1948371024710675,-12.101834728146995,-12.571744432239434
1770454138012,129,1,0.2137717486556627,-11.913613856656951,-12.15792926548647
1770454138016,129,1,0.5883137865893402,-11.735583224130984,-11.778287816232927
1770454138020,130,2,0.965652179602531,-11.097107332294224,-11.395120058918137
1770454138024,130,2,1.3868176013311282,-10.919087316164488,-10.96763969854482
1770454138028,131,3,1.856552395480891,-10.08406870980128,-10.49199449938927
1770454138032,131,3,2.328888642897033,-9.76093719534554,-10.014480856280368
1770454138036,131,3,2.718504417906876,-9.805015239800625,-9.61997523155656
1770454138040,132,4,2.929882987666071,-8.882893767439352,-9.403646506561971
1770454138044,132,4,2.897725441742677,-9.057253828609152,-9.430856811885404
1770454138048,131,3,2.618146600491521,-9.7896419581633,-9.705323236381233
1770454138052,131,3,2.145787714460481,-9.945481828516234,-10.17188714638558
1770454138056,130,2,1.563327537696773,-10.474612620675586,-10.747835239751764
1770454138060,130,2,0.9560026510465518,-11.132324135562444,-11.34875309811439
1770454138064,129,1,0.403481706906072,-11.659486546776064,-11.895864003871903
1770454138068,129,1,-0.0309566108107191,-12.083367989387,-12.325890292920846
1770454138072,128,0,-0.3288154603476571,-12.503670189954182,-12.619464611399582
1770454138076,128,0,-0.5420999376282727,-12.787809417351458,-12.82786893514094
1770454138080,128,0,-0.7773378467662422,-12.734113136835566,-13.057850244604928
1770454138084,128,0,-1.1294227108463395,-12.896610831711108,-13.404883256972711
1770454138088,127,-1,-1.614849616728212,-13.764894183715278,-13.885279203866125
1770454138092,126,-2,-2.1666708213028656,-14.639517339354008,-14.431429954200382
1770454138096,126,-2,-2.689840198027112,-14.5725261292745,-14.948522191469976
1770454138100,126,-2,-3.114740671077395,-14.8026157387659,-15.367999972202842
1770454138104,125,-3,-3.4104623044118236,-15.724222434241742,-15.659181689201509
1770454138108,125,-3,-3.578016860945761,-15.787039501186085,-15.82208024958526
1770454138112,125,-3,-3.6450212084598417,-15.493894548030502,-15.883743120452571
1770454138116,125,-3,-3.6519804185673945,-15.593519973266435,-15.885459144514462
1770454138120,125,-3,-3.629528864012993,-15.666154857706989,-15.858696170573438
1770454138124,125,-3,-3.592565424982213,-15.724144903706872,-15.817814105356256
1770454138128,125,-3,-3.558606401736959,-15.666860804183573,-15.778964647475185
1770454138132,125,-3,-3.5571281554303877,-15.46770902073785,-15.771126199052109
1770454138136,125,-3,-3.6026175267195595,-15.50497469048936,-15.80987263049414
1770454138140,125,-3,-3.65655617117306,-15.631217528614762,-15.858374397298393
1770454138144,125,-3,-3.633176008324155,-15.617531529925502,-15.831543973959644
1770454138148,125,-3,-3.4650877784535123,-15.663640405288334,-15.660931399193244
1770454138152,125,-3,-3.1736812808094372,-15.308150692637982,-15.365825831344134
1770454138156,126,-2,-2.8667796125590796,-14.561251305145738,-15.052356616361074
1770454138160,126,-2,-2.6518486681932565,-14.431910109216322,-14.827977907763817
1770454138164,126,-2,-2.546732705569905,-14.686985604342755,-14.71297678533718
1770454138168,126,-2,-2.4818310690690595,-14.484792248848386,-14.64223868994996
1770454138172,126,-2,-2.3919398365215425,-14.310304637349232,-14.55421594004184
1770454138176,126,-2,-2.2895011846641196,-14.490415869136084,-14.459786324433566
1770454138180,126,-2,-2.1958525750390843,-14.293537110393531,-14.372100044618335
1770454138184,127,-1,-1.8998551373306545,-13.765823311693111,-14.07018493869796
1770454138188,128,0,-0.6731343088566053,-12.217042106978486,-12.822470127280049
1770454138192,132,4,2.78384906815102,-8.471466817657126,-9.336957265592424
1770454138196,138,10,9.90237079731611,-2.18456152417793,-2.1963874901056997
1770454138200,149,21,21.33042506269637,8.568839924235228,9.236044399023118
1770454138204,164,36,36.0026465341302,23.473256638102036,23.893875875031952
1770454138208,179,51,50.90224003312104,38.735078625457675,38.76997863451837
1770454138212,191,63,61.947583891390096,50.646055121270685,49.79754185213066
1770454138216,195,67,65.71931036793433,54.857279791058275,53.568881210432274
1770454138220,190,62,61.089359812326705,49.571398074097274,48.95821429915274
1770454138224,178,50,49.75675462345435,37.58899197704865,37.65655347079704
1770454138228,163,35,35.342738171009394,22.751035186503668,23.271684763095525
1770454138232,149,21,21.61098330574229,8.79479565835413,9.555826453931104
1770454138236,139,11,10.900646065222633,-1.0740297508488368,-1.1556924808378852
1770454138240,133,5,3.6250313059431662,-7.343249139513771,-8.444546781681192
1770454138244,128,0,-1.1030057732520504,-12.35579108342213,-13.187079458277722
1770454138248,124,-4,-4.392170760317185,-16.183553326610237,-16.481319691223533
1770454138252,121,-7,-6.850784648982588,-19.149482860696004,-18.931213586214493
1770454138256,119,-9,-8.556921824033584,-20.989781266875656,-20.6193526747059
1770454138260,119,-9,-9.454531130751544,-21.263462600729035,-21.49962149815556
1770454138264,119,-9,-9.683262148283092,-21.32372705062608,-21.719613702976005
1770454138268,119,-9,-9.580147406475904,-21.04839141159656,-21.61672485360245
1770454138272,119,-9,-9.46158847918593,-21.1904298694613,-21.50087168784203
1770454138276,118,-10,-9.452005277485002,-21.78125241680263,-21.489366455325445
1770454138280,119,-9,-9.496798465339287,-21.34384291113795,-21.525903892716094
1770454138284,119,-9,-9.487656238082929,-21.095514715468923,-21.50622985605877
1770454138288,119,-9,-9.362107422574944,-21.123665794488176,-21.372723296043972
1770454138292,119,-9,-9.126040124109348,-20.999752455239964,-21.13239025643608
1770454138296,119,-9,-8.833330170400961,-20.80015305028334,-20.83680499740745
1770454138300,120,-8,-8.555408231867563,-20.21660367126055,-20.55505119541074
1770454138304,120,-8,-8.344769401779757,-20.04590538387202,-20.33912571133378
1770454138308,120,-8,-8.202810061016939,-20.041998659880427,-20.190915593461284
1770454138312,120,-8,-8.076377964354817,-19.947903826008886,-20.057532132297343
1770454138316,120,-8,-7.887131152435444,-19.68652045395696,-19.860866129341034
1770454138320,121,-7,-7.567521609022026,-19.227466483899928,-19.534204850070317
1770454138324,121,-7,-7.081749434402228,-18.832894662979093,-19.042748589945685
1770454138328,122,-6,-6.438360265782602,-18.149872161304323,-18.395071537879772
1770454138332,122,-6,-5.705364817475348,-17.667912796921826,-17.657990153949925
1770454138336,123,-5,-5.009888566386079,-16.844749758108897,-16.957303562725915
1770454138340,124,-4,-4.490877282605217,-15.921537855068554,-16.431609965592287
1770454138344,124,-4,-4.213884402274919,-15.973302683571362,-16.147046438014264
1770454138348,124,-4,-4.113508417285642,-15.876749199068437,-16.03902760835883
1770454138352,124,-4,-4.024877247648792,-15.782364159709202,-15.943355338342409
1770454138356,124,-4,-3.7918403602667112,-15.606758182232008,-15.70425168022091
1770454138360,125,-3,-3.371923844698109,-15.00169429647028,-15.279017966418818
1770454138364,125,-3,-2.8594510451528374,-14.721197936856177,-14.76120294429886
1770454138368,126,-2,-2.4088829411195114,-14.002288172336822,-14.304609628753928
1770454138372,126,-2,-2.113284058493442,-13.478656244931644,-14.002220721632137
1770454138376,126,-2,-1.931467989803195,-13.819148046018125,-13.813053498225496
1770454138380,126,-2,-1.7251086145607333,-13.59398861835658,-13.59898945431468
1770454138384,127,-1,-1.3736855624967486,-13.001246034065488,-13.239956730941
1770454138388,127,-1,-0.8643928538979082,-12.5391984440939,-12.723826462668962
1770454138392,128,0,-0.2831693209446569,-11.817987063767225,-12.136733322602518
1770454138396,128,0,0.2706191170359878,-11.31434687672069,-11.577251726934843
1770454138400,129,1,0.7616317477441985,-10.978448754221866,-11.07951125067363
1770454138404,129,1,1.2273414824792028,-10.426516244338108,-10.605583437264588
1770454138408,130,2,1.7266148401601635,-9.976231646844248,-10.097420535845108
1770454138412,130,2,2.2811376860223613,-9.235113174198707,-9.534684946306712
1770454138416,131,3,2.8519159319210017,-8.713604722486046,-8.957028879308051
1770454138420,131,3,3.3553459623401847,-8.503388624998044,-8.447597708365931
1770454138424,132,4,3.700954616934276,-7.633107685453467,-8.095839436577483
1770454138428,132,4,3.8314648839603143,-7.7373553616043615,-7.958143769547679
1770454138432,131,3,3.749198392746487,-8.19717814919688,-8.031886175306251
1770454138436,132,4,3.5199359880736765,-7.716828036394288,-8.251770692496322
1770454138440,131,3,3.2546759126480356,-8.25701761505691,-8.507742318558808
1770454138444,131,3,3.070388365220938,-8.778389365256206,-8.683516043161658
1770454138448,131,3,3.035291058178623,-8.396258107021666,-8.710990245114349
1770454138452,131,3,3.124644748134208,-8.386570248368903,-8.61461394615745
1770454138456,131,3,3.2204143020044005,-8.409574816270105,-8.51184130583501
1770454138460,131,3,3.1619077049876347,-8.350466922226591,-8.562666889398708
1770454138464,131,3,2.8212134497239942,-8.593124283241217,-8.894627303721794
1770454138468,130,2,2.1624908176939717,-9.351710023035585,-9.543797142563816
1770454138472,129,1,1.2512434815553273,-10.334041436874914,-10.445339296359004
1770454138476,128,0,0.2088453578415396,-11.27462597548527,-11.478531469565493
1770454138480,127,-1,-0.8555313378282223,-12.344457343741745,-12.534387843875695
1770454138484,126,-2,-1.8894246354582895,-13.42467864925609,-13.560018694159512
1770454138488,125,-3,-2.891978066145396,-14.357179218746152,-14.553910712795698
1770454138492,124,-4,-3.869698972645604,-15.16887862579532,-15.522288576311134
1770454138496,123,-5,-4.79226330147077,-16.297642350730428,-16.435135671196257
1770454138500,122,-6,-5.5877847382411385,-17.146787751865773,-17.221129392276204
1770454138504,122,-6,-6.183452316406568,-17.47133654347594,-17.807696965904242
1770454138508,121,-7,-6.557095066241448,-18.125300207615336,-18.172256529862963
1770454138512,121,-7,-6.754266576702567,-18.25989703450952,-18.359713303998312
1770454138516,121,-7,-6.851529471415158,-18.036620406316157,-18.446574595795944
1770454138520,121,-7,-6.892013229114959,-18.258229568927597,-18.476633189581538
1770454138524,121,-7,-6.852481682620862,-18.188853289528307,-18.42717660628652
1770454138528,121,-7,-6.682720458469906,-18.2314356247798,-18.24777033995864
1770454138532,121,-7,-6.386518845862858,-18.01360066613185,-17.941751505281154
1770454138536,122,-6,-6.058637025382114,-17.104645357808558,-17.603878931097178
1770454138540,122,-6,-5.827099629976502,-17.03885150088951,-17.362319494730343
1770454138544,122,-6,-5.748361351674244,-17.237810539440922,-17.273169772865234
1770454138548,122,-6,-5.754208991372081,-16.998391289954302,-17.26768799052097
1770454138552,122,-6,-5.697872125309411,-17.121115930974366,-17.199306682537234
1770454138556,122,-6,-5.457552699121829,-16.803537246343595,-16.947193890185513
1770454138560,123,-5,-5.017775311736138,-16.193972920507175,-16.496646502222852
1770454138564,123,-5,-4.477874887123766,-15.89108218399236,-15.946880475894655
1770454138568,124,-4,-3.99122300047865,-15.181752858830553,-15.450517194355648
1770454138572,124,-4,-3.67923802668055,-14.789404771646169,-15.128202409479815
1770454138576,124,-4,-3.5741712932420953,-14.95905893392972,-15.011666691501482
1770454138580,124,-4,-3.620881210624675,-14.894875984170849,-15.0456580945115
1770454138584,124,-4,-3.722913529010688,-14.96976958608768,-15.1343185031349
1770454138588,124,-4,-3.7894309442413623,-14.99009033380688,-15.187982946928496
1770454138592,124,-4,-3.7562421612272496,-14.754561467507514,-15.143263392088546
1770454138596,124,-4,-3.592896258638343,-14.895235515201357,-14.96929153502829
1770454138600,124,-4,-3.3157493377940543,-14.73054365077986,-14.6812201205366
1770454138604,125,-3,-2.995524858618116,-13.993989580774572,-14.349064210752498
1770454138608,125,-3,-2.730544182349686,-13.775502764047353,-14.07141390197771
1770454138612,125,-3,-2.590080258450547,-13.809508543351177,-13.918083378736268
1770454138616,125,-3,-2.5733626725028618,-13.683649609983233,-13.888483503624483
1770454138620,125,-3,-2.6199751725035783,-13.755544916691976,-13.922166665749977
1770454138624,125,-3,-2.659703871664355,-13.8105669632639,-13.94898346636106
1770454138628,125,-3,-2.659260526558756,-13.759031372981402,-13.935750138866757
1770454138632,125,-3,-2.6323354857970873,-13.68263707015896,-13.896104774925016
1770454138636,125,-3,-2.61205151781946,-13.622109847118072,-13.86293381289746
1770454138640,125,-3,-2.6144523354170883,-13.662090975746564,-13.852038156689542
1770454138644,125,-3,-2.6258049239111707,-13.71201381447506,-13.849707157820854
1770454138648,125,-3,-2.6217260439501606,-13.688222424520248,-13.831955472107158
1770454138652,125,-3,-2.595926330823012,-13.581350500399893,-13.792937511894454
1770454138656,125,-3,-2.569801246879948,-13.55232292535002,-13.75394268051794
1770454138660,125,-3,-2.5743013067160923,-13.564009953533848,-13.745127636080724
1770454138664,125,-3,-2.619018183851758,-13.615619438165222,-13.775346451856644
1770454138668,125,-3,-2.6709482745012076,-13.627119574977463,-13.811838372751888
1770454138672,125,-3,-2.659993459418726,-13.447279304880055,-13.785662638179533
1770454138676,125,-3,-2.51748655423891,-13.539573399426963,-13.629130021979654
1770454138680,125,-3,-2.232716187950894,-13.377308262130178,-13.331450263196846
1770454138684,126,-2,-1.8851317851787868,-12.63466546558245,-12.971082953840144
1770454138688,126,-2,-1.6111289957879198,-12.421670361947044,-12.683262323959545
1770454138692,126,-2,-1.5135578850554712,-12.478893571994089,-12.570269244939595
1770454138696,126,-2,-1.577036956469716,-12.344292426432888,-12.617229826693263
1770454138700,126,-2,-1.657111661877095,-12.380406909922032,-12.68092516110172
1770454138704,126,-2,-1.563817754124159,-12.47229847153256,-12.57224988817824
1770454138708,126,-2,-1.1923206819461063,-12.367316154290853,-12.186327780367218
1770454138712,127,-1,-0.6035660166659822,-11.391740341719766,-11.583728307241
1770454138716,128,0,0.0203392526825219,-10.221294826850436,-10.94610295017238
1770454138720,128,0,0.5152969247158514,-10.349691943725814,-10.436509038018713
1770454138724,128,0,0.8470053980357071,-10.309277843474876,-10.088098695959916
1770454138728,129,1,1.1069049212515152,-9.346582788656235,-9.809863711869903
1770454138732,129,1,1.416770469370462,-9.253472036946295,-9.482297012195303
1770454138736,129,1,1.82538284079796,-9.154189505658737,-9.058503954885968
1770454138740,130,2,2.2584555759759897,-8.251226573126868,-8.612252711271971
1770454138744,130,2,2.545240735866766,-8.204930311140995,-8.311945302449404
1770454138748,130,2,2.5148146260588375,-8.292729458350871,-8.326633585953243
1770454138752,130,2,2.115635788056836,-8.110460716860224,-8.707910673835984
1770454138756,129,1,1.4785282501872328,-9.127287291919814,-9.326283034459228
1770454138760,128,0,0.8589069556925084,-10.092200441987226,-9.927532327111692
1770454138764,128,0,0.4781112153518994,-10.15716171067751,-10.291025459853133
1770454138768,128,0,0.3777601454089143,-10.197424346370097,-10.375660849499418
1770454138772,128,0,0.401302742562811,-9.969824250374494,-10.337841135551525
1770454138776,128,0,0.3086545330362709,-10.130175237496076,-10.41614497082442
1770454138780,127,-1,-0.0739660159198409,-10.860955279813336,-10.782382610738193
1770454138784,127,-1,-0.7676970874130751,-11.242937809881816,-11.457310394526392
1770454138788,126,-2,-1.6456909959049588,-11.909968175235733,-12.3158031160652
1770454138792,125,-3,-2.5038564087010347,-13.077073876554746,-13.155625136274956
1770454138796,124,-4,-3.1605971030964253,-13.83001769907866,-13.795279397404675
1770454138800,124,-4,-3.5379425860641676,-13.959656194288456,-14.155683073939102
1770454138804,124,-4,-3.672830265968931,-13.982258944134571,-14.273235056041896
1770454138808,124,-4,-3.652171625477194,-13.965752361469324,-14.235315337771013
1770454138812,124,-4,-3.5351074923185837,-13.8402595472731,-14.101362980420168
1770454138816,124,-4,-3.337923916439281,-13.878718614576362,-13.88700982791271
1770454138820,124,-4,-3.085006602617774,-13.704901669962675,-13.615904905922008
1770454138824,125,-3,-2.8495558320920504,-13.089418355791572,-13.361641828006936
1770454138828,125,-3,-2.718035921999771,-12.625488818698797,-13.211695253420135
1770454138832,125,-3,-2.710403067824683,-13.026407187299942,-13.18598780392999
1770454138836,124,-4,-2.753604668418306,-13.469711289911672,-13.210390559716195
1770454138840,125,-3,-2.746955777331922,-12.944143237445289,-13.184152046876791
1770454138844,125,-3,-2.6501303900677047,-12.672841788385238,-13.068715100415975
1770454138848,125,-3,-2.5085497509140486,-12.818565671916073,-12.910902030161276
1770454138852,125,-3,-2.408816432693434,-12.668527181054207,-12.79591687377802
1770454138856,125,-3,-2.4136546925426856,-12.595687167420593,-12.782967775041625
1770454138860,125,-3,-2.5158619902943204,-12.679078933173145,-12.86251511996231
1770454138864,125,-3,-2.6277335628056413,-12.718597195841596,-12.948422548271992
1770454138868,125,-3,-2.6191412512969405,-12.59063838557543,-12.915768694153217
1770454138872,125,-3,-2.4043610544610496,-12.683018320772105,-12.68434869065226
1770454138876,125,-3,-2.028408441942692,-12.392789556861173,-12.300605253380889
1770454138880,126,-2,-1.651167064022089,-11.696196197543332,-11.919175216518164
1770454138884,126,-2,-1.348732130180914,-11.521616984764751,-11.605948601073216
1770454138888,127,-1,-0.7831024867105572,-10.566180690447307,-11.014136713060696
1770454138892,129,1,1.0367831005293795,-8.52479623818237,-9.152885412647358
1770454138896,133,5,5.6106410174423,-4.3288828731097535,-4.5341289701383225
1770454138900,142,14,14.272059319055462,4.401662102152258,4.159270000955132
1770454138904,154,26,27.18080275054674,16.62099627539439,17.0777928852485
1770454138908,169,41,42.5439788191021,31.47300013067372,32.43371794949226
1770454138912,184,56,56.72453093804323,46.672356574551024,46.60549043281462
1770454138916,194,66,65.50675940372315,56.62709310003227,55.39197785032452
1770454138920,195,67,66.01808763476123,57.58949497765563,55.92627925527299
1770454138924,186,58,58.18479188289941,48.61235281525306,48.131421960751425
1770454138928,171,43,44.73873199285461,33.61287258921983,34.73071375212137
1770454138932,156,28,29.74100845969262,18.80154937687349,19.774248085567866
1770454138936,144,16,16.619744921697972,6.6859448952316,6.680092132064335
1770454138940,135,7,6.960438374074117,-2.174179125488948,-2.9697056717927186
1770454138944,129,1,0.5835313959238082,-8.41695603422571,-9.347783328394176
1770454138948,124,-4,-3.521298209194966,-13.160520565682267,-13.45092457388822
1770454138952,121,-7,-6.2643233082420355,-16.25014451940694,-16.178904111466604
1770454138956,119,-9,-8.091772609242549,-18.09686496902955,-17.977629049327533
1770454138960,118,-10,-9.15673666050823,-19.141192169185405,-19.008677917118625
1770454138964,118,-10,-9.627315718098728,-19.270006001196965,-19.449943177991116
1770454138968,118,-10,-9.79104871156566,-19.06019267432716,-19.5932599333878
1770454138972,118,-10,-9.919749653822857,-19.239849759829895,-19.707580028314364
1770454138976,117,-11,-10.10256762724456,-19.856521204127105,-19.875441783054946
1770454138980,117,-11,-10.243993229154174,-20.22177791988961,-19.99655403078716
1770454138984,117,-11,-10.217096976926427,-19.91585695812397,-19.944677531818492
1770454138988,118,-10,-10.000338108460197,-19.244926872463203,-19.703088156815
1770454138992,118,-10,-9.675125302201934,-18.855368819337087,-19.356995252583697
1770454138996,118,-10,-9.333718768902587,-19.04633118004552,-18.99780460884576
1770454139000,118,-10,-9.024062339180716,-18.83447512208612,-18.669611159832996
1770454139004,119,-9,-8.769784368660233,-18.056131443520005,-18.393750126873535
1770454139008,119,-9,-8.597295837028334,-17.92782698260413,-18.197886306726957
1770454139012,119,-9,-8.515897443073381,-17.9596586380003,-18.093956888555617
1770454139016,119,-9,-8.481869363109874,-17.753195205000587,-18.039232849111713
1770454139020,119,-9,-8.405604402694495,-17.92459108700338,-17.942842040988637
1770454139024,119,-9,-8.206266809969687,-17.723141607567484,-17.72224096231868
1770454139028,120,-8,-7.858863450713182,-17.080499611525035,-17.352237124518027
1770454139032,120,-8,-7.385130188013207,-16.578151810732436,-16.8559163610237
1770454139036,121,-7,-6.805806748471004,-15.964103186082207,-16.255181859882022
1770454139040,121,-7,-6.120327699326438,-15.48385783077573,-15.54913324547126
1770454139044,122,-6,-5.345345576072928,-14.944227791036196,-14.753324120627129
1770454139048,123,-5,-4.560838204458241,-13.677199076762069,-13.947430045558583
1770454139052,124,-4,-3.8891434116850663,-12.721086002396977,-13.254273157259798
1770454139056,124,-4,-3.408865140693222,-12.707858328337872,-12.752348304557168
1770454139060,124,-4,-3.087329145584519,-12.419476269552426,-12.408132498431916
1770454139064,125,-3,-2.7967541636348745,-11.902350910446463,-12.093870787916051
1770454139068,125,-3,-2.39461998864016,-11.417608412886809,-11.668589119890306
1770454139072,126,-2,-1.807336661091803,-10.828633343970292,-11.060011293281727
1770454139076,126,-2,-1.0777139732604968,-10.376668906045513,-10.31032924412088
1770454139080,127,-1,-0.3578671667670555,-9.509566318005447,-9.56995680919568
1770454139084,128,0,0.1642411683433385,-8.661106607869053,-9.026116350347973
1770454139088,128,0,0.3801648479838477,-8.363910119337339,-8.787785486006209
1770454139092,128,0,0.3382477290810472,-8.758454916523958,-8.807064324180757
1770454139096,127,-1,0.2118613444535883,-9.16841238352344,-8.91042551513378
1770454139100,128,0,0.1838867323933076,-8.547940600965875,-8.915107372037602
1770454139104,128,0,0.3496528518380035,-8.396211873990707,-8.72647890420585
1770454139108,128,0,0.7049418808900926,-8.37895413489107,-8.349182707064122
1770454139112,129,1,1.1938507294978726,-7.586308758994843,-7.838855813908825
1770454139116,129,1,1.7541371871333826,-7.058313550681447,-7.257315912304422
1770454139120,130,2,2.328223304916075,-6.536195466416839,-6.6618669226098834
1770454139124,130,2,2.8504192552546943,-6.098852143495833,-6.117840239032583
1770454139128,131,3,3.243551761070447,-5.529877007855031,-5.702024722462516
1770454139132,131,3,3.450870412700548,-5.16418966446178,-5.471237888186856
1770454139136,131,3,3.489292745003919,-5.305870779840943,-5.4092124981954885
1770454139140,131,3,3.4704351180164816,-5.072545762249581,-5.4050402810509794
1770454139144,131,3,3.546425113872801,-5.31384201147665,-5.306771302093578
1770454139148,131,3,3.802490780445808,-5.144270407935023,-5.028853611124326
1770454139152,132,4,4.179437362775422,-4.251327718952995,-4.630130201456172
1770454139156,132,4,4.497976418237608,-4.104529737141187,-4.289689916862157
1770454139160,132,4,4.571395990359601,-3.956428993897685,-4.194028372231191
1770454139164,132,4,4.315482455890669,-4.305499770569952,-4.427196150847548
1770454139168,131,3,3.772438978310984,-4.851322767251258,-4.947134589331554
1770454139172,131,3,3.04304940195305,-5.3843475083925725,-5.653418331080452
1770454139176,129,1,2.1934019189429,-6.721619823941623,-6.480260527302644
1770454139180,129,1,1.2170750696181014,-7.130724896428283,-7.434259164363002
1770454139184,128,0,0.0827995628627062,-7.914298256501956,-8.546564915135107
1770454139188,126,-2,-1.1838492000166538,-9.992655205942931,-9.79099783211553
1770454139192,125,-3,-2.470005846102363,-11.06695810893691,-11.05417625391862
1770454139196,124,-4,-3.624521179645141,-11.768392605111902,-12.185312730275976
1770454139200,123,-5,-4.536832874006871,-12.92395197426115,-13.07462549612083
1770454139204,122,-6,-5.184795563160272,-13.83187718993038,-13.700102027079154
1770454139208,122,-6,-5.627364702393188,-13.88834965655201,-14.120299059296784
1770454139212,122,-6,-5.951104962047157,-13.935517944243449,-14.421674808288016
1770454139216,121,-7,-6.208596038498307,-14.682448437692797,-14.656953796469391
1770454139220,121,-7,-6.399837667047917,-14.805942231609848,-14.825975706275756
1770454139224,121,-7,-6.508901534557602,-14.688951858500849,-14.91241591568316
1770454139228,121,-7,-6.548597635630322,-14.838115797270143,-14.928938143226494
1770454139232,121,-7,-6.560347319187177,-14.732841721675516,-14.91727040041043
1770454139236,121,-7,-6.569682009115424,-14.688861916152394,-14.903504486801475
1770454139240,121,-7,-6.547693558055897,-14.564802126105368,-14.859051457701602
1770454139244,121,-7,-6.428084678287466,-14.699045047164049,-14.717307326724027
1770454139248,121,-7,-6.176550039968444,-14.606603273498324,-14.44339901533045
1770454139252,122,-6,-5.847757247076236,-13.730688895287503,-14.091940165122084
1770454139256,122,-6,-5.564436728780959,-13.474212362780534,-13.786109131528573
1770454139260,122,-6,-5.428830155868347,-13.5546488060576,-13.628299526265652
1770454139264,122,-6,-5.4469945434817255,-13.46848046396341,-13.624163500747375
1770454139268,122,-6,-5.529999965822085,-13.62444436286734,-13.68440375072781
1770454139272,122,-6,-5.560599541597046,-13.47914854762991,-13.691831175281404
1770454139276,122,-6,-5.464731168195181,-13.496136260450662,-13.572658506957726
1770454139280,122,-6,-5.237136130590465,-13.31420389607371,-13.321956068128472
1770454139284,123,-5,-4.914366484408765,-12.451253849833511,-12.976633538822764
1770454139288,123,-5,-4.532954208821076,-12.444716420643894,-12.57332190977634
1770454139292,123,-5,-4.121124252202163,-12.402492303421596,-12.139912813429833
1770454139296,124,-4,-3.728987461902865,-11.37678074800352,-11.726096220772009
1770454139300,124,-4,-3.4481168417674413,-11.165352781623415,-11.42318485587957
1770454139304,124,-4,-3.3777385272644875,-11.408082375503602,-11.330189181837298
1770454139308,124,-4,-3.5533840892800175,-11.20557814442393,-11.482630827156358
1770454139312,124,-4,-3.894780169858093,-11.471705569921976,-11.80068053543301
1770454139316,123,-5,-4.223462979532984,-12.033627108430723,-12.106354079909591
1770454139320,123,-5,-4.357398211085005,-12.301053827290492,-12.217652694242954
1770454139324,123,-5,-4.225608194350118,-12.0227204917705,-12.063571567144969
1770454139328,124,-4,-3.911611276543008,-11.347830639847691,-11.7279754035871
1770454139332,124,-4,-3.5861465667912893,-11.123981303440658,-11.381730823847754
1770454139336,124,-4,-3.3888678009363806,-11.120665306138092,-11.1636535295857
1770454139340,124,-4,-3.356539087162719,-11.01423614096734,-11.109257149551748
1770454139344,124,-4,-3.4356930444189393,-11.043856204862005,-11.164788022649397
1770454139348,124,-4,-3.539538937241618,-11.114571622202302,-11.244594933903672
1770454139352,124,-4,-3.5924975999581337,-11.106909024987516,-11.27461316508828
1770454139356,124,-4,-3.5451614767291515,-10.911232282514527,-11.205872168035445
1770454139360,124,-4,-3.379520770397741,-10.986455499325729,-11.019406083808787
1770454139364,124,-4,-3.119625162922974,-10.835136338950653,-10.738148320232336
1770454139368,125,-3,-2.8313007420462033,-10.08432561443092,-10.42797763549257
1770454139372,125,-3,-2.588638597506212,-9.905814633169207,-10.163810698226804
1770454139376,125,-3,-2.424069954459335,-9.867806076339136,-9.978071398327328
1770454139380,125,-3,-2.3081614834957693,-9.80619093029099,-9.840170114242431
1770454139384,125,-3,-2.1742097604712436,-9.763622763684593,-9.682793644509657
1770454139388,126,-2,-1.9531210394038712,-8.942610347152174,-9.438050579207252
1770454139392,126,-2,-1.5899017082245328,-8.767583243154842,-9.052810667178823
1770454139396,126,-2,-1.0583629529560186,-8.8136375995965,-8.501352252060542
1770454139400,127,-1,-0.3924623375835234,-7.571476114467689,-7.81630976775264
1770454139404,128,0,0.2964327615737403,-6.813538348256241,-7.107232181311673
1770454139408,128,0,0.8621718823704978,-6.616001867348851,-6.519366326273218
1770454139412,129,1,1.21835410526894,-5.865643889344309,-6.1397762878963515
1770454139416,129,1,1.4159364073980865,-5.476020352171528,-5.919172297481518
1770454139420,129,1,1.6272390074193843,-5.661312848084309,-5.686274855675823
1770454139424,129,1,2.019476312201003,-5.514955320676817,-5.273366185379977
1770454139428,130,2,2.6026314078678237,-4.625886570049834,-4.66951734527251
1770454139432,131,3,3.18893559660531,-3.665796123211191,-4.062562211016026
1770454139436,131,3,3.5178453299468675,-3.3546798422542725,-3.713684151040571
1770454139440,131,3,3.4428551733696526,-3.634979374807653,-3.769060723596752
1770454139444,130,2,3.0166241873425523,-4.218948382114323,-4.17458404909868
1770454139448,130,2,2.4165622459343634,-4.77044681087953,-4.751934689306317
1770454139452,129,1,1.8036488804254325,-5.191743275919782,-5.341168057376192
1770454139456,129,1,1.2466078834200385,-5.631117547134526,-5.875927579564278
1770454139460,128,0,0.7512873722572558,-6.080186483549451,-6.351883921986522
1770454139464,128,0,0.324260743376491,-6.554194320316606,-6.7614547517459584
1770454139468,127,-1,-0.0157653103530533,-7.204658406776872,-7.083067837825066
1770454139472,127,-1,-0.2803714764138026,-7.483042430892276,-7.32634083771085
1770454139476,127,-1,-0.5288369607423393,-7.116001911702847,-7.551552454303682
1770454139480,127,-1,-0.8104673258367497,-7.308331862676738,-7.810820046807411
1770454139484,126,-2,-1.0923488407097754,-8.134622717941316,-8.072764683388355
1770454139488,126,-2,-1.2767339438272056,-8.34347353877947,-8.238592717720138
1770454139492,126,-2,-1.3138029921171668,-8.138187479342657,-8.256543655889413
1770454139496,126,-2,-1.292076463647445,-8.161623623454972,-8.214509852067476
1770454139500,126,-2,-1.3963732768105357,-8.043854574694878,-8.298271070702798
1770454139504,126,-2,-1.756649529089838,-8.125510235731173,-8.63878949387383
1770454139508,125,-3,-2.3268692173764927,-9.153015834363632,-9.189669227520028
1770454139512,124,-4,-2.911460136772718,-10.0542143627314,-9.75408299149592
1770454139516,124,-4,-3.31450783805485,-10.009193833681932,-10.13578824934692
1770454139520,124,-4,-3.4698470548568343,-9.917180351107604,-10.269882922610446
1770454139524,124,-4,-3.4454164709883512,-10.016050111952488,-10.22568973128666
1770454139528,124,-4,-3.3524669533667333,-10.015875843375037,-10.11448542453288
1770454139532,124,-4,-3.2665764901170893,-9.955873090582696,-10.010911671439551
1770454139536,124,-4,-3.218430159496576,-9.849861133971526,-9.944943523061522
1770454139540,124,-4,-3.224174006372419,-9.81418343484314,-9.932347673014238
1770454139544,124,-4,-3.2956676714348405,-9.868032236045744,-9.98424237771173
1770454139548,124,-4,-3.4093045317901756,-9.92121661041494,-10.076048925666244
1770454139552,124,-4,-3.468845308221982,-9.81022338919021,-10.111607280443383
1770454139556,124,-4,-3.3236659832641524,-9.73755955740088,-9.942525256384762
1770454139560,124,-4,-2.869787397672341,-9.660672172446944,-9.468785303676537
1770454139564,125,-3,-2.1754083380635967,-8.769130826645993,-8.761890951944867
1770454139568,126,-2,-1.5041565356917272,-7.771471602056293,-8.084570431600888
1770454139572,126,-2,-1.1417932225485834,-7.722877549964924,-7.71562116948399
1770454139576,126,-2,-1.0650389676972414,-7.561090042143038,-7.621961390473533
1770454139580,127,-1,-0.6338958676306985,-6.578730720783486,-7.158529143214938
1770454139584,129,1,1.4440224542300308,-4.597670495371764,-5.038316859699924
1770454139588,134,6,6.688360492089288,0.3182697072636919,0.2445497247792332
1770454139592,143,15,15.995787887401534,9.434410565023676,9.573625424641689
1770454139596,155,27,28.73642473607314,21.579756000369564,22.315685866810064
1770454139600,169,41,42.39615284479645,35.51022298565334,35.965304359988586
1770454139604,181,53,53.21857845605625,47.61344769793641,46.78112405424954
1770454139608,186,58,57.736220074797075,52.26742477581441,51.30820242848996
1770454139612,182,54,54.42413445595102,48.752947476623625,48.025340235999366
1770454139616,172,44,44.48290898274461,38.44251601654058,38.12692856924003
1770454139620,157,29,31.228249662470105,23.92693249593399,24.916090256518597
1770454139624,145,17,18.44518295021332,11.468827577406516,12.165176665548069
1770454139628,136,8,8.713202254285303,2.7216760167082565,2.4473400147731894
1770454139632,130,2,2.647086950439195,-3.405347475305943,-3.619202845746969
1770454139636,127,-1,-0.6916545047408444,-6.132050862860881,-6.961765738492703
1770454139640,125,-3,-2.720755557194668,-8.239949083326646,-8.986034074148504
1770454139644,122,-6,-4.4023003069984386,-11.152610409080058,-10.648524921410347
1770454139648,121,-7,-5.953618139805833,-12.387769235850104,-12.1703048794946
1770454139652,120,-8,-7.149516949667361,-13.038125798246952,-13.33556910714213
1770454139656,119,-9,-7.791586390299849,-14.23419374581776,-13.953865692112377
1770454139660,119,-9,-7.953292892949936,-13.864543953565876,-14.100532568303375
1770454139664,120,-8,-7.900226410147145,-13.28421864123432,-14.037509489823153
1770454139668,119,-9,-7.85732031255962,-14.018370978347436,-13.98411216617988
1770454139672,119,-9,-7.868213700913446,-14.105899524225316,-13.979870111945086
1770454139676,119,-9,-7.848590416259746,-13.946139718375656,-13.940001939467823
1770454139680,119,-9,-7.728800751547568,-13.839201667630624,-13.798047717120768
1770454139684,120,-8,-7.518379139760185,-13.104479216963576,-13.567841992233854
1770454139688,120,-8,-7.249777050542788,-12.8899561119213,-13.283684603624756
1770454139692,120,-8,-6.908245689294256,-13.009158079744882,-12.928799532210414
1770454139696,120,-8,-6.455430982536688,-12.741251426473676,-12.461298816530253
1770454139700,121,-7,-5.9170592990375015,-11.811713470867849,-11.905600370278297
1770454139704,122,-6,-5.41028477661952,-10.856934914457362,-11.38059800088908
1770454139708,122,-6,-5.057995030556415,-10.869958236036815,-11.011216510838851
1770454139712,122,-6,-4.879417040841254,-10.77247848675924,-10.816578412629331
1770454139716,122,-6,-4.775048060746065,-10.695445146551128,-10.695778324844436
1770454139720,122,-6,-4.614470812116117,-10.62866682895924,-10.51803752373322
1770454139724,123,-5,-4.33284954502999,-9.74896293420502,-10.21957180046847
1770454139728,123,-5,-3.9553666734246873,-9.713312015728858,-9.826256920152808
1770454139732,123,-5,-3.5533227827949645,-9.65968427607548,-9.408706092457582
1770454139736,124,-4,-3.1844178393966085,-8.535983208774077,-9.023642758030295
1770454139740,124,-4,-2.857731818751989,-8.549164540269617,-8.68018341600209
1770454139744,124,-4,-2.5386165557725726,-8.555700521960842,-8.3444763650973
1770454139748,125,-3,-2.1880322610411547,-7.612055862614408,-7.97793321923232
1770454139752,125,-3,-1.806169255767352,-7.519888277896322,-7.580360880309688
1770454139756,125,-3,-1.4413890592564522,-7.374580815959279,-7.199493779711553
1770454139760,126,-2,-1.1501911940528815,-6.496891709892644,-6.891855031326701
1770454139764,126,-2,-0.9368372903389623,-6.294200106825542,-6.662278489383386
1770454139768,126,-2,-0.7310874827723106,-6.635056635828995,-6.440663796867193
1770454139772,126,-2,-0.4390191349536922,-6.186145079880163,-6.132617990886846
1770454139776,127,-1,-0.0258687574594611,-5.474813762012317,-5.703242490949098
1770454139780,127,-1,0.4539119885319349,-5.124104694895573,-5.207523718804412
1770454139784,128,0,0.9100867762209446,-4.38635596152859,-4.735967553094497
1770454139788,128,0,1.2946318845224771,-4.27678704716531,-4.335989109792671
1770454139792,128,0,1.6279404596270926,-4.252799038977532,-3.9865333827312064
1770454139796,129,1,1.9611519202537755,-3.1745650449022005,-3.6367404654211466
1770454139800,129,1,2.322253671818454,-3.1298072700192563,-3.2594237414484795
1770454139804,129,1,2.6905174290745535,-3.1366044572668574,-2.8755837731444167
1770454139808,130,2,3.0105020227481023,-2.1986984430932157,-2.5403878591484084
1770454139812,130,2,3.2355130289076692,-2.1039625153039783,-2.3002790312197448
1770454139816,130,2,3.3719841667185575,-2.0331921677912437,-2.148487769608346
1770454139820,130,2,3.4852625081173616,-2.0155742409400297,-2.019067554733594
1770454139824,130,2,3.657672971024247,-1.9754407594374452,-1.8295494456384451
1770454139828,131,3,3.9388561762587098,-1.0591849126474564,-1.53120118094375
1770454139832,131,3,4.328227971223081,-0.9834390379157104,-1.1257827304042376
1770454139836,131,3,4.781936409450736,-0.8849286667452336,-0.6573785155594578
1770454139840,132,4,5.216531653648981,0.1094312170201092,-0.2086611322071387
1770454139844,132,4,5.511640506537253,0.1671412344190788,0.1009971794194477
1770454139848,132,4,5.535891843336364,0.0932281496943687,0.1408954940629989
1770454139852,132,4,5.199948169066378,0.1393093308493931,-0.1781852852449681
1770454139856,131,3,4.507487888339437,-0.7480887467430009,-0.853122807243448
1770454139860,130,2,3.563777487735492,-1.7568553811413723,-1.7797204187842477
1770454139864,129,1,2.5236718382876173,-2.6837459524165688,-2.8041097925155825
1770454139868,128,0,1.50604255429561,-3.771880704991444,-3.8075153233774017
1770454139872,127,-1,0.5340172549280302,-4.707951963680491,-4.765652933559499
1770454139876,126,-2,-0.4510403663912772,-5.633876569064627,-5.735502038310338
1770454139880,125,-3,-1.5043631089459106,-6.6090583534035225,-6.771616671587363
1770454139884,124,-4,-2.582181074307772,-7.536426401631592,-7.831230312967913
1770454139888,123,-5,-3.521017480692943,-8.64669509934909,-8.752628406032605
1770454139892,122,-6,-4.1333620903130335,-9.5357623959478,-9.34927945879388
1770454139896,122,-6,-4.361848398710401,-9.547996893020478,-9.563431215434194
1770454139900,122,-6,-4.361536503715758,-9.41542747541263,-9.549015371342076
1770454139904,122,-6,-4.419227695551791,-9.444888317415026,-9.591811574866536
1770454139908,122,-6,-4.753988107605956,-9.454237053883414,-9.910328207970746
1770454139912,121,-7,-5.35450855067901,-10.434121349882563,-10.493223354355017
1770454139916,120,-8,-5.987721700294579,-11.412918058027094,-11.108099568427772
1770454139920,120,-8,-6.371137896156294,-11.243025980195082,-11.47377477104095
1770454139924,120,-8,-6.36846984079832,-11.357687155154744,-11.455008631806464
1770454139928,120,-8,-6.06298375719623,-11.218449961091071,-11.134855608219958
1770454139932,121,-7,-5.671544599694355,-10.39042803513803,-10.728943179357554
1770454139936,121,-7,-5.379349798687866,-10.207596386027571,-10.421319915166126
1770454139940,121,-7,-5.222833177297042,-10.155793484844768,-10.247948083408511
1770454139944,121,-7,-5.104155174993663,-10.182486224116648,-10.111153995278102
1770454139948,121,-7,-4.91102978559023,-10.06644366357123,-9.899521225769169
1770454139952,122,-6,-4.62688680609137,-9.279397404847238,-9.59788874332608
1770454139956,122,-6,-4.336738723076069,-9.028285344261922,-9.292132053028652
1770454139960,122,-6,-4.1435943607696135,-9.080991873861946,-9.084463655460358
1770454139964,122,-6,-4.088323524668163,-8.951067313280685,-9.013781503231415
1770454139968,122,-6,-4.137130781272212,-9.013355927852029,-9.04500903579278
1770454139972,122,-6,-4.2201040523212345,-9.039156979885496,-9.108877455281103
1770454139976,122,-6,-4.268329699153688,-8.995472317188803,-9.138347719514032
1770454139980,122,-6,-4.226869069867823,-8.837704992621223,-9.079745049111844
1770454139984,122,-6,-4.062412993689718,-8.901143584778326,-8.899326300060727
1770454139988,122,-6,-3.783932413924046,-8.765886293711223,-8.604686142291435
1770454139992,123,-5,-3.457614660812789,-8.001376011011393,-8.261279347818215
1770454139996,123,-5,-3.1823589896351643,-7.75265748478844,-7.968378541290619
1770454140000,123,-5,-3.0310143893349215,-7.80551238982803,-7.799375377110284
1770454140004,123,-5,-3.0064145797355626,-7.639523256969094,-7.757042129072493
1770454140008,123,-5,-3.0499570894739447,-7.728337239496371,-7.782408872261735
1770454140012,123,-5,-3.090247109634866,-7.764103635468614,-7.804080851358518
1770454140016,123,-5,-3.088795419599915,-7.685790680497281,-7.784118206352412
1770454140020,123,-5,-3.0513893793017712,-7.617067214592895,-7.72897304821247
1770454140024,123,-5,-3.0071483283939235,-7.506740388150639,-7.66785012836264
1770454140028,123,-5,-2.9816237367267067,-7.585148476464183,-7.625469479380474
1770454140032,123,-5,-2.985725269610425,-7.611199892678931,-7.611557444594248
1770454140036,123,-5,-3.016297629615389,-7.550660671962349,-7.622573187044806
1770454140040,123,-5,-3.0504709284456557,-7.485444111787707,-7.636551326499258
1770454140044,123,-5,-3.0359194346028504,-7.316504825462081,-7.602470870378257
1770454140048,123,-5,-2.9057933389088895,-7.503608620709212,-7.453935146108796
1770454140052,123,-5,-2.6313423860681926,-7.381079498367578,-7.161720856042987
1770454140056,124,-4,-2.27130335129582,-6.51446317099988,-6.784013694300857
1770454140060,124,-4,-1.9572606748431225,-6.223244734743598,-6.451996364770764
1770454140064,124,-4,-1.8102544984388516,-6.286592364806092,-6.286035147554515
1770454140068,124,-4,-1.8533915437509427,-6.2292637246948885,-6.308672290853892
1770454140072,124,-4,-1.9870657717864009,-6.373154105846328,-6.420917571112089
1770454140076,124,-4,-2.0401598483411094,-6.243650025910399,-6.453288823358639
1770454140080,124,-4,-1.8661495866445263,-6.185860380402591,-6.260188038688025
1770454140084,124,-4,-1.4340961699236376,-6.046169165690387,-5.8098831522608165
1770454140088,125,-3,-0.856081417142704,-5.12970205798182,-5.213086360364295
1770454140092,126,-2,-0.3148969682177367,-4.235053288902577,-4.6521846713654185
1770454140096,126,-2,0.068545074080216,-4.043132071980827,-4.248481725443412
1770454140100,126,-2,0.3191768301255209,-4.149902976360217,-3.977164008316151
1770454140104,126,-2,0.5667875881794007,-3.7279121496998986,-3.708252406431674
1770454140108,127,-1,0.921961677753042,-3.192620032360278,-3.33143355627395
1770454140112,127,-1,1.3843597141410655,-2.851122403119616,-2.847841930785961
1770454140116,128,0,1.8537037023106988,-2.1437547829078536,-2.358265150444226
1770454140120,128,0,2.212951193607041,-1.7643925382000418,-1.9793330187660203
1770454140124,128,0,2.3983338290270533,-1.7908315529862335,-1.7737509804473852
1770454140128,128,0,2.4016525681715324,-1.8642550209334168,-1.7490496819222408
1770454140132,128,0,2.227454636583058,-1.8556860076288209,-1.9011650202307264
1770454140136,128,0,1.8695615112828436,-1.867121532919242,-2.2372538528785793
1770454140140,127,-1,1.3340036391354126,-2.7325887649379226,-2.751345640140336
1770454140144,126,-2,0.6725063554077364,-3.514889414427838,-3.39077887862954
1770454140148,126,-2,-0.0166064088106481,-3.865782484896034,-4.056859505791245
1770454140152,125,-3,-0.6215481775698775,-4.526965703507896,-4.6388218032163255
1770454140156,125,-3,-1.0621293467491584,-4.9352844215735985,-5.05755879169541
1770454140160,124,-4,-1.3313005161251223,-5.32374927222339,-5.305605342648219
1770454140164,124,-4,-1.5138370993106314,-5.647039991442878,-5.466389029373019
1770454140168,124,-4,-1.75046637049318,-5.43601867247113,-5.680190930282295
1770454140172,124,-4,-2.144662013516913,-5.636493412042203,-6.051253812754642
1770454140176,123,-5,-2.677290569039294,-6.5756409911074325,-6.560866057387403
1770454140180,122,-6,-3.213673591471698,-7.314225533445477,-7.073637877497933
1770454140184,122,-6,-3.604971537734809,-7.424651720162586,-7.44019215705872
1770454140188,122,-6,-3.787800400337417,-7.309086990122749,-7.5980356866922
1770454140192,122,-6,-3.796280923573296,-7.482095510179202,-7.582778353968107
1770454140196,122,-6,-3.7022893549997233,-7.434492911968296,-7.466598213284954
1770454140200,122,-6,-3.5635382997314653,-7.1153212128042576,-7.30585982475915
1770454140204,122,-6,-3.4231159254605026,-7.384373359196566,-7.141945845773592
1770454140208,122,-6,-3.330035597208874,-6.9991998943164875,-7.023386466483419
1770454140212,123,-5,-3.327872220024591,-6.513366759467287,-6.994732705971733
1770454140216,122,-6,-3.410202926434592,-7.100190761003857,-7.050835623410311
1770454140220,122,-6,-3.5009504506489653,-7.10928335427236,-7.116259433263112
1770454140224,122,-6,-3.5018541233430955,-7.156883125092451,-7.09296431548952
1770454140228,122,-6,-3.3721296690479,-6.861546903245271,-6.94010954797848
1770454140232,123,-5,-3.165275406479505,-6.394554409909727,-6.710088735509143
1770454140236,122,-6,-2.988560881098522,-6.867210769088237,-6.507864527797136
1770454140240,123,-5,-2.9166830557770433,-6.06044556352942,-6.4064566193346835
1770454140244,123,-5,-2.926086777657513,-5.909786374181742,-6.383587807124451
1770454140248,122,-6,-2.910545949039853,-6.8036598984639305,-6.3375914152599755
1770454140252,123,-5,-2.7827370970212097,-6.150417035434764,-6.186478622935772
1770454140256,123,-5,-2.574344675803641,-5.776958784710487,-5.963523368361811
1770454140260,123,-5,-2.4046922568796782,-5.87128877643066,-5.782224850121181
1770454140264,123,-5,-2.2616052547462298,-5.7765390282362095,-5.618958954733372
1770454140268,124,-4,-1.6850540328165915,-4.658672859879463,-5.004935799321229
1770454140272,127,-1,0.4175072602179237,-1.9653727386567592,-2.850014770320435
1770454140276,131,3,5.544186476725059,2.347612431658634,2.329866663046225
1770454140280,140,12,14.83190106015963,11.336058735373271,11.654803673422428
1770454140284,153,25,28.010633518371023,24.302217286035763,24.846852151237293
1770454140288,167,39,42.73517666454923,38.60611623204285,39.56762447857092
1770454140292,181,53,54.966334244858665,52.02874948717019,51.79528736560225
1770454140296,187,59,60.52928889613363,58.715663318396714,57.37205535514547
1770454140300,184,56,57.14379497957973,55.1579941993353,54.02472464375874
1770454140304,171,43,45.71376469542462,42.80136526874785,42.65138253805096
1770454140308,155,27,29.98216540848639,26.336445369855255,26.980438277439372
1770454140312,139,11,14.682757502763874,10.658315331636013,11.7302929570329
1770454140316,128,0,3.3163209116681323,-0.5186501375339692,0.3930700515690599
1770454140320,123,-5,-3.112354220637256,-5.281087660893512,-6.024642869247718
1770454140324,121,-7,-5.79101385646191,-7.363166145516232,-8.69956034808915
1770454140328,119,-9,-6.7187718107764285,-9.318971006231688,-9.616347653066162
1770454140332,118,-10,-7.3498802688226,-10.293561663699574,-10.2196707330545
1770454140336,117,-11,-8.090846938687571,-11.379649489256169,-10.917130605202512
1770454140340,116,-12,-8.675224112348653,-11.988447363519144,-11.452683400006054
1770454140344,117,-11,-8.827208562352315,-11.430593377542513,-11.562493195002489
1770454140348,117,-11,-8.614133585336546,-10.867434179614945,-11.319375462451807
1770454140352,118,-10,-8.329226644145031,-10.512271343540029,-11.012877314852744
1770454140356,117,-11,-8.18163361516999,-10.800012840627089,-10.843223661966467
1770454140360,117,-11,-8.149302344961832,-11.277958373765363,-10.781457425524268
1770454140364,117,-11,-8.090428855339557,-10.824576657846922,-10.685888167304263
1770454140368,118,-10,-7.92971895444397,-10.13363929371001,-10.487054288508071
1770454140372,118,-10,-7.71275565143741,-9.995104394807957,-10.235942192776788
1770454140376,118,-10,-7.515639163754998,-9.920455869302142,-10.008848322289138
1770454140380,118,-10,-7.349531527359816,-9.927649729783123,-9.81303845820293
1770454140384,118,-10,-7.161051169240948,-9.784920733096651,-9.592017769619009
1770454140388,119,-9,-6.8982288019037785,-8.93195514948841,-9.294312909651945
1770454140392,119,-9,-6.557538822775366,-8.82320066412517,-8.91885457614253
1770454140396,119,-9,-6.178327225328487,-8.812422219179485,-8.506305907551273
1770454140400,120,-8,-5.8093908911696746,-7.695339662392933,-8.104712181511196
1770454140404,120,-8,-5.47919963536989,-7.71380219709491,-7.741037257032319
1770454140408,120,-8,-5.183804034216968,-7.714972468553732,-7.410668806376016
1770454140412,121,-7,-4.892893448464129,-6.670641085782841,-7.084020082435493
1770454140416,121,-7,-4.566621851373627,-6.7043795098120205,-6.722520734880199
1770454140420,121,-7,-4.1777005102814755,-6.43003429137622,-6.299348671023925
1770454140424,122,-6,-3.7338075069791534,-5.705430599083811,-5.821485300628368
1770454140428,122,-6,-3.2822953236326264,-5.403754385663683,-5.335296708316957
1770454140432,123,-5,-2.879503615940278,-4.639752822874268,-4.896667278986678
1770454140436,123,-5,-2.5409998502271236,-4.451456491179943,-4.521323489855636
1770454140440,123,-5,-2.2185861271634084,-4.3111977427829,-4.1616887739980175
1770454140444,124,-4,-1.8315329248309795,-3.579487382326448,-3.737932162259554
1770454140448,124,-4,-1.3312956992815814,-3.147303678389772,-3.202033764639184
1770454140452,125,-3,-0.7518511563110021,-2.6390497902323897,-2.587402274139098
1770454140456,125,-3,-0.2071464305339828,-2.0625562043894803,-2.006744052425537
1770454140460,126,-2,0.1740588159473878,-1.4284116401952502,-1.588279894900209
1770454140464,126,-2,0.3442453747629715,-1.133653401413472,-1.3801582557081673
1770454140468,126,-2,0.3925316921252214,-1.27174657145944,-1.2939053990447889
1770454140472,126,-2,0.4980932341022279,-1.2226403804100483,-1.1500423606115096
1770454140476,126,-2,0.8032750491289871,-1.0944634793463075,-0.8058287482910576
1770454140480,127,-1,1.3132842349555758,-0.1459908065102553,-0.2569089126704273
1770454140484,128,0,1.91189686353187,0.9725286690968052,0.3791028435388135
1770454140488,128,0,2.4639164359322137,0.8720784308688643,0.9672698798733136
1770454140492,128,0,2.8924242075408424,1.013271987362902,1.4328350084521873
1770454140496,129,1,3.1752483944379937,1.9506770798374884,1.7551815340357138
1770454140500,129,1,3.314214440958896,2.1546031706217352,1.9353048970243985
1770454140504,129,1,3.339876472348435,1.9748884131023432,2.0018536293995908
1770454140508,129,1,3.3328154876878675,2.204727081081673,2.0346482455046555
1770454140512,129,1,3.4042433744778493,2.0038340525368774,2.145516935376932
1770454140516,129,1,3.630382796318091,2.260363789775397,2.4113016818569335
1770454140520,130,2,3.995823180349267,3.212578323507689,2.816524541456028
1770454140524,130,2,4.3951210740586255,3.1768143547790064,3.2556361571140897
1770454140528,130,2,4.687514119170685,3.4083832049523473,3.5882184266844828
1770454140532,131,3,4.763976442991891,4.03624170283905,3.7055462613142858
1770454140536,130,2,4.589570299076425,3.623608380346191,3.572558729697281
1770454140540,130,2,4.200206479110275,3.105614916345635,3.2249692021125185
1770454140544,129,1,3.6572329272453494,2.6663752000778302,2.724019017897314
1770454140548,129,1,2.9976331966329774,2.209823882795492,2.106393544996477
1770454140552,128,0,2.2230741021868297,1.5680084226793731,1.373426314508908
1770454140556,127,-1,1.3282015999820551,0.4329286524995268,0.5199511630831832
1770454140560,126,-2,0.3295943812986477,-0.4266520554380566,-0.4368403736232604
1770454140564,125,-3,-0.7311866761369257,-1.399851058623142,-1.4551062004116757
1770454140568,124,-4,-1.8013253972254817,-2.4888498454136254,-2.48233938826413
1770454140572,123,-5,-2.827732170447308,-3.310181963536305,-3.465758531527623
1770454140576,122,-6,-3.7607034045257937,-4.453480393771992,-4.355520153858803
1770454140580,121,-7,-4.555509232137504,-5.142704839192504,-5.106677886042874
1770454140584,121,-7,-5.174323517444855,-5.404269467331272,-5.681605631247505
1770454140588,120,-8,-5.591332398908133,-6.129904101935524,-6.054909049061371
1770454140592,120,-8,-5.8066965128907855,-6.348771867802228,-6.226903328887327
1770454140596,120,-8,-5.8629796221423875,-6.09570516140215,-6.239961799732439
1770454140600,120,-8,-5.841763278175677,-6.157687184127469,-6.175272423048541
1770454140604,120,-8,-5.829055533594909,-6.089028077969411,-6.1183432024553746
1770454140608,120,-8,-5.868487779589335,-6.073832666518084,-6.112516730930989
1770454140612,120,-8,-5.9351208065470615,-6.129691258968785,-6.133185729732281
1770454140616,120,-8,-5.95048823274567,-5.934709681932498,-6.1026743858993235
1770454140620,120,-8,-5.836315775278005,-6.04027352174198,-5.943281260099379
1770454140624,120,-8,-5.578019412838504,-5.836336439908349,-5.640436408221355
1770454140628,121,-7,-5.251112202240671,-5.017718419881675,-5.269284451061328
1770454140632,121,-7,-4.981606522451008,-4.845926450875972,-4.955190337447889
1770454140636,121,-7,-4.865299085336352,-4.8970555438665055,-4.793158596376605
1770454140640,121,-7,-4.906525562133206,-4.746414488544803,-4.787276597735526
1770454140644,121,-7,-5.016075025722481,-4.805855096796883,-4.8491555509019735
1770454140648,121,-7,-5.06341266332063,-4.71077363592744,-4.849407568193843
1770454140652,121,-7,-4.953302691305337,-4.819485831832578,-4.693035239827934
1770454140656,121,-7,-4.686291715999782,-4.598804410494818,-4.379957236847598
1770454140660,122,-6,-4.360022346394755,-3.7061152705049754,-4.007408113794405
1770454140664,122,-6,-4.10112005068924,-3.5258546217683904,-3.702103461643108
1770454140668,122,-6,-3.9799792811452113,-3.648666274168301,-3.53427010083239
1770454140672,122,-6,-3.981446609374165,-3.5522091968785805,-3.488189400087914
1770454140676,122,-6,-4.0450355588732645,-3.5414870348559244,-3.503316740484168
1770454140680,122,-6,-4.11842123247755,-3.431184494643377,-3.528176634642964
1770454140684,122,-6,-4.170865597481432,-3.4618031129594593,-3.5328246099870517
1770454140688,122,-6,-4.173083168395088,-3.3829274752031093,-3.4876427541402766
1770454140692,122,-6,-4.086761216687086,-3.470120600490688,-3.353278651249971
1770454140696,122,-6,-3.8828387290446633,-3.319265755661644,-3.100430819131848
1770454140700,123,-5,-3.56480397362345,-2.3009051993027203,-2.733585740621809
1770454140704,123,-5,-3.172115682726224,-2.264575857455691,-2.2929715140798805
1770454140708,123,-5,-2.77139456355817,-2.2414337138240237,-1.8445269317593065
1770454140712,124,-4,-2.447325216608166,-1.265037784584102,-1.4717836204069847
1770454140716,124,-4,-2.278396364968531,-1.2255215443462362,-1.253234906272347
1770454140720,124,-4,-2.290524120600308,-1.0404976383089115,-1.2157065384889751
1770454140724,124,-4,-2.42820536284925,-1.1876757539243885,-1.3040221332819488
1770454140728,123,-5,-2.586714452027574,-1.98957771897057,-1.4129654759454109
1770454140732,124,-4,-2.6836567908449647,-1.1642995576353616,-1.4599552983982012
1770454140736,124,-4,-2.700448437612333,-1.0285986216857186,-1.4268722196221295
1770454140740,123,-5,-2.6626905832432226,-1.8635905014148264,-1.3396092662299584
1770454140744,124,-4,-2.5945969826819137,-1.0608385380999348,-1.2221736535516765
1770454140748,124,-4,-2.4915780444459417,-0.7229467918538024,-1.0696701655652865
1770454140752,124,-4,-2.3240656094077687,-1.1781508373879443,-0.8521598119671054
1770454140756,124,-4,-2.063533357733925,-0.6008411070144959,-0.540717099555577
1770454140760,125,-3,-1.7053790663047257,-0.0210781842251002,-0.130968586135955
1770454140764,125,-3,-1.261857858435527,0.4814371770173764,0.3638363165351048
1770454140768,126,-2,-0.7357395079328481,1.076224197093735,0.9402381706647454
1770454140772,126,-2,-0.1188715809377947,1.3101856429974357,1.606817048070079
1770454140776,127,-1,0.570507383376418,2.3105445242338885,2.346279202171532
1770454140780,128,0,1.257024091056819,3.3239556817598412,3.0837179433888284
1770454140784,128,0,1.8318652713939927,3.5711302706848524,3.7101698251805466
1770454140788,129,1,2.218631765495694,4.248186396888972,4.148860598071511
1770454140792,129,1,2.4216760325532607,4.535854217597162,4.403755548067732
1770454140796,129,1,2.5108837026814297,4.357019945706133,4.544464804918807
1770454140800,129,1,2.551293663633738,4.653781292568372,4.636017404797936
1770454140804,129,1,2.535539934117114,4.587529734814609,4.671243723113662
1770454140808,129,1,2.381788620985488,4.553243217937792,4.568531123414324
1770454140812,129,1,2.0067912673511232,4.607606877952421,4.2449309199190015
1770454140816,128,0,1.4130829197892878,3.556425748781571,3.703423209159816
1770454140820,127,-1,0.7113768553210957,2.846463897609299,3.054853839422986
1770454140824,127,-1,0.0576151989379285,2.711005278091166,2.4544227908851752
1770454140828,126,-2,-0.4414183193835106,1.7948049819104384,2.007701575916432
1770454140832,126,-2,-0.7826448249507051,1.6947370387027971,1.7173327647278231
1770454140836,126,-2,-1.0507213065721817,1.8061629230910707,1.4996616298246863
1770454140840,125,-3,-1.3510743184748768,0.929887184387967,1.2508824971542791
1770454140844,125,-3,-1.7369238442985666,0.9825318918183896,0.9184303751454176
1770454140848,125,-3,-2.171792590805854,0.8718428208874851,0.5378312524109692
1770454140852,124,-4,-2.55053379637372,-0.0602119184124365,0.2127079297684755
1770454140856,124,-4,-2.773355215178044,-0.0837226923808192,0.0421591165617307
1770454140860,124,-4,-2.826443469431018,0.1397998930753079,0.0404602909298184
1770454140864,124,-4,-2.803209548282122,0.1402657475498205,0.115210586032358
1770454140868,124,-4,-2.840657189967162,0.0561354008733818,0.1301555342575131
1770454140872,124,-4,-3.0155408974554265,0.0931271434923353,0.0085217419217809
1770454140876,124,-4,-3.2801425290539057,0.0943950706565566,-0.2024688440142945
1770454140880,123,-5,-3.493041310214303,-0.6975117336429122,-0.361652142542761
1770454140884,123,-5,-3.528479641093692,-0.6724145992724608,-0.3433423988151549
1770454140888,124,-4,-3.3747899796591856,0.2278768955499988,-0.1363594168526631
1770454140892,124,-4,-3.136210176258711,0.2558999714015897,0.1545033746960538
1770454140896,124,-4,-2.946946163628685,0.2669072969784167,0.3953903200735595
1770454140900,124,-4,-2.8846109566140425,0.4791147367041368,0.5097263053845058
1770454140904,124,-4,-2.945347907578216,0.4784779461067074,0.5018656225067932
1770454140908,124,-4,-3.0690169552494657,0.4539462957672118,0.4316725353836101
1770454140912,124,-4,-3.173885577830883,0.3501199138381405,0.3809359734235347
1770454140916,124,-4,-3.1832252816037183,0.5308113040230982,0.4272728929411613
1770454140920,124,-4,-3.050312329745929,0.5450430433667321,0.6176258754374349
1770454140924,124,-4,-2.784591901693955,0.7627450816077541,0.939974017125337
1770454140928,125,-3,-2.461797280263557,1.5273159732770072,1.3137332801919914
1770454140932,125,-3,-2.1929454318494095,1.6182690892014993,1.625291924632096
1770454140936,125,-3,-2.0386191906491327,1.6006114730194625,1.818600582769772
1770454140940,125,-3,-1.866373344269524,1.8254895423274533,2.036894720815683
1770454140944,126,-2,-1.1698950445291882,2.8077281076059535,2.795563710826791
1770454140948,129,1,1.0524453311409587,5.867593435007793,5.0948741880302855
1770454140952,134,6,6.150311321870824,10.61062174859537,10.271440110196668
1770454140956,142,14,15.219950260651252,18.9742030976875,19.404973311877345
1770454140960,155,27,28.162769491194354,31.79783464245766,32.388479830828715
1770454140964,169,41,42.94833668281596,46.17600132580637,47.19751106322541
1770454140968,183,55,55.78203297156097,59.87211320712787,60.05397286427291
1770454140972,191,63,62.46188260259559,67.91943281805754,66.77211722501758
1770454140976,189,61,60.38124944592394,65.99496753035199,64.75184413282173
1770454140980,178,50,49.993637984194706,55.03490551660266,54.44164894902498
1770454140984,161,33,34.70892670333713,38.30151106228994,39.2393837258434
1770454140988,145,17,19.177545577194,22.060964843864568,23.782358553326645
1770454140992,134,6,7.03944617059889,11.208418435259496,11.701177979741828
1770454140996,128,0,-0.4443153229440861,5.052533424587164,4.2555341013488235
1770454141000,124,-4,-4.1878219095373375,1.408856352167076,0.5399727580236107
1770454141004,122,-6,-5.975300036798686,-0.8024765807159522,-1.2149941293711253
1770454141008,120,-8,-7.157024075682765,-2.4727180872370065,-2.3481008970382033
1770454141012,119,-9,-8.156480711956904,-3.97189616062784,-3.2823261352234834
1770454141016,118,-10,-8.804930720237827,-4.355886595363176,-3.8592048809085338
1770454141020,119,-9,-8.93638447133217,-3.848226141235536,-3.925804631825975
1770454141024,119,-9,-8.683499413784016,-3.1889417536692264,-3.6211906136885545
1770454141028,120,-8,-8.351320184368852,-2.74773760409413,-3.246246039694408
1770454141032,119,-9,-8.146129382284286,-3.3929093774260677,-2.9970257417587165
1770454141036,119,-9,-8.066634583716077,-3.5147696437797693,-2.8652011984476786
1770454141040,120,-8,-8.000364673171749,-2.403868419197199,-2.740034288964053
1770454141044,120,-8,-7.8582191974172435,-2.188253437029256,-2.5395246359413273
1770454141048,120,-8,-7.622357860298421,-2.5129146941045137,-2.2503784256036665
1770454141052,120,-8,-7.328259409785424,-2.178962999225668,-1.9066785223063345
1770454141056,121,-7,-7.0372043243976234,-1.469041684522125,-1.5657225795228813
1770454141060,121,-7,-6.80349350720569,-1.016448844778858,-1.2795690762895957
1770454141064,121,-7,-6.634406771035047,-1.2563986352366223,-1.0559115564163433
1770454141068,121,-7,-6.474314439235549,-1.098204199084102,-0.8409159032114326
1770454141072,122,-6,-6.234530002853104,-0.2323939114541611,-0.5476557601841838
1770454141076,122,-6,-5.8500941350970885,-0.0977327897395996,-0.1115820781673289
1770454141080,122,-6,-5.330033777202858,0.0154906636988565,0.459579691663956
1770454141084,123,-5,-4.768959011222718,1.0499868391153822,1.0726765677734384
1770454141088,124,-4,-4.294277683255926,1.9380906728010243,1.600248649027801
1770454141092,124,-4,-3.9710015945860744,2.086034909358573,1.9763236604829115
1770454141096,124,-4,-3.748242528356364,1.913004706354416,2.2515704326799586
1770454141100,124,-4,-3.5084513801627475,2.3981047412101795,2.5440502037767656
1770454141104,125,-3,-3.1728334487765806,3.0058581120933647,2.9325211823945665
1770454141108,125,-3,-2.7569869571453536,3.32854170654244,3.40062173341747
1770454141112,126,-2,-2.332224956908173,4.06450442203117,3.8767448529865023
1770454141116,126,-2,-1.9473083903697332,4.2481466166941155,4.312952274170225
1770454141120,126,-2,-1.5913356859144143,4.4802195039578,4.721125599557243
1770454141124,127,-1,-1.2211007507683913,5.218048242864579,5.144263265515298
1770454141128,127,-1,-0.8112375260580298,5.521231869794883,5.606473903690614
1770454141132,128,0,-0.3784893051660141,6.176292762780879,6.090328089854237
1770454141136,128,0,0.0291685342540665,6.522356171918651,6.548717318714738
1770454141140,128,0,0.3604705304153796,6.5640739479009484,6.93165784908357
1770454141144,129,1,0.5932839030415358,7.459292061371551,7.216942827541127
1770454141148,129,1,0.7614685047689443,7.688576632884494,7.437181610681044
1770454141152,129,1,0.9490731839129068,7.279585200715376,7.6758429289634815
1770454141156,129,1,1.234546857385554,7.864993740648625,8.012148473328548
1770454141160,130,2,1.6254835669212284,8.511653588636799,8.454472546088482
1770454141164,130,2,2.0549634145437223,8.901208870761074,8.93556353096171
1770454141168,131,3,2.45115612573185,9.60968476883112,9.38281250273323
1770454141172,131,3,2.8072679908366656,9.665525121876938,9.789409329751592
1770454141176,131,3,3.1763653193815222,9.903449065410577,10.20914158039832
1770454141180,132,4,3.599505496236376,10.751490404129122,10.683456295127476
1770454141184,132,4,4.047276353710975,11.098501797171656,11.182480138900916
1770454141188,133,5,4.435191737746127,11.698943131781265,11.621093018656428
1770454141192,133,5,4.691939172784178,11.99469597245658,11.928012103610982
1770454141196,133,5,4.809031422236636,11.8747893243601,12.095331839944736
1770454141200,133,5,4.827266610563958,12.170092084380588,12.164168538756796
1770454141204,133,5,4.78113083931804,12.026656224490722,12.168658306751777
1770454141208,133,5,4.657896950106446,12.120745030172891,12.095566988793031
1770454141212,133,5,4.40610797519817,11.964826319663269,11.893457780615629
1770454141216,132,4,3.980867597305709,11.2111606675879,11.51790444524628
1770454141220,132,4,3.3869253681607057,11.231983341467751,10.97397061417072
1770454141224,131,3,2.686434020581257,10.29711714542636,10.323748465896289
1770454141228,130,2,1.9630236677125288,9.213263279064046,9.650639864783823
1770454141232,130,2,1.2668793854020053,9.25862074089666,9.00447686715406
1770454141236,129,1,0.5859196359651966,8.229281514486782,8.372744074696778
1770454141240,128,0,-0.1325790853778616,7.613680313549408,7.702680797983973
1770454141244,128,0,-0.9328073311747228,7.242347385593296,6.95083439985666
1770454141248,126,-2,-1.8173434636459436,5.65294059775625,6.115555686223454
1770454141252,126,-2,-2.7473950333132917,5.156849928688304,5.235588865271488
1770454141256,125,-3,-3.6575847351546384,4.710128178439753,4.375172858540518
1770454141260,124,-4,-4.468370231384922,3.461450062489753,3.613099468733456
1770454141264,123,-5,-5.106328407134602,2.7896278330006563,3.0234414288985514
1770454141268,123,-5,-5.536374265381058,2.4457127841239537,2.642226900053508
1770454141272,123,-5,-5.775591253233583,2.7241042733042544,2.452146968919828
1770454141276,123,-5,-5.867995880560083,2.5182024221476453,2.408263511566954
1770454141280,122,-6,-5.852267622894856,1.982142372769272,2.4716517057315137
1770454141284,123,-5,-5.7624122064867365,2.669493368839806,2.608846570626053
1770454141288,123,-5,-5.647919120799008,2.8873805630309306,2.7709208958818348
1770454141292,123,-5,-5.571069080839751,2.6666282885832224,2.895917097529061
1770454141296,123,-5,-5.572009006523662,2.9231002575088745,2.9437383425262738
1770454141300,123,-5,-5.631114763022794,2.947165433770002,2.9335249370417795
1770454141304,123,-5,-5.664525790390839,3.0521443584877144,2.9483688747628047
1770454141308,123,-5,-5.571777724139281,2.88334814221939,3.0884615503081125
1770454141312,123,-5,-5.31588673698689,3.006430443662949,3.3910939117832823
1770454141316,124,-4,-4.971544699087734,3.973711264473782,3.78180267347235
1770454141320,124,-4,-4.6852146803447425,4.236885775498297,4.114253036937935
1770454141324,124,-4,-4.570204552339735,4.13448500152826,4.275785632198671
1770454141328,124,-4,-4.625955783757682,4.162114419541134,4.2678149263737595
1770454141332,124,-4,-4.743957981046939,4.070333411594658,4.198634970999955
1770454141336,124,-4,-4.7828903809793175,4.289602143939324,4.208010261337909
1770454141340,124,-4,-4.653783859435773,4.275314044380161,4.383487089053896
1770454141344,124,-4,-4.368909060300579,4.468083374860555,4.712947236452238
1770454141348,125,-3,-4.033564715735579,5.191431243495778,5.092614517048099
1770454141352,125,-3,-3.782901071630112,5.383088335506994,5.388852045525342
1770454141356,125,-3,-3.6962392636750145,5.3596087577059155,5.522653505056129
1770454141360,125,-3,-3.742453815328638,5.54561573785432,5.524111739684062
1770454141364,125,-3,-3.7961153399599503,5.594578741634951,5.517309159054646
1770454141368,125,-3,-3.7214358005147217,5.386318337464325,5.637642197219084
1770454141372,125,-3,-3.4725582572435685,5.587621215893756,5.931536140480166
1770454141376,126,-2,-3.1326632445798355,6.481200297684966,6.316230300379898
1770454141380,126,-2,-2.850505437092724,6.825919475697324,6.642883410915992
1770454141384,126,-2,-2.724830908842433,6.657174283160647,6.812994813628705
1770454141388,126,-2,-2.741166712109713,6.690113150986862,6.841880286030443
1770454141392,126,-2,-2.8099914443907408,6.64264654700259,6.8193929676669205
1770454141396,126,-2,-2.8530257144577584,6.770473645079059,6.822781560622812
1770454141400,126,-2,-2.85227331127706,6.943566380389278,6.8685191985820095
1770454141404,126,-2,-2.834623442174705,6.87403323455032,6.929377424326516
1770454141408,126,-2,-2.8311096161762386,6.860469536112346,6.975593728025544
1770454141412,126,-2,-2.854170902774157,6.807401792302836,6.996236949323193
1770454141416,126,-2,-2.8946101386717844,6.963888449514653,7.000729567626563
1770454141420,126,-2,-2.9176945122931732,7.156123705021179,7.022856901205873
1770454141424,126,-2,-2.859759629041366,6.983981573442777,7.1254978316164985
1770454141428,126,-2,-2.6482294484175446,7.1720451209650395,7.381234606411763
1770454141432,127,-1,-2.2467326883576213,7.776646017938857,7.826546744624126
1770454141436,127,-1,-1.690676094683867,8.423432497216773,8.425667760720604
1770454141440,128,0,-1.0812327841971314,9.026795862612351,9.077166944893545
1770454141444,128,0,-0.5426799340354929,9.513647406857842,9.657372918752282
1770454141448,129,1,-0.1704995482703848,9.99858621037071,10.071981733108291
1770454141452,129,1,0.0093231537012936,10.26422063641006,10.295708074962755
1770454141456,129,1,0.0585124655527751,10.363123157986577,10.38984960857868
1770454141460,129,1,0.1094554897787065,10.38389382728722,10.485505232921534
1770454141464,129,1,0.3064064809237743,10.628574269295836,10.725643523471993
1770454141468,130,2,0.7232935665023399,11.143340308939152,11.183810439721888
1770454141472,130,2,1.302281315975062,11.555398903025187,11.803011860983242
1770454141476,131,3,1.859174056886528,12.372214405254049,12.400472456777017
1770454141480,131,3,2.1695095215097364,12.798436224186675,12.75257779187764
1770454141484,131,3,2.0944893687576744,12.57183281776646,12.720260056946426
1770454141488,131,3,1.6650909529258795,12.53764256422653,12.333726835443429
1770454141492,130,2,1.057613572535293,11.556831713926282,11.7689289595753
1770454141496,129,1,0.4709951137530717,10.660728192388753,11.22478048321386
1770454141500,129,1,0.0013663884954888,10.99274008756401,10.796918217867672
1770454141504,129,1,-0.3849220703862126,10.65312470696336,10.450985902198086
1770454141508,128,0,-0.775172497058354,9.90642323014028,10.100052231881127
