timestamp_ms,ecg_u8_raw,ecg_counts_raw_int,ecg_counts_filt_monitor,ecg_counts_filt_diagnostic,ecg_counts_filt_st
1768730682588,128,0,0.3968316068581488,2.4977466316547474,2.4011976901946888
1768730682592,127,-1,-0.2386314784242227,1.590562216119345,1.7638106134942673
1768730682596,127,-1,-0.777890675697259,1.3985089144532203,1.2218548361859627
1768730682600,126,-2,-1.2627675843715864,0.8561728214293478,0.7338724268700969
1768730682604,126,-2,-1.7563398994827717,0.2470437703227417,0.2375159672812872
1768730682608,125,-3,-2.2928267217922755,-0.2213101128269592,-0.3007247830179009
1768730682612,125,-3,-2.8400200933529893,-0.7118244526639461,-0.8486078354455042
1768730682616,124,-4,-3.298824839074017,-1.2744724555708589,-1.3078786167317202
1768730682620,124,-4,-3.5467371900423488,-1.439552606117264,-1.557092784749369
1768730682624,124,-4,-3.509665422232108,-1.4881771358992568,-1.5226028926906434
1768730682628,124,-4,-3.222122785966835,-1.4073631061106324,-1.2386168454188748
1768730682632,125,-3,-2.828413899355523,-0.5861552518679045,-0.8488150679130495
1768730682636,125,-3,-2.509779727553588,-0.3116969757053605,-0.5337103746695075
1768730682640,125,-3,-2.381495911689669,-0.4610308657598847,-0.4077855359597255
1768730682644,125,-3,-2.432806100086308,-0.3965806870143396,-0.4599872859027392
1768730682648,125,-3,-2.5466961565103925,-0.5339576174615086,-0.5741808212743713
1768730682652,125,-3,-2.576647054089982,-0.4181768885754506,-0.605445318692277
1768730682656,125,-3,-2.431364336109287,-0.4713743795797267,-0.4633679574205411
1768730682660,125,-3,-2.125970267579075,-0.2926926339426832,-0.1624909406515298
1768730682664,126,-2,-1.7728383977882034,0.462449044668046,0.1861906203700103
1768730682668,126,-2,-1.5111669480766738,0.5937956928089887,0.4445711422099194
1768730682672,126,-2,-1.416052187382853,0.4905843484506815,0.5377563230433631
1768730682676,126,-2,-1.4491765474367453,0.6113090804966999,0.5033338297845131
1768730682680,126,-2,-1.4853174481370643,0.6596946736219169,0.4654520609687109
1768730682684,126,-2,-1.3972313680095805,0.4941530705335699,0.5508479163726849
1768730682688,126,-2,-1.143824114212758,0.6051147653307292,0.8008769688504278
1768730682692,127,-1,-0.798975572827141,1.4592449074027367,1.1420241435633367
1768730682696,127,-1,-0.4958040921440579,1.6975583718694724,1.4413381214900494
1768730682700,127,-1,-0.3323711491215691,1.5411159465506663,1.6011231892989155
1768730682704,127,-1,-0.3198955620922258,1.6638361711317713,1.610646205715888
1768730682708,127,-1,-0.4055792473596383,1.4063692333919764,1.5225728847830429
1768730682712,127,-1,-0.5276013917546359,1.6913869949454297,1.397980350995971
1768730682716,127,-1,-0.6472311413099546,1.4893121159601803,1.2752630494127124
1768730682720,126,-2,-0.746683398128691,0.7340434862612828,1.1726242548347054
1768730682724,127,-1,-0.8118639139844663,1.5248169252215884,1.104414717173668
1768730682728,127,-1,-0.818685378801512,1.4954883768647036,1.0943531152727592
1768730682732,126,-2,-0.7405096501021269,0.6717155807451185,1.168826766232012
1768730682736,127,-1,-0.5826088529818123,1.4781202828380904,1.322862717808066
1768730682740,127,-1,-0.411256434586808,1.8071462661788191,1.4905271057022471
1768730682744,127,-1,-0.3326387259850142,1.4041656483427911,1.5656707587651124
1768730682748,127,-1,-0.4254119562057363,1.6745258141973465,1.469571175447958
1768730682752,127,-1,-0.6819181341461577,1.46652855816495,1.20988769228534
1768730682756,126,-2,-1.0085835987374918,0.7190596865346484,0.8802043704642641
1768730682760,126,-2,-1.2866311562519348,0.5780937073570827,0.5991069935924918
1768730682764,126,-2,-1.4429469680883764,0.6255749306220517,0.4392520649646869
1768730682768,126,-2,-1.4733960401077633,0.4845175260342103,0.4045691077111848
1768730682772,126,-2,-1.4095592613179395,0.6496433952395888,0.4641256354623229
1768730682776,126,-2,-1.2725129844821723,0.5747157451911649,0.5978567705305473
1768730682780,126,-2,-1.0565469451519058,0.7038564502877795,0.8114806953511295
1768730682784,127,-1,-0.7461593462969622,1.5345187345292928,1.1191610062622792
1768730682788,127,-1,-0.3464505621476653,1.555676031885548,1.5146042982455046
1768730682792,127,-1,0.0900110248065654,1.6244424091046676,1.9456282853388225
1768730682796,128,0,0.4607693710492009,2.586703779071757,2.311249171957786
1768730682800,128,0,0.6604700453709613,2.7239967049457188,2.5071611431074157
1768730682804,128,0,0.665312845697879,2.4902053488205267,2.5095288797485473
1768730682808,128,0,0.5884943454934357,2.6441412141475547,2.4307956475484107
1768730682812,128,0,0.6423046132614474,2.519741986527539,2.4823594996603986
1768730682816,128,0,1.013167000204046,2.7254155501311637,2.8499934836275704
1768730682820,129,1,1.731038460561916,3.587570838328637,3.5633865078221536
1768730682824,130,2,2.629284987269388,4.63070468304111,4.45612327757282
1768730682828,131,3,3.427689195120969,5.528374683437038,5.248848878321461
1768730682832,131,3,3.878211946744604,5.634607401259097,5.694702755977459
1768730682836,131,3,3.87468279392268,5.623681665239982,5.688017875834269
1768730682840,131,3,3.4711021821242154,5.690004021347642,5.282141030473227
1768730682844,130,2,2.8203850494260254,4.54057487932636,4.62899455809913
1768730682848,129,1,2.082308939565744,3.622535390461101,3.8879229998975378
1768730682852,129,1,1.3571174791963352,3.5828083044220103,3.1591373203897897
1768730682856,128,0,0.6799105075216281,2.640425793800361,2.477711185949798
1768730682860,127,-1,0.0579504539277949,1.7354937522433107,1.8510516228919487
1768730682864,127,-1,-0.5022005498917358,1.4404036433753196,1.2861446458673778
1768730682868,126,-2,-1.0027587351898994,0.8048421539312658,0.7812081165513893
1768730682872,126,-2,-1.4724044931876432,0.3382149996363703,0.3078588695521709
1768730682876,125,-3,-1.9583876125350583,-0.0292025530639756,-0.1810192993721362
1768730682880,125,-3,-2.4895167570512267,-0.6572800841994695,-0.714530818200827
1768730682884,124,-4,-3.040319256480105,-1.1119153338924836,-1.268095388611009
1768730682888,124,-4,-3.53407822168785,-1.6469143250909135,-1.7659562674712412
1768730682892,123,-5,-3.894936548632834,-2.222375416149242,-2.13235914283496
1768730682896,123,-5,-4.11165314912965,-2.3936376818611445,-2.3549630984113716
1768730682900,123,-5,-4.249830372172277,-2.3825641447991512,-2.497611434590723
1768730682904,123,-5,-4.3866345175043415,-2.2624450349680205,-2.6359603308843407
1768730682908,123,-5,-4.524167062072441,-2.6064399797192963,-2.771999814039817
1768730682912,122,-6,-4.576388060194896,-3.13898987171709,-2.8223686655354197
1768730682916,123,-5,-4.458473862098338,-2.5677202508742285,-2.707575823930962
1768730682920,123,-5,-4.1977706914049655,-2.128261816855834,-2.459078190985781
1768730682924,123,-5,-3.945672129622074,-2.549373441999429,-2.2256720868831756
1768730682928,123,-5,-3.8227852100357818,-2.293491906649685,-2.1178626642560237
1768730682932,124,-4,-3.6277204321823504,-1.4244813692040617,-1.9233994197560516
1768730682936,125,-3,-2.5674251427816612,-0.3319983270676028,-0.8468285872889081
1768730682940,128,0,0.7172390208725341,2.725876954843212,2.461236924815188
1768730682944,135,7,7.6025279271846,9.526070639570154,9.360600987496449
1768730682948,145,17,18.49247971515159,19.74903987393709,20.2432098320984
1768730682952,158,30,31.905696500534994,32.45727552752916,33.62829211704798
1768730682956,171,43,44.36412830333129,45.873381299264075,46.050537420423936
1768730682960,180,52,51.49879364184507,54.44874505921099,53.15779180045416
1768730682964,178,50,50.00959582780547,52.82432122816351,51.661897082126984
1768730682968,167,39,39.39728904059026,41.391782042166405,41.06508019320096
1768730682972,149,21,22.36727789876927,23.784057151561825,24.062954647153276
1768730682976,130,2,3.6053638877599745,4.5728687135514345,5.325206374096428
1768730682980,114,-14,-12.341688442678926,-11.234424715714034,-10.61467152816859
1768730682984,104,-24,-22.840887317265203,-21.33753181888546,-21.12670567466125
1768730682988,100,-28,-27.69008486638672,-25.4873368630689,-26.00115962960006
1768730682992,100,-28,-28.338294127331093,-25.233231401636253,-26.67442454799887
1768730682996,101,-27,-26.571370298183155,-24.54010593053515,-24.921448136171616
1768730683000,102,-26,-23.604778649438025,-23.037057043125188,-21.95373288316425
1768730683004,107,-21,-20.0004855398429,-18.59721495235744,-18.338411116709437
1768730683008,111,-17,-16.097774969503995,-14.155606020766754,-14.42566146016586
1768730683012,115,-13,-12.360621245705914,-10.612261555381204,-10.687917006607249
1768730683016,118,-10,-9.336889481782814,-7.129656698861942,-7.67289626001613
1768730683020,120,-8,-7.377871636182435,-5.476860295914919,-5.72467551398279
1768730683024,120,-8,-6.445816374431257,-5.145400156275173,-4.79838577188498
1768730683028,121,-7,-6.182167680950943,-4.577070198180832,-4.534182900595908
1768730683032,121,-7,-6.151670045969119,-4.215106197837412,-4.500970445290296
1768730683036,121,-7,-6.060566890166735,-4.467945600780196,-4.409765349351346
1768730683040,121,-7,-5.821487423160712,-4.194849062799637,-4.174689893035225
1768730683044,122,-6,-5.478671324421221,-3.344414275559449,-3.838143637766276
1768730683048,122,-6,-5.093170528973502,-3.445194466997807,-3.458208293972529
1768730683052,122,-6,-4.684654183586837,-3.264982921111022,-3.052569750163538
1768730683056,123,-5,-4.2518269921119956,-2.476066002890679,-2.6201295840051877
1768730683060,123,-5,-3.812420931646776,-2.139367020337229,-2.1807013945542124
1768730683064,124,-4,-3.4007568154881658,-1.4180712212304536,-1.7706617991805336
1768730683068,124,-4,-3.0321444574923353,-1.341193623768448,-1.4054929600921893
1768730683072,124,-4,-2.688951942540384,-1.37534757288144,-1.0660326103657525
1768730683076,125,-3,-2.347195638777017,-0.3573674728451221,-0.7268402290529685
1768730683080,125,-3,-2.0066625275628187,-0.2584120208192271,-0.3875225302834904
1768730683084,125,-3,-1.6885060089784694,-0.2860160669486302,-0.0701471863338074
1768730683088,126,-2,-1.4066289735873814,0.5427109032520638,0.2101734108240589
1768730683092,126,-2,-1.1460236439682494,0.7449481815594985,0.4679236024237374
1768730683096,126,-2,-0.8760172062610494,0.5122181195897222,0.7346035968516269
1768730683100,126,-2,-0.5926622798518972,0.8905179040084463,1.01560134467683
1768730683104,127,-1,-0.3407333466463645,1.566828245659718,1.266544748138593
1768730683108,127,-1,-0.1719815638346304,1.7012031496185755,1.4346915956012043
1768730683112,127,-1,-0.0723218039997928,1.614439067804165,1.5331270257028156
1768730683116,127,-1,0.0555735597661017,1.596040302900199,1.659205025389845
1768730683120,127,-1,0.3195745760040895,1.8686889487611325,1.9213358760566357
1768730683124,128,0,0.740844980233188,2.526630453592914,2.3408526272215116
1768730683128,128,0,1.227320733861434,2.840842961575615,2.82547299162836
1768730683132,129,1,1.645285047467059,3.402206435813373,3.2414433952861157
1768730683136,129,1,1.9268458313389076,3.875614610145021,3.5213439540749865
1768730683140,129,1,2.120932430367743,3.5282485657787204,3.714763074774881
1768730683144,129,1,2.346448974367266,3.906860701767507,3.9405913686815746
1768730683148,130,2,2.693494714063868,4.482318367395941,4.287732668309208
1768730683152,130,2,3.159972205598133,4.736992083397251,4.752607458965047
1768730683156,131,3,3.666697111314158,5.596599845717071,5.256053316133798
1768730683160,131,3,4.118559043001334,5.736595340642237,5.705013120300193
1768730683164,131,3,4.455044008130572,5.76602214602239,6.041095502310192
1768730683168,132,4,4.670580576044192,6.588834257593592,6.2583757682324475
1768730683172,132,4,4.816952268839292,6.677787419401096,6.405986226959246
1768730683176,132,4,4.982463218430721,6.629456067458032,6.5703591180449505
1768730683180,132,4,5.227129463265277,6.719818474882133,6.812510334194444
1768730683184,132,4,5.503049542924825,6.77610537746995,7.086741897678613
1768730683188,133,5,5.649735532869744,7.591136405651455,7.233007607555795
1768730683192,133,5,5.510065764855366,7.705637569571515,7.092850106262305
1768730683196,132,4,5.076897388597928,6.576368465301781,6.658659198143574
1768730683200,131,3,4.521044018123843,5.794279540709434,6.102622748634524
1768730683204,131,3,4.067433855263463,5.676169158003601,5.650642351544174
1768730683208,131,3,3.8449790692906016,5.713674477307246,5.430300478172215
1768730683212,131,3,3.84266453887539,5.6193771079065336,5.428292601643804
1768730683216,131,3,3.9703156584770527,5.642820521919761,5.553872986893029
1768730683220,131,3,4.125827405235512,5.752204211413192,5.70667354321283
1768730683224,131,3,4.206978270930049,5.666711552728873,5.786620481958501
1768730683228,131,3,4.098920816591864,5.770663317677666,5.679408101648215
1768730683232,131,3,3.6994018139639593,5.56942310346348,5.281607451588761
1768730683236,130,2,2.9860458110768207,4.69830585469478,4.569487863589128
1768730683240,129,1,2.0602201882252547,3.708161438226672,3.644171162056837
1768730683244,128,0,1.1073502852878805,2.648463085903119,2.691703007158899
1768730683248,127,-1,0.2919568611846463,1.869619659328466,1.8769794493227416
1768730683252,127,-1,-0.32959927000873,1.4245050374698358,1.2560179944993493
1768730683256,126,-2,-0.8127236296046827,0.932582294005276,0.7729362418354966
1768730683260,126,-2,-1.2543388823761847,0.3944373174894644,0.3309284286366609
1768730683264,125,-3,-1.7151387512944498,-0.0114540167095458,-0.1299763624040997
1768730683268,125,-3,-2.192410528407831,-0.4737873333728417,-0.6063510670212606
1768730683272,124,-4,-2.6486939763053456,-1.2242469243914331,-1.0607231542914275
1768730683276,124,-4,-3.0545759430046213,-1.356125734011936,-1.464570753941342
1768730683280,124,-4,-3.4016784274127954,-1.3984957782266385,-1.8105568203882236
1768730683284,123,-5,-3.685061552459997,-2.158096779916861,-2.093757300826757
1768730683288,123,-5,-3.891698611200381,-2.3886978172094513,-2.3000784068501785
1768730683292,123,-5,-4.013840377619991,-2.226016333620199,-2.4209746909029897
1768730683296,123,-5,-4.062954600768942,-2.379001752759717,-2.4683468561225284
1768730683300,123,-5,-4.058782446056314,-2.373992115580392,-2.462870769025279
1768730683304,123,-5,-4.006290072592982,-2.1879629437543993,-2.4096107650545786
1768730683308,123,-5,-3.8910243708970422,-2.372600589601193,-2.2932393240779048
1768730683312,123,-5,-3.697472404287746,-2.198308278269262,-2.097631743575397
1768730683316,124,-4,-3.4238523322133654,-1.4018443088701735,-1.8215769132083424
1768730683320,124,-4,-3.0755068485640567,-1.3708860305644233,-1.471461414431169
1768730683324,124,-4,-2.656049546894749,-1.1777620703156109,-1.051082626904443
1768730683328,125,-3,-2.1813937612541148,-0.4137633940889141,-0.5755604961795506
1768730683332,125,-3,-1.7027208325060477,-0.0963790754889155,-0.0953387056964034
1768730683336,126,-2,-1.3005798474721355,0.4713383287705994,0.3090318855496878
1768730683340,126,-2,-1.0422030917204186,0.7797895590400362,0.569821899206814
1768730683344,126,-2,-0.938284740990918,0.6368135460972288,0.6758612436931513
1768730683348,126,-2,-0.9396570445185288,0.778809683617203,0.6761329794381643
1768730683352,126,-2,-0.9767481459279052,0.744078609123327,0.6404545441264216
1768730683356,126,-2,-1.0070358177571204,0.6181381632375799,0.6120134901790983
1768730683360,126,-2,-1.0309816138559236,0.662483422128468,0.5908822771980271
1768730683364,126,-2,-1.063713874155972,0.7074659135303879,0.5615271467799827
1768730683368,126,-2,-1.0886954128297943,0.734412252411311,0.5392844908482681
1768730683372,126,-2,-1.0450426361309388,0.794218108310361,0.5844443500351828
1768730683376,126,-2,-0.8801649300401955,0.5880344947607943,0.7505035683079688
1768730683380,126,-2,-0.6293965631738927,0.6821251948323352,1.0033549548681764
1768730683384,127,-1,-0.4294713359440799,1.6791106206014188,1.2061059599603152
1768730683388,127,-1,-0.420890503890433,1.758790608900776,1.2172149214290513
1768730683392,126,-2,-0.6214137403360006,0.7998799291053941,1.018960345809086
1768730683396,126,-2,-0.90362591055662,0.5819755737544521,0.7399081969761958
1768730683400,126,-2,-1.1016517621989728,0.6843724989018757,0.5460985293886937
1768730683404,126,-2,-1.1369397544888626,0.6568004562316562,0.5145170228512825
1768730683408,126,-2,-1.053719699292969,0.7972742614291648,0.5996134903639252
1768730683412,126,-2,-0.9631413074306568,0.7916562339759801,0.6909978966164321
1768730683416,126,-2,-0.9670193341851888,0.5785169253733448,0.6888124861676861
1768730683420,126,-2,-1.1120468394452694,0.6919068299704436,0.5472181533908991
1768730683424,126,-2,-1.3779841068944252,0.6100301900959573,0.2855204466917023
1768730683428,125,-3,-1.6914710136238351,-0.1158239811438495,-0.0241702168968738
1768730683432,125,-3,-1.9636966923603112,-0.2945041007771818,-0.2932732872485291
1768730683436,125,-3,-2.135248635943156,-0.3065226118417284,-0.4619212346088943
1768730683440,125,-3,-2.1936751891887285,-0.4703681012427578,-0.5174534723064923
1768730683444,125,-3,-2.1503489745217665,-0.2073186989573685,-0.4713404865743467
1768730683448,125,-3,-2.0062778226546545,-0.3091098898382778,-0.3244281822701593
1768730683452,125,-3,-1.7466720202992658,-0.0639089811054316,-0.0614419669142159
1768730683456,126,-2,-1.368280458179131,0.4645231140363457,0.3210007563728352
1768730683460,126,-2,-0.9052289482557048,0.7227894978993163,0.7880822394476017
1768730683464,127,-1,-0.4223338649717998,1.6192620562079902,1.2740679921246167
1768730683468,127,-1,0.0163145272270744,1.847638655834838,1.7148831845711308
1768730683472,127,-1,0.3697736125857401,1.82874263287098,2.070738644909348
1768730683476,128,0,0.6199200589144056,2.5478381311734237,2.3245583456736796
1768730683480,128,0,0.7701387197375346,2.635127793399846,2.4794912964049867
1768730683484,128,0,0.8597295361476678,2.6903673938479975,2.573682348489388
1768730683488,128,0,0.9716986941852184,2.7978387844456907,2.6893634870367173
1768730683492,128,0,1.2015733735883312,2.903300132756927,2.922340881029442
1768730683496,129,1,1.5946402273473574,3.4518821950359193,3.3187406813117093
1768730683500,129,1,2.1006685313235596,3.747645745155221,3.8287065506949896
1768730683504,130,2,2.590608095524405,4.523812285690383,4.322583029320804
1768730683508,130,2,2.92910117710053,5.038077056321066,4.664120249863457
1768730683512,130,2,3.044098676857846,4.626537456077564,4.781398427388411
1768730683516,130,2,2.9361563525687906,4.7574322505390665,4.676397093734449
1768730683520,130,2,2.633286121363156,4.416463841491974,4.378400863506312
1768730683524,129,1,2.1551336375964247,3.819738313263376,3.90649445381732
1768730683528,129,1,1.5314704166869817,3.824878108543475,3.28826929397243
1768730683532,128,0,0.841390015517665,2.777842294755404,2.6012947290870594
1768730683536,127,-1,0.1965056381176967,1.6846568590354742,1.9581050151019912
1768730683540,127,-1,-0.3476846811698294,1.3871655822963749,1.416466620878612
1768730683544,126,-2,-0.860956814772849,0.9123628757705592,0.90746610728947
1768730683548,126,-2,-1.4850834834497515,0.6981015354977662,0.2880144821197645
1768730683552,125,-3,-2.282594702460244,-0.0256456657583101,-0.5056410666002091
1768730683556,124,-4,-3.1391291608112093,-1.556304919189663,-1.3582326807111196
1768730683560,123,-5,-3.833588409226221,-2.3862045418917464,-2.0470759353333112
1768730683564,123,-5,-4.2133609487319,-2.3158608950269657,-2.420460264626994
1768730683568,123,-5,-4.2999013030649404,-2.0717867558482927,-2.503179664177637
1768730683572,123,-5,-4.236813254313345,-2.180727073084833,-2.4403807556222357
1768730683576,123,-5,-4.163637425958413,-2.461055846368937,-2.3681095105505485
1768730683580,123,-5,-4.145246498010876,-2.4739097145227533,-2.345268546000466
1768730683584,123,-5,-4.183004159323588,-2.280875895274775,-2.37118798225628
1768730683588,123,-5,-4.243020098416936,-2.0537122792821174,-2.4174395875950996
1768730683592,123,-5,-4.267645803572693,-2.1666569721914204,-2.4358320648672764
1768730683596,123,-5,-4.2066624737036715,-2.4938071716106336,-2.3814145169160796
1768730683600,123,-5,-4.078430959232413,-2.463276892361603,-2.2675376802629605
1768730683604,123,-5,-3.961539929927288,-2.336335488856571,-2.1593244059593344
1768730683608,123,-5,-3.789160979256853,-1.937936986623254,-1.9778323347281856
1768730683612,125,-3,-2.9924665939835573,-0.2613520758376779,-1.1541349181537672
1768730683616,128,0,-0.3185971185188154,2.6050461402039113,1.550821509157807
1768730683620,133,5,5.761997216910578,7.406371161695132,7.648665515934942
1768730683624,142,14,15.990055939221,16.746888462099456,17.87163679551902
1768730683628,155,27,29.17118374383656,30.085796568043236,31.03197059656084
1768730683632,169,41,41.909080799834285,43.66978587968468,43.74870314309331
1768730683636,178,50,49.78634590297583,52.77487514329904,51.61640845338093
1768730683640,179,51,49.52409811512596,53.04757799776485,51.35838825481659
1768730683644,169,41,40.76437603191556,44.10864120413497,42.613167040246694
1768730683648,152,24,26.205459221088347,26.67588604801596,28.076352577615783
1768730683652,133,5,9.986782489141534,8.103909747427881,11.883606169955808
1768730683656,124,-4,-4.424204005141192,-1.5391429404216526,-2.508249696836006
1768730683660,116,-12,-15.317146497219657,-9.70239713237247,-13.400634283362354
1768730683664,104,-24,-22.39129648506948,-21.017513394980643,-20.49102378263815
1768730683668,100,-28,-25.86759683438975,-25.307274116458597,-23.983421120027604
1768730683672,101,-27,-26.063615559078695,-23.81568302991336,-24.18067064106892
1768730683676,104,-24,-23.54808354007636,-21.75640659295312,-21.65309036456706
1768730683680,108,-20,-19.340887847596996,-17.34081801207849,-17.4327771803299
1768730683684,113,-15,-14.75796237359061,-12.433686105690152,-12.8439408871792
1768730683688,116,-12,-10.961026288137004,-8.89906182072301,-9.046923513442389
1768730683692,119,-9,-8.537279180254195,-6.258317062211207,-6.6229201487102545
1768730683696,120,-8,-7.393755619106727,-5.380272906585957,-5.474898172829898
1768730683700,120,-8,-7.016787854059687,-5.630272472689729,-5.089415482991573
1768730683704,120,-8,-6.887055892939852,-5.147425209397136,-4.950647052516763
1768730683708,121,-7,-6.744236202845874,-4.175717917695173,-4.802387985737854
1768730683712,121,-7,-6.557801068928916,-4.029039196195068,-4.615467329986151
1768730683716,121,-7,-6.338571418634921,-4.611472695492246,-4.397759246605723
1768730683720,121,-7,-6.0316646204833555,-4.373770169434589,-4.089838687343345
1768730683724,122,-6,-5.571823005993308,-3.3731432255789215,-3.6247998505975834
1768730683728,122,-6,-4.979223789130869,-2.9749414271041825,-3.0252366066272627
1768730683732,123,-5,-4.3598249146704315,-2.251829471288154,-2.4005026384909938
1768730683736,124,-4,-3.813533445288717,-1.3966706236138018,-1.851440754330696
1768730683740,124,-4,-3.357208658276217,-1.5720777216858115,-1.393078934894472
1768730683744,124,-4,-2.939463501653854,-1.146053894460979,-0.9719942644828636
1768730683748,125,-3,-2.5169803611912345,-0.2295997892269766,-0.5449635562546947
1768730683752,125,-3,-2.1024890890291257,-0.0129961819176166,-0.1264396179597425
1768730683756,126,-2,-1.741855038633131,0.3531793093531209,0.2368447624526419
1768730683760,126,-2,-1.4608189421668905,0.7070214624982769,0.520329641131514
1768730683764,126,-2,-1.240174064430554,0.5888797966773469,0.7448506896977596
1768730683768,126,-2,-1.0298768515426384,1.004350164609839,0.9602704641420804
1768730683772,127,-1,-0.7744403091803276,1.7587448115685025,1.2202045534045771
1768730683776,127,-1,-0.4366339225693363,1.536386731856103,1.5606926614858407
1768730683780,127,-1,-0.0288423356740666,1.5999373403214765,1.9701555986698895
1768730683784,128,0,0.3643638048266893,2.655444468333784,2.365453006592145
1768730683788,128,0,0.6195325682184986,2.9620775317034913,2.623558862513916
1768730683792,128,0,0.6661164884117772,2.743474236380181,2.6736574565825872
1768730683796,128,0,0.5607386381493606,2.5803080162208567,2.572327102706036
1768730683800,128,0,0.4693874587243736,2.551997001311907,2.485501088562698
1768730683804,128,0,0.5682083830800317,2.727629538516951,2.588624628139081
1768730683808,128,0,0.9404915199628414,2.866670408510944,2.9639565074064533
1768730683812,129,1,1.5388084262355657,3.822934226863427,3.5637377895204647
1768730683816,130,2,2.225303410496958,4.508989906626823,4.251068083494272
1768730683820,130,2,2.8517832171123265,4.625916502803873,4.879355150453477
1768730683824,131,3,3.3288704698062963,5.670698336379664,5.360010583329504
1768730683828,131,3,3.656066020566401,5.900626624142127,5.691752120604946
1768730683832,131,3,3.907767574142844,5.764384215469414,5.9474728568038895
1768730683836,132,4,4.181795314887151,6.585629963513163,6.224260576529756
1768730683840,132,4,4.533070845453156,6.549073082412487,6.57756732040928
1768730683844,132,4,4.9328678245054665,6.7609859097488245,6.9794951135420185
1768730683848,133,5,5.288362654406973,7.799307292300163,7.337222951844653
1768730683852,133,5,5.5146380345567705,7.833986340517986,7.565345040161536
1768730683856,133,5,5.5983309371349055,7.532568242054034,7.650777701384759
1768730683860,133,5,5.5931915034753406,7.6045439268242045,7.648294860682688
1768730683864,133,5,5.560980751410474,7.713538929902516,7.619891998108602
1768730683868,133,5,5.5296807531418475,7.828519720140583,7.592306664690018
1768730683872,133,5,5.506506069102688,7.79522954885865,7.571375191440489
1768730683876,133,5,5.506676398557338,7.572627777980686,7.572411493488471
1768730683880,133,5,5.545099301915682,7.570837204153467,7.611692639142026
1768730683884,133,5,5.598863139695205,7.757874318580518,7.667327925993707
1768730683888,133,5,5.597698099147821,7.752736606512233,7.668751408052445
1768730683892,133,5,5.471524687637471,7.878464301006897,7.545041278423554
1768730683896,133,5,5.212191847232398,7.483560574283798,7.287943565994617
1768730683900,132,4,4.880202688763644,6.654963282808161,6.958456833930675
1768730683904,132,4,4.544832115586322,6.707818348815841,6.625588646673868
1768730683908,132,4,4.21968866616808,6.72559594760994,6.30176011989557
1768730683912,131,3,3.852966802873489,5.986831167709567,5.934870388476435
1768730683916,131,3,3.3669701904104885,5.277805708548823,5.448870061769917
1768730683920,130,2,2.709338707628423,4.968174629732288,4.7932662836333755
1768730683924,130,2,1.8968110394432165,4.295307352013431,3.9845896123573583
1768730683928,128,0,1.0360170149776962,3.1893209928039026,3.1273805240779926
1768730683932,128,0,0.2887213256033187,2.4970942377132106,2.3816634199559155
1768730683936,127,-1,-0.2256822868704988,1.7511738217164414,1.8669697949509132
1768730683940,127,-1,-0.5279620245802708,1.5540111804079495,1.564062372165337
1768730683944,127,-1,-0.7845030074070216,1.6219657004870502,1.3079432880669242
1768730683948,126,-2,-1.191942363444416,0.949491407256322,0.9021881579887518
1768730683952,126,-2,-1.8214717918683507,0.6323057816202089,0.274835623956553
1768730683956,125,-3,-2.552987998373242,-0.2938009914510289,-0.4548041188086797
1768730683960,124,-4,-3.16343126440188,-1.4799579653996526,-1.0639048779619953
1768730683964,124,-4,-3.499248502221543,-1.2950178047861225,-1.3988783361202963
1768730683968,124,-4,-3.582216066837242,-1.1596332011309944,-1.4814771448140769
1768730683972,124,-4,-3.5599390912127995,-1.2697005589043455,-1.458952429729584
1768730683976,124,-4,-3.560395190633918,-1.3527724422744334,-1.458621649968916
1768730683980,124,-4,-3.58921927889907,-1.485030700566368,-1.486085098398101
1768730683984,124,-4,-3.551440697542701,-1.24176643955475,-1.4473099432148009
1768730683988,124,-4,-3.36562403865574,-1.2693337100704016,-1.2615545199388527
1768730683992,124,-4,-3.068854739927922,-1.1174655776909015,-0.9652851908261796
1768730683996,125,-3,-2.817901772309618,-0.5271512472712461,-0.714176145924794
1768730684000,125,-3,-2.7676369107112704,-0.3067045139607852,-0.6629884965907141
1768730684004,125,-3,-2.918405613530914,-0.4381406598186834,-0.812747713839244
1768730684008,124,-4,-3.079265149930243,-1.076744166843191,-0.9727035941702749
1768730684012,124,-4,-3.007998198913019,-1.3099963838602622,-0.900363222416912
1768730684016,125,-3,-2.6153670508308435,-0.3368905942596639,-0.5069956002497246
1768730684020,126,-2,-2.0442989885223475,0.5114869791461092,0.0632584101030453
1768730684024,126,-2,-1.5543506876080888,0.7192418492682946,0.5508001501861532
1768730684028,126,-2,-1.3281775771169098,0.7867638193424137,0.7749302644602319
1768730684032,126,-2,-1.367068777924048,0.7806505381419915,0.7364119154212918
1768730684036,126,-2,-1.5310811623044511,0.6051259773848922,0.5749583535880038
1768730684040,126,-2,-1.6528516192776657,0.5293238578439676,0.4555275864389648
1768730684044,126,-2,-1.628322678123123,0.7438192950205756,0.4800402330926073
1768730684048,126,-2,-1.4441381785266034,0.7207218282675443,0.6620143833917063
1768730684052,126,-2,-1.1579349576148847,0.8676930299081533,0.9458124055369808
1768730684056,127,-1,-0.8588165979244697,1.4874452202990436,1.2439785199627205
1768730684060,127,-1,-0.6232925757965675,1.6576320787919758,1.47988368058371
1768730684064,127,-1,-0.4829495513278194,1.6169673910642728,1.6206333623152736
1768730684068,127,-1,-0.424490397089292,1.8292368353438897,1.6785294988052033
1768730684072,127,-1,-0.423333982489828,1.772227856421684,1.6782977620132835
1768730684076,127,-1,-0.4805330186139058,1.536557893378368,1.6197685069471066
1768730684080,127,-1,-0.6247840891937397,1.6555379406848962,1.4748446478472907
1768730684084,127,-1,-0.8713265607624276,1.5739280764091488,1.2280877605546874
1768730684088,126,-2,-1.1765460775476848,0.909341525902846,0.922521839716708
1768730684092,126,-2,-1.442392274983674,0.6457928141329794,0.6557940859181954
1768730684096,126,-2,-1.579797564890563,0.6731292267214685,0.5168929990462949
1768730684100,126,-2,-1.5776901166370298,0.5150650373327108,0.5170912489507324
1768730684104,126,-2,-1.513093519457498,0.7081718194956201,0.5797993774120231
1768730684108,126,-2,-1.4877127884711616,0.8012503791874963,0.6037268107487561
1768730684112,126,-2,-1.538649187554166,0.6895923953420953,0.5518709281433433
1768730684116,126,-2,-1.5961662184152976,0.6767947836328648,0.4937697867750792
1768730684120,126,-2,-1.5288408502523798,0.4469058622169275,0.5605234027075203
1768730684124,126,-2,-1.2451461449620178,0.8409076426571325,0.8432357544201152
1768730684128,127,-1,-0.7696469025107826,1.6190928352032663,1.3169256617972338
1768730684132,127,-1,-0.2331168599404042,1.8924904649540273,1.850799729621598
1768730684136,128,0,0.2097524247964761,2.4386866666869933,2.2907179319836244
1768730684140,128,0,0.4680656681791419,2.6970393114986426,2.546479946316095
1768730684144,128,0,0.551321566983799,2.5811549211779368,2.6279338975313165
1768730684148,128,0,0.5460420034705733,2.877483896387006,2.621631211995636
1768730684152,128,0,0.5619735419368406,2.6333659061957007,2.6371714906154184
1768730684156,128,0,0.6867642909584744,2.660225204102294,2.761607051424497
1768730684160,129,1,0.9707404136857792,3.517085538309456,3.044168715097219
1768730684164,129,1,1.4291288513620013,3.710594183129856,3.4994447221034637
1768730684168,129,1,2.0282228739686934,3.7981604977392167,4.094434326087653
1768730684172,130,2,2.6538095273669255,4.654075615678605,4.716275702568447
1768730684176,131,3,3.115719044886052,5.658565155081994,5.1754858824833505
1768730684180,131,3,3.229157639936113,5.4972385290936865,5.287226555034569
1768730684184,130,2,2.9255510365370836,4.743017592571329,4.982708927637676
1768730684188,130,2,2.298153958765234,4.752393264051527,4.354613026920061
1768730684192,129,1,1.5410140108989578,3.6939490702755817,3.595878734380963
1768730684196,128,0,0.824516212864485,2.580491780794135,2.8761189678560606
1768730684200,128,0,0.1932855418203921,2.6259035214841626,2.2404400726422953
1768730684204,127,-1,-0.4406585870537325,1.5648202921287764,1.6022911094662715
1768730684208,126,-2,-1.1993137001214291,0.9735978352838648,0.8408495820722209
1768730684212,126,-2,-2.1061388820639615,0.4229797875295158,-0.0672918544328928
1768730684216,124,-4,-3.027833213239246,-1.1584421283119155,-0.9897630149840864
1768730684220,124,-4,-3.7491492967588753,-1.6143974360868305,-1.7125726498188223
1768730684224,123,-5,-4.129786417314497,-2.222198077028966,-2.096542197954673
1768730684228,123,-5,-4.212195511392675,-2.2047558803629093,-2.184534953578424
1768730684232,124,-4,-4.183360043005117,-1.4533077634400111,-2.162127712032483
1768730684236,123,-5,-4.224119592106643,-2.2533458517114906,-2.2067275780427513
1768730684240,123,-5,-4.378439938676175,-2.5676077106597215,-2.3595528293913652
1768730684244,123,-5,-4.542446017138724,-2.2244873953837274,-2.518696511416801
1768730684248,123,-5,-4.562369353705638,-2.250602865918585,-2.537331623034317
1768730684252,123,-5,-4.3630706544020414,-2.3894831133341503,-2.346734357248697
1768730684256,123,-5,-4.021028568142106,-2.3314335925192085,-2.0227080400652167
1768730684260,124,-4,-3.6969293162648857,-1.509858082739302,-1.7168150222396483
1768730684264,124,-4,-3.3847891758537685,-1.2518325976033875,-1.4110671299456912
1768730684268,125,-3,-2.577764233054525,-0.2760489817742817,-0.5926730944889922
1768730684272,128,0,-0.124841354660818,2.680984527080999,1.883370602104307
1768730684276,133,5,5.42279444931928,7.547211116754138,7.450381021798437
1768730684280,142,14,14.921904161998867,16.641202317173477,16.950216054565065
1768730684284,154,26,27.59174188740627,28.60979863601547,29.59795932949808
1768730684288,167,39,40.54314973290527,41.8248980912638,42.5135588062431
1768730684292,178,50,49.48578986653016,52.62741988467708,51.42322150091664
1768730684296,179,51,50.52716785956358,53.48586688021969,52.449252242441176
1768730684300,170,42,42.146461187069896,44.71442123807196,44.07645452342496
1768730684304,154,26,26.137482615638696,28.450158372338365,28.092435164737047
1768730684308,133,5,6.882301560741732,7.97166671847107,8.864723430189677
1768730684312,116,-12,-10.639910607445117,-9.464944948361712,-8.642474798091891
1768730684316,104,-24,-22.93258341441227,-21.400390079811956,-20.940492982209783
1768730684320,99,-29,-29.003807634745215,-26.30648844044782,-27.03497924733902
1768730684324,99,-29,-29.967458928556407,-26.56761297246071,-28.028545242621416
1768730684328,99,-29,-27.797012788416275,-25.9943173773578,-25.880381243209953
1768730684332,103,-25,-24.19283859764658,-22.583020562390097,-22.281885716603583
1768730684336,107,-21,-20.1533637499672,-18.24959374252103,-18.23355322095196
1768730684340,111,-17,-16.164692101474333,-14.51276401664071,-14.232468910605869
1768730684344,115,-13,-12.54724475749093,-10.320056398868356,-10.61034743551599
1768730684348,118,-10,-9.603475305975834,-7.284538446937748,-7.673411420878004
1768730684352,120,-8,-7.539405362525149,-5.3208509492444325,-5.622557972211478
1768730684356,121,-7,-6.350380694939933,-4.504806811002897,-4.444288964263559
1768730684360,121,-7,-5.829008599896518,-4.2862918819750595,-3.926058946219864
1768730684364,122,-6,-5.678292551333067,-3.505949891868498,-3.773204475890136
1768730684368,122,-6,-5.614971501888738,-3.1402671757695217,-3.709190520508229
1768730684372,122,-6,-5.416492769978312,-3.4472757385040342,-3.5157273154566844
1768730684376,122,-6,-4.962790133792653,-3.427969661957301,-3.0710439197941555
1768730684380,123,-5,-4.294659494163063,-2.3181595745395285,-2.4111796586887033
1768730684384,124,-4,-3.6128438143319914,-1.521714108112011,-1.7341696060535543
1768730684388,124,-4,-3.151598440521549,-1.0852238677824178,-1.2753012877383991
1768730684392,125,-3,-2.9957790491309773,-0.548881143256309,-1.1218693509007995
1768730684396,124,-4,-3.00417735632554,-1.3347276191095343,-1.133776099257855
1768730684400,124,-4,-2.9250168805825947,-1.4122223832459275,-1.0588324198300665
1768730684404,125,-3,-2.607549865548485,-0.4471613827502761,-0.7459292255620116
1768730684408,125,-3,-2.1175429948984887,-0.1263322796342502,-0.2611433402328411
1768730684412,126,-2,-1.6596313261755922,0.4494114223026896,0.1908794547751957
1768730684416,126,-2,-1.3916746927344543,0.6803756812450322,0.4532068619537804
1768730684420,126,-2,-1.299593440755895,0.5340334251396728,0.5409487868511318
1768730684424,126,-2,-1.2264683524208002,0.6033008962369555,0.6109827297499035
1768730684428,126,-2,-1.010598031011993,0.8505013008582221,0.823863670718582
1768730684432,127,-1,-0.6085256254021247,1.4202528427925434,1.2218615754026554
1768730684436,127,-1,-0.110985777131966,1.7618462789131968,1.7139401027989805
1768730684440,128,0,0.3434570569710323,2.3632867039435848,2.1621453404323505
1768730684444,128,0,0.6749557323466657,2.8345020676509303,2.487690288472079
1768730684448,128,0,0.902157173233606,2.5648667114269728,2.7101861054718537
1768730684452,128,0,1.0949322716317798,2.734248822888219,2.899598076286295
1768730684456,129,1,1.3024186782173193,3.418389534222813,3.103890094804753
1768730684460,129,1,1.5327551006148283,3.6926065204563696,3.329816811502072
1768730684464,129,1,1.7876190348420753,3.5113884608333077,3.5790887082751115
1768730684468,129,1,2.089289957212972,3.872800437941552,3.8753274437297223
1768730684472,130,2,2.463207988881287,4.43390760871997,4.244770176591995
1768730684476,130,2,2.9051133910457647,4.680739748161092,4.682413465185323
1768730684480,131,3,3.374846653328852,5.447432211001385,5.1470259874694175
1768730684484,131,3,3.817670793380975,5.721546902288529,5.584126486105348
1768730684488,131,3,4.186292042963799,5.698134669371534,5.947772046653909
1768730684492,132,4,4.452634633144205,6.545900836401489,6.2104823852726305
1768730684496,132,4,4.619144007930238,6.616556890692952,6.373602047310617
1768730684500,132,4,4.725724697639923,6.424498261304475,6.475505459258029
1768730684504,132,4,4.828394072142876,6.8295124443530915,6.572057493649299
1768730684508,132,4,4.9493706118371685,6.505139602395483,6.686818684447183
1768730684512,132,4,5.04621790732515,6.78127494112982,6.778647551197499
1768730684516,133,5,5.048938123322219,7.345313480983529,6.777557305100531
1768730684520,132,4,4.945976726207657,6.678065641088132,6.671076308934753
1768730684524,132,4,4.832473724720766,6.605743845690438,6.5535793127412765
1768730684528,132,4,4.85531069590213,6.68023250146716,6.571718797316407
1768730684532,132,4,5.090095367817122,6.6274729866607425,6.801129568624525
1768730684536,133,5,5.458443874280881,7.458172149448089,7.16359682668796
1768730684540,133,5,5.763933021355069,7.591880656417378,7.463175050260571
1768730684544,133,5,5.823710300475321,7.655231849813675,7.517747200808156
1768730684548,133,5,5.592251002548788,7.654194575053844,7.282292703872794
1768730684552,132,4,5.180988995404256,6.597578041982934,6.867929151105669
1768730684556,132,4,4.7638220446016675,6.501655240412525,6.447391243631827
1768730684560,132,4,4.44811602324752,6.540353354109812,6.126964470378015
1768730684564,131,3,4.207229737186333,5.697533405052531,5.880098961128
1768730684568,131,3,3.91308652486301,5.626358750734244,5.579802020089316
1768730684572,131,3,3.4380273178305116,5.5716224703199675,5.0992934072174325
1768730684576,130,2,2.7538136866159855,4.54888369926765,4.410522467348594
1768730684580,129,1,1.9538981329199845,3.4472816363907404,3.606851332176179
1768730684584,128,0,1.1813544887997045,2.844578641685516,2.831004779738534
1768730684588,128,0,0.5288924665667781,2.4050421852638726,2.1748277253372046
1768730684592,127,-1,-0.0021727552451333,1.8405254298353193,1.638833272174005
1768730684596,127,-1,-0.466034830148909,1.213640878419947,1.1690264350215775
1768730684600,126,-2,-0.9127429709306152,0.8139242721344788,0.7164617199411784
1768730684604,126,-2,-1.3583273220147791,0.4676130941770585,0.2660506127343777
1768730684608,125,-3,-1.7925631233822834,-0.2565092649042961,-0.1720057379435181
1768730684612,125,-3,-2.1984815149194454,-0.4630726525810715,-0.5815670602377321
1768730684616,125,-3,-2.5592603033326076,-0.5613212959642406,-0.946558202491004
1768730684620,124,-4,-2.853735518653378,-1.338825920489012,-1.245749245332899
1768730684624,124,-4,-3.0590610456205822,-1.4583409522472803,-1.4557151508043111
1768730684628,124,-4,-3.1650998237070436,-1.2786278871350931,-1.566147202226724
1768730684632,124,-4,-3.184487838707037,-1.509475172469718,-1.5900792514595217
1768730684636,124,-4,-3.148863429340258,-1.491271748777253,-1.5593602056081148
1768730684640,124,-4,-3.098750982905785,-1.422434630828736,-1.5141265340893422
1768730684644,124,-4,-3.0724346905298416,-1.3907325262547512,-1.492167376425842
1768730684648,124,-4,-3.090718696141972,-1.3415767493306343,-1.514294838311787
1768730684652,124,-4,-3.141382889850214,-1.4822148825709136,-1.5687933391762705
1768730684656,124,-4,-3.1780706639812952,-1.5172830547452354,-1.6097705929299058
1768730684660,124,-4,-3.1430229202504107,-1.394799936792445,-1.579370791471873
1768730684664,124,-4,-3.003458894240355,-1.4463242202936757,-1.4442435804689229
1768730684668,124,-4,-2.774368182635369,-1.2669378537430882,-1.219105826268089
1768730684672,125,-3,-2.503823458797336,-0.6110492520342816,-0.952523676394354
1768730684676,125,-3,-2.229929867915092,-0.3585836665741919,-0.6831266921184281
1768730684680,125,-3,-1.9551523524571712,-0.590453407152792,-0.4130044985727237
1768730684684,125,-3,-1.6695757207997075,-0.2378936884937428,-0.1314990177083286
1768730684688,126,-2,-1.391846002688102,0.5005848300529929,0.1426152595290326
1768730684692,126,-2,-1.171005767395175,0.5994955565891569,0.359492776677499
1768730684696,126,-2,-1.0460677083356282,0.4467387523690973,0.4799696199751982
1768730684700,126,-2,-1.0138820474705712,0.5694891004620486,0.5079062638306753
1768730684704,126,-2,-1.0366255223596934,0.6222913227036444,0.4815451025193628
1768730684708,126,-2,-1.0704973140905192,0.588742483923219,0.4442326265951162
1768730684712,126,-2,-1.0868167489550151,0.5340122928775597,0.4240631811694427
1768730684716,126,-2,-1.078653159516392,0.4804767885981231,0.4280141116038221
1768730684720,126,-2,-1.0577127024359112,0.5502192779068776,0.444833075137408
1768730684724,126,-2,-1.0428213166533014,0.6134957535625162,0.4559097601727646
1768730684728,126,-2,-1.0438110002339274,0.5873802071551377,0.4512636841839725
1768730684732,126,-2,-1.0534088415956546,0.5241445217945775,0.4380092615355343
1768730684736,126,-2,-1.0563308473521051,0.4841239766600039,0.4314354372237795
1768730684740,126,-2,-1.0466846989005036,0.5404144711162264,0.4374292699778759
1768730684744,126,-2,-1.0341410135111422,0.6084905897920516,0.4462359827416343
1768730684748,126,-2,-1.0319877088631024,0.5767483937308653,0.4446398186680056
1768730684752,126,-2,-1.0414798323924166,0.5243873527134679,0.4317063172454816
1768730684756,126,-2,-1.0502589147497354,0.4800851222049037,0.4199545899867987
1768730684760,126,-2,-1.0451320253255312,0.5306851018685516,0.4221327443373355
1768730684764,126,-2,-1.0246385141483965,0.6118066490475226,0.4389451106856715
1768730684768,126,-2,-1.0012430745465246,0.5520068843875581,0.4577935143222396
1768730684772,126,-2,-0.9951732255388608,0.5407420053746287,0.4593910921878426
1768730684776,126,-2,-1.0228873465243729,0.4651522400674367,0.4284825567698976
1768730684780,126,-2,-1.0776232033401612,0.5131169134938693,0.3719796064905568
1768730684784,126,-2,-1.1082476593558677,0.6542036766812859,0.3398339433793992
1768730684788,126,-2,-1.0229225411589309,0.44616653482877,0.4225080014870841
1768730684792,126,-2,-0.7401770871778433,0.6896088635396369,0.7011563913690191
1768730684796,127,-1,-0.2641507821057236,1.2621282576198616,1.1724722797997793
1768730684800,127,-1,0.2834709018655167,1.7370264734800274,1.7158472990387632
1768730684804,128,0,0.724047848114874,2.411805532609676,2.153152990220792
1768730684808,128,0,0.9455106380538094,2.6549328247266413,2.3722307934672413
1768730684812,128,0,0.9918173498255272,2.5109029703539463,2.416762913718264
1768730684816,128,0,1.036863417024802,2.365890171011854,2.4602801491375215
1768730684820,128,0,1.2566863118673632,2.697694066160047,2.6781440978557347
1768730684824,129,1,1.7017431450784426,3.3683070995426396,3.1200932898616145
1768730684828,129,1,2.2656532764500468,3.754461454858219,3.679815119086362
1768730684832,130,2,2.7603956651321577,4.353320058208371,4.170355005743362
1768730684836,130,2,3.0301889633751595,4.533653133883523,4.437005675369466
1768730684840,130,2,3.025882106738897,4.510479257277943,4.430689559002149
1768730684844,130,2,2.802403739907897,4.527469319399017,4.205636149463067
1768730684848,129,1,2.4535739114119703,3.623922713572128,3.855069702538925
1768730684852,129,1,2.0384768713449843,3.41851026467057,3.4378100768841784
1768730684856,129,1,1.559371895390245,3.5261371145793357,2.955980348310238
1768730684860,128,0,1.0027567366385508,2.425073139878987,2.3963114471514726
1768730684864,127,-1,0.3897492274457625,1.6840661829068202,1.7806329478483591
1768730684868,127,-1,-0.2217542607332636,1.382662074510511,1.1672434484758931
1768730684872,126,-2,-0.7788720938174001,0.7109661398687444,0.6084796154538878
1768730684876,126,-2,-1.271415453506449,0.1674132208525216,0.1136785581153096
1768730684880,125,-3,-1.7332427897531195,-0.1816055905023545,-0.3510927781015904
1768730684884,125,-3,-2.211405833143709,-0.7484093155449125,-0.8320332082558477
1768730684888,124,-4,-2.727184675928511,-1.1944444187101264,-1.349496488772025
1768730684892,124,-4,-3.2549393092987184,-1.6967988685542634,-1.8778673843460336
1768730684896,123,-5,-3.731782134608457,-2.4994257440654133,-2.3555819307795156
1768730684900,123,-5,-4.089104005510603,-2.435751723164036,-2.715665210789594
1768730684904,123,-5,-4.2850634046535525,-2.604750713935615,-2.9161902185860766
1768730684908,122,-6,-4.324335122670373,-3.253053149769601,-2.9590666553670513
1768730684912,123,-5,-4.257723827858981,-2.7327089245610754,-2.89181026701534
1768730684916,123,-5,-4.153078651557397,-2.4170083975284444,-2.7823576838988453
1768730684920,123,-5,-4.049579159979295,-2.567900804765181,-2.6748926726916196
1768730684924,123,-5,-3.9421330878009737,-2.4606363412388546,-2.57104033823166
1768730684928,123,-5,-3.8245279604909137,-2.4193666855974776,-2.4669171021347016
1768730684932,123,-5,-3.73329062565497,-2.579973796551214,-2.392950854336601
1768730684936,123,-5,-3.669554392797372,-2.5888886683977224,-2.3383710310202006
1768730684940,124,-4,-3.3426790811648126,-1.3871561633769651,-2.003638156898039
1768730684944,126,-2,-1.8886490230209283,0.3256812727728393,-0.5269981545612312
1768730684948,129,1,2.0850592186721677,3.819217243636285,3.4705854991298577
1768730684952,137,9,9.845253221510728,11.135658802959318,11.239966411983724
1768730684956,147,19,21.42672198441016,21.721731830761712,22.80834818028054
1768730684960,161,33,34.769326867257675,35.273077540633324,36.12118269599942
1768730684964,173,45,45.92044224614226,47.69201719438056,47.24072887894548
1768730684968,179,51,50.554264854625245,53.386173680302946,51.85664261848321
1768730684972,174,46,46.099338094229424,48.55290403632945,47.40547245216758
1768730684976,160,32,33.17653943674898,34.1798867286087,34.50484581158753
1768730684980,142,14,15.389641756859511,16.83286303535641,16.746298301342982
1768730684984,124,-4,-2.426095101456397,-1.9009094577335863,-1.0488790674061192
1768730684988,108,-20,-16.39882780253904,-16.92115054785456,-15.0176186848031
1768730684992,104,-24,-24.94281017745742,-22.126272100446005,-23.57508902411904
1768730684996,100,-28,-28.592454590751,-25.109906061151417,-27.248651320727987
1768730685000,98,-30,-28.825942627659387,-27.938208023060124,-27.50338952193872
1768730685004,99,-29,-26.95213545006727,-26.139726925584583,-25.63622751950932
1768730685008,103,-25,-23.75888182335743,-22.69606103395654,-22.433626979488004
1768730685012,107,-21,-19.779762775813,-18.423834803684517,-18.439475727968585
1768730685016,112,-16,-15.6051742461937,-13.698042600912585,-14.256466355001493
1768730685020,115,-13,-11.882931263508688,-10.517987544723177,-10.536564063427097
1768730685024,118,-10,-9.083782017458638,-7.446779013358372,-7.745528425296045
1768730685028,120,-8,-7.309660900011423,-5.5463256575688895,-5.97754402087915
1768730685032,120,-8,-6.328196858596629,-5.494958752994414,-4.996023215559118
1768730685036,121,-7,-5.7922682615321985,-4.662413707214334,-4.45528683052059
1768730685040,122,-6,-5.448434210416227,-3.5466075676916997,-4.106921309104369
1768730685044,122,-6,-5.181090203388006,-3.434709536210673,-3.839376417075853
1768730685048,122,-6,-4.927849199364712,-3.6088934404471416,-3.5898929313747057
1768730685052,122,-6,-4.618773715958094,-3.395550135423241,-3.2847124775951464
1768730685056,123,-5,-4.212163197712418,-2.8163513828931652,-2.8790527483312065
1768730685060,123,-5,-3.7515596218423086,-2.3410061830376065,-2.4168056547681394
1768730685064,124,-4,-3.3431575388195203,-1.7168254246355426,-2.0066711753504656
1768730685068,124,-4,-3.0594078236244404,-1.3092931484624677,-1.72263548066609
1768730685072,124,-4,-2.869548169751612,-1.7223886663032972,-1.5332149312329366
1768730685076,124,-4,-2.6708731945751354,-1.5097810661140083,-1.3343627437893806
1768730685080,125,-3,-2.3839570998489146,-0.610600769137593,-1.0466849718337596
1768730685084,125,-3,-2.0146463506975287,-0.5351732730460731,-0.6771206027727057
1768730685088,125,-3,-1.635860237940627,-0.4244835573810241,-0.299025464187659
1768730685092,126,-2,-1.3222841865422643,0.2974580571503046,0.0137023989288766
1768730685096,126,-2,-1.0950268566613512,0.531648537497341,0.241080666756837
1768730685100,126,-2,-0.9111959479699449,0.2831592924768431,0.4264267390557832
1768730685104,126,-2,-0.6990810725654912,0.58832067602661,0.6406500928910639
1768730685108,127,-1,-0.4071349111031088,1.4234259029088818,0.9337452685111448
1768730685112,127,-1,-0.0324636184078868,1.429373460718968,1.307849564474335
1768730685116,127,-1,0.3754110863370801,1.4166381579867298,1.7144022454952357
1768730685120,128,0,0.7284928644830366,2.3497611935199725,2.066948293339262
1768730685124,128,0,0.9408874510116318,2.549344344338486,2.2800744104322015
1768730685128,128,0,0.9910952444027736,2.3885837911367203,2.33172881734047
1768730685132,128,0,0.9584086565822036,2.5181464824550495,2.3007085965552996
1768730685136,128,0,0.9879670368554652,2.2517912863795044,2.3319867071219713
1768730685140,128,0,1.202303772380617,2.561438423851984,2.547653309181986
1768730685144,129,1,1.629003862843831,3.273246235338348,2.974557726135658
1768730685148,129,1,2.19575554605518,3.687675014315721,3.540382231629463
1768730685152,130,2,2.7816976154174267,4.1845198247011535,4.12554160427396
1768730685156,130,2,3.279237652349982,4.589566498148891,4.623826352325324
1768730685160,131,3,3.637471536902036,5.193375752807091,4.984224661461012
1768730685164,131,3,3.8800189004482606,5.62946074649925,5.228988092789863
1768730685168,131,3,4.085543327483438,5.325756927539754,5.435853268442564
1768730685172,131,3,4.3267684568029035,5.517779607396909,5.677739885173664
1768730685176,132,4,4.607833106482683,6.2753111279301965,5.959183591385553
1768730685180,132,4,4.860452134311465,6.447311934124725,6.211934970914417
1768730685184,132,4,5.005948497419871,6.40996469702552,6.357597868174709
1768730685188,132,4,5.022396363647025,6.488879789317577,6.375033774368749
1768730685192,132,4,4.958551693136796,6.3793776526052755,6.313397247219681
1768730685196,132,4,4.894386549169587,6.361681309756693,6.251885494004284
1768730685200,132,4,4.888178386509345,6.381967013772785,6.247373040084132
1768730685204,132,4,4.944334526737721,6.428984931917975,6.303607638170552
1768730685208,132,4,5.011646451413303,6.4958962898349775,6.370176958563968
1768730685212,132,4,5.007949305766916,6.32079293145018,6.366432102912989
1768730685216,132,4,4.865204277326126,6.431975952420664,6.225173947781602
1768730685220,132,4,4.579845639694008,6.277482482710637,5.942430042951022
1768730685224,131,3,4.234457690307682,5.531240731314612,5.599741484038238
1768730685228,131,3,3.960246413846395,5.382354360057403,5.327461813739442
1768730685232,131,3,3.853413967414803,5.413314412488486,5.221529966067162
1768730685236,131,3,3.9026347668051864,5.328011489828125,5.271010720417122
1768730685240,131,3,3.981784898242014,5.367682740313155,5.350464655429591
1768730685244,131,3,3.91825737489802,5.432661322135417,5.287614358389616
1768730685248,131,3,3.595916309786489,5.459733986333362,4.966257714302737
1768730685252,130,2,3.0203468706968715,4.331836369906954,4.392147015819228
1768730685256,129,1,2.2961081020519876,3.3629230628602387,3.670198234721025
1768730685260,129,1,1.5429282787538217,3.361825189137422,2.919790379815143
1768730685264,128,0,0.8316527882816578,2.3803175827386687,2.210648917657923
1768730685268,127,-1,0.1833155598712111,1.5516989917625508,1.5631071477414211
1768730685272,127,-1,-0.3991991496121072,1.1846099649839357,0.9805273292611896
1768730685276,126,-2,-0.913937262083398,0.5124182089504672,0.4659978916558156
1768730685280,126,-2,-1.3662006578739487,0.1867152781296878,0.0150739196524445
1768730685284,125,-3,-1.7763569986277528,-0.4513448202229309,-0.3926427713937801
1768730685288,125,-3,-2.1677884653142803,-0.6184240419918652,-0.7815040855213176
1768730685292,125,-3,-2.5385060553002927,-0.6773287165271451,-1.150616543372842
1768730685296,124,-4,-2.848811255858648,-1.6252255542356255,-1.460347034060373
1768730685300,124,-4,-3.0518860677756905,-1.7250062321352844,-1.662864645321502
1768730685304,124,-4,-3.1434392372738613,-1.5022200875410965,-1.7530171133845005
1768730685308,124,-4,-3.172484460655894,-1.6296671656476802,-1.7799729066538228
1768730685312,124,-4,-3.194281115628088,-1.6268572587566252,-1.799747742065989
1768730685316,124,-4,-3.213666253095811,-1.743572204074145,-1.817699985818532
1768730685320,124,-4,-3.179209087276961,-1.595770849823859,-1.7823045664156651
1768730685324,124,-4,-3.0369672473392972,-1.6537550637668597,-1.6390722959810071
1768730685328,124,-4,-2.7935076432323154,-1.490036904713834,-1.394151286729744
1768730685332,125,-3,-2.523929011286873,-0.7603229334273732,-1.1228469093399127
1768730685336,125,-3,-2.309232879373482,-0.6594369648613365,-0.9066502577431864
1768730685340,125,-3,-2.161797797960809,-0.6682249172736914,-0.7578823375648243
1768730685344,125,-3,-2.017968546314425,-0.6257579041065918,-0.6123419345463547
1768730685348,125,-3,-1.8083066055087875,-0.4967059700226952,-0.4006169811580986
1768730685352,126,-2,-1.5326028415172828,0.2035181130163708,-0.1234323936452679
1768730685356,126,-2,-1.2662604727241076,0.3889802411296128,0.1432299235785499
1768730685360,126,-2,-1.1009927938082609,0.2411283394996219,0.3085661915659041
1768730685364,126,-2,-1.0795089270837936,0.4635389438308406,0.3313827270581853
1768730685368,126,-2,-1.168542015312828,0.4023352075226151,0.2451722798209387
1768730685372,126,-2,-1.2733623459323375,0.2690911895973409,0.1432618832747132
1768730685376,126,-2,-1.2823491647917482,0.3495034728471236,0.1358937171876282
1768730685380,126,-2,-1.1284663414004106,0.216391317087738,0.2901937063655521
1768730685384,126,-2,-0.8367241385959259,0.5179617396124927,0.5822494492429635
1768730685388,127,-1,-0.5146723099420041,1.2998555039316972,0.9052274065382028
1768730685392,127,-1,-0.2786809945644624,1.3796063744619502,1.1426869572231737
1768730685396,127,-1,-0.1733599556562373,1.217183919351548,1.249756541500198
1768730685400,127,-1,-0.1563570041887704,1.3290269289423955,1.268597825977967
1768730685404,127,-1,-0.1573889714479915,1.3881929920064071,1.269165142745474
1768730685408,127,-1,-0.1508304462189221,1.413962421753662,1.2767861585780296
1768730685412,127,-1,-0.1779213605591824,1.2608114081597923,1.2503714980090312
1768730685416,127,-1,-0.3048506152483647,1.321746649226253,1.124240107013033
1768730685420,127,-1,-0.5544112721689072,1.2034017941100037,0.8759995268615225
1768730685424,126,-2,-0.8696135077186371,0.4923835241727382,0.5626528873868201
1768730685428,126,-2,-1.1433606794877322,0.2962258380878774,0.2908568821153787
1768730685432,126,-2,-1.290959628732241,0.3710981064202789,0.144606072833526
1768730685436,126,-2,-1.3043764540675145,0.2029594924160838,0.1316233224914
1768730685440,126,-2,-1.2476352504629935,0.2949377004695903,0.1884785682059704
1768730685444,126,-2,-1.2038057649085177,0.3963485956146561,0.2331335419205408
1768730685448,126,-2,-1.215676017003268,0.3527762891516944,0.2231764771250058
1768730685452,126,-2,-1.2610122571717868,0.3294630688804558,0.1801066260573806
1768730685456,126,-2,-1.279718962112625,0.2140463911913805,0.162874887925682
1768730685460,126,-2,-1.2349171309552385,0.2719427238683445,0.2079240949100672
1768730685464,126,-2,-1.161458554520748,0.4068756803388991,0.2811020654814954
1768730685468,126,-2,-1.1575904489758404,0.3075475392518949,0.2853114517016277
1768730685472,126,-2,-1.314572982925751,0.3901025563844493,0.1297880616417067
1768730685476,126,-2,-1.631991673162794,0.1193482725284977,-0.1855880692340741
1768730685480,125,-3,-1.990945569060599,-0.6431972305233279,-0.5428405814046778
1768730685484,125,-3,-2.220384665905165,-0.6956599319049647,-0.7713897888303823
1768730685488,125,-3,-2.2126280454905887,-0.6235704109624527,-0.7633133207488518
1768730685492,125,-3,-1.9943596043677836,-0.6499526914037029,-0.5447370800439786
1768730685496,126,-2,-1.6916286850398063,0.0996171746334755,-0.2414039524445141
1768730685500,126,-2,-1.4174143495698102,0.4215481309313345,0.0336408740436062
1768730685504,126,-2,-1.1809878107524463,0.1397064078861027,0.2710273823691467
1768730685508,126,-2,-0.9013486729428706,0.5951617836497178,0.5517508951992114
1768730685512,127,-1,-0.5088853754211586,1.066860021743294,0.9452553044133593
1768730685516,127,-1,-0.0348971838267182,1.401956452653812,1.419860391941843
1768730685520,128,0,0.3970442686589571,2.110882816449222,1.8517722677712585
1768730685524,128,0,0.6704332297926658,2.389309032675583,2.1248275175369606
1768730685528,128,0,0.7761069052093035,2.3801627586438436,2.230749921726898
1768730685532,128,0,0.8239082803092423,2.207633736937747,2.2800651830154126
1768730685536,128,0,0.9584956261614128,2.3084464643296454,2.4169257393704484
1768730685540,129,1,1.2574230867921967,3.148955415143766,2.71736713844039
1768730685544,129,1,1.690575699952768,3.3539213553563676,3.150359002886584
1768730685548,129,1,2.1481141738785805,3.398258743411157,3.606769264339461
1768730685552,130,2,2.494905824828753,4.150453572852474,3.952743611453709
1768730685556,130,2,2.6218069811624094,4.39741904059462,4.079545621020635
1768730685560,130,2,2.4826220742436256,3.9824033931198817,3.940742420857891
1768730685564,129,1,2.101666882687293,3.5714238665781437,3.560713833796836
1768730685568,129,1,1.548299457211583,3.09896126852551,3.00894280646873
1768730685572,128,0,0.9047329502751642,2.475899139173146,2.366963892027517
1768730685576,128,0,0.252151809255461,2.0467180980255923,1.7148395642222891
1768730685580,127,-1,-0.3378855935432606,1.3070131725090048,1.123932826302084
1768730685584,126,-2,-0.8328908528426431,0.2717691440947258,0.6277168017438659
1768730685588,126,-2,-1.2721142618974697,0.3102654903088787,0.1877581500359429
1768730685592,126,-2,-1.748409721208812,0.3310447687065894,-0.2888722261737162
1768730685596,125,-3,-2.330243328872918,-0.9070758800626432,-0.8706284216271398
1768730685600,124,-4,-2.9926107726641256,-1.6649483190651897,-1.531880045876071
1768730685604,124,-4,-3.623488875664219,-1.8489633944687751,-2.160660132017915
1768730685608,123,-5,-4.094626151435429,-2.547352318401346,-2.6304160296500605
1768730685612,123,-5,-4.337127897039877,-2.847341288044338,-2.8742106046882707
1768730685616,123,-5,-4.37802788979366,-2.7269393200045062,-2.918942509171664
1768730685620,123,-5,-4.324037854407841,-2.8458468365936156,-2.8684560802344756
1768730685624,123,-5,-4.29815761352101,-2.7213917474413094,-2.842156784712978
1768730685628,123,-5,-4.357361029289084,-2.658812174973702,-2.895952416153213
1768730685632,123,-5,-4.4440228602492216,-2.8025353193939213,-2.9755290011089968
1768730685636,123,-5,-4.423196282485073,-2.7203589945188433,-2.952107525376679
1768730685640,123,-5,-4.204514214192637,-2.9133947874335577,-2.7399809175225207
1768730685644,123,-5,-3.8538442353084337,-2.6462629461068223,-2.403830307578457
1768730685648,124,-4,-3.5457583297655098,-1.7722294647925398,-2.1101706951025294
1768730685652,124,-4,-3.28731780632294,-1.7007631278977628,-1.8552062609075912
1768730685656,125,-3,-2.5475136754447263,-0.8197727967513186,-1.1020374550782868
1768730685660,128,0,-0.108204346738463,2.167766458461019,1.362346137414347
1768730685664,133,5,5.5601403597335,7.24958789576667,7.052983425390135
1768730685668,142,14,15.370401535505664,16.321909572136796,16.868231263039704
1768730685672,155,27,28.55311893234169,29.206119099130017,30.033779953877108
1768730685676,169,41,42.18723829334865,43.274710901178345,43.63620538540419
1768730685680,180,52,51.91042337026857,54.05185054332573,53.32840785872831
1768730685684,182,54,53.706999316923344,56.304721539585664,55.10943035031765
1768730685688,174,46,45.87679252802338,48.192856862282454,47.286394396736405
1768730685692,157,29,30.019080488582084,31.28856299381411,31.45503571233549
1768730685696,137,9,10.406743830656836,11.158339923202478,11.87512797669994
1768730685700,119,-9,-7.885277467617037,-6.7828986484229965,-6.394749880662209
1768730685704,106,-22,-21.016258842238557,-19.85018090060182,-19.52463117274572
1768730685708,100,-28,-27.530441369629003,-25.59027303800128,-26.057904954057292
1768730685712,100,-28,-28.236258105322374,-25.947596003506263,-26.791579979941716
1768730685716,102,-26,-25.19626004951792,-23.6178888266033,-23.773538310908712
1768730685720,107,-21,-20.57827969641501,-19.047371410931504,-19.162328798145488
1768730685724,111,-17,-15.94692054329691,-14.61955701178966,-14.523088783211584
1768730685728,115,-13,-12.11970108209144,-10.85061449669738,-10.681652434641132
1768730685732,118,-10,-9.35773787242616,-7.70719470141349,-7.908981099346113
1768730685736,120,-8,-7.6020923470610064,-5.881903029095402,-6.151519447483137
1768730685740,121,-7,-6.625513320773437,-4.813710329784013,-5.180654591374436
1768730685744,121,-7,-6.132937203420511,-4.847892028866804,-4.69559506584573
1768730685748,121,-7,-5.865562059047018,-4.671813326847648,-4.432552669406009
1768730685752,122,-6,-5.679688118883155,-3.846831640195415,-4.247202991236582
1768730685756,122,-6,-5.536761571137495,-3.8128599100233234,-4.1037844640803325
1768730685760,122,-6,-5.419546652765296,-3.841056401791507,-3.987446066414023
1768730685764,122,-6,-5.270569208195455,-3.8908230043616543,-3.840553150361956
1768730685768,122,-6,-5.015268594262594,-3.6097858240731537,-3.587136583648407
1768730685772,123,-5,-4.6288404883984935,-2.951362836458721,-3.2018952148210813
1768730685776,123,-5,-4.163061846882923,-2.7002138026737503,-2.7373026873929858
1768730685780,124,-4,-3.7045220467377944,-1.9782445082117708,-2.2805596190192077
1768730685784,124,-4,-3.3098084619239616,-1.768555753019153,-1.887965969318408
1768730685788,124,-4,-2.9771048643624587,-1.761949367547443,-1.5570331084165407
1768730685792,125,-3,-2.668377165127352,-0.8148584814963337,-1.2495013027299973
1768730685796,125,-3,-2.3512019507469253,-0.8393246767918764,-0.9332434899512831
1768730685800,125,-3,-2.0245913756410125,-0.8635816721712248,-0.6077783686793422
1768730685804,126,-2,-1.7133267227791769,0.1114910287627639,-0.2984526982352121
1768730685808,126,-2,-1.4385792399018595,0.3219897282824282,-0.0265479283803069
1768730685812,126,-2,-1.195869832567796,0.0793869849515668,0.2133895779336525
1768730685816,126,-2,-0.9670544178880812,0.2833158743671069,0.4407643871943956
1768730685820,127,-1,-0.7455310478055812,0.9586355508551034,0.661957590928504
1768730685824,127,-1,-0.5299729304647527,1.3166859845422831,0.8766095423084266
1768730685828,127,-1,-0.2935394719581561,1.0482189112639726,1.1105844334576866
1768730685832,127,-1,0.0143434133171914,1.3737111611810393,1.4154419954026023
1768730685836,128,0,0.4166516019828086,1.954765830180201,1.815697116523498
1768730685840,128,0,0.8671550236547145,2.278370109556397,2.2651980585416287
1768730685844,129,1,1.2775627098706073,2.9853721076866155,2.6742799145066796
1768730685848,129,1,1.592170632383347,3.3481334802136735,2.9863006846561935
1768730685852,129,1,1.8291564364227857,3.06636526763591,3.220209364153153
1768730685856,129,1,2.044353531923133,3.2357141593482495,3.433260530163396
1768730685860,130,2,2.266779246478249,3.9870302126633455,3.6546308484698646
1768730685864,130,2,2.487144505404609,4.263143839483105,3.873908295401782
1768730685868,130,2,2.7059264871090183,4.047607272868158,4.0908418140589
1768730685872,130,2,2.9691748709396073,4.362016106635685,4.351833275155454
1768730685876,131,3,3.3418723403505015,4.898162243474825,4.722320089554605
1768730685880,131,3,3.847039601083832,5.327930185838401,5.225223502852438
1768730685884,132,4,4.430434999372704,5.8976221827713085,5.806179307349083
1768730685888,132,4,4.980181730177607,6.405791508362324,6.35358200227288
1768730685892,133,5,5.388141657161119,6.987066658942155,6.75954356285468
1768730685896,133,5,5.6124790000952505,7.227335677218674,6.982104673893185
1768730685900,133,5,5.694956949844081,7.019036116638063,7.062819505572907
1768730685904,133,5,5.715487018764662,7.141399483541077,7.081594376893059
1768730685908,133,5,5.720221374878473,7.21861755970707,7.08455460400805
1768730685912,133,5,5.687272228847146,7.07365350563057,7.04947316845166
1768730685916,133,5,5.560995866876252,7.199489683771216,6.920341458159639
1768730685920,133,5,5.320738693369813,6.959074438168107,6.676833134757959
1768730685924,132,4,5.016923266818051,6.242280172911669,6.370512659757846
1768730685928,132,4,4.741910382759787,6.070037365272205,6.094577877134161
1768730685932,132,4,4.57072877085078,6.211310621019538,5.923361473538764
1768730685936,132,4,4.52915867521623,6.052277937796661,5.880845091483385
1768730685940,132,4,4.599705234034166,6.066087964835284,5.948466904526176
1768730685944,132,4,4.729383228638239,6.162597305469154,6.073996239608803
1768730685948,132,4,4.820501586253395,6.0829099410826215,6.161460370718952
1768730685952,132,4,4.734972128477497,6.219126207133483,6.07375154153837
1768730685956,132,4,4.348106522200444,5.996262225198488,5.685756652662258
1768730685960,131,3,3.6321329605238697,5.115227209700958,4.96871937181397
1768730685964,130,2,2.697297886138678,4.119523332861914,4.03243699257444
1768730685968,129,1,1.73961481564626,3.05735110304673,3.0731004033397444
1768730685972,128,0,0.926545401180547,2.289009309216675,2.258307907958109
1768730685976,128,0,0.3097223344761399,1.8354356948927135,1.639452174522836
1768730685980,127,-1,-0.1721381687549164,1.3448245382061903,1.1549962749135334
1768730685984,127,-1,-0.6167772470186064,0.811149966631417,0.7073784071998057
1768730685988,126,-2,-1.0799721156033444,0.3827321772485759,0.2414108225200505
1768730685992,126,-2,-1.553685195695702,-0.0758280007023319,-0.2342714009217947
1768730685996,125,-3,-2.0014191952851887,-0.8339205216398469,-0.6830687526175199
1768730686000,125,-3,-2.402241830418845,-0.9485548808117172,-1.0846975258378555
1768730686004,125,-3,-2.7563820935631616,-0.9701449125018856,-1.4402855366849932
1768730686008,124,-4,-3.056731410819675,-1.789971213049209,-1.7429012659526992
1768730686012,124,-4,-3.273797126599349,-1.9986753254782923,-1.962367727745351
1768730686016,124,-4,-3.380266419155484,-1.8660249269778004,-2.0708104048700307
1768730686020,124,-4,-3.386310613845023,-1.9778580391582987,-2.0785981498390913
1768730686024,124,-4,-3.3439834102684953,-1.9116684778548323,-2.0382013033584805
1768730686028,124,-4,-3.315658625080247,-1.8941491659588028,-2.011946999071871
1768730686032,124,-4,-3.3335344888076963,-1.9143173419683328,-2.0316640679264197
1768730686036,124,-4,-3.3781614038685857,-1.9693823039670744,-2.0777168495309937
1768730686040,124,-4,-3.388447549696027,-1.891036002912121,-2.089120968590682
1768730686044,124,-4,-3.2978686390790024,-1.9951798219788353,-1.999596276330529
1768730686048,124,-4,-3.0745422601977204,-1.8469156259511792,-1.7776220489964114
1768730686052,125,-3,-2.7372236802167107,-0.9734140443935768,-1.4422593422261083
1768730686056,125,-3,-2.3399181972423104,-0.9453480615681468,-1.0472595022548756
1768730686060,125,-3,-1.946981694856342,-0.9104008638959588,-0.6562260499434909
1768730686064,126,-2,-1.6178580392211632,0.0033558875173334,-0.3283227548733975
1768730686068,126,-2,-1.3948465142799666,0.1395462846253086,-0.1064507417108716
1768730686072,126,-2,-1.288337758113573,-0.0002758139340535,-0.0015038624586887
1768730686076,126,-2,-1.2753005873160348,0.0822394159003656,0.0099520536439046
1768730686080,126,-2,-1.318064572552093,0.0299566368503318,-0.0337894973383797
1768730686084,126,-2,-1.381027791740466,0.0716713515565714,-0.0973429419213041
1768730686088,126,-2,-1.4260491681764838,0.0349427565367166,-0.1433952731166528
1768730686092,126,-2,-1.4029435797251133,0.0872122855075998,-0.1219750344917914
1768730686096,126,-2,-1.2660847847953487,-0.0256281666528639,0.0133678582533454
1768730686100,126,-2,-1.014215942784558,0.1244585479854005,0.2645735351216661
1768730686104,127,-1,-0.7086668042706321,0.9661537001772598,0.5696797265165299
1768730686108,127,-1,-0.4386753185037455,1.1245399496733115,0.8382655069524971
1768730686112,127,-1,-0.2659733668271828,0.9622279666208162,1.008696172307055
1768730686116,127,-1,-0.2081598656225393,1.0951996067856642,1.064896291977019
1768730686120,127,-1,-0.266555214500607,0.9680982072402596,1.0065218728585128
1768730686124,127,-1,-0.4441513662716356,1.1249959610179023,0.8296441501523496
1768730686128,127,-1,-0.7211823769835712,0.9458651679703582,0.5523528092371858
1768730686132,126,-2,-1.0280117845096326,0.112592608348814,0.2439457478639826
1768730686136,126,-2,-1.27035193568032,-0.0649466444437762,-7.463098324744788e-05
1768730686140,126,-2,-1.393737236305897,0.0917923254714609,-0.124104276578419
1768730686144,126,-2,-1.417430184326259,0.0107401972467744,-0.1474798044412228
1768730686148,126,-2,-1.401078532165279,0.0296589439349808,-0.1307247300042473
1768730686152,126,-2,-1.383649698958137,0.0274873545376252,-0.1135897430284955
1768730686156,126,-2,-1.3594154220058745,-0.0290013317128887,-0.0905640820438365
1768730686160,126,-2,-1.3116519447156043,0.0499674972791521,-0.0444099430675376
1768730686164,126,-2,-1.2652235423009102,0.0394491153194118,0.0010663893441958
1768730686168,126,-2,-1.2974228066724245,-0.0197113753609838,-0.0306892355090927
1768730686172,126,-2,-1.479533595234056,0.0834069660128973,-0.2114471379071473
1768730686176,126,-2,-1.7900917896258184,-0.1555439948292503,-0.5210810999604535
1768730686180,125,-3,-2.088747506278726,-0.7985892786734485,-0.8199334016643657
1768730686184,125,-3,-2.2030809188600324,-1.1644099474081395,-0.934977541407182
1768730686188,125,-3,-2.068081211899018,-0.7971056976571502,-0.8003787246322169
1768730686192,126,-2,-1.7839719366982565,-0.1636906044492854,-0.5163957726022912
1768730686196,126,-2,-1.524902329120453,0.0459105603826801,-0.2575219985129534
1768730686200,126,-2,-1.3812629303399897,0.0273463780243836,-0.1137331146881115
1768730686204,126,-2,-1.2858722542376912,-0.0772046156735242,-0.017046594599876
1768730686208,126,-2,-1.0871656058457515,0.1807736393295063,0.1838719990941935
1768730686212,127,-1,-0.6929799473953586,0.7596663153817096,0.5796233291622219
1768730686216,127,-1,-0.1577155974328299,1.174945160416482,1.1144390580274404
1768730686220,128,0,0.3492484787635238,1.830015352333867,1.6194046540810547
1768730686224,128,0,0.657048433688264,2.1302828581140147,1.9258009330189312
1768730686228,128,0,0.7029482933441543,1.9464916187297576,1.972806108207575
1768730686232,128,0,0.5723671979791103,1.957834670176385,1.8456986431978335
1768730686236,128,0,0.4562821394851616,1.990080139274964,1.7334123284473928
1768730686240,128,0,0.5524746267463947,1.9579526850513171,1.8317716509500528
1768730686244,128,0,0.954708891300874,2.035578857205158,2.234224234422739
1768730686248,129,1,1.5868342423641653,2.9737544909710683,2.8655517048072574
1768730686252,130,2,2.2319088123761572,3.957063164207941,3.5098441593202434
1768730686256,130,2,2.649018477858433,3.9280329580031057,3.92699629008932
1768730686260,130,2,2.699486412463894,4.044615189258385,3.978985312759787
1768730686264,130,2,2.399173598843285,3.888411555952721,3.6817405404774104
1768730686268,129,1,1.8788885604046817,3.1369550570044744,3.1651791936067633
1768730686272,129,1,1.2973168429291078,2.731512440400291,2.586638180648308
1768730686276,128,0,0.7636671497534895,2.1956471747032085,2.0545530932283613
1768730686280,128,0,0.3029808563560389,1.6959686765150557,1.5943534422755683
1768730686284,127,-1,-0.1339774053732331,1.293685936542639,1.157907204421031
1768730686288,127,-1,-0.6312370994913492,0.6309319691209385,0.6619034024432187
1768730686292,126,-2,-1.2558241839309263,0.2856182394485056,0.0391293995216452
1768730686296,126,-2,-2.0145095702075904,-0.4226395027671534,-0.7175145953076769
1768730686300,124,-4,-2.8450526066749022,-1.674193606674867,-1.5453683228418469
1768730686304,124,-4,-3.650154530892224,-2.3598888029837797,-2.346560321082474
1768730686308,123,-5,-4.344201886599306,-2.7571473234271324,-3.0361629209479903
1768730686312,123,-5,-4.874733255992983,-3.308078573126081,-3.563612710144705
1768730686316,122,-6,-5.220826388295292,-3.891217929392196,-3.909247357363245
1768730686320,122,-6,-5.397904677955999,-4.153640208178294,-4.087566527914916
1768730686324,122,-6,-5.46791634861098,-3.9860687604185614,-4.157706798137519
1768730686328,122,-6,-5.5176721676000575,-4.062587340822345,-4.2035332119657856
1768730686332,122,-6,-5.593168842006974,-4.119932334147452,-4.270203483668049
1768730686336,122,-6,-5.641048741679674,-3.986832954994765,-4.307293027720853
1768730686340,122,-6,-5.530424340565698,-4.173898018907513,-4.1900693579305095
1768730686344,122,-6,-5.168849203508833,-3.9059336327124248,-3.831608567796061
1768730686348,123,-5,-4.6222365369804015,-3.233988716014484,-3.297263063800812
1768730686352,123,-5,-4.088718598014552,-2.9112182856830056,-2.776195378022474
1768730686356,124,-4,-3.638154710429997,-2.242372384428157,-2.3256878128236713
1768730686360,125,-3,-2.813780770455301,-0.9082375533082434,-1.4826548760312586
1768730686364,128,0,-0.4044210668283687,1.7781289224175083,0.9575799045098474
1768730686368,133,5,5.2405739429755585,7.082654404735914,6.6298079800987155
1768730686372,142,14,15.235716791847205,15.756266291666224,16.63415260362091
1768730686376,155,27,28.942848720273876,29.095731667792183,30.328475675267832
1768730686380,171,43,43.37387475026084,44.74912102426549,44.7323326698665
1768730686384,182,54,53.920372363622334,56.07767574921029,55.25175136332632
1768730686388,185,57,56.2960619274766,58.7458309101355,57.61501365302271
1768730686392,177,49,48.661262285490714,51.0102619221583,49.9908571914094
1768730686396,160,32,32.6462443331384,33.79245017223667,34.007454483977476
1768730686400,139,11,12.648535543367254,12.996893996035354,14.04947403732836
1768730686404,121,-7,-6.137240357698284,-5.116159237110356,-4.70634851269925
1768730686408,108,-20,-19.789069030828554,-18.0483076573818,-18.35078644219667
1768730686412,101,-27,-26.78240144141807,-25.109709734816132,-25.35889558216359
1768730686416,100,-28,-27.859077359363532,-26.13684073998112,-26.459685036862812
1768730686420,103,-25,-25.05522497382421,-23.081973663791057,-23.673151848869654
1768730686424,107,-21,-20.586119383833555,-19.09940797797436,-19.204997844877145
1768730686428,111,-17,-16.112015648794358,-15.080713842501442,-14.716423012391742
1768730686432,115,-13,-12.5225014707636,-11.075245385823916,-11.105839323736085
1768730686436,118,-10,-10.06615232981075,-8.253138207754441,-8.63212314049959
1768730686440,119,-9,-8.587181998934815,-6.948330299129209,-7.144924916275813
1768730686444,120,-8,-7.749179204599488,-6.329838047307986,-6.306080084680015
1768730686448,120,-8,-7.226586144596306,-5.775859867985042,-5.784215444929608
1768730686452,121,-7,-6.835663461384325,-5.443307230218363,-5.391158020334984
1768730686456,121,-7,-6.54955995202317,-4.871877172382844,-5.099769140195242
1768730686460,122,-6,-6.397111279414602,-4.36383839109702,-4.9409925215738655
1768730686464,121,-7,-6.3431311658906475,-4.976710690465936,-4.880863955738432
1768730686468,121,-7,-6.264621142396386,-5.059094504415366,-4.795965331871844
1768730686472,122,-6,-6.033216495312107,-4.271979155652986,-4.5577136553683975
1768730686476,122,-6,-5.606200479315687,-3.945218509657861,-4.124365240143449
1768730686480,123,-5,-5.040402133060569,-3.4459858151840597,-3.5535407478276837
1768730686484,123,-5,-4.438422999065994,-2.7932600696625585,-2.9470739703390376
1768730686488,124,-4,-3.8897309607886545,-2.3589826202684003,-2.3928939309425443
1768730686492,124,-4,-3.443070153773376,-1.9084433418212845,-1.939321053247415
1768730686496,125,-3,-3.1036455176752273,-1.3739123609916748,-1.5927143907928123
1768730686500,125,-3,-2.841435170014247,-1.0364119860135876,-1.3242019727552092
1768730686504,125,-3,-2.612737830437081,-1.203407568932412,-1.0897430229575846
1768730686508,125,-3,-2.391481183978565,-0.9970269776797476,-0.86213660946279
1768730686512,126,-2,-2.180290944541923,-0.243457008860676,-0.6438545258276693
1768730686516,126,-2,-1.980492778525153,-0.0927647045094606,-0.4371284453158301
1768730686520,126,-2,-1.7565274585608663,-0.3239505406780947,-0.2068217415615871
1768730686524,126,-2,-1.4512285457053429,0.0624855098055463,0.1048445932754329
1768730686528,127,-1,-1.0460894322036305,0.707109328387036,0.5168653428484733
1768730686532,127,-1,-0.5964916406965433,1.0598838532042785,0.9734065139691552
1768730686536,128,0,-0.1959709383274758,1.5695617083901676,1.3803200661986297
1768730686540,128,0,0.0971248053764198,1.9965578725770292,1.6796225210239726
1768730686544,128,0,0.2996913314379547,1.7284236084504214,1.889298766094103
1768730686548,128,0,0.4805433337105234,1.9854550253265075,2.078471429292455
1768730686552,129,1,0.7091396013217477,2.8297703612608087,2.3154419495089584
1768730686556,129,1,1.024440175528727,2.709777475513412,2.637901055117138
1768730686560,129,1,1.4289909572617328,2.9157822532386546,3.048598376809992
1768730686564,130,2,1.8892793410430655,3.712662383264021,3.515261394488847
1768730686568,130,2,2.346027342366504,4.030758465013346,3.979289060557376
1768730686572,131,3,2.747170628726085,4.738217147960883,4.388319172600883
1768730686576,131,3,3.083629735190437,4.812473687399754,4.73283627820432
1768730686580,131,3,3.3905045847370507,4.775455006147089,5.04774978862551
1768730686584,132,4,3.711109462121902,5.831785241216562,5.376114002170375
1768730686588,132,4,4.059749342042102,5.890533428073229,5.732057157389682
1768730686592,132,4,4.410996770677325,5.858540502357948,6.09053612600345
1768730686596,133,5,4.7148029913977645,6.703640544563,6.402080032739841
1768730686600,133,5,4.926759136854197,6.83352301753717,6.622247229373445
1768730686604,133,5,5.037003515165587,6.764981694400499,6.740638092114633
1768730686608,133,5,5.072358309197544,6.92151513068395,6.783828937564582
1768730686612,133,5,5.063335327201285,6.8307927888811175,6.782603617579946
1768730686616,133,5,5.006623050190868,6.7044553103199505,6.733868020431898
1768730686620,133,5,4.866340474556392,6.83192513818614,6.601511087916379
1768730686624,133,5,4.620212151667696,6.707967247768547,6.3630714664396
1768730686628,132,4,4.305177151867179,5.990958524610483,6.0559859283822135
1768730686632,132,4,4.01145927673009,5.720276225530312,5.771182526030488
1768730686636,132,4,3.827969080548472,5.823505232618913,5.597296142332736
1768730686640,132,4,3.790584515941385,5.683085502720252,5.568890289984819
1768730686644,132,4,3.869829082987398,5.8213642123374525,5.655612858199789
1768730686648,132,4,3.9868310140572234,5.889064016215557,5.779309088494513
1768730686652,132,4,4.033026385064611,5.7591370844377066,5.83297371054263
1768730686656,132,4,3.8947297231076567,5.8271289490494445,5.703522327003778
1768730686660,132,4,3.496159078603592,5.599568555697335,5.314247614540589
1768730686664,131,3,2.8451144359371203,4.924640032197734,4.671887272676106
1768730686668,130,2,2.035731823483428,3.743381671992208,3.87075663154952
1768730686672,129,1,1.1914934911184658,2.886622715588866,3.03521378986387
1768730686676,129,1,0.3975070130059155,2.7078888100593073,2.25049751196552
1768730686680,128,0,-0.316116013272282,1.6646673779654524,1.5459785658153506
1768730686684,127,-1,-0.9414693972398072,0.8758060148581128,0.929038190190546
1768730686688,127,-1,-1.4659268151074731,0.7456396316133362,0.4125397163312925
1768730686692,126,-2,-1.8850924511604337,-0.1251183266367694,0.0013949752309856
1768730686696,126,-2,-2.2330765779123443,-0.2944375985650367,-0.3383004806786336
1768730686700,126,-2,-2.5839506950438555,-0.3615916103824954,-0.6807346983289009
1768730686704,125,-3,-3.0065829573250085,-1.0973737440025046,-1.0947881925288536
1768730686708,125,-3,-3.504685543878134,-1.334048241749919,-1.5838657198860373
1768730686712,124,-4,-3.994854906571761,-2.0245586795491106,-2.0643530714333647
1768730686716,124,-4,-4.345753850233759,-2.4658828312102923,-2.4053521954762274
1768730686720,124,-4,-4.452639642289478,-2.150048393677865,-2.50301267439375
1768730686724,124,-4,-4.299147791802477,-2.3690750326412147,-2.3414346261634433
1768730686728,124,-4,-3.9718722764107905,-2.063079661862364,-2.0067883664514543
1768730686732,125,-3,-3.6199343333855136,-1.306734081739802,-1.6473474515534532
1768730686736,125,-3,-3.378827674123084,-1.2436917138441812,-1.3979612210966417
1768730686740,125,-3,-3.30215480867947,-1.3310129140896167,-1.3120314731490303
1768730686744,125,-3,-3.343611336660368,-1.270720626104339,-1.343583164884356
1768730686748,125,-3,-3.3948032047772605,-1.1251926862899049,-1.3849425283911354
1768730686752,125,-3,-3.348401635199276,-1.3111721974128754,-1.329349731764961
1768730686756,125,-3,-3.1502273307147224,-1.2268330880486022,-1.1226651304362418
1768730686760,126,-2,-2.8165353456469786,-0.3741149920882483,-0.7808317367641915
1768730686764,126,-2,-2.4134092222120005,-0.2489467057879548,-0.3695675355370371
1768730686768,126,-2,-2.019540559587776,-0.1572710187535717,0.0326456128600427
1768730686772,127,-1,-1.6984901857100922,0.6815315437490739,0.3621299196224021
1768730686776,127,-1,-1.48711849956785,0.7800051554007432,0.5818552416272103
1768730686780,127,-1,-1.3943641200209649,0.5846008122735331,0.6832057904140658
1768730686784,127,-1,-1.405781356851803,0.7900769341467591,0.6811596065327099
1768730686788,127,-1,-1.4856085324465318,0.7753489546327317,0.6112066888667567
1768730686792,127,-1,-1.5713448855360477,0.7165781832046374,0.5346993634629604
1768730686796,127,-1,-1.5786786339721917,0.7543947009156375,0.5352738866061331
1768730686800,127,-1,-1.4409790392393758,0.5593526681010936,0.6803138589631512
1768730686804,127,-1,-1.1664902873959506,0.8347967255376063,0.9628451908222548
1768730686808,128,0,-0.8521140855556789,1.675743733801106,1.2861867098006403
1768730686812,128,0,-0.618901714186216,1.817046266669358,1.5284065016746124
1768730686816,128,0,-0.5201460176677106,1.62625775507697,1.635552349388051
1768730686820,128,0,-0.5130758878683525,1.674430411592254,1.6506494289921545
1768730686824,128,0,-0.5207770562721843,1.6949218704051063,1.6511881047398618
1768730686828,128,0,-0.5175627876643831,1.791428458102743,1.6630448409443073
1768730686832,128,0,-0.5534572809286441,1.6906737184251763,1.6359172946854332
1768730686836,128,0,-0.698404248023068,1.732406496798905,1.4993920437492725
1768730686840,128,0,-0.9627623936571036,1.55673837928379,1.242842480503468
1768730686844,127,-1,-1.2720469577805449,0.7790501262024918,0.9410012083837966
1768730686848,127,-1,-1.5222971935686944,0.6866605961949608,0.6984318341899436
1768730686852,127,-1,-1.6618334027987882,0.7850095566014392,0.567245541710713
1768730686856,127,-1,-1.7181039592042062,0.6156904008630448,0.5199281364520787
1768730686860,127,-1,-1.746524267356087,0.6721567647960227,0.5004865661978921
1768730686864,127,-1,-1.7575379369412858,0.6253270016627934,0.4976271193554229
1768730686868,127,-1,-1.699092562044672,0.8122872297826702,0.5630071669858021
1768730686872,127,-1,-1.520984086600137,0.6623566011766082,0.7475753924803592
1768730686876,127,-1,-1.2661413635945735,0.6878258725879745,1.0096580045304326
1768730686880,128,0,-1.0878802232653586,1.6431597596798264,1.196148800387472
1768730686884,128,0,-1.1446904713335178,1.5593083754334824,1.1475043306491424
1768730686888,127,-1,-1.4533796610041043,0.9211022043301402,0.8462546143590832
1768730686892,127,-1,-1.8494374055538365,0.4733150259155132,0.4576738700470733
1768730686896,126,-2,-2.1091140344645303,-0.0914795667540135,0.206433037451847
1768730686900,127,-1,-2.122390050508339,0.3759323232350771,0.2019121489801036
1768730686904,127,-1,-1.9569645770246349,0.8251915468858089,0.3746951922812787
1768730686908,127,-1,-1.7718422420063848,0.6365569989005067,0.5651869471704598
1768730686912,127,-1,-1.6840039114462586,0.7168297988366643,0.6579050271081974
1768730686916,127,-1,-1.708821032885124,0.6763774382369554,0.6395009233494813
1768730686920,127,-1,-1.7935869258663175,0.5444129967087719,0.563118363762273
1768730686924,127,-1,-1.8752552446440984,0.6815746277902139,0.4904145427114423
1768730686928,127,-1,-1.9013290462312769,0.7421646243084732,0.4722937482186404
1768730686932,127,-1,-1.8195285502612275,0.5877606911498163,0.5607091874557488
1768730686936,127,-1,-1.5798219504991151,0.8102791588889859,0.80642596001542
1768730686940,128,0,-1.165288665045868,1.3427236716594295,1.2269304742389149
1768730686944,128,0,-0.6216866676912787,1.9191333260311008,1.7763692111985443
1768730686948,129,1,-0.0494163245020849,2.4520567320056266,2.3542299638823554
1768730686952,129,1,0.4449926281921486,2.873627981775736,2.854417822863669
1768730686956,130,2,0.8092439786855701,3.508121224272988,3.225278958956733
1768730686960,130,2,1.080258613291078,3.584246879207022,3.5038476239996412
1768730686964,130,2,1.3682481915105549,3.7196342927794106,3.7995986132809736
1768730686968,131,3,1.7924170545301965,4.572070599961371,4.230580310567914
1768730686972,131,3,2.4015004101720647,4.804090007478556,4.844884115719883
1768730686976,132,4,3.124477060406395,5.488010235753554,5.571951643021391
1768730686980,133,5,3.7845405033904944,6.634677468934202,6.236162593984222
1768730686984,133,5,4.1773521777036455,6.620934394399043,6.634101007899424
1768730686988,133,5,4.173502781849624,6.661871165698991,6.636340048277306
1768730686992,133,5,3.782930197637876,6.711589609793124,6.252096196272052
1768730686996,132,4,3.137957986301132,5.517147925206178,5.613137982907139
1768730687000,131,3,2.4045738810751773,4.622049733196917,4.885453903935889
1768730687004,131,3,1.6874062255412492,4.593292213611898,4.173725395947457
1768730687008,130,2,1.001286535496248,3.6896343835181167,3.4925168587031625
1768730687012,129,1,0.3193065358301874,2.669489395908892,2.814689417127907
1768730687016,129,1,-0.3628492355710117,2.517753374564818,2.1361692778944055
1768730687020,128,0,-1.0086781421772777,1.618100925431607,1.4941616458258218
1768730687024,127,-1,-1.5751497211994987,0.5531813579928815,0.9323556710497768
1768730687028,127,-1,-2.0517684040676176,0.7509569084377823,0.4611773689032301
1768730687032,127,-1,-2.4540508409089847,0.5637319277574349,0.064371258329319
1768730687036,126,-2,-2.7801353588845403,-0.3845714554147137,-0.2567454444598946
1768730687040,126,-2,-2.99301160012109,-0.5128259347961384,-0.4653051544065889
1768730687044,126,-2,-3.0609731416154538,-0.3331182254738596,-0.5300080558467672
1768730687048,126,-2,-3.013867546756152,-0.3750719485635159,-0.4811414756923464
1768730687052,126,-2,-2.9531306557142134,-0.3221971916168322,-0.4192899200023308
1768730687056,126,-2,-2.998505361155355,-0.5216110832306486,-0.4618788596610073
1768730687060,126,-2,-3.2021907779075347,-0.4141069504468484,-0.6591942119527712
1768730687064,126,-2,-3.488742361606231,-0.4333617844368662,-0.9363099971123444
1768730687068,125,-3,-3.684144859282218,-1.3159805924824677,-1.122669448060082
1768730687072,125,-3,-3.6455964885598706,-1.356236923825489,-1.08072195720489
1768730687076,126,-2,-3.398136841263976,-0.5505689202070378,-0.8393601237079336
1768730687080,126,-2,-3.1304532925106443,-0.3747509899690588,-0.5849372891894051
1768730687084,126,-2,-2.9846791741286935,-0.523761902501618,-0.4492062283713431
1768730687088,126,-2,-2.7280041650029916,-0.2079757227762924,-0.1870833389655133
1768730687092,128,0,-1.5026557734395385,1.4944213081890183,1.0622626773434272
1768730687096,132,4,2.1098619329033386,5.586773609897897,4.706082781271897
1768730687100,139,11,9.523095228261573,12.479306961187728,12.139771765658988
1768730687104,149,21,21.133518638792196,22.600765973562247,23.74799033692025
1768730687108,163,35,35.35423408482993,36.69389505133261,37.94546858239932
1768730687112,178,50,48.48071415538079,51.527917354145515,51.04001288659412
1768730687116,186,58,55.86978350648033,59.56432480906645,58.40436153831774
1768730687120,184,56,54.03359822156345,57.390681930529865,56.56337368348423
1768730687124,172,44,42.47535297357267,45.68499135326905,45.02400438063826
1768730687128,153,25,24.122161776311593,26.48671881677288,26.70534525805132
1768730687132,132,4,4.060266656461822,5.766746391869785,6.677197721437593
1768730687136,116,-12,-12.68607435050555,-10.664335364550896,-10.052107573035642
1768730687140,106,-22,-23.081883232338104,-20.318118770957025,-20.454136729926756
1768730687144,103,-25,-26.774204645863993,-23.55871816955749,-24.170074840395586
1768730687148,104,-24,-25.452490859970094,-22.338428402186473,-22.875432758629216
1768730687152,108,-20,-21.536700934892835,-18.401108284652224,-18.97636881820396
1768730687156,112,-16,-17.05086098596708,-14.599057978462351,-14.49018591972964
1768730687160,115,-13,-13.164225493187416,-11.340923472262276,-10.589102781716674
1768730687164,119,-9,-10.313180128350838,-7.611989906397951,-7.719883401285641
1768730687168,121,-7,-8.504188432653805,-5.280150104739584,-5.900245166973697
1768730687172,122,-6,-7.511413789232494,-4.525411716437524,-4.908890864136659
1768730687176,122,-6,-6.982063800060911,-4.470329411348837,-4.388257008071702
1768730687180,122,-6,-6.576343741319767,-4.486986981937849,-3.989840827434764
1768730687184,123,-5,-6.126359962426149,-3.4752841966805064,-3.541280938541856
1768730687188,124,-4,-5.669399936190985,-2.438861755470134,-3.082240591454572
1768730687192,124,-4,-5.30805215396111,-2.3853604441738847,-2.719877155516403
1768730687196,124,-4,-5.045079754577691,-2.639946400670879,-2.458381259283615
1768730687200,124,-4,-4.767279909014334,-2.314464812157012,-2.1827083795122135
1768730687204,125,-3,-4.375350006477619,-1.6982260582937467,-1.791937167420777
1768730687208,125,-3,-3.900250693284116,-1.2099921099424245,-1.317550913018113
1768730687212,126,-2,-3.4806970260057772,-0.636096104367273,-0.8996226390506024
1768730687216,126,-2,-3.231920282230942,-0.4209660617015385,-0.6535497189773118
1768730687220,126,-2,-3.1378062833016136,-0.518553927580927,-0.5619255632106215
1768730687224,126,-2,-3.06301523141464,-0.5854183674907427,-0.4881894025362883
1768730687228,126,-2,-2.8630137723574163,-0.2621488679934272,-0.2882182733836105
1768730687232,127,-1,-2.4868129442729217,0.3258540802127632,0.0870732479953586
1768730687236,127,-1,-1.99168699789032,0.6754805441645095,0.5788733551899186
1768730687240,128,0,-1.4816831544731666,1.3118394275215968,1.0837110436635888
1768730687244,128,0,-1.0412419497627257,1.5734464684457323,1.5195336805001602
1768730687248,128,0,-0.7108146239538145,1.5707084083017522,1.8477654610188263
1768730687252,129,1,-0.4888833161003024,2.4331062742437504,2.0693154906525977
1768730687256,129,1,-0.327781817353201,2.637420478818607,2.2294763915946785
1768730687260,129,1,-0.1352542101899665,2.2269612820795257,2.4189470440087995
1768730687264,129,1,0.1806397129361396,2.733971600035573,2.7302117247693976
1768730687268,130,2,0.6363894552506537,3.2972371528104314,3.181245057672188
1768730687272,130,2,1.140230025328261,3.7491837654161264,3.6810723754991654
1768730687276,131,3,1.549538743617014,4.308662402811066,4.08683811389712
1768730687280,131,3,1.7794330966310108,4.494123720511111,4.313123650796147
1768730687284,131,3,1.871001961937308,4.508153788186321,4.400888984471964
1768730687288,131,3,1.9602684019456385,4.39845465586883,4.486492787240207
1768730687292,131,3,2.1750410507749716,4.736701320511601,4.697968449133132
1768730687296,132,4,2.548470740752997,5.2360980131025965,5.068011919968594
1768730687300,132,4,3.018185335762281,5.600885078492125,5.533293135204901
1768730687304,133,5,3.4977534593332984,6.353959598193591,6.006908377663348
1768730687308,133,5,3.942868198057098,6.50073843204737,6.445444243973082
1768730687312,133,5,4.350582013339144,6.670053468144014,6.8477059314292665
1768730687316,134,6,4.710578222331763,7.23312924819566,7.204122417664284
1768730687320,134,6,4.985221701306996,7.653453382209042,7.475704872549779
1768730687324,135,7,5.154882953023208,8.212170917764341,7.640844788804016
1768730687328,134,6,5.267737698341534,7.660055559105682,7.747514710532674
1768730687332,134,6,5.410442779633178,7.4651408554736705,7.883946084270536
1768730687336,135,7,5.6141303785405485,8.441916359403493,8.082232274633377
1768730687340,135,7,5.802943603693591,8.432083344858485,8.265631316352405
1768730687344,135,7,5.850412078782729,8.395588940086451,8.306539521457003
1768730687348,135,7,5.68748356217775,8.467582262854304,8.136441431298826
1768730687352,134,6,5.357622544580787,7.624468549790494,7.800500121707556
1768730687356,134,6,4.981722089812001,7.262236729995,7.420212860900188
1768730687360,134,6,4.684495406153034,7.623653230255985,7.1188208204135695
1768730687364,134,6,4.545574038053697,7.152267128596183,6.974082421400082
1768730687368,133,5,4.5823933526683245,6.713412162099371,7.003228821303582
1768730687372,134,6,4.741911533449105,7.351008261398415,7.154484809631395
1768730687376,134,6,4.90703508307854,7.495176907885896,7.311855721599113
1768730687380,134,6,4.93920664524825,7.422927257340111,7.337056164446037
1768730687384,134,6,4.7426783691057,7.279602201970804,7.134223731454986
1768730687388,133,5,4.306204391924325,6.615758189808721,6.691810995426822
1768730687392,133,5,3.6960463996732,6.37258414405952,6.075505853400802
1768730687396,132,4,3.009220570851171,5.4917640525175155,5.381785418919877
1768730687400,131,3,2.315682748372452,4.400559975284434,4.680470929073204
1768730687404,131,3,1.6253980881958403,4.282780371269583,3.981752590170716
1768730687408,130,2,0.9049980895989488,3.611119195082985,3.2528263977260883
1768730687412,129,1,0.128734001134716,2.311058170887641,2.4688127621611593
1768730687416,128,0,-0.6822103941865931,1.580588478725177,1.6512519505759442
1768730687420,128,0,-1.4583987848507225,1.2652336742650787,0.8686265479857918
1768730687424,127,-1,-2.1113077794418063,0.4145215517065228,0.2080999811841666
1768730687428,126,-2,-2.5808195195123185,-0.5292277232783733,-0.2703303982683536
1768730687432,126,-2,-2.8819020090172804,-0.6121145435790867,-0.5806132812317875
1768730687436,126,-2,-3.1064417272873848,-0.4591971327441715,-0.8139263848247031
1768730687440,126,-2,-3.355510324404429,-0.7725777688609266,-1.0713396775372888
1768730687444,125,-3,-3.65235158537586,-1.4950196024249574,-1.37611712014644
1768730687448,125,-3,-3.9187744166001792,-1.7046940009769314,-1.6500928247571591
1768730687452,125,-3,-4.035477222293531,-1.421875334284426,-1.7744674793532629
1768730687456,125,-3,-3.931337552032584,-1.692881464261426,-1.678729205924877
1768730687460,125,-3,-3.6367550259061785,-1.539912605187355,-1.3933198096447303
1768730687464,126,-2,-3.2707971782011387,-0.7248214790303318,-1.036987841406506
1768730687468,126,-2,-2.9717801765783807,-0.5331569067301274,-0.7478379013873746
1768730687472,126,-2,-2.8191470925566513,-0.5898456633863534,-0.6049932146599459
1768730687476,126,-2,-2.804786362314123,-0.5756946412705395,-0.5997066251740444
1768730687480,126,-2,-2.8669556569316303,-0.6424378882135025,-0.6698947352704205
1768730687484,126,-2,-2.9413835938845616,-0.648728370407164,-0.7519370522368019
1768730687488,126,-2,-2.980270372434505,-0.6293814018220285,-0.7993122213642023
1768730687492,126,-2,-2.940855398653389,-0.5192409071898085,-0.7698975280343121
1768730687496,126,-2,-2.7853186651699735,-0.671621937743414,-0.625147962090381
1768730687500,126,-2,-2.512811335743427,-0.5488882014845335,-0.3629630711046452
1768730687504,127,-1,-2.1879676452438197,0.2365216343885829,-0.0476101400392747
1768730687508,127,-1,-1.9162954558513323,0.4677767026532256,0.2147580252863714
1768730687512,127,-1,-1.7742275825061364,0.3529198344033439,0.3471955438484311
1768730687516,127,-1,-1.75861083530465,0.4359849455061066,0.3530758362334807
1768730687520,127,-1,-1.8019153119595632,0.3340502521218897,0.3002414512569229
1768730687524,127,-1,-1.8324279934491103,0.3254414286618798,0.2601593745733113
1768730687528,127,-1,-1.822882046081523,0.3814475021755865,0.2596065001046272
1768730687532,127,-1,-1.7930096198101266,0.3879626866499364,0.2788464415706559
1768730687536,127,-1,-1.7758553209904533,0.4084583317797827,0.2854389992477812
1768730687540,127,-1,-1.7827195395586508,0.322459693806373,0.268630910427444
1768730687544,127,-1,-1.794190030396916,0.3343518152925209,0.24763789862778
1768730687548,127,-1,-1.7797575591699542,0.3520266270652405,0.2521685939262219
1768730687552,127,-1,-1.7289870817828463,0.3823475000993568,0.2921524875083006
1768730687556,127,-1,-1.672552103072676,0.4162564777417283,0.3373142497089316
1768730687560,127,-1,-1.6761034471119434,0.2705446250037879,0.322816722136289
1768730687564,127,-1,-1.801677351806188,0.3982572445945815,0.1869004973086927
1768730687568,127,-1,-2.0557020978200606,0.2440442260064061,-0.0772371438645622
1768730687572,126,-2,-2.3670001236432254,-0.5166849228562063,-0.3987370530800875
1768730687576,126,-2,-2.6251981502891915,-0.7135807529378195,-0.6672185095586878
1768730687580,126,-2,-2.7541238344513945,-0.6147516564525044,-0.8066192877931311
1768730687584,126,-2,-2.7566190344958033,-0.7266612414115574,-0.8201143338998906
1768730687588,126,-2,-2.696368245270253,-0.6572952168040385,-0.771413528936957
1768730687592,126,-2,-2.6423834704455973,-0.6218403533716326,-0.7290049988203608
1768730687596,126,-2,-2.625873542207729,-0.654720882511818,-0.7235109053015587
1768730687600,126,-2,-2.6360041549719924,-0.6683061671705213,-0.7440281159678728
1768730687604,126,-2,-2.6454255246234597,-0.7104526779365146,-0.7637061926737314
1768730687608,126,-2,-2.6381603060383405,-0.6709693984626435,-0.7671966747464205
1768730687612,126,-2,-2.6186104821605865,-0.6408693307516913,-0.759132971496514
1768730687616,126,-2,-2.600901133087964,-0.6557172704140681,-0.7532468790924258
1768730687620,126,-2,-2.59371739011332,-0.6851195465905335,-0.7574985342421248
1768730687624,126,-2,-2.5944678438761595,-0.7123240481397457,-0.7689110315916639
1768730687628,126,-2,-2.5935309937481774,-0.680726216302505,-0.778289560132464
1768730687632,126,-2,-2.5812314806331744,-0.6554632920500791,-0.7769002854163629
1768730687636,126,-2,-2.5540250964134636,-0.663778955180423,-0.7617209098577673
1768730687640,126,-2,-2.52115433993863,-0.6946671838363971,-0.7414489777027788
1768730687644,126,-2,-2.507095447749588,-0.7207804588648996,-0.7393960811714873
1768730687648,126,-2,-2.5366813014201677,-0.685100437482487,-0.779799457383322
1768730687652,126,-2,-2.5998215288914333,-0.6756914912380405,-0.8531345525642944
1768730687656,126,-2,-2.622897384551898,-0.6629353245026439,-0.8867532266892026
1768730687660,126,-2,-2.4899056843442793,-0.7189552520856786,-0.7649416995851426
1768730687664,126,-2,-2.1208220611356667,-0.7043152999359943,-0.407426099778736
1768730687668,127,-1,-1.5472733066697106,0.2689981217027288,0.1540130640735351
1768730687672,128,0,-0.908130602657192,1.3706640574094406,0.7801899579829867
1768730687676,128,0,-0.3616858244331311,1.2472172206869394,1.313613294272872
1768730687680,128,0,0.0069276220171188,1.3715955780601146,1.6707269878528637
1768730687684,129,1,0.2181705814411927,2.168112663284633,1.8721697784075209
1768730687688,129,1,0.3758516768776847,2.3816773738969617,2.019985244495151
1768730687692,129,1,0.6148051644628993,2.2479771966753295,2.247604121705173
1768730687696,129,1,1.0248785040163786,2.3463034881897413,2.645418275802936
1768730687700,130,2,1.5829185343130048,3.259289186320741,3.1913302903802307
1768730687704,131,3,2.157184176898118,4.247820799042131,3.7534708416807776
1768730687708,131,3,2.595865452046165,4.296787451903067,4.179530681768219
1768730687712,131,3,2.817572907141489,4.306579231113275,4.388736218572108
1768730687716,131,3,2.821363313577228,4.284019132073832,4.381204598491533
1768730687720,131,3,2.633362278934591,4.267049041849502,4.182837397126568
1768730687724,131,3,2.2692873028056777,4.252001696605794,3.807997666827548
1768730687728,130,2,1.7446277796634244,3.2501558781027846,3.2714870431725656
1768730687732,129,1,1.0937377042312333,2.372189762865573,2.608227600712675
1768730687736,129,1,0.3637113570194994,2.1653407512555036,1.8659479723477144
1768730687740,128,0,-0.4038845092364773,1.3783239492555526,1.0862550777751458
1768730687744,127,-1,-1.1817747550197824,0.1092456722758146,0.2964643612898838
1768730687748,126,-2,-1.954498652876166,-0.6043192312050947,-0.4878086819010281
1768730687752,126,-2,-2.703528247228791,-0.7907126872625976,-1.248321445971086
1768730687756,125,-3,-3.3826705855646773,-1.7067832757458992,-1.939214223080246
1768730687760,124,-4,-3.914354481618177,-2.7585667479427585,-2.48245251688036
1768730687764,124,-4,-4.231976713506281,-2.79270789171049,-2.8108713070951423
1768730687768,124,-4,-4.334599028963994,-2.6861719984576395,-2.924345060026452
1768730687772,124,-4,-4.294024890181455,-2.7504696618859037,-2.896426845594251
1768730687776,124,-4,-4.2080162294522925,-2.744320530134827,-2.825233790731388
1768730687780,124,-4,-4.149787339408523,-2.770492621882154,-2.781634106842241
1768730687784,124,-4,-4.150295128689336,-2.7856865517647456,-2.793124777852369
1768730687788,124,-4,-4.201978559540146,-2.7182402796560545,-2.8508931341184134
1768730687792,124,-4,-4.261626936608618,-2.7174687764093974,-2.9149073488501465
1768730687796,124,-4,-4.260795257084675,-2.811710538239761,-2.9231321577963985
1768730687800,124,-4,-4.147389336613724,-2.7178855225912493,-2.8284290860516372
1768730687804,124,-4,-3.9392330351203264,-2.8676180399835687,-2.6469664234175947
1768730687808,124,-4,-3.7015057928539306,-2.652653459975733,-2.4346612500277596
1768730687812,125,-3,-3.3593751329490367,-1.7732481122299109,-2.105333012310341
1768730687816,126,-2,-2.3935606552789443,-0.8090951394923369,-1.1351735335497315
1768730687820,129,1,0.323928556280916,2.296194645941809,1.5964802157486178
1768730687824,135,7,6.215726069702736,8.06157636769051,7.4971025909647135
1768730687828,143,15,16.10120005366932,16.442446743377815,17.373403962155006
1768730687832,156,28,29.11073370484904,29.115723477183906,30.35350811204439
1768730687836,170,42,42.215019767174,43.286959911534126,43.416297150457325
1768730687840,180,52,51.01638444704044,53.18424645945676,52.177593689696224
1768730687844,181,53,51.648907608740515,54.089930720383826,52.784683179613936
1768730687848,171,43,42.75471881134883,44.39634406562899,43.887408338661864
1768730687852,154,26,26.31328691697409,27.049378316552637,27.462671360488255
1768730687856,134,6,6.80756059907856,7.364105616634657,7.979808808290159
1768730687860,117,-11,-10.743928150202052,-9.88757837617305,-9.560545905833967
1768730687864,105,-23,-22.754918057256468,-21.79066821688507,-21.583302013326
1768730687868,100,-28,-28.075580201978248,-26.650696668020174,-26.93632886040431
1768730687872,101,-27,-27.759368505786885,-25.97244805405543,-26.6598379642051
1768730687876,104,-24,-24.01311864929366,-22.60375786035246,-22.94534949695649
1768730687880,109,-19,-19.0529792008716,-18.00107439959767,-18.000273327459468
1768730687884,113,-15,-14.411091452466056,-13.671344951523569,-13.35842751942946
1768730687888,117,-11,-10.8053673696041,-9.789277988368395,-9.747469064603262
1768730687892,120,-8,-8.349768659019466,-6.905512300116135,-7.29213454412331
1768730687896,121,-7,-6.83586706472627,-5.656039285395747,-5.7886218116331865
1768730687900,122,-6,-5.956801174513146,-5.035277468408116,-4.926673429831674
1768730687904,122,-6,-5.454289783203572,-4.5649427178845645,-4.4412635647002086
1768730687908,123,-5,-5.1770389648288955,-3.9644653679066457,-4.177260943442923
1768730687912,123,-5,-5.042533536128448,-3.714811659307141,-4.05306177070368
1768730687916,123,-5,-4.956520418348201,-3.8906480940900887,-3.9770178604750592
1768730687920,123,-5,-4.787645897829638,-3.835370763968339,-3.818806380827697
1768730687924,123,-5,-4.433380437348741,-3.729264154079242,-3.4754318447763244
1768730687928,124,-4,-3.9018549256410022,-2.8685939465390047,-2.9549936515775164
1768730687932,125,-3,-3.308631419980194,-1.7696319464076993,-2.373713539735908
1768730687936,125,-3,-2.784260299887279,-1.9191624866165016,-1.8618961946806427
1768730687940,125,-3,-2.385895085055259,-1.79298605161182,-1.475184292798248
1768730687944,126,-2,-2.085258036543831,-0.798712610756892,-1.1843881693476932
1768730687948,126,-2,-1.8139663991841657,-0.8162497840147602,-0.9221398154534088
1768730687952,126,-2,-1.5107647180552926,-0.8273936397387294,-0.629045043050479
1768730687956,127,-1,-1.1473874580887429,0.104550340632703,-0.2775744453858846
1768730687960,127,-1,-0.7384994482618955,0.1646065854779121,0.1186854951645699
1768730687964,127,-1,-0.3392865272696412,0.228412249307047,0.5062906346073626
1768730687968,128,0,-0.0230984301053632,1.141898558976509,0.8124259779856422
1768730687972,128,0,0.1639851950236814,1.205932556418344,0.9897893304167736
1768730687976,128,0,0.2449844106626788,1.0267617805106697,1.059962503089341
1768730687980,128,0,0.3044409225613189,1.2499170224185174,1.1076252853760893
1768730687984,128,0,0.4238153462336532,1.0893143478271456,1.2157564920218826
1768730687988,128,0,0.6187375617078741,1.3036969401955254,1.400911090224893
1768730687992,129,1,0.8480634618897052,2.007168092420523,1.6209968580266132
1768730687996,129,1,1.089962866613699,2.2109129996302315,1.852551024222458
1768730688000,129,1,1.3938291447088944,2.0499432397835458,2.1448183649665253
1768730688004,129,1,1.8309173062370356,2.247619444513305,2.57046449359069
1768730688008,130,2,2.3878463931395726,3.1628196658995207,3.116973084900989
1768730688012,131,3,2.9311274595444625,4.094294689076074,3.650110622406203
1768730688016,131,3,3.29939453948723,4.1556670436015,4.007609764608451
1768730688020,131,3,3.435841625086482,4.03157557218529,4.133115287798628
1768730688024,131,3,3.4326550225132566,4.2828256269674885,4.1199374216561235
1768730688028,131,3,3.455692141872034,4.076699714979657,4.1340576700058165
1768730688032,131,3,3.62721403094274,4.183388400949166,4.296529363758678
1768730688036,132,4,3.962372251151542,5.067124083750358,4.621315073412892
1768730688040,132,4,4.389583364750722,5.07547484033589,5.037042113198503
1768730688044,132,4,4.812816138404664,5.235950011166587,5.4490218100655055
1768730688048,133,5,5.160319773277896,6.083249958750537,5.7864039622607715
1768730688052,133,5,5.399728419573823,6.169702089361901,6.016493113802258
1768730688056,133,5,5.526560156348919,6.077953681343198,6.1340112210262285
1768730688060,133,5,5.5397670784260304,6.0357683232016734,6.137453467569071
1768730688064,133,5,5.427553380636727,6.247766371525753,6.01491014258443
1768730688068,133,5,5.182937239920534,6.0609128978748705,5.7596696571676524
1768730688072,132,4,4.83415881809051,5.151439985716218,5.400775593556824
1768730688076,132,4,4.453849505988766,5.14053833442039,5.011527218196784
1768730688080,132,4,4.136383519114322,4.881288541456625,4.685848663742723
1768730688084,131,3,3.96305220609484,4.452546148331757,4.50372897249926
1768730688088,132,4,3.9702800794645463,4.7560809567616715,4.500831103368463
1768730688092,131,3,4.124340055544646,4.523075567589599,4.643929076662794
1768730688096,132,4,4.3170823770956,4.698784948909347,4.825885818756662
1768730688100,132,4,4.4060634860143075,5.334111648553808,4.90482594937237
1768730688104,132,4,4.291886004171241,4.969303102740516,4.781542017150793
1768730688108,131,3,3.978099428404223,4.184131897520664,4.459696136371434
1768730688112,131,3,3.5622401495321507,4.148851384572879,4.036359006232313
1768730688116,131,3,3.16704468489779,3.9812794581722817,3.6329677258851754
1768730688120,130,2,2.86388189315171,3.1077420046680246,3.3198861787895044
1768730688124,130,2,2.6304096259725167,3.112465232911362,3.075284930679024
1768730688128,130,2,2.3610341816997975,3.0590041761783837,2.7952116297650953
1768730688132,129,1,1.9305044646190408,2.2430780681652513,2.355629445769107
1768730688136,129,1,1.281355616714084,1.8763569903526272,1.69882429013899
1768730688140,128,0,0.4781984436811697,1.1980612280887868,0.8881662416973497
1768730688144,127,-1,-0.3201184097198408,-0.0108709163422848,0.0816303363935329
1768730688148,126,-2,-0.964664198098933,-0.838598125326818,-0.5717976508933516
1768730688152,126,-2,-1.4200539683948763,-0.8536156261825887,-1.0364564565573182
1768730688156,126,-2,-1.7756521081872778,-1.0713236664240902,-1.4016930961907454
1768730688160,125,-3,-2.152493521494481,-1.8212472844134424,-1.7882442148591098
1768730688164,125,-3,-2.593104794801341,-2.081358933384234,-2.2377726074647586
1768730688168,124,-4,-3.0292532211713894,-2.7216705906949503,-2.6814647858445766
1768730688172,124,-4,-3.340858144327294,-3.064143051782968,-2.9998097416538174
1768730688176,124,-4,-3.4441884656645825,-2.787661899529244,-3.110422536043224
1768730688180,124,-4,-3.341952445394881,-3.1900631681868648,-3.016931478852757
1768730688184,124,-4,-3.112213534001269,-2.6851169202473555,-2.7971374188612463
1768730688188,125,-3,-2.857399002932298,-2.16949812275038,-2.552221195929634
1768730688192,124,-4,-2.652770027455695,-2.6391501737201892,-2.3561128795467874
1768730688196,125,-3,-2.5220916350628206,-2.189464903021353,-2.232303730915586
1768730688200,125,-3,-2.439609994407653,-1.85148415643974,-2.1561926823396136
1768730688204,125,-3,-2.345684416519362,-1.9914337949937395,-2.069544592768477
1768730688208,125,-3,-2.177712433009419,-1.950768912157806,-1.9099535745471663
1768730688212,125,-3,-1.915473542021512,-1.8058558556544744,-1.6563585311132234
1768730688216,126,-2,-1.608076375753157,-1.103674466808377,-1.3572958265945745
1768730688220,126,-2,-1.3469090961429848,-0.8798251046952958,-1.1042360563803115
1768730688224,126,-2,-1.2012287056941435,-1.0491087848440777,-0.9664485546721742
1768730688228,126,-2,-1.1744391358141977,-0.8724101155189508,-0.9470170444411368
1768730688232,126,-2,-1.214307032543963,-0.9297136472564068,-0.9936557831006876
1768730688236,126,-2,-1.2570335034421862,-0.988343157427787,-1.0430945853769005
1768730688240,126,-2,-1.2656051996449031,-0.985611276803522,-1.058939067532674
1768730688244,126,-2,-1.240944485859808,-0.9957791708473168,-1.0422394936078945
1768730688248,126,-2,-1.208050889714492,-0.9178091273147566,-1.0175631042286808
1768730688252,126,-2,-1.1919839755144837,-0.9351601895829124,-1.0092960713156909
1768730688256,126,-2,-1.2002437430610773,-0.9723420381742556,-1.0244499566257623
1768730688260,126,-2,-1.2204078761710166,-1.0212406188260768,-1.0506956445997595
1768730688264,126,-2,-1.2300478831773234,-0.9827969371327409,-1.0663728422294745
1768730688268,126,-2,-1.2106011159457557,-0.9467583575620948,-1.0538233423321703
1768730688272,126,-2,-1.1612223546343503,-0.9445282214421182,-1.012347673555085
1768730688276,126,-2,-1.111015629737674,-0.9486294194527456,-0.9701679353009556
1768730688280,126,-2,-1.119054043146023,-1.0822522892599742,-0.9853331331204008
1768730688284,126,-2,-1.2459325738085711,-0.9185311703132448,-1.1183497296970886
1768730688288,126,-2,-1.502841732015978,-1.0576179516172282,-1.3811333293389731
1768730688292,125,-3,-1.8217151198186547,-1.8404986389064064,-1.7061207046665046
1768730688296,125,-3,-2.088199908287513,-2.0685462588857124,-1.978890524613132
1768730688300,125,-3,-2.219450833094945,-1.9748021189696376,-2.116577685605772
1768730688304,125,-3,-2.2178189125080445,-2.0409905315564023,-2.121795376346902
1768730688308,125,-3,-2.1551332507412795,-1.9657636918896984,-2.066295269068782
1768730688312,125,-3,-2.109776224591225,-1.938863635016531,-2.02772614700598
1768730688316,125,-3,-2.1133888613583145,-1.999753865545573,-2.037054798598875
1768730688320,125,-3,-2.143091116595775,-2.0421898166681434,-2.0716983905804023
1768730688324,125,-3,-2.153793952916728,-2.010253731716123,-2.0877390571300745
1768730688328,125,-3,-2.1207476020090175,-1.9992849380943631,-2.061283262777769
1768730688332,125,-3,-2.0640391846625574,-1.9445801733866253,-2.0119098826637383
1768730688336,125,-3,-2.0411804862595333,-1.9783621087098624,-1.9956697184881076
1768730688340,125,-3,-2.1079969414045836,-2.119036814945963,-2.0676109015923148
1768730688344,125,-3,-2.2644990750112344,-1.9038965099270777,-2.2285775223495774
1768730688348,125,-3,-2.4250844772796434,-2.1832189539344866,-2.394323234529945
1768730688352,124,-4,-2.4556236858367813,-2.718578398822081,-2.430896981255059
1768730688356,125,-3,-2.2696077364024547,-2.275781668514908,-2.2508245525008084
1768730688360,125,-3,-1.90352773544059,-1.7851204905800224,-1.8900479507022832
1768730688364,126,-2,-1.491228532419541,-1.2967693324253284,-1.4829752820601412
1768730688368,126,-2,-1.153724799846498,-0.7837657737328492,-1.151258527353425
1768730688372,126,-2,-0.9108450872379444,-1.1355489583009026,-0.9144349422895768
1768730688376,126,-2,-0.6950234035939847,-0.916691540570773,-0.7042096172928558
1768730688380,127,-1,-0.4356632361117436,-0.0887263834598521,-0.449755974399062
1768730688384,127,-1,-0.1178391672152429,-0.1083989051849587,-0.1363159729419465
1768730688388,127,-1,0.2344333217290328,0.1318690597329741,0.2119708462728253
1768730688392,128,0,0.6165172799139829,0.8159037299077729,0.5900364680646051
1768730688396,128,0,1.0764336173648172,1.2045419061595926,1.045029795197054
1768730688400,129,1,1.679590423914712,1.6993312200437134,1.6421553259034294
1768730688404,129,1,2.4168320275544812,2.1348983574055675,2.3734244982267754
1768730688408,130,2,3.1347781168286746,2.8663562503382276,3.086598139858744
1768730688412,131,3,3.582899099309922,4.035586755552455,3.530604137973175
1768730688416,131,3,3.5756768155775966,4.020876656593746,3.5186027389470427
1768730688420,130,2,3.132643599615917,2.778998396502404,3.0703043192728683
1768730688424,129,1,2.4546229436594733,2.1333526202114967,2.3881551268038557
1768730688428,129,1,1.7580198115468957,1.7645147443501474,1.6891053801501577
1768730688432,128,0,1.1336015480802637,1.18047717630977,1.0622073189710457
1768730688436,128,0,0.5501279470809353,0.8458381017733099,0.4742174746060124
1768730688440,127,-1,-0.0429473770937325,-0.0814968214506759,-0.1252686339297617
1768730688444,126,-2,-0.6444862765559829,-0.974777529013824,-0.7330379505742841
1768730688448,126,-2,-1.2220146289414968,-1.230334067218103,-1.3149321257692264
1768730688452,125,-3,-1.7670329461829213,-1.747896442822892,-1.8626362573856143
1768730688456,125,-3,-2.304253615837805,-2.3267376103412714,-2.4022136440543735
1768730688460,124,-4,-2.845279127418797,-2.836206893516174,-2.9463228373459094
1768730688464,124,-4,-3.345798329875123,-3.3131590230670547,-3.4508005725371813
1768730688468,123,-5,-3.72186934401738,-3.876356241065639,-3.8312313724058225
1768730688472,123,-5,-3.9205544078536736,-4.131818726632351,-4.034161911218777
1768730688476,123,-5,-3.9816647889850234,-3.958126036683425,-4.0993400729204845
1768730688480,123,-5,-4.024165523242575,-4.182265891964724,-4.146134236858082
1768730688484,123,-5,-4.153603879737317,-4.046979062102983,-4.280139958528956
1768730688488,123,-5,-4.366416281660467,-4.098886760137694,-4.496448208071792
1768730688492,122,-6,-4.546306663413884,-5.011572503479747,-4.676675045286237
1768730688496,122,-6,-4.569972051466687,-4.994685479097558,-4.697805663334698
1768730688500,123,-5,-4.425919042081304,-4.2445814555468315,-4.5532632303650615
1768730688504,123,-5,-4.229238778286966,-3.925693491082595,-4.364464053336194
1768730688508,123,-5,-4.120377333426751,-4.309822724589267,-4.272360976959897
1768730688512,122,-6,-4.1277653796527645,-4.770900513883021,-4.296820214381009
1768730688516,123,-5,-4.038429865275597,-4.280051044774315,-4.212987810272155
1768730688520,124,-4,-3.263837193550162,-2.966156321007757,-3.4271973936297897
1768730688524,127,-1,-0.775290837174516,-0.1953560054691951,-0.9173546893646574
1768730688528,132,4,4.663216696730501,4.908440038931497,4.53851392249134
1768730688532,140,12,13.79894421671377,13.0529928113177,13.6755825422692
1768730688536,152,24,25.95682590860268,24.821894739098923,25.815681622987395
1768730688540,165,37,38.52133967142024,37.9753616147299,38.349994954153
1768730688544,175,47,47.47256672696766,47.812943014026814,47.271112841601926
1768730688548,177,49,48.997255700711,49.86667721922203,48.77844310485803
1768730688552,169,41,41.3805290060258,42.05296110951594,41.16458886606574
1768730688556,153,25,26.040650881821534,25.70367156677403,25.846306353887652
1768730688560,133,5,7.031331838614741,6.1238184729738805,6.866410179913192
1768730688564,116,-12,-10.712408233533214,-11.365765069968017,-10.85568570834193
1768730688568,103,-25,-23.368678681385,-23.85886770290504,-23.51001505590894
1768730688572,98,-30,-29.41971443833582,-29.206803182463307,-29.579942292605327
1768730688576,98,-30,-29.612123387283766,-29.048631935744304,-29.801652921102207
1768730688580,101,-27,-26.01273479387169,-26.138086606037113,-26.226551796986364
1768730688584,106,-22,-20.869020909148748,-21.170189203687812,-21.091360023393975
1768730688588,111,-17,-15.846354076524134,-16.031186491760494,-16.06148752671739
1768730688592,115,-13,-11.805197345790496,-12.103234109786577,-12.00655465047404
1768730688596,118,-10,-8.955057089391374,-9.155653935548838,-9.146790302055392
1768730688600,120,-8,-7.136744967024723,-7.083654848188437,-7.328062199235033
1768730688604,121,-7,-6.067078540532503,-6.242175872933077,-6.264750633157139
1768730688608,121,-7,-5.487801060644556,-5.944807833457805,-5.692627269151317
1768730688612,122,-6,-5.216059538739286,-5.216686722882293,-5.424962194612706
1768730688616,122,-6,-5.117155191147988,-5.04524820493444,-5.3274671523466495
1768730688620,122,-6,-5.054237403030478,-5.235195031208005,-5.265558896283052
1768730688624,122,-6,-4.886539856043996,-5.103738405101285,-5.099363210289504
1768730688628,122,-6,-4.532233467111668,-5.071657401479197,-4.746404882206367
1768730688632,123,-5,-4.023274322485792,-4.136126662054972,-4.238501763473051
1768730688636,124,-4,-3.472157783403894,-3.0907296674880107,-3.689082202685195
1768730688640,124,-4,-2.9713813029256797,-3.2845490500184047,-3.1909276900966224
1768730688644,124,-4,-2.5314150007777725,-3.0029863833947497,-2.753241013320718
1768730688648,125,-3,-2.1152133877415995,-2.243613541510623,-2.337835530846591
1768730688652,125,-3,-1.709768605579385,-1.932613491861943,-1.9324391052976857
1768730688656,126,-2,-1.3440837205448806,-1.3391602591466694,-1.5677572928345072
1768730688660,126,-2,-1.0456455242692886,-1.0375065149261793,-1.27159683303834
1768730688664,126,-2,-0.8031729598051951,-1.2843809309594565,-1.031169481113294
1768730688668,126,-2,-0.5804532986292645,-0.968790167661422,-0.8091139679796979
1768730688672,127,-1,-0.3511145410786573,-0.2245533932160888,-0.5799741761694004
1768730688676,127,-1,-0.1065108413603592,-0.0591055199151437,-0.3367007215410973
1768730688680,127,-1,0.1560443844244665,-0.3321281251041013,-0.0764662907791193
1768730688684,127,-1,0.4295358672123102,-0.0162255346790261,0.1953113032204081
1768730688688,128,0,0.6879873781948456,0.7483446945515762,0.4533375082537705
1768730688692,128,0,0.908634332790692,1.0365581416383338,0.6739190573654448
1768730688696,128,0,1.1103384158723024,0.6910047186405046,0.8749582407607612
1768730688700,128,0,1.3507573564853912,0.8704559975212354,1.1140976135028131
1768730688704,129,1,1.672925019381755,1.7930429493107118,1.43473215632925
1768730688708,129,1,2.0581687311609116,1.8735913634548331,1.8185409379371156
1768730688712,129,1,2.432541889380404,1.9498257319628536,2.1920401357722623
1768730688716,130,2,2.719075349403095,2.735106903432943,2.4783644799243167
1768730688720,130,2,2.8965651175095934,2.828219758730011,2.65559546064814
1768730688724,130,2,3.0205891745721467,2.7930951230233596,2.778580624128134
1768730688728,130,2,3.1798606053097145,2.858004343342555,2.9363664874866355
1768730688732,130,2,3.4151380106589357,2.966656852749242,3.1707083653604213
1768730688736,131,3,3.6783170779424745,3.693637677393967,3.4338015108292623
1768730688740,131,3,3.881662757852943,3.8787837656183415,3.6371461466109194
1768730688744,131,3,3.992058537725823,3.681995266611985,3.7468399240431216
1768730688748,131,3,4.069483480935052,3.977552207799966,3.82304849150906
1768730688752,131,3,4.202777637680861,3.820776406568947,3.955475211821226
1768730688756,131,3,4.4048500338711465,3.8283969477019655,4.157335096937826
