timestamp_ms,ecg_u8_raw,ecg_counts_raw_int,ecg_counts_filt_monitor,ecg_counts_filt_diagnostic,ecg_counts_filt_st
1770452347096,129,1,3.226948190253092,1.697453407222449,1.3967211559084527
1770452347100,128,0,2.231125256094575,0.5076441179951074,0.4175939479914189
1770452347104,126,-2,0.9036569720877574,-1.2843105034831646,-0.8921733701780279
1770452347108,125,-3,-0.3737914680431757,-2.344936349718344,-2.1514904546587865
1770452347112,124,-4,-1.2541672050647668,-3.1595053776464956,-3.0146573750099512
1770452347116,124,-4,-1.62194029622569,-3.428953359997301,-3.367071464114588
1770452347120,124,-4,-1.6220189611284015,-3.3550577559170924,-3.352939509955213
1770452347124,124,-4,-1.5290697821666026,-3.434105997010113,-3.2452987009086356
1770452347128,124,-4,-1.5658359084056857,-3.197127744763657,-3.2660554044337418
1770452347132,124,-4,-1.7920034059091576,-3.3331841519112575,-3.475182703961936
1770452347136,123,-5,-2.1264356408767573,-4.237656570239396,-3.7918607398505486
1770452347140,123,-5,-2.4653325263276633,-4.558231767519584,-4.112337573622781
1770452347144,123,-5,-2.7775607294549465,-4.211077556419146,-4.406075949470007
1770452347148,123,-5,-3.084927153563929,-4.453026492115364,-4.695833733833514
1770452347152,122,-6,-3.367964986219457,-5.066559200168678,-4.962047521336936
1770452347156,122,-6,-3.5268011908956933,-5.504563111712067,-5.103650799276698
1770452347160,122,-6,-3.4546540019421146,-5.308526777917682,-5.013403893861983
1770452347164,123,-5,-3.1422747747555793,-4.428338985234091,-4.683062777014458
1770452347168,123,-5,-2.7022392397291815,-4.286379155273028,-4.225886216419542
1770452347172,123,-5,-2.2968455143009754,-4.18582900864068,-3.803128054400635
1770452347176,124,-4,-2.036915940877129,-3.4320750579281274,-3.524214051148342
1770452347180,124,-4,-1.9194127132486287,-3.3562542409168814,-3.386390081025194
1770452347184,124,-4,-1.8385220516716505,-3.4019341768652116,-3.2854630927018267
1770452347188,124,-4,-1.6720542831087168,-3.308978685378464,-3.1002583527672876
1770452347192,124,-4,-1.3939422830454904,-3.153454247477121,-2.8043748239401296
1770452347196,125,-3,-1.1198365402007486,-2.4956696745143794,-2.5126923456766432
1770452347200,125,-3,-1.0271939582068197,-2.2517809049947988,-2.4021470737852817
1770452347204,125,-3,-1.2022565548830697,-2.565412369361495,-2.558341758378343
1770452347208,124,-4,-1.5454337320549774,-3.085248416927301,-2.880842877782844
1770452347212,124,-4,-1.820493002111585,-3.448061487701099,-3.133478813041848
1770452347216,124,-4,-1.8048709514168229,-3.147178890677119,-3.095492008927212
1770452347220,125,-3,-1.4219321349200638,-2.6453175644357567,-2.692575793390213
1770452347224,125,-3,-0.7754227570782527,-2.128075350746722,-2.028953732152977
1770452347228,126,-2,-0.0931192871282021,-1.5560033269032356,-1.330333150197834
1770452347232,126,-2,0.3733560507723518,-0.9659369128311897,-0.8456509974723916
1770452347236,127,-1,0.4554594991870052,-0.6577205132958579,-0.7424815834915806
1770452347240,126,-2,0.1485530510765587,-1.120137258790347,-1.026558565945877
1770452347244,126,-2,-0.3762275150641615,-1.6553050578647786,-1.5284712945294467
1770452347248,125,-3,-0.8531660039679968,-2.035798033928504,-1.9834882454634488
1770452347252,125,-3,-1.0618434639692165,-2.4787667036680685,-2.171281902611117
1770452347256,125,-3,-0.9412357774412808,-2.1853036702179685,-2.0306951813126233
1770452347260,126,-2,-0.6038688834145545,-1.5284770612929233,-1.6741827447519082
1770452347264,126,-2,-0.2485590362556932,-1.3173223432568475,-1.3000117566780098
1770452347268,126,-2,-0.0452318326781086,-1.2916591011018657,-1.0768460950134366
1770452347272,126,-2,-0.0695113846933846,-1.3315199897758048,-1.079374319414132
1770452347276,126,-2,-0.3014068251451308,-1.25679367475807,-1.2881206596923738
1770452347280,126,-2,-0.6542078964646864,-1.521489831466884,-1.6178214117290306
1770452347284,125,-3,-1.0116660699664275,-2.2606850982316016,-1.9531247080339127
1770452347288,125,-3,-1.2738695315001758,-2.387851755092172,-2.1940716474695527
1770452347292,125,-3,-1.3989693519968291,-2.2339691333007847,-2.298552460159292
1770452347296,125,-3,-1.4133324810518109,-2.3668121912970235,-2.292670715724088
1770452347300,125,-3,-1.3846978040574167,-2.406614183772279,-2.2434432554314783
1770452347304,125,-3,-1.3807056247933966,-2.354944509305543,-2.2175907340966035
1770452347308,125,-3,-1.4328120413132934,-2.3158585548316015,-2.246516639251007
1770452347312,125,-3,-1.5141586370359144,-2.314001499855302,-2.304458488855058
1770452347316,125,-3,-1.5456447051810565,-2.2976263462344964,-2.3134090553621713
1770452347320,125,-3,-1.4445375083148584,-2.4676221541435925,-2.190632844298684
1770452347324,125,-3,-1.194925187330654,-2.2769755154754625,-1.919544409542612
1770452347328,126,-2,-0.8787890651363298,-1.4141319863623216,-1.5818589960930285
1770452347332,126,-2,-0.6260607274469346,-1.2180706491049715,-1.307571414747159
1770452347336,126,-2,-0.5214518266673152,-1.4132444060366225,-1.180908524407612
1770452347340,126,-2,-0.5527677234664448,-1.3326189025992072,-1.1888992077962264
1770452347344,126,-2,-0.6390501984854601,-1.412542760243012,-1.2508934065312782
1770452347348,126,-2,-0.6987727881523167,-1.2971772029588025,-1.2870376752918602
1770452347352,126,-2,-0.6990381972734021,-1.3167619254076737,-1.2657513666897706
1770452347356,126,-2,-0.6648735817631201,-1.3657835916047971,-1.2112796037190443
1770452347360,126,-2,-0.6592486953252161,-1.309520325944677,-1.1842639371781745
1770452347364,126,-2,-0.7430130016280617,-1.5032592740005672,-1.244141677140267
1770452347368,126,-2,-0.922431577357098,-1.155237874647892,-1.3982432127776288
1770452347372,126,-2,-1.116870536009784,-1.5066733385211974,-1.5683002383698583
1770452347376,125,-3,-1.1946929388191985,-2.171931693891753,-1.6239042481165973
1770452347380,126,-2,-1.0771486843221854,-1.4721077538976504,-1.4854665633716664
1770452347384,126,-2,-0.8265785254113087,-1.3893730606623858,-1.2135970065041408
1770452347388,126,-2,-0.6202226794205358,-1.2133026201263108,-0.9845359947203216
1770452347392,127,-1,-0.6055430210170961,-0.5173821773372635,-0.9459384149184762
1770452347396,126,-2,-0.7535228804274983,-1.1128252325190349,-1.0693817896270192
1770452347400,126,-2,-0.851293539708708,-1.573249018192854,-1.1423538299008362
1770452347404,126,-2,-0.6609234375046606,-1.262873920543007,-0.927543127870088
1770452347408,127,-1,-0.1131688961757363,-0.3491032952223662,-0.3569443375316163
1770452347412,128,0,0.6319658330804547,0.5989422209367585,0.408853029508367
1770452347416,128,0,1.3009345883864187,0.8169504270022059,1.0977788390958478
1770452347420,129,1,1.6954540792764845,1.4270510679144943,1.5141787254952004
1770452347424,129,1,1.8190826024303857,1.80136620487637,1.6629210550288855
1770452347428,129,1,1.8720174787029396,1.508538368482586,1.743051702550602
1770452347432,129,1,2.126829680052863,1.7935226979225796,2.0245841468624777
1770452347436,130,2,2.759760118648832,2.6106625080838453,2.681609114100826
1770452347440,131,3,3.7357884204724767,3.6128327813935375,3.678688819545253
1770452347444,132,4,4.810271272431555,4.662691385687358,4.77279837243871
1770452347448,133,5,5.637792982179487,5.560750644576955,5.6210823568375865
1770452347452,133,5,5.9255957530908425,5.831907049680541,5.932286824636416
1770452347456,133,5,5.559198987617073,5.472870937793866,5.591206674706211
1770452347460,132,4,4.646032690783802,4.838042584298004,4.70331982651122
1770452347464,131,3,3.4551730916036387,3.353213970659726,3.5367006458427213
1770452347468,129,1,2.2812393164260736,1.92385988517637,2.386642648950701
1770452347472,129,1,1.3152207971293102,1.434000039114263,1.4449203789643728
1770452347476,128,0,0.6084433328979878,0.895069628063268,0.7622848781691751
1770452347480,128,0,0.1331570225071993,0.4062591042616508,0.3098371869461476
1770452347484,127,-1,-0.1510300815942302,-0.2113331412538674,0.0471838016173979
1770452347488,127,-1,-0.3032292479395906,-0.5345989455952581,-0.0835318835021035
1770452347492,127,-1,-0.4474637044284846,-0.0986881535971632,-0.2052055997639128
1770452347496,127,-1,-0.7599165942422181,-0.5759284178214903,-0.4938231390295042
1770452347500,126,-2,-1.362549652699146,-1.1242875030686306,-1.0716742432559627
1770452347504,126,-2,-2.204910339860991,-1.6639416663834292,-1.8887160797950584
1770452347508,124,-4,-3.0514087011512507,-3.1406255583646416,-2.710039274312158
1770452347512,124,-4,-3.6096401943921768,-3.4420536639840984,-3.244319131529008
1770452347516,124,-4,-3.7148639462274153,-3.284567430138892,-3.327526166627093
1770452347520,124,-4,-3.4352384524581647,-3.342798721779598,-3.0270016160874285
1770452347524,125,-3,-3.0221106501859727,-2.511233487534398,-2.591883293683093
1770452347528,125,-3,-2.7420095745034296,-2.246204681689147,-2.2871554862850045
1770452347532,125,-3,-2.7053512229308003,-2.4136366298108007,-2.2244179445310563
1770452347536,125,-3,-2.804644091364456,-2.250521137266441,-2.299533846838693
1770452347540,125,-3,-2.7969269601701847,-2.4130013220684243,-2.271754635836295
1770452347544,125,-3,-2.457588410851203,-2.4193907227532465,-1.9147003094662671
1770452347548,126,-2,-1.6662849364995012,-1.3510977964693618,-1.1032354173840917
1770452347552,128,0,-0.328976420404975,0.6686594298779029,0.2604450205043429
1770452347556,130,2,1.7977662542506536,2.6996477832787846,2.4192721537574524
1770452347560,133,5,5.156847526608267,5.621441032941833,5.811425869386836
1770452347564,138,10,10.13085371488128,10.560988447085958,10.813228937981624
1770452347568,144,16,16.555234191923777,16.64346631738763,17.256015900343847
1770452347572,151,23,23.361849868809465,23.668192427993574,24.07268518962703
1770452347576,157,29,28.723532878076277,29.720459438201825,29.442574082412214
1770452347580,159,31,30.76626427017632,31.590610122428867,31.500129670603275
1770452347584,157,29,28.50337801854569,29.559629128398733,29.26355925228991
1770452347588,151,23,22.43161185500722,23.62499814753852,23.227572374664767
1770452347592,142,14,14.38262330731684,14.630797744760176,15.216629811638493
1770452347596,134,6,6.668193043613606,6.8336614531210955,7.53497291781258
1770452347600,129,1,1.0139043816900966,1.473549257251111,1.9040183133123303
1770452347604,126,-2,-2.0807856383088237,-1.282214157682075,-1.1765374486216598
1770452347608,126,-2,-3.2244542695269947,-1.5448568151181088,-2.310957438846073
1770452347612,125,-3,-3.4635685339191595,-2.228503116056719,-2.5385490755233246
1770452347616,124,-4,-3.602787433162713,-3.2827025274056796,-2.6574622642842183
1770452347620,124,-4,-3.9342953670031706,-3.447850894985211,-2.959022903818147
1770452347624,124,-4,-4.3814844707634935,-3.3343478946392273,-3.372983762453753
1770452347628,124,-4,-4.776289122732219,-3.5404735647534684,-3.7396955997755184
1770452347632,123,-5,-5.033994450236993,-4.19556169851337,-3.9775039109551615
1770452347636,123,-5,-5.186006586429958,-4.341226441423835,-4.113701928714272
1770452347640,123,-5,-5.33135058342059,-4.370468229974657,-4.241158769367883
1770452347644,123,-5,-5.553452952062917,-4.437051145970224,-4.440842775163441
1770452347648,123,-5,-5.840105819190064,-4.434160329228043,-4.7025099912175925
1770452347652,122,-6,-6.066597596866984,-5.299781665496697,-4.904592305986846
1770452347656,122,-6,-6.076551445058241,-5.242513878754097,-4.89235932007765
1770452347660,123,-5,-5.805613246948932,-4.463060949255904,-4.601321002506085
1770452347664,123,-5,-5.339049552884973,-4.363544440006496,-4.115453553700285
1770452347668,124,-4,-4.8503690368124355,-3.501748277904903,-3.606412147504124
1770452347672,124,-4,-4.474776578236918,-3.2212482093399526,-3.2081607686214433
1770452347676,124,-4,-4.219847217717444,-3.3466196761998757,-2.929084036842484
1770452347680,125,-3,-3.9776256423779257,-2.3494156787560656,-2.6638468280736824
1770452347684,125,-3,-3.6286851866974783,-2.485654426220309,-2.294903275249962
1770452347688,125,-3,-3.1691535064672163,-2.4031275920202586,-1.8173341399249587
1770452347692,126,-2,-2.762613102391477,-1.2553209724668604,-1.3918406532351673
1770452347696,126,-2,-2.6455114473952097,-1.3968497686302532,-1.2533466873090005
1770452347700,126,-2,-2.923483681049025,-1.2333125830503344,-1.5086236636704775
1770452347704,126,-2,-3.4220593456748474,-1.6630608626919452,-1.9850317464086311
1770452347708,124,-4,-3.7545004562300446,-3.199447830361586,-2.2961254233511337
1770452347712,125,-3,-3.5901341495736503,-2.461571946264317,-2.1105093962105252
1770452347716,126,-2,-2.902972012640604,-1.1943691672482553,-1.4024284855368143
1770452347720,127,-1,-1.979774012340296,-0.4348017131391498,-0.4598933106786957
1770452347724,128,0,-1.1913655287818248,0.5431017215813811,0.3459406097928722
1770452347728,128,0,-0.7429981448289236,0.5832228950722148,0.8114507812302563
1770452347732,128,0,-0.6051380127732285,0.7355085319101982,0.9684951843249392
1770452347736,128,0,-0.6311594396381848,0.6240861955598502,0.9645755397495522
1770452347740,128,0,-0.7044761603805854,0.715542530747706,0.914796668537214
1770452347744,129,1,-0.7717789976476478,1.4432499470249804,0.8698209923452298
1770452347748,128,0,-0.7736601351855299,0.6461582731477717,0.8874053993025267
1770452347752,128,0,-0.6034751679073671,0.6741977788885773,1.0745611039898453
1770452347756,129,1,-0.1789200818841857,1.6850537904801466,1.5152664697715608
1770452347760,129,1,0.4378005072406858,1.6250228006356189,2.149082931108578
1770452347764,130,2,1.0128910277276877,2.592774157848032,2.7431714715723907
1770452347768,131,3,1.2761838102402878,3.446922395995357,3.027022015696182
1770452347772,130,2,1.1333540013582923,2.904166704753654,2.905012578613389
1770452347776,130,2,0.7707205551951458,2.3893835771172203,2.562267778390739
1770452347780,129,1,0.5345081689330935,1.974140293824509,2.3446058014361597
1770452347784,130,2,0.6638801418118307,2.200454791264203,2.491420369692924
1770452347788,130,2,1.1010301008642145,2.896367788990254,2.9453570724722096
1770452347792,131,3,1.544904812875553,3.417153398308351,3.4058346514035747
1770452347796,131,3,1.705696753401964,3.86000955155856,3.58361797191891
1770452347800,131,3,1.5417301043475586,3.533462506679195,3.4377927018243524
1770452347804,130,2,1.2745317115837589,2.5741650277608628,3.1902147481573864
1770452347808,130,2,1.1780963051225355,2.617138566075968,3.113585052137216
1770452347812,131,3,1.3445218448200738,3.593859521951134,3.2974006372074967
1770452347816,131,3,1.6339778121110815,3.772326315431288,3.600777421860207
1770452347820,131,3,1.8230855357679752,3.5410054384128253,3.8029760825228704
1770452347824,131,3,1.7941160714393445,3.6258905564319783,3.790306583828888
1770452347828,131,3,1.6190844250161578,3.520668676037751,3.635601476775528
1770452347832,131,3,1.509050636488812,3.6911144061290977,3.546449420453022
1770452347836,131,3,1.6730146485405384,3.6982302933921978,3.7279581150274472
1770452347840,131,3,2.1530590307329245,3.5742742562306726,4.221671731249676
1770452347844,132,4,2.731397213083438,4.649527622413729,4.812079388121171
1770452347848,133,5,3.00609133634298,5.4294602126889675,5.099449592236706
1770452347852,132,4,2.6270156083301397,4.822899054606708,4.73467076850817
1770452347856,131,3,1.5315422002277337,3.5366273901194027,3.655619278652098
1770452347860,129,1,-0.0047541943021985,1.742498319862202,2.1377546385181847
1770452347864,128,0,-1.533964376002622,0.476317141233763,0.6273571677143757
1770452347868,127,-1,-2.679907756220566,-0.4133545206294831,-0.5018999279024146
1770452347872,126,-2,-3.2973886215392256,-1.3038627117184012,-1.1059771322052396
1770452347876,126,-2,-3.484519060381288,-1.3571382439001982,-1.2817499084654054
1770452347880,126,-2,-3.4854513404485763,-1.339047565816565,-1.2712810713721838
1770452347884,126,-2,-3.5546511382626784,-1.4859835181355363,-1.3280958237103375
1770452347888,126,-2,-3.8469719859865914,-1.437759190943969,-1.6072137018729142
1770452347892,125,-3,-4.377453753949541,-2.281890791755251,-2.1235666155599833
1770452347896,124,-4,-5.05383059243438,-3.3828594078321506,-2.7844834081471315
1770452347900,124,-4,-5.732903738801586,-3.306957957495878,-3.4475569934917667
1770452347904,124,-4,-6.24839721393468,-3.536349557581823,-3.948535113932293
1770452347908,123,-5,-6.42749300397574,-4.398442418125719,-4.11556112710915
1770452347912,123,-5,-6.159402834912778,-4.279934719009655,-3.836553409232699
1770452347916,124,-4,-5.506068215542675,-3.435221672486146,-3.171904747124041
1770452347920,125,-3,-4.740672201484721,-2.207799808287528,-2.395136775832051
1770452347924,126,-2,-4.231344769870827,-1.6901174262646963,-1.8756574935635637
1770452347928,125,-3,-4.238094494375573,-2.216836682080165,-1.8732706900821745
1770452347932,125,-3,-4.775506469784301,-2.4678715367260864,-2.4004735077454944
1770452347936,124,-4,-5.623551631419785,-3.276340867555366,-3.2352509535499268
1770452347940,123,-5,-6.445774088582154,-4.3334612212745105,-4.041439377998733
1770452347944,123,-5,-6.921719719119741,-4.6153441376788695,-4.501739807492674
1770452347948,123,-5,-6.834300133336557,-4.22444026567544,-4.403220805154378
1770452347952,124,-4,-6.118128820872494,-3.5180298089197786,-3.6819708227229455
1770452347956,124,-4,-4.901139515397659,-3.17961540137327,-2.462543437125743
1770452347960,126,-2,-3.5175879861614057,-1.4846227279614417,-1.0734181605184157
1770452347964,128,0,-2.406646869409491,0.565461196329961,0.0492526114372703
1770452347968,128,0,-1.87429531651539,0.5780522612209217,0.5972162342900588
1770452347972,128,0,-1.871021488324137,0.6865964574764678,0.6147499983514901
1770452347976,128,0,-2.0110942768878743,0.6075114224872107,0.4839525242990462
1770452347980,127,-1,-1.889952227176651,-0.2993897887503115,0.6099307210854203
1770452347984,128,0,-1.4705409927201851,0.391272324393307,1.0329446629508463
1770452347988,129,1,-1.1839649897483204,1.771749917218018,1.3243147714340324
1770452347992,129,1,-1.5963627199975607,1.489704799462387,0.9184373663896516
1770452347996,127,-1,-2.8953884019334835,-0.1992178884354116,-0.3719775045713616
1770452348000,125,-3,-4.656120926065179,-2.5205460333428005,-2.1212566144926868
1770452348004,123,-5,-6.112711697971004,-4.425203330146559,-3.564858172536041
1770452348008,123,-5,-6.7023811988413335,-4.345455434149363,-4.144884385295451
1770452348012,124,-4,-6.419837116674601,-3.426058459224926,-3.860895127521621
1770452348016,124,-4,-5.723842395365712,-3.2063638843232556,-3.1703029008952006
1770452348020,125,-3,-5.130834020659407,-2.617086823384427,-2.580709838331563
1770452348024,125,-3,-4.83578925573298,-2.2925899759879824,-2.2776840196596524
1770452348028,125,-3,-4.6030983964028565,-2.5303645439340388,-2.025078784413396
1770452348032,126,-2,-3.9483374900702666,-1.1850020044843133,-1.3493121680742437
1770452348036,128,0,-2.488353582914772,0.572151388812955,0.1188238151295912
1770452348040,129,1,-0.3018548971246342,1.5432846662452988,2.2958784324252237
1770452348044,131,3,1.8815035111019287,3.585556104492462,4.46124672651098
1770452348048,133,5,2.8712889917546045,5.513555184677383,5.439909722512706
1770452348052,132,4,1.658587659945746,4.856738747505016,4.232907127930138
1770452348056,129,1,-1.784218110753053,1.4921858242495645,0.8110601417829337
1770452348060,124,-4,-6.15160716983319,-3.3896737339685323,-3.530752912484629
1770452348064,120,-8,-9.350049062365567,-7.507723396019715,-6.711932360637308
1770452348068,119,-9,-9.748099138476128,-8.42260125136964,-7.109811447303779
1770452348072,122,-6,-7.307910858635901,-5.094551753048735,-4.687024895459309
1770452348076,127,-1,-3.73159337101106,-0.576023996256579,-1.1365637018604788
1770452348080,129,1,-1.4185839103297182,1.7148786892906234,1.1577985073741155
1770452348084,129,1,-1.9024611557695448,1.27631192106794,0.6762961579880329
1770452348088,125,-3,-4.828441561949836,-2.237354479381575,-2.2243730908553108
1770452348092,121,-7,-8.160488727607145,-6.257651441389382,-5.52204965987516
1770452348096,120,-8,-9.476279951250266,-7.392918206946708,-6.816782370708616
1770452348100,122,-6,-7.510289563673199,-5.3935296766618865,-4.85896319023809
1770452348104,127,-1,-2.9740427488221197,-0.6943645205594458,-0.3574233757234443
1770452348108,132,4,1.8495923254295752,4.776117252419544,4.426222530119301
1770452348112,135,7,4.492677584150319,7.679738627027466,7.050589507981
1770452348116,134,6,3.8331226693456255,6.700311902598977,6.4071990506170495
1770452348120,131,3,0.8326940631299551,3.4855679414279876,3.447512638358351
1770452348124,128,0,-2.0059153304563355,0.3663702410157587,0.6452303447442551
1770452348128,127,-1,-2.1997584637305603,-0.2595857006522877,0.4556196323953334
1770452348132,130,2,1.035112767563095,2.7394118745004814,3.657130817745564
1770452348136,135,7,6.050792698794345,7.716812082265108,8.623039914991733
1770452348140,140,12,9.592706733230154,12.446933749225517,12.13027576734504
1770452348144,141,13,8.85487309121347,13.351963557581984,11.391738593714042
1770452348148,135,7,3.4972606882864605,7.683054902465805,6.063084144296304
1770452348152,125,-3,-3.860051129231461,-2.1837533691409723,-1.2567725235641627
1770452348156,118,-10,-9.22217430745729,-9.366658584608004,-6.597646225376031
1770452348160,119,-9,-9.875591022080364,-8.398245320668646,-7.262282972253197
1770452348164,125,-3,-6.192084683446423,-2.8354128169810235,-3.620782204515508
1770452348168,129,1,-1.267800900848054,1.9503281393403804,1.2529903333460748
1770452348172,132,4,1.2836397778823443,4.503850775450816,3.7758901820062745
1770452348176,130,2,-0.2159768189821842,2.9324470919708454,2.2852873638411753
1770452348180,126,-2,-4.454144596108153,-1.8022125120649624,-1.9188945921740528
1770452348184,121,-7,-8.093990645668043,-6.431162316804557,-5.529834300498377
1770452348188,120,-8,-8.064084162323843,-7.39861281833561,-5.499350627730829
1770452348192,125,-3,-3.6220212620042505,-2.0917011170449755,-1.0863877345115651
1770452348196,134,6,3.214929530464982,6.5736401910532765,5.708427950748791
1770452348200,141,13,9.141910455590844,13.469138364812462,11.601066620410943
1770452348204,143,15,11.816853228815988,15.297537473413326,14.263330987279748
1770452348208,140,12,11.204533343722243,12.80540865667645,13.661630688889357
1770452348212,137,9,9.11185123551162,9.739590814473845,11.590761401831534
1770452348216,136,8,7.487083509897932,8.719743784198986,9.977338177293424
1770452348220,138,10,6.945992751276873,10.347107150671672,9.419326070857537
1770452348224,138,10,6.585446036626851,10.45433252136146,9.01595402789277
1770452348228,134,6,4.968439812575619,6.633935295653667,7.355000553617901
1770452348232,130,2,1.353264744138745,2.9083415588553576,3.7222564468322905
1770452348236,127,-1,-3.6591648844262425,-0.5307972740867144,-1.2759479580417898
1770452348240,122,-6,-8.31744704878701,-5.376745279962572,-5.909201797116149
1770452348244,119,-9,-10.588813190862316,-8.790544827222057,-8.172610790078465
1770452348248,119,-9,-9.315197474895744,-8.06973423114895,-6.920869882107969
1770452348252,124,-4,-5.05517173729948,-3.4099859234494785,-2.704422648511912
1770452348256,130,2,-0.0011100566484585,2.73234090583096,2.3042285536722757
1770452348260,134,6,3.1621168802956214,6.402833015150245,5.439026066008493
1770452348264,133,5,2.837992106695227,5.389483725739677,5.111483894680279
1770452348268,129,1,-0.4826892269479789,1.801844459320768,1.8052273605305795
1770452348272,125,-3,-4.495280310212316,-2.4047513025621603,-2.193666683129749
1770452348276,122,-6,-6.487879998545642,-5.262874699889924,-4.191007119933647
1770452348280,124,-4,-5.00244484031381,-3.5520672723293134,-2.732921347804144
1770452348284,129,1,-0.6965290807111207,1.4014634457152024,1.5344355317330742
1770452348288,134,6,4.14812538454747,6.853706174530935,6.3455113321933965
1770452348292,138,10,7.1378945779447385,10.399987016594816,9.31425698596876
1770452348296,137,9,7.269878800685691,9.93979146511109,9.433451378278695
1770452348300,135,7,5.401924381737667,7.153439996570065,7.553560824916067
1770452348304,131,3,3.4374682664815492,3.833719560611198,5.577050648219248
1770452348308,131,3,2.9646309610779085,3.375516347514985,5.095890736843717
1770452348312,135,7,4.482958778541988,7.903944599239884,6.609106328904463
1770452348316,140,12,7.722246236113676,12.405107293317377,9.838919201236529
1770452348320,142,14,12.430406262961691,14.677185641660792,14.52647749783898
1770452348324,146,18,18.54946168187258,18.40030959393706,20.61450880996204
1770452348328,153,25,25.48630015571918,25.69171223643879,27.515327304658054
1770452348332,161,33,31.380695441628458,33.650998845439126,33.373979991917004
1770452348336,164,36,33.49684132923857,36.55403276876862,35.460565973464014
1770452348340,160,32,29.819638240623057,32.658964703968714,31.76737482338623
1770452348344,151,23,20.706981707651856,23.308352216224517,22.65486570612831
1770452348348,138,10,9.220577690990666,10.791566382865629,11.175527379720132
1770452348352,128,0,-0.3154081658145244,0.4374575045384336,1.636668775428401
1770452348356,123,-5,-4.681148718219614,-4.103202709441865,-2.7528519617738954
1770452348360,125,-3,-3.494008284163332,-2.611673428454079,-1.6069771872629035
1770452348364,131,3,0.8718952620710088,3.6388946258607175,2.7133342411663164
1770452348368,137,9,5.095629018122006,9.398771323581448,6.899792146549494
1770452348372,137,9,7.090226765400654,9.695536061810513,8.872139778370979
1770452348376,134,6,6.94071572745332,6.669038553906179,8.715059588567781
1770452348380,133,5,6.066780109211825,5.602594232625232,7.839417776301806
1770452348384,135,7,5.5850918127874785,7.508539481474713,7.346962213473025
1770452348388,136,8,5.376676960779006,8.487387885138114,7.108971366120237
1770452348392,134,6,4.495287100578742,6.59450463533739,6.185626622946307
1770452348396,131,3,2.285430223864527,3.7580310330682134,3.939585487805918
1770452348400,128,0,-0.8702100497561238,0.5012385416364091,0.7655265272623302
1770452348404,125,-3,-3.718857517558831,-2.372378594145525,-2.0895262546974425
1770452348408,124,-4,-4.973299475523934,-3.6369104554601073,-3.354824028825833
1770452348412,124,-4,-4.159671314998233,-3.2685446647859786,-2.567383233546489
1770452348416,127,-1,-1.9100172344392776,-0.3814045143567115,-0.356247460433942
1770452348420,130,2,0.4685644538038214,2.6524421901195803,1.983255334375252
1770452348424,131,3,1.8435145317587136,3.4547323839139676,3.328616962758444
1770452348428,131,3,1.943126555903524,3.528955839615787,3.410092894202286
1770452348432,130,2,1.4204813914966363,2.5399690199270415,2.8752229522966664
1770452348436,129,1,1.291455415393722,1.7981538917380848,2.731583835847434
1770452348440,131,3,2.1889759082148883,3.4990480298362723,3.606029503482309
1770452348444,133,5,3.970111459006175,5.6247846790663845,5.354789342243164
1770452348448,135,7,5.9000292135774615,7.353245158830227,7.247647189860626
1770452348452,136,8,7.194506095324499,8.715911092117576,8.507645182902035
1770452348456,136,8,7.492198654288068,8.562996970164692,8.77873052758579
1770452348460,135,7,6.970431119004696,7.7636248363554365,8.238072551389763
1770452348464,135,7,6.1287476878060865,7.338700753257372,7.379882049785587
1770452348468,134,6,5.470202814245916,6.6883195704825855,6.700601355405008
1770452348472,134,6,5.291212713534355,6.332442136978503,6.4934190233529
1770452348476,134,6,5.637515028513511,6.973546693708443,6.806275006851669
1770452348480,135,7,6.363258207740698,7.313692170187005,7.498984582596535
1770452348484,135,7,7.2206104089598355,7.817478392540044,8.328257691020251
1770452348488,137,9,7.960315630233703,9.224533893744791,9.044592650898212
1770452348492,137,9,8.441122427446082,9.74617903116934,9.502417434294143
1770452348496,137,9,8.69675836975964,9.604629380879343,9.731687767835137
1770452348500,137,9,8.884189052638982,9.592629390609334,9.889801137905936
1770452348504,137,9,9.126105881598614,9.644619088567586,10.102890205569102
1770452348508,138,10,9.387334260607975,10.299078358490018,10.33796297645302
1770452348512,138,10,9.517876165906928,10.774480161249963,10.443624762394238
1770452348516,138,10,9.426223311514027,10.467119988554323,10.325290497419235
1770452348520,137,9,9.195774874896404,9.79530351009807,10.065140614558
1770452348524,137,9,9.007753159780544,9.397178721170691,9.846332975012889
1770452348528,137,9,8.945373444659989,9.55986339177363,9.755211114477236
1770452348532,137,9,8.896341309551037,9.543036625948831,9.680729832460486
1770452348536,137,9,8.68208744356084,9.636330826260464,9.442469629926094
1770452348540,137,9,8.301231229152554,9.696300276825518,9.036070126560617
1770452348544,136,8,8.021773412781773,8.400281307441238,8.728528294116533
1770452348548,135,7,8.173433612913414,7.643467447766076,8.850913923711623
1770452348552,137,9,8.804382876765878,9.378701859982405,9.452561773136528
1770452348556,138,10,9.549397475240625,10.87669898960358,10.168127877849091
1770452348560,138,10,9.870904986708933,10.39445261509359,10.460516109551785
1770452348564,137,9,9.46711674297062,9.74850204985245,10.029730479048546
1770452348568,137,9,8.49441399918723,9.235516731241107,9.032831711486772
1770452348572,135,7,7.436458332758296,7.793093378736834,7.951363347307544
1770452348576,134,6,6.739952650842918,6.47313345317127,7.228844362255347
1770452348580,134,6,6.498727511013216,6.797035390348871,6.957637566827343
1770452348584,135,7,6.424024089704589,7.381691042557006,6.850518265740314
1770452348588,134,6,6.113820995375274,6.539023298437513,6.50942318819813
1770452348592,133,5,5.389705055097703,5.523536471672499,5.7596332209931855
1770452348596,132,4,4.428499061521712,4.692768724647531,4.777639152942285
1770452348600,131,3,3.607321855905933,3.6250535909140935,3.9353186212413593
1770452348604,131,3,3.2023527784012726,3.5256218807185595,3.5031883148182152
1770452348608,131,3,3.1550286844097313,3.41834022694278,3.4225878225989677
1770452348612,130,2,3.0519861159141346,2.6100842716620054,3.286160291287751
1770452348616,130,2,2.347492476989281,2.618184284010263,2.554100146665873
1770452348620,129,1,0.7251044460061138,1.6906565741643302,0.9098743831983525
1770452348624,126,-2,-1.63227327947782,-1.537057417683398,-1.468747959876731
1770452348628,123,-5,-4.10145459690163,-4.5337940404409345,-3.962914091338879
1770452348632,121,-7,-6.019501789262454,-6.432249120217198,-5.909493314738578
1770452348636,120,-8,-7.123853593517867,-7.376623515107167,-7.042518159228507
1770452348640,120,-8,-7.656463150892858,-7.243067449176989,-7.6010253635985805
1770452348644,120,-8,-8.044076167809656,-7.647583455655328,-8.011891058665286
1770452348648,119,-9,-8.455040665427271,-8.384955835792004,-8.446298297842862
1770452348652,119,-9,-8.652304428677603,-8.65311720830492,-8.669745473345714
1770452348656,118,-10,-8.29575069694979,-9.143389546367285,-8.341458334030541
1770452348660,119,-9,-7.42037809972718,-8.470656378570801,-7.493286899313049
1770452348664,121,-7,-6.607987926410233,-6.391632513983821,-6.705332285365302
1770452348668,122,-6,-6.611331894681236,-5.639684555067802,-6.73196168912898
1770452348672,120,-8,-7.720466123481549,-7.44705497528501,-7.865160540100145
1770452348676,117,-11,-9.471244015704466,-10.352735786343354,-9.639824504063922
1770452348680,115,-13,-11.010512903037766,-12.291144612522611,-11.200848494045188
1770452348684,115,-13,-11.794314629705804,-12.515506478188318,-12.005613295907192
1770452348688,116,-12,-11.968366572644651,-11.524374221660192,-12.204025499038718
1770452348692,116,-12,-12.110539791863056,-11.536367721283606,-12.375212198857447
1770452348696,114,-14,-12.637787810558526,-13.318655307230426,-12.931198584693425
1770452348700,113,-15,-13.44506201981305,-14.327903246957272,-13.760645157340637
1770452348704,113,-15,-14.041748395473526,-14.493787129263389,-14.372820464127209
1770452348708,113,-15,-13.977628157062826,-14.517143363285204,-14.324300140194309
1770452348712,114,-14,-13.174129928266948,-13.523827875932644,-13.543182578919112
1770452348716,115,-13,-11.950769326772887,-12.349691723569142,-12.34890255793642
1770452348720,116,-12,-10.798318221255627,-11.324232222587105,-11.225886975836088
1770452348724,117,-11,-10.08660837636792,-10.506300296756455,-10.537511497203395
1770452348728,117,-11,-9.880362745757555,-10.494993507641814,-10.347474774811156
1770452348732,117,-11,-9.942520492116248,-10.52424165722977,-10.42348046400272
1770452348736,117,-11,-9.901746725446529,-10.377478862721343,-10.400214053142305
1770452348740,117,-11,-9.487011154510412,-10.298086202661734,-10.00871277003223
1770452348744,118,-10,-8.69921164860913,-9.56929687347836,-9.24668321365418
1770452348748,119,-9,-7.80913929770252,-8.368391739612626,-8.37995803958621
1770452348752,120,-8,-7.162545116050348,-7.680302795585272,-7.752117264708634
1770452348756,120,-8,-6.916281200429151,-7.20742677418515,-7.521778585847627
1770452348760,120,-8,-6.917976324232096,-7.506025332751718,-7.5396264688572
1770452348764,119,-9,-6.856371101466003,-8.393972834526716,-7.49597064257065
1770452348768,120,-8,-6.574842472566566,-7.477794181811813,-7.234107882355111
1770452348772,121,-7,-6.267020507072362,-6.611361275983994,-6.947079699196178
1770452348776,120,-8,-6.359164057379683,-7.217926012429909,-7.060225838979354
1770452348780,120,-8,-7.165896563850713,-7.585682957612434,-7.886558255225543
1770452348784,118,-10,-8.607412004403216,-9.276103118147008,-9.344606109013544
1770452348788,116,-12,-10.215992214481336,-11.644894632038572,-10.96644197980261
1770452348792,115,-13,-11.414042391057244,-12.37602538703702,-12.176542351402576
1770452348796,115,-13,-11.838140780190932,-12.481815312751465,-12.61466373413366
1770452348800,115,-13,-11.483354985923746,-12.321887372161967,-12.27758295877972
1770452348804,116,-12,-10.619112860719191,-11.548912885804794,-11.433537571027252
1770452348808,117,-11,-9.595302924174977,-10.384900211061378,-10.429503685894376
1770452348812,118,-10,-8.685053864828014,-9.609887278835323,-9.53622500374984
1770452348816,118,-10,-8.030052601476424,-9.2665597529536,-8.894767910301033
1770452348820,119,-9,-7.661523666598638,-8.545736675259816,-8.537424791556738
1770452348824,119,-9,-7.53282655715568,-8.342124590058624,-8.41951435931086
1770452348828,119,-9,-7.534073077456686,-8.588128185523157,-8.432912877209256
1770452348832,119,-9,-7.51590013845169,-8.392943891018001,-8.42894415438334
1770452348836,119,-9,-7.354818481171694,-8.483010231179435,-8.28350700049323
1770452348840,119,-9,-7.036219972545017,-8.352819607682296,-7.98056231192737
1770452348844,120,-8,-6.68015254847671,-7.536066454498546,-7.638716918218043
1770452348848,120,-8,-6.458214190730063,-7.395245197106429,-7.428773521491954
1770452348852,120,-8,-6.442383425442254,-7.575578530686165,-7.422859211332162
1770452348856,120,-8,-6.503874495491979,-7.296789992379319,-7.493209799506488
1770452348860,120,-8,-6.36099067898805,-7.570938018885286,-7.359541594757297
1770452348864,120,-8,-5.764143429159564,-7.323135219482031,-6.773387284200681
1770452348868,122,-6,-4.688682768478609,-5.59222153706321,-5.710353938000156
1770452348872,123,-5,-3.3840075274345995,-4.376985532224234,-4.418873518700424
1770452348876,124,-4,-2.233319520048724,-3.4775159307040604,-3.2802736921136932
1770452348880,125,-3,-1.523388695166437,-2.4378272152394453,-2.5799358487666884
1770452348884,125,-3,-1.2826751962320362,-2.450025936795845,-2.3466944795627196
1770452348888,125,-3,-1.2887825553121397,-2.4948875354387043,-2.3597335511581705
1770452348892,125,-3,-1.231621418050799,-2.415660102975751,-2.309939929169956
1770452348896,125,-3,-0.9174199710809088,-2.4780519283820728,-2.0032729855819813
1770452348900,126,-2,-0.3701233740329472,-1.4223562593121797,-1.4633925848180709
1770452348904,127,-1,0.234446248588104,-0.4932060708602236,-0.8667524643748745
1770452348908,127,-1,0.7230293366766913,-0.4589813681299728,-0.3871805284353907
1770452348912,127,-1,1.01297671228697,-0.4033231694225079,-0.1065638523646905
1770452348916,127,-1,1.0658022084522436,-0.5430189350649568,-0.0619076339653634
1770452348920,127,-1,0.8027602391742414,-0.3344469660082063,-0.3312761190458321
1770452348924,127,-1,0.1239436857024447,-0.6256118066748151,-1.0147865649269074
1770452348928,125,-3,-0.9616459374015296,-2.2989484185705673,-2.103605867846313
1770452348932,124,-4,-2.236806972349332,-3.5486299906657357,-3.3808852974749763
1770452348936,123,-5,-3.3393747685084323,-4.428159641405697,-4.486055550367376
1770452348940,122,-6,-3.973658801197875,-5.436492387920753,-5.125673871861564
1770452348944,122,-6,-4.124681787215176,-5.572850050532056,-5.285313571368356
1770452348948,122,-6,-4.1102392016307325,-5.2784402601356,-5.28038283928706
1770452348952,122,-6,-4.4004283757019955,-5.611865194303898,-5.577279574349124
1770452348956,121,-7,-5.293110596643647,-6.343028451172136,-6.471776304701163
1770452348960,120,-8,-6.6601908723718255,-7.563415469140396,-7.83671517636137
1770452348964,118,-10,-7.967471294291062,-9.47423668107831,-9.140893969691538
1770452348968,117,-11,-8.59364437864271,-10.312959988136338,-9.76626109223848
1770452348972,118,-10,-8.241121840928475,-9.622029702897295,-9.417446657653503
1770452348976,119,-9,-7.137451325324028,-8.269979774279156,-8.321912709081456
1770452348980,121,-7,-5.8790650950437655,-6.715001989757966,-7.07251805397188
1770452348984,121,-7,-5.047455554365389,-6.291104584552819,-6.244945078016217
1770452348988,121,-7,-4.879455075603136,-6.516516145747334,-6.0729043099925075
1770452348992,121,-7,-5.183351287680792,-6.419727897024131,-6.368714030661523
1770452348996,121,-7,-5.492835953730364,-6.4531684745578906,-6.67487815622055
1770452349000,121,-7,-5.331501216439986,-6.588713168192544,-6.5197682116018445
1770452349004,121,-7,-4.446407261160103,-6.355338945511941,-5.645254280912921
1770452349008,123,-5,-2.876271625090983,-4.508912690679531,-4.079437165578183
1770452349012,126,-2,-0.7711735229981116,-1.370248475844308,-1.966920085475372
1770452349016,129,1,1.928540452335744,1.4581642393607694,0.7472111729884672
1770452349020,132,4,5.620519304085878,4.500262576314053,4.45058948929016
1770452349024,136,8,10.692157903880403,8.564613790860687,9.523655357951334
1770452349028,142,14,16.844387670920124,14.53105199466793,15.667202369486436
1770452349032,149,21,22.678466765639232,21.63631749391652,21.4876640215546
1770452349036,153,25,26.07805546239096,25.42841264310583,24.876210223942383
1770452349040,152,24,25.310057439809707,24.519008638803538,24.106655036356273
1770452349044,147,19,20.133327936231566,19.53526519904941,18.940773993415977
1770452349048,138,10,12.115173333905142,10.47036818827392,10.942381093148436
1770452349052,129,1,3.8919309924171226,1.7584961064866689,2.739041098497738
1770452349056,124,-4,-2.1561377297002062,-3.705165821873864,-3.298203108628133
1770452349060,121,-7,-4.969012431016145,-6.2675228465789,-6.113345493203306
1770452349064,122,-6,-5.005679327445617,-5.685084797161876,-6.1615202018290205
1770452349068,123,-5,-3.609798439867873,-4.336154518297422,-4.777124320823401
1770452349072,124,-4,-2.097204023684952,-3.443615340381485,-3.267432610653296
1770452349076,125,-3,-1.1698053225182554,-2.540908110035126,-2.3318647324157338
1770452349080,125,-3,-0.8914923139812497,-2.386130287201237,-2.0386998483092515
1770452349084,125,-3,-1.026940034372717,-2.6115593479970647,-2.16011697976152
1770452349088,125,-3,-1.3675222199395136,-2.395259542338092,-2.4929256955130485
1770452349092,125,-3,-1.8155943146487856,-2.402662749916188,-2.9395442210710048
1770452349096,124,-4,-2.282438490574156,-3.5933621319829183,-3.4065150730337748
1770452349100,123,-5,-2.6077775948639257,-4.285798113645888,-3.728480121658812
1770452349104,124,-4,-2.6155866969282076,-3.764557331516881,-3.728768759210808
1770452349108,124,-4,-2.234966811573371,-3.2161195498165593,-3.3402422576366364
1770452349112,125,-3,-1.5601697276149125,-2.6101872595325815,-2.66039689380276
1770452349116,125,-3,-0.8121169797713458,-2.3705875912934307,-1.909219065045355
1770452349120,126,-2,-0.2387746891568138,-1.4941570214053557,-1.3313937018921231
1770452349124,127,-1,0.0041563924119858,-0.5992297845504748,-1.0810775936048722
1770452349128,126,-2,-0.0569445217358475,-1.3572631978092915,-1.1331616357730308
1770452349132,126,-2,-0.2237538067938274,-1.5178181039507257,-1.291377332066736
1770452349136,126,-2,-0.2593003773887605,-1.4044952785901033,-1.3198406486069811
1770452349140,126,-2,-0.0571072759397597,-1.5033206732095956,-1.1120903720272068
1770452349144,127,-1,0.2909692725005131,-0.5717173623431024,-0.7593293306128244
1770452349148,127,-1,0.5853132455828087,-0.388905191038647,-0.4599653368229631
1770452349152,127,-1,0.6898714128774894,-0.5288498637578787,-0.3486323650545554
1770452349156,127,-1,0.6435555630297425,-0.3230138507040762,-0.3857937405647109
1770452349160,127,-1,0.6290203110525379,-0.6716295378520566,-0.3898546393121649
1770452349164,127,-1,0.8325076762809718,-0.335751265300406,-0.1769073684657217
1770452349168,128,0,1.3038124365067478,0.3215670890068201,0.3009930719559854
1770452349172,128,0,1.9125783628848296,0.7760915438727138,0.9138342033655372
1770452349176,129,1,2.422935646145927,1.400590526329449,1.4282652342666846
1770452349180,129,1,2.635498920929431,1.5346236732854956,1.6475978403861993
1770452349184,129,1,2.5149381288393355,1.5394940376207735,1.5371574141265214
1770452349188,129,1,2.231209090907988,1.3209817179225942,1.2651449659384195
1770452349192,128,0,2.080973770133116,0.9126609732883944,1.1256564196977754
1770452349196,129,1,2.319797498844971,1.131414026573999,1.3726908270192153
1770452349200,129,1,3.0023286182479865,1.9281736110020335,2.060976485628998
1770452349204,131,3,3.940171213192265,3.037354507809953,3.0034935405000107
1770452349208,131,3,4.8135089793056585,3.8774542961951344,3.8823447888604665
1770452349212,132,4,5.363314963884702,4.349357983047371,4.43995031004175
1770452349216,132,4,5.5369191255427985,4.641971341340349,4.623707094234603
1770452349220,132,4,5.4977693700685375,4.507356237540673,4.5957285073279985
1770452349224,132,4,5.502564693567488,4.315945775251596,4.610923785038033
1770452349228,132,4,5.732935537677299,4.746275817608284,4.849750529397408
1770452349232,133,5,6.193644224855604,5.348054961919132,5.316948483964513
1770452349236,133,5,6.736548013163565,5.753725424537755,5.865417742607209
1770452349240,134,6,7.178129300314739,6.3182545230505305,6.313148056445926
1770452349244,134,6,7.4205991058793295,6.520419722736302,6.5635093926541614
1770452349248,134,6,7.49923437389379,6.542234884753542,6.652001303373193
1770452349252,134,6,7.539626299153818,6.526552270330491,6.703278784633237
1770452349256,134,6,7.670273418260928,6.617550606439707,6.844021589441942
1770452349260,135,7,7.954933323203906,7.406193199266348,7.136448415895983
1770452349264,135,7,8.373659194773492,7.465347038874128,7.56086971175077
1770452349268,135,7,8.836227131636017,7.554738767307443,8.029140649030921
1770452349272,136,8,9.21146403798743,8.548215840283587,8.411931940300523
1770452349276,136,8,9.380243452783636,8.569407495368232,8.58988819081567
1770452349280,136,8,9.304045088341727,8.463788577536135,8.522833994830762
1770452349284,136,8,9.05618922982968,8.394444872956758,8.283175709539227
1770452349288,135,7,8.768553652326318,7.619479227899181,8.00349035004572
1770452349292,135,7,8.522642272889772,7.478816583682446,7.766130479132197
1770452349296,135,7,8.280518387302214,7.654783767154149,7.53242996301088
1770452349300,135,7,7.921649941815,7.355115231501045,7.18019503989691
1770452349304,134,6,7.344144401204964,6.522684490123282,6.607426115482975
1770452349308,133,5,6.52598533499988,5.459497501770647,5.79449060505331
1770452349312,132,4,5.502558953525384,4.641051776446771,4.779351269622532
1770452349316,131,3,4.321397391475868,3.500825031732278,3.6092587148643673
1770452349320,130,2,3.046997994090345,2.48974554022684,2.3454505919780937
1770452349324,129,1,1.795380033869712,1.4224806017363436,1.1009737332671072
1770452349328,127,-1,0.7075626093692162,-0.492248270259213,0.0172319357443447
1770452349332,126,-2,-0.1662752904910118,-1.3807535805440097,-0.8525860998023891
1770452349336,126,-2,-0.9614223148641244,-1.50165863163349,-1.6416588939509291
1770452349340,125,-3,-1.9303291694345497,-2.4882361588049813,-2.6030621500807234
1770452349344,124,-4,-3.2246709421912314,-3.601049201098781,-3.890082340622621
1770452349348,122,-6,-4.719569409690987,-5.482298306104287,-5.3780740332756105
1770452349352,120,-8,-6.05623760224046,-7.411882941589378,-6.707346789038288
1770452349356,120,-8,-6.873923165952451,-7.475331392693131,-7.517038601172663
1770452349360,120,-8,-7.0298573910455895,-7.485298279958119,-7.665590679269662
1770452349364,120,-8,-6.639887949526336,-7.616887406599442,-7.270038601580794
1770452349368,121,-7,-5.946799913964429,-6.438401716996741,-6.573232261314599
1770452349372,122,-6,-5.152537392672865,-5.525387667316214,-5.7759952823899
1770452349376,122,-6,-4.346768666930082,-5.338871726459352,-4.966062247634903
1770452349380,123,-5,-3.560346185323572,-4.630274073490602,-4.172739898300098
1770452349384,124,-4,-2.8510675417266684,-3.4513943396826368,-3.4545554090144774
1770452349388,125,-3,-2.3028652770155382,-2.6111689390789716,-2.898533536613611
1770452349392,125,-3,-1.9352334551362955,-2.385744924119676,-2.526657567739664
1770452349396,125,-3,-1.649448466594837,-2.4736932036321155,-2.2392258379440984
1770452349400,125,-3,-1.306385982142152,-2.5007431842812413,-1.8936948654811177
1770452349404,126,-2,-0.8614502639315018,-1.565671049478758,-1.4434286022769225
1770452349408,127,-1,-0.3927325223262194,-0.4915497336799621,-0.967720584596274
1770452349412,127,-1,0.0218017145943307,-0.5462958455682667,-0.5469497598525591
1770452349416,127,-1,0.4339644319950599,-0.2812173239010636,-0.1301790701406139
1770452349420,128,0,0.9959568100785008,0.2544158534345143,0.435542822192508
1770452349424,128,0,1.7798454660255765,0.7387033086631778,1.222843347162987
1770452349428,130,2,2.6230529901116473,2.1508580562030777,2.068724623983542
1770452349432,130,2,3.163098931933545,2.8516524473805767,2.610400068689853
1770452349436,130,2,3.0534138447588024,2.2783690567288266,2.502197388417612
1770452349440,129,1,2.1970302176671055,1.692860261128733,1.648658308843559
1770452349444,128,0,0.8290796262879065,0.3264217393450614,0.2856120401008439
1770452349448,126,-2,-0.5999128904005446,-1.5096908009438132,-1.1370833818060444
1770452349452,125,-3,-1.6514415198373962,-2.3818841472780496,-2.1825670673004005
1770452349456,125,-3,-2.086549124443578,-2.610561421392441,-2.613826363013276
1770452349460,125,-3,-1.910992850888971,-2.3031523410147505,-2.437729579207007
1770452349464,126,-2,-1.2965428974687006,-1.7657927628993415,-1.8250708919711205
1770452349468,126,-2,-0.4794511594623072,-1.3768473853731065,-1.009332018543034
1770452349472,127,-1,0.2979835331578433,-0.5189093903518625,-0.230594901491525
1770452349476,128,0,0.8283462212092196,0.4638264159912412,0.3034205056866725
1770452349480,128,0,1.0054761910361472,0.7156381590803718,0.4845540629727254
1770452349484,128,0,0.8842517792550206,0.096119697712823,0.366325603888008
1770452349488,127,-1,0.6571907823949232,-0.1207625379733863,0.1412676543751976
1770452349492,128,0,0.5361482301683558,0.1075647444130761,0.0214895232153013
1770452349496,127,-1,0.6210009056359451,-0.0959104707945408,0.1066673057994815
1770452349500,128,0,0.8484992657802546,0.2572668360414282,0.3334470597049969
1770452349504,128,0,1.0480707551816164,0.5392572411286918,0.5317588921988494
1770452349508,128,0,1.05998856862726,0.4812529749083667,0.5427738379062463
1770452349512,128,0,0.8375419524339607,0.4106082904285307,0.3206379040690362
1770452349516,127,-1,0.4694073137879233,-0.315772316348598,-0.0456306356811006
1770452349520,127,-1,0.1163619240996449,-0.6048805878789021,-0.3960436121261887
1770452349524,127,-1,-0.0818656167125932,-0.5185595218300577,-0.5928137515593027
1770452349528,127,-1,-0.0649425001564909,-0.5228614687827389,-0.5773205224446698
1770452349532,127,-1,0.1421072110589951,-0.5612466431604989,-0.3743061969052323
1770452349536,127,-1,0.4541505438567057,-0.3677897632183243,-0.066516968191536
1770452349540,128,0,0.769479806169139,0.4538801650150799,0.2470289567606657
1770452349544,128,0,1.0309752787422155,0.4280385972847421,0.5101450923616808
1770452349548,128,0,1.2805617541299816,0.5190554048915907,0.7630185536590881
1770452349552,129,1,1.6579228318297363,1.3917987046052094,1.141799434107309
1770452349556,129,1,2.314408072907922,1.6645833859651509,1.7951939383280386
1770452349560,130,2,3.2724572615609127,2.428469900716666,2.74646752673385
1770452349564,131,3,4.327491964941196,3.460086632197211,3.794829890092185
1770452349568,132,4,5.108640361262894,4.479558178814895,4.572667841017917
1770452349572,133,5,5.3195013007830525,5.41622557199878,4.783755337732072
1770452349576,132,4,4.998978162060775,4.6389025300100695,4.4649960524234915
1770452349580,131,3,4.5557007377527485,3.4366245572048735,4.022956530219297
1770452349584,131,3,4.4886858307834725,3.4713206356709985,3.9549264702790294
1770452349588,132,4,4.996566233903812,4.450740227958586,4.457986463707852
1770452349592,133,5,5.7972468737673655,5.449834621437904,5.250159356897578
1770452349596,133,5,6.301860124613773,5.61759350690565,5.7457102811460965
1770452349600,133,5,6.0037928898013275,5.430180241660718,5.442205740775707
1770452349604,132,4,4.808010767585285,4.485948669475567,4.246016031582046
1770452349608,130,2,3.0928795484802567,2.4000012573298286,2.5329752561798826
1770452349612,128,0,1.4739794166879232,0.5122074977884636,0.9147233072656656
1770452349616,127,-1,0.4266999440863275,-0.4257550714339527,-0.1357328185208888
1770452349620,127,-1,0.0211351430583723,-0.5506635449184512,-0.5482592122093873
1770452349624,127,-1,-0.0561259174248456,-0.4950096445102488,-0.6345386989640904
1770452349628,127,-1,-0.2344926651297674,-0.6840895455444953,-0.8215590820879513
1770452349632,126,-2,-0.7646907132413805,-1.3530434602889845,-1.357906025385326
1770452349636,125,-3,-1.6051761508106934,-2.6144391110518965,-2.201299805542852
1770452349640,124,-4,-2.5244325042696185,-3.332853826677914,-3.1215652401786587
1770452349644,124,-4,-3.2854075074020925,-3.7286929251842897,-3.88426936560408
1770452349648,123,-5,-3.7589041357290305,-4.464338991326319,-4.362128747451877
1770452349652,123,-5,-3.924401388544616,-4.537278353279824,-4.534578003451556
1770452349656,123,-5,-3.821423309694157,-4.481557213938181,-4.439785777679534
1770452349660,123,-5,-3.5211799786890032,-4.419759471336844,-4.147643467171466
1770452349664,124,-4,-3.129456447353958,-3.7027865842392385,-3.762975459226053
1770452349668,124,-4,-2.7874597339213736,-3.441361071661789,-3.425987848259706
1770452349672,124,-4,-2.6415984271270094,-3.6020150321469417,-3.2826995867527
1770452349676,124,-4,-2.7843991150348284,-3.3947480672190813,-3.427519124969762
1770452349680,124,-4,-3.199756519101779,-3.527454079889776,-3.848321005838354
1770452349684,123,-5,-3.761797421122389,-4.609189807874234,-4.421814834194549
1770452349688,122,-6,-4.305397789165296,-5.513095900778152,-4.980549051713933
1770452349692,122,-6,-4.697464213126258,-5.556701572367311,-5.3850769152585505
1770452349696,122,-6,-4.788148667252243,-5.419242802049391,-5.480138572334201
1770452349700,123,-5,-4.230037640168531,-4.523664633216472,-4.918264595776655
1770452349704,125,-3,-2.3613333975931465,-2.6061916531290272,-3.043137812090099
1770452349708,128,0,1.5817818093541938,0.4876547131179065,0.9016153306583474
1770452349712,134,6,7.885215992551803,6.42563731654445,7.196670380200073
1770452349716,142,14,15.753399957538573,14.62234321849259,15.0458803643264
1770452349720,150,22,23.20683656659255,22.408475936155497,22.47427661038477
1770452349724,155,27,27.749272047257808,27.477572332234697,26.993876383160792
1770452349728,155,27,27.52956361690262,27.371858384329467,26.762050356304293
1770452349732,149,21,22.32073043005356,21.488235559069047,21.555626732128975
1770452349736,140,12,13.706161678556612,12.563708161955455,12.95369519758898
1770452349740,131,3,4.352904848205558,3.4214079784880407,3.612509032836897
1770452349744,123,-5,-3.2004215827354754,-4.431844924023769,-3.940065798239397
1770452349748,119,-9,-7.571448124631946,-8.764496160568617,-8.325702185474983
1770452349752,118,-10,-8.875943391384041,-9.281322062667464,-9.655551076850283
1770452349756,119,-9,-8.311001243844796,-8.766929234032512,-9.11664860608105
1770452349760,119,-9,-7.3278265903697966,-8.190968056925492,-8.150474338517125
1770452349764,120,-8,-6.903112413349523,-7.869192966867377,-7.729818376856873
1770452349768,119,-9,-7.2473666672939565,-8.321722261884053,-8.069352614014779
1770452349772,119,-9,-7.966200504480762,-8.728601021242515,-8.783759553187982
1770452349776,118,-10,-8.465532328004581,-9.364898848523492,-9.286201312292308
1770452349780,118,-10,-8.35040198723884,-9.54195586592065,-9.182475502180289
1770452349784,119,-9,-7.635346676050829,-8.560383552204879,-8.48268521387822
1770452349788,120,-8,-6.690108999734727,-7.5715848335236595,-7.551893550123353
1770452349792,121,-7,-5.977669919797262,-6.551723692272639,-6.8511909985429105
1770452349796,121,-7,-5.765619192016214,-6.4992060100426805,-6.648072259001486
1770452349800,120,-8,-6.006251800681128,-7.466616369231022,-6.894697498101385
1770452349804,120,-8,-6.438421691125983,-7.594893191740076,-7.330331148012549
1770452349808,120,-8,-6.782308259430595,-7.557167300115003,-7.677647071597354
1770452349812,120,-8,-6.861072356562902,-7.567951515787399,-7.763355515487739
1770452349816,120,-8,-6.613541370211923,-7.4735200408786095,-7.527632989782704
1770452349820,120,-8,-6.080520269270101,-7.515010867742708,-7.008952936396403
1770452349824,121,-7,-5.412826623929837,-6.541932679254525,-6.354237579089764
1770452349828,122,-6,-4.843897413534891,-5.605271937640281,-5.794527768572148
1770452349832,122,-6,-4.567052086650589,-5.548700818679126,-5.523287907987708
1770452349836,122,-6,-4.574805482649888,-5.454112828710049,-5.53492786530618
1770452349840,122,-6,-4.605132539251999,-5.5944035768851075,-5.5699490413853345
1770452349844,122,-6,-4.2844118708262595,-5.426948204773415,-5.256778236745323
1770452349848,123,-5,-3.400980651222924,-4.7519282918051475,-4.384250680410588
1770452349852,124,-4,-2.116157975949586,-3.377104465760526,-3.1123573657439607
1770452349856,126,-2,-0.9311345619076123,-1.6298924077273875,-1.9400177289098868
1770452349860,126,-2,-0.3940408186634221,-1.430052576547327,-1.4134393971932155
1770452349864,126,-2,-0.7371664396288105,-1.6122677745903664,-1.7641051439806268
1770452349868,125,-3,-1.707406781400088,-2.5615748108877394,-2.7392750508108006
1770452349872,123,-5,-2.718854120751076,-4.594697894246595,-3.7544705562499097
1770452349876,123,-5,-3.2133404057146517,-4.376402218048662,-4.253950061686462
1770452349880,124,-4,-2.9618418432596467,-3.703971462226482,-4.011144284685804
1770452349884,124,-4,-2.111840205465346,-3.334086772728686,-3.173870373414121
1770452349888,126,-2,-1.008905705912805,-1.8348452885458144,-2.0847958819274512
1770452349892,126,-2,0.0254419985135063,-1.345859802240657,-1.0613475063145832
1770452349896,127,-1,0.8125705838962562,-0.6209894360538316,-0.2805634893079567
1770452349900,128,0,1.3178333153474897,0.5283122626491378,0.2206311594297766
1770452349904,128,0,1.595951694635367,0.4348029926934892,0.493328520093964
1770452349908,128,0,1.7258828258078445,0.3898090577606379,0.6149540137960577
1770452349912,128,0,1.7514099317004614,0.4346970799251803,0.6304627366070028
1770452349916,128,0,1.6540674227533985,0.5712340317446162,0.5232337915891693
1770452349920,128,0,1.385439194985343,0.3528380699299837,0.2457652380469553
1770452349924,127,-1,0.9379637482030172,-0.4013957272647079,-0.2094372340188977
1770452349928,127,-1,0.3919139016871689,-0.7709711862474443,-0.7623929026005294
1770452349932,126,-2,-0.1016280762352386,-1.4111302285588287,-1.2626120294881968
1770452349936,126,-2,-0.3853079918238383,-1.603409248969452,-1.5534203546315002
1770452349940,126,-2,-0.3615699607616254,-1.4568232752970889,-1.5374798791701565
1770452349944,126,-2,-0.0242912867761206,-1.5968112708818218,-1.2083608258082756
1770452349948,127,-1,0.5567909877025912,-0.5772870015085492,-0.6355271333279593
1770452349952,128,0,1.2864076066673102,0.3939283142546186,0.0859035495936932
1770452349956,128,0,2.0892984306963953,0.560999910470108,0.881216946617323
1770452349960,129,1,2.9123760205020135,1.4001402846928368,1.6979136885757593
1770452349964,130,2,3.694449329757309,2.5324872124519873,2.4742038193652167
1770452349968,131,3,4.35382628822569,3.2934318060072933,3.1267729261776496
1770452349972,131,3,4.8105812632481015,3.519815917580386,3.575084020719786
1770452349976,131,3,5.006392217653756,3.416792807163348,3.7622674910170177
1770452349980,131,3,4.89935853080932,3.545944516157783,3.648270933703352
1770452349984,131,3,4.464513200952405,3.386147904941351,3.2082025732759947
1770452349988,130,2,3.726234128085757,2.434421278604507,2.46481831443756
1770452349992,129,1,2.7884193145478173,1.3805747499224852,1.5205873762025772
1770452349996,128,0,1.807275910028066,0.5404521145719143,0.5318797217553198
1770452350000,127,-1,0.9077937929898952,-0.5845078235933598,-0.3749068818413993
1770452350004,126,-2,0.1131431513799132,-1.473867029090222,-1.175557771228894
1770452350008,126,-2,-0.640518292640017,-1.714447425805087,-1.9344395572975968
1770452350012,125,-3,-1.4070870632033905,-2.457116921575737,-2.706806385931188
1770452350016,124,-4,-2.1456155429148422,-3.6560397757191514,-3.451987927310967
1770452350020,123,-5,-2.74356317043056,-4.377077127917175,-4.056219919653824
1770452350024,123,-5,-3.130604038538353,-4.695357653962264,-4.4482457111396725
1770452350028,123,-5,-3.358729708926089,-4.491276317362317,-4.680831548990114
1770452350032,123,-5,-3.559395596345528,-4.65423073728847,-4.886924952000672
1770452350036,122,-6,-3.8255081511366353,-5.5144822082036224,-5.159754439066564
1770452350040,122,-6,-4.1395243333816385,-5.4744622075571785,-5.480558564370891
1770452350044,122,-6,-4.406463285085914,-5.672314648587502,-5.752778968789569
1770452350048,121,-7,-4.542863131212158,-6.4402833923391665,-5.89239635171854
1770452350052,122,-6,-4.530567956409917,-5.767441263417734,-5.8824063194450895
1770452350056,122,-6,-4.391791225005186,-5.3359228446184455,-5.74715617189332
1770452350060,122,-6,-4.132185679198564,-5.746644614738061,-5.493393798915299
1770452350064,122,-6,-3.7401515004142056,-5.330821234066824,-5.108349230664575
1770452350068,123,-5,-3.2596833383983697,-4.8469168269595215,-4.633798974639634
1770452350072,123,-5,-2.843983273517537,-4.308214203873013,-4.221919284142234
1770452350076,124,-4,-2.693407367985305,-3.824961281929452,-4.073951417502555
1770452350080,123,-5,-2.903998851063771,-4.264663018478983,-4.287483821966516
1770452350084,123,-5,-3.3640859510077687,-4.820174931422035,-4.751437481687559
1770452350088,122,-6,-3.809528218732561,-5.370383686916079,-5.200913873245502
1770452350092,122,-6,-4.004679992152523,-5.768210095339359,-5.399222404515872
1770452350096,122,-6,-3.895259334581093,-5.3770491784494805,-5.2921371614104675
1770452350100,123,-5,-3.601587903438321,-4.69904600892554,-5.001183397141435
1770452350104,123,-5,-3.2736354884670043,-4.4234131016093166,-4.677100507827963
1770452350108,123,-5,-2.964066079612127,-4.73457360142082,-4.371737831545179
1770452350112,123,-5,-2.6441663275905904,-4.458950863883822,-4.055077293697368
1770452350116,124,-4,-2.320270643395854,-3.6260460025665577,-3.7335042906630664
1770452350120,124,-4,-2.098828873783135,-3.526856790741704,-3.5146706294656114
1770452350124,124,-4,-2.1167093125530307,-3.5201128488747533,-3.53581121733354
1770452350128,124,-4,-2.4040080486536426,-3.7204780614748576,-3.8256926852765214
1770452350132,123,-5,-2.8124519598611277,-4.41436027494545,-4.234579180245898
1770452350136,123,-5,-3.077896358501451,-4.733265898848979,-4.498843583126291
1770452350140,123,-5,-2.9728622781618963,-4.376209773966446,-4.393508961659126
1770452350144,124,-4,-2.4461625411019847,-3.696805542801423,-3.8694459341339544
1770452350148,124,-4,-1.670690486315428,-3.527355483966093,-3.099027729707214
1770452350152,125,-3,-0.97629457200469,-2.6281604370537264,-2.409646530587
1770452350156,126,-2,-0.6904821191171844,-1.525878611915768,-2.126638783414029
1770452350160,125,-3,-0.9596506946101216,-2.5880940069866964,-2.3956563915978712
1770452350164,124,-4,-1.6599801069783884,-3.4939703859375593,-3.093532990393933
1770452350168,124,-4,-2.4622823808900094,-3.713180324171071,-3.892951895222979
1770452350172,123,-5,-3.0070762857163817,-4.486894343593976,-4.436556096409347
1770452350176,123,-5,-3.083893518365822,-4.631121960618172,-4.514552639093915
1770452350180,123,-5,-2.726350136644321,-4.510630310276021,-4.1594907683639555
1770452350184,124,-4,-2.1790974833066015,-3.548602961964615,-3.614788929390542
1770452350188,125,-3,-1.751490450916004,-2.6772019833078895,-3.1893137429465748
1770452350192,124,-4,-1.6483859576459718,-3.5327089581894024,-3.0873648068905877
1770452350196,124,-4,-1.8902770316866593,-3.599126847838129,-3.328407167395534
1770452350200,124,-4,-2.352419937656651,-3.533656212658548,-3.787352243865332
1770452350204,123,-5,-2.853572465106467,-4.540806295546344,-4.284277614354491
1770452350208,123,-5,-3.2203461118855343,-4.674549254628968,-4.648136830053556
1770452350212,123,-5,-3.3192422343594505,-4.537695975054534,-4.747035452314722
1770452350216,123,-5,-3.0903210922513775,-4.629014561254215,-4.520421101245423
1770452350220,123,-5,-2.5935263768340846,-4.459889863559278,-4.025740838949737
1770452350224,124,-4,-2.019746059825975,-3.671985875960421,-3.4517629020684835
1770452350228,125,-3,-1.6027306361028295,-2.487406403873528,-3.032199175937947
1770452350232,125,-3,-1.454924010696886,-2.7824133782341396,-2.880721617244
1770452350236,124,-4,-1.462150714340431,-3.3604834837974007,-2.8840599940264395
1770452350240,125,-3,-1.3523997439436606,-2.753839842998585,-2.770768299085174
1770452350244,125,-3,-0.8979321469193327,-2.3777746904605177,-2.3139396023859717
1770452350248,126,-2,-0.0898560398648145,-1.7698845022115903,-1.5052276366778308
1770452350252,127,-1,0.8458301112945887,-0.5090981273890347,-0.5699390383436269
1770452350256,128,0,1.5958420176155623,0.3696914318771246,0.1803670850546243
1770452350260,128,0,1.9614645610053445,0.4856005192347891,0.5484811678197439
1770452350264,128,0,1.973797331958584,0.3887859235500843,0.5655949398495084
1770452350268,128,0,1.85184521929082,0.4542155404808881,0.4492283542034896
1770452350272,128,0,1.8487710052195827,0.2722609967678007,0.4506563880151606
1770452350276,128,0,2.1000492658495524,0.5862761251009374,0.704632171584114
1770452350280,129,1,2.567982428477189,1.2569031993324642,1.174336440853959
1770452350284,129,1,3.100932697277753,1.6128605766889827,1.709552910487688
1770452350288,130,2,3.548517617023319,2.233688503057555,2.160538792878726
1770452350292,130,2,3.843242150714297,2.48006836709713,2.4593866656037457
1770452350296,130,2,3.993757683858673,2.3863195148986582,2.6140315167134065
1770452350300,130,2,4.012274466048297,2.4260523083516023,2.63633590391626
1770452350304,130,2,3.859024557421789,2.459976806791495,2.486646387059671
1770452350308,130,2,3.4698535411431086,2.3686218297803885,2.101344495253451
1770452350312,129,1,2.844661609654208,1.3600954664189202,1.4810977134800616
1770452350316,128,0,2.1049126134753293,0.4911838035151298,0.7475587564097753
1770452350320,128,0,1.453466929312957,0.3032950069247853,0.1025414858674858
1770452350324,127,-1,1.0548420716161084,-0.4066799383350982,-0.290908382487342
1770452350328,127,-1,0.9142586631130152,-0.7815942862722981,-0.4279553532240462
1770452350332,127,-1,0.8403502150356881,-0.4592953430538855,-0.4990636658348677
1770452350336,127,-1,0.5362807182539169,-0.7212559055112993,-0.7999606570825242
1770452350340,126,-2,-0.2192787572538653,-1.49332163648063,-1.5512681378501032
1770452350344,125,-3,-1.4200696865397937,-2.610375663664402,-2.7461861201140265
1770452350348,123,-5,-2.820121299837554,-4.593387328988707,-4.138536326866556
1770452350352,122,-6,-4.063589153690868,-5.629718024311466,-5.3733160778551055
1770452350356,122,-6,-4.852207536590799,-5.565285617635799,-6.153874602205765
1770452350360,121,-7,-5.04826071127853,-6.654653490528404,-6.343463571015996
1770452350364,121,-7,-4.691595497671148,-6.449820190659437,-5.981864867364354
1770452350368,123,-5,-3.955646113212396,-4.7508693873222505,-5.242537363742848
1770452350372,123,-5,-3.060784683299625,-4.484150003201259,-4.3460241269176665
1770452350376,124,-4,-2.167016925910035,-3.71584183981512,-3.4509397213886506
1770452350380,125,-3,-1.2806816674226722,-2.5030575669049435,-2.5601652075001393
1770452350384,126,-2,-0.1966838347864176,-1.634066933683152,-1.4655643508358762
1770452350388,128,0,1.5074521841691308,0.4648152691718659,0.2547178636671612
1770452350392,131,3,4.378127110686224,3.2749613737245635,3.142197241218277
1770452350396,135,7,8.838119947203372,7.537610721493815,7.613491430114925
1770452350400,141,13,14.820688948232611,13.242483296790498,13.598646421216989
1770452350404,147,19,21.47886388804951,19.594951698284696,20.25253160939555
1770452350408,154,26,27.24054336536603,26.259984408982483,26.008726879437937
1770452350412,157,29,30.334169298023554,29.442657621058636,29.102048400951382
1770452350416,156,28,29.58538786279394,28.379940498542716,28.361953584728813
1770452350420,152,24,25.032963070516672,24.33808972868422,23.82647903262693
1770452350424,144,16,17.963858811182522,16.519682567094694,16.777705748417475
1770452350428,136,8,10.314676804165632,8.280063543900027,9.14576302231625
1770452350432,130,2,3.7931976679867208,2.5202432242591573,2.633666739364392
1770452350436,126,-2,-0.7548674307686376,-1.7517872863272117,-1.9132518607050004
1770452350440,123,-5,-3.4099127906688036,-4.459837170564321,-4.570748080293416
1770452350444,122,-6,-4.758953264965581,-5.740024125159981,-5.918976134424371
1770452350448,121,-7,-5.365326768163553,-6.45511749729745,-6.517154503651871
1770452350452,121,-7,-5.481763393568296,-6.7500723283584545,-6.619574565326302
1770452350456,121,-7,-5.1188402059412486,-6.497760813377067,-6.242282169240079
1770452350460,122,-6,-4.317437211997422,-5.688786443138735,-5.430900732515707
1770452350464,123,-5,-3.3546557848180276,-4.560680655547154,-4.463148999415335
1770452350468,124,-4,-2.696452048806999,-3.601668748626184,-3.801618251798162
1770452350472,124,-4,-2.726292632992501,-3.651265873828968,-3.8253507508278424
1770452350476,123,-5,-3.4649377593145987,-4.56064725514543,-4.552918283220209
1770452350480,122,-6,-4.510668219422241,-5.662735497873407,-5.584116945634453
1770452350484,121,-7,-5.264905465965772,-6.586431451520596,-6.3243833815722255
1770452350488,121,-7,-5.2968575511404445,-6.575913002819475,-6.346525142100657
1770452350492,122,-6,-4.6010340508664225,-5.681491204993389,-5.64572338544155
1770452350496,123,-5,-3.57920691453986,-4.503069482102799,-4.621105590764648
1770452350500,124,-4,-2.769846480087215,-3.7496181409983222,-3.807074288542494
1770452350504,124,-4,-2.513305035853255,-3.5092135099015964,-3.541232800985758
1770452350508,124,-4,-2.7691081081144984,-3.670054135481791,-3.7833462860227303
1770452350512,123,-5,-3.1860262252071223,-4.5949949113702235,-4.1851089448863465
1770452350516,123,-5,-3.3534083204663516,-4.566397362155427,-4.339632598888031
1770452350520,124,-4,-3.052717992934567,-3.7029149992005967,-4.0305369903777954
1770452350524,124,-4,-2.355329713373377,-3.553620855659636,-3.328102782734047
1770452350528,125,-3,-1.538291831030464,-2.64786175522121,-2.5058331525280373
1770452350532,126,-2,-0.9004051057273921,-1.6031562562036106,-1.8594858371252416
1770452350536,126,-2,-0.5949241574187946,-1.579808513139621,-1.5421102451368824
1770452350540,126,-2,-0.5698312100521401,-1.6693829349402405,-1.5039928570232477
1770452350544,126,-2,-0.6415375491625819,-1.6315215338634392,-1.564128742335542
1770452350548,126,-2,-0.6435526180381266,-1.5452617648729794,-1.5568447761588966
1770452350552,126,-2,-0.5421443803551073,-1.7402312287937165,-1.4472156481711689
1770452350556,126,-2,-0.4353618477342407,-1.3999853147490555,-1.331699083039293
1770452350560,127,-1,-0.4360191355150771,-0.8858080318504116,-1.322629556336337
1770452350564,126,-2,-0.5353283018452113,-1.4094464842681658,-1.4115241401273146
1770452350568,126,-2,-0.5753148362887714,-1.78403308211602,-1.4404764565330457
1770452350572,126,-2,-0.3673772997644821,-1.516835209569979,-1.2209876522955296
1770452350576,127,-1,0.1498672475175491,-0.5859747282566188,-0.692591383788674
1770452350580,128,0,0.8583168251260886,0.2536635954835398,0.0255508143397698
1770452350584,128,0,1.5464611049256722,0.50043193539107,0.722131242359809
1770452350588,129,1,2.04140769282494,1.2277243903947317,1.2256480124815057
1770452350592,129,1,2.283561072352631,1.522198627800223,1.4776501328564178
1770452350596,129,1,2.316413256310451,1.322293472486043,1.5216997433598718
1770452350600,129,1,2.230714990328201,1.3912324617929364,1.4479053556429802
1770452350604,129,1,2.1180107315354766,1.328479119372843,1.34705226232986
1770452350608,129,1,2.0604697088045505,1.401016846409921,1.30073494919567
1770452350612,129,1,2.1380743742354142,1.3344040416355032,1.388712144465798
1770452350616,129,1,2.4136653660694005,1.5181419340904565,1.674021384905832
1770452350620,130,2,2.8861116267809814,2.1868978517525393,2.156040587968706
1770452350624,130,2,3.4503747199938113,2.548340622994747,2.7302699015831893
1770452350628,131,3,3.915934019640793,3.133761423914225,3.206370092984649
1770452350632,131,3,4.094630711125404,3.634196882583038,3.3958519305399304
1770452350636,131,3,3.906959139975754,3.177011036643502,3.2187758068340035
1770452350640,130,2,3.4280327594357196,2.558711671861687,2.750285238803073
1770452350644,130,2,2.8372250940711004,2.153205289402174,2.170250491330105
1770452350648,129,1,2.316109574151906,1.513643131029633,1.660664703158075
1770452350652,129,1,1.9771138755306528,1.2681621527450002,1.3338342395704377
1770452350656,129,1,1.8630018792581784,1.5201440910134378,1.231873868158763
1770452350660,129,1,1.9817048741877132,1.2536004622194077,1.3618797894156387
1770452350664,129,1,2.311741128380962,1.4032125608323702,1.7016833604129171
1770452350668,130,2,2.7618928252700563,2.298510312974895,2.159964247259115
1770452350672,130,2,3.13937202319428,2.426175110280617,2.545063155606701
1770452350676,130,2,3.1930762697954247,2.4118400683800063,2.608103881673294
1770452350680,130,2,2.741943164829099,2.330941485749645,2.169572262170022
1770452350684,129,1,1.822042302658217,1.3265151305394132,1.264562402989379
1770452350688,128,0,0.7386057637230359,0.3554553156501554,0.1954530202817574
1770452350692,127,-1,-0.0649188706154724,-0.6423690909738101,-0.5962875177175131
1770452350696,126,-2,-0.2857170783185279,-1.4944485246250956,-0.8075039616406668
1770452350700,127,-1,-0.0004174146781316,-0.7822099358890371,-0.5136663250658061
1770452350704,128,0,0.3497318062725395,0.4638231644277406,-0.1556780783812893
1770452350708,128,0,0.2522957489895518,0.1671109441155156,-0.2454523323392592
1770452350712,126,-2,-0.5318885521631924,-1.430295160865574,-1.0201166984135812
1770452350716,125,-3,-1.8434601496814451,-2.7327564247730796,-2.318499211076619
1770452350720,124,-4,-3.271192246792075,-3.5535089582766863,-3.730560310013392
1770452350724,123,-5,-4.401697185330511,-4.7376555781078356,-4.846401469579341
1770452350728,122,-6,-4.992303905842522,-5.6860741394097705,-5.425681392706241
1770452350732,122,-6,-5.013216609657286,-5.49173683096873,-5.438142218757472
1770452350736,123,-5,-4.596917184314195,-4.787249003280057,-5.014359043620102
1770452350740,123,-5,-3.954570461543177,-4.390898295675385,-4.363748464633854
1770452350744,124,-4,-3.309390015422212,-4.021950922175317,-3.708489263087012
1770452350748,124,-4,-2.8598722586270418,-3.2992717083905663,-3.2471312059870225
1770452350752,125,-3,-2.7440130174375477,-2.9640507377189182,-3.1188882493042662
1770452350756,124,-4,-2.9874889561115845,-3.284664475966107,-3.35075304488351
1770452350760,124,-4,-3.4745153466082863,-3.8983479969703674,-3.8270451276079576
1770452350764,123,-5,-3.991776245806255,-4.564392840729011,-4.3335287819604735
1770452350768,123,-5,-4.331975013850457,-4.677995917276054,-4.662417554957342
1770452350772,123,-5,-4.382109433531899,-4.688083828977033,-4.701403660492613
1770452350776,123,-5,-4.138443041332529,-4.460143872388264,-4.447733073855263
1770452350780,124,-4,-3.661470236025599,-3.820383208544182,-3.961801068837488
1770452350784,124,-4,-3.0283449069985693,-3.581721910791086,-3.319427993161638
1770452350788,125,-3,-2.31836075742059,-2.7046048893463355,-2.5986163470275967
1770452350792,126,-2,-1.617898524858202,-1.6608277766789326,-1.885801285284272
1770452350796,126,-2,-1.0162880332332704,-1.4647580393373127,-1.2717665958903326
1770452350800,127,-1,-0.5904912109883474,-0.8761476807788634,-0.8352406865030685
1770452350804,127,-1,-0.3980148046714649,-0.4600580901998092,-0.6343997224546014
1770452350808,127,-1,-0.4865323574135404,-0.9157813775620018,-0.7156582525355222
1770452350812,126,-2,-0.901018671526136,-1.3825811128101766,-1.1215463414470008
1770452350816,126,-2,-1.6534999399329922,-1.790090906709894,-1.862569644852245
1770452350820,125,-3,-2.6483159452067677,-2.5483976125486256,-2.8438146747106385
1770452350824,124,-4,-3.626405100031402,-3.76395351836651,-3.808358498928926
1770452350828,123,-5,-4.225857100822234,-4.679039088307717,-4.396069302798857
1770452350832,123,-5,-4.173861771423587,-4.544050206215748,-4.3348120768400635
1770452350836,124,-4,-3.485637891721832,-3.7118695915252897,-3.639469574648106
1770452350840,125,-3,-2.502556522665359,-2.5549464628197445,-2.6500720904336648
1770452350844,126,-2,-1.714054322680102,-1.8090195313382345,-1.8540261095578805
1770452350848,126,-2,-1.4735140269900322,-1.6281176133417443,-1.603191658047799
1770452350852,126,-2,-1.7980877613205202,-1.6039766524798955,-1.9148098426874185
1770452350856,125,-3,-2.387202871492653,-2.685710954054355,-2.489897905115773
1770452350860,124,-4,-2.845780389418754,-3.54579264297885,-2.935657574476169
1770452350864,125,-3,-2.94946818123897,-2.8481170019547783,-3.029829566972615
1770452350868,125,-3,-2.7583323419202515,-2.565143568296562,-2.8329429937514936
1770452350872,125,-3,-2.5161430847715285,-2.696921575824156,-2.5863039413089575
1770452350876,125,-3,-2.4434366812933774,-2.583113590576533,-2.5062889166849005
1770452350880,125,-3,-2.5815601249127607,-2.670254942824637,-2.6320696349824875
1770452350884,125,-3,-2.768261228156995,-2.718854102622711,-2.803476053030964
1770452350888,125,-3,-2.738346648793569,-2.708018355782031,-2.7598105123245604
1770452350892,125,-3,-2.297530271246896,-2.538952110275951,-2.3097878420450413
1770452350896,126,-2,-1.4831189850352176,-1.7751055978457275,-1.4901728578336837
1770452350900,127,-1,-0.6043004490192887,-0.4465898006431516,-0.6070907043741938
1770452350904,128,0,-0.1034695477737315,0.0105575746095629,-0.0997515123271092
1770452350908,127,-1,-0.3011688463852731,-0.4053958930773593,-0.287357001493038
1770452350912,127,-1,-1.1857516120335356,-0.8728289427229048,-1.1594077840671018
1770452350916,125,-3,-2.3934881381058446,-2.4540552805071925,-2.354730525442064
1770452350920,124,-4,-3.4025423800556265,-3.7541499281086783,-3.353353575892832
1770452350924,124,-4,-3.818662431373976,-3.71961885293372,-3.7609312317606474
1770452350928,124,-4,-3.5627742612299365,-3.607028245808528,-3.497054029389804
1770452350932,125,-3,-2.841147566476821,-2.754769708089065,-2.7672276462990766
1770452350936,126,-2,-1.944152438969993,-1.4864046459125002,-1.8624012549854263
1770452350940,127,-1,-1.050500436173467,-0.8404588630075207,-0.9618817944307748
1770452350944,127,-1,-0.1972203116465245,-0.540142658778495,-0.1017461251600193
1770452350948,128,0,0.5912146885745342,0.1279327424342669,0.6951884882714099
1770452350952,129,1,1.1928960917411362,1.5670832608340202,1.307066770251144
1770452350956,130,2,1.457970915977842,2.1537273450111267,1.5823150892515836
1770452350960,129,1,1.4010007577596322,1.5142877697450163,1.5343496694795151
1770452350964,129,1,1.289467886893949,1.121368846721499,1.4313245362240687
1770452350968,129,1,1.4914944432715838,1.4099928108833897,1.6423138499600274
1770452350972,130,2,2.1942819494852728,2.344428300611548,2.3540804844594545
1770452350976,131,3,3.234673500233395,3.314255047611512,3.4021005625425973
1770452350980,132,4,4.181426110234469,4.420608774079878,4.354364099771163
1770452350984,133,5,4.60156281103967,5.147585918143905,4.778615583478184
1770452350988,132,4,4.310910754081598,4.399036942584019,4.492861091527406
1770452350992,131,3,3.440142174785281,3.329006347968148,3.6303516976519226
1770452350996,130,2,2.3076165701335443,2.324797762964807,2.5102778484920347
1770452351000,129,1,1.2390540028775314,1.4428042748749352,1.455806015244808
1770452351004,129,1,0.4722171456456793,1.0789633307930484,0.6999991252944263
1770452351008,128,0,0.1474674980357925,0.5110982022794786,0.3802583584127725
1770452351012,128,0,0.2833149506747319,0.1515679485470507,0.5167797531624323
1770452351016,128,0,0.6992055477946574,0.5455965873109787,0.9340268057278108
1770452351020,129,1,0.9944074423775218,1.1958700459863874,1.2352043422535066
1770452351024,129,1,0.7134070528851542,1.324495293970421,0.9645606644699586
1770452351028,128,0,-0.348948450773373,0.2773055403089492,-0.0864675217889494
1770452351032,126,-2,-1.9455135137291195,-1.673683525717872,-1.6737774620201358
1770452351036,124,-4,-3.495797201594661,-3.588634283997721,-3.2172276197515224
1770452351040,123,-5,-4.47660446917676,-4.721854132107376,-4.1921703888092186
1770452351044,123,-5,-4.7710916826530845,-4.702204670226417,-4.48098282240026
1770452351048,124,-4,-4.674541467947149,-3.729435580435245,-4.379458818119009
1770452351052,124,-4,-4.562948407377238,-3.6445291004446543,-4.263298412633842
1770452351056,123,-5,-4.547117312493935,-4.66258067807737,-4.240981805119872
1770452351060,123,-5,-4.432519873423415,-4.6454780035697,-4.116404524052003
1770452351064,124,-4,-3.982556173532803,-3.792133392830301,-3.655790585062245
1770452351068,125,-3,-3.1916400761525603,-2.631148716682482,-2.8592828879248406
1770452351072,126,-2,-2.3072408104070616,-1.7216200820060596,-1.976585997353103
1770452351076,126,-2,-1.6023300232421271,-1.6208893545019722,-1.2755111139608322
1770452351080,127,-1,-1.0914540419819196,-0.6938968640485588,-0.7617612063524122
1770452351084,128,0,-0.37925471259062,0.2305279572692486,-0.0353151630488048
1770452351088,129,1,1.266031833119032,1.3601435793858316,1.6315127506282
1770452351092,133,5,4.607074260611915,5.310340374073977,4.991056868622987
1770452351096,138,10,9.978565473666327,10.333719572131228,10.368750018091726
1770452351100,144,16,16.86446952740291,16.337941953671145,17.246968974244094
1770452351104,152,24,23.783377314146662,24.17554653382855,24.151604723352065
1770452351108,157,29,28.69001617464697,29.44238769978221,29.048931826263797
1770452351112,158,30,29.82851891666417,30.182466230641968,30.191502095567667
1770452351116,155,27,26.631077842368892,27.490523505349927,27.01124886936331
1770452351120,149,21,20.11750783099643,21.070076925752616,20.51966843508355
1770452351124,140,12,12.4702050170777,12.482908177968184,12.889602992108864
1770452351128,133,5,5.948400805156817,5.127918371033855,6.375908095065553
1770452351132,129,1,1.78255737555768,1.5515597991523855,2.209873188673167
1770452351136,129,1,-0.2272016602476609,1.141708512806893,0.1941778727134515
1770452351140,128,0,-1.179770237614303,0.3746646094609018,-0.766369615293808
1770452351144,126,-2,-2.1037842537879294,-1.8045203439719708,-1.694268665043512
1770452351148,124,-4,-3.32850127505138,-3.654073188463272,-2.9130154146948453
1770452351152,123,-5,-4.556344125229766,-4.608052245334366,-4.125698213359363
1770452351156,123,-5,-5.354295300054273,-4.774508434086587,-4.907520495296895
1770452351160,123,-5,-5.546671540129003,-4.628570412436582,-5.091614406369762
1770452351164,123,-5,-5.265082384684634,-4.869842622073225,-4.811303606526887
1770452351168,123,-5,-4.77757186319079,-4.554847259479836,-4.329026243896038
1770452351172,124,-4,-4.322412207453098,-3.74648480224153,-3.876234076392536
1770452351176,124,-4,-4.045296438928537,-3.6474766882024063,-3.595670144971981
1770452351180,124,-4,-4.004325344929415,-3.725606374793149,-3.5468117508534456
1770452351184,124,-4,-4.175555814052272,-3.8038794484439866,-3.709348954676807
1770452351188,124,-4,-4.436440299371325,-3.610329925445938,-3.964208874504427
1770452351192,124,-4,-4.571824850966726,-3.7236584854741217,-4.097266257412892
1770452351196,123,-5,-4.3676366314467865,-4.667147709785874,-3.892486900560669
1770452351200,124,-4,-3.76989236439541,-3.698292663962104,-3.293453795547907
1770452351204,126,-2,-2.967175993680199,-1.8277290928838812,-2.4885092127236215
1770452351208,126,-2,-2.2841060901105905,-1.6112789572755573,-1.8033279129620845
1770452351212,126,-2,-1.9612386222776683,-1.712747849524266,-1.478292727647441
1770452351216,126,-2,-2.0133666287602376,-1.7203822807641147,-1.527017891666308
1770452351220,126,-2,-2.264081624391918,-1.6157659658163517,-1.7731360978634945
1770452351224,126,-2,-2.4916935727514615,-1.9444079326221264,-1.996495301191171
1770452351228,125,-3,-2.565261425546683,-2.4643850037602455,-2.0674030465769677
1770452351232,126,-2,-2.491619483984159,-1.8881989936581016,-1.992714435904422
1770452351236,126,-2,-2.3597784604167615,-1.5519416203853065,-1.8606532164018408
1770452351240,126,-2,-2.2369202763660643,-1.7740409020565666,-1.7371486500179736
1770452351244,126,-2,-2.1075477850119424,-1.824734480091292,-1.6054461429996478
1770452351248,126,-2,-1.900744248196915,-1.5278781492435831,-1.3946366949542344
1770452351252,127,-1,-1.5585632980829738,-0.9122164286104926,-1.0486423599924917
1770452351256,127,-1,-1.0722369735421748,-0.4561549394482672,-0.560740994676389
1770452351260,128,0,-0.4735827040484253,0.0569430981927165,0.0373969346015778
1770452351264,128,0,0.1803617807549399,0.3981224421127176,0.6910133034041126
1770452351268,129,1,0.8149580943234551,1.2070416703695463,1.327293051820988
1770452351272,130,2,1.3622143598247312,2.3521859889489125,1.8777988368545016
1770452351276,130,2,1.8021755895443643,2.2795195132021058,2.320817933498028
1770452351280,130,2,2.17192379280689,2.3029964936845646,2.6921939751516546
1770452351284,131,3,2.5119624568360654,3.1703134386827396,3.032210631153122
1770452351288,131,3,2.796814527924157,3.402410306944392,3.315933122636647
1770452351292,131,3,2.92534607035609,3.165489582360524,3.4434749836876835
1770452351296,131,3,2.793893717757721,3.448331393884984,3.3125923324140567
1770452351300,131,3,2.4054287692528824,3.1538887790360204,2.926689406750417
1770452351304,130,2,1.9314296441293295,2.27341299792332,2.45623777527915
1770452351308,130,2,1.6575140167719302,2.3432280930179794,2.185261640645954
1770452351312,130,2,1.8172703082399704,2.156559631958247,2.346248457702393
1770452351316,130,2,2.4151117489435467,2.514165183210767,2.9431963768851332
1770452351320,132,4,3.176553920658267,4.047772722479134,3.7016524047411457
1770452351324,132,4,3.687690073703842,4.396717039026447,4.20869343882725
1770452351328,132,4,3.6386955992082184,4.194762671108304,4.157054127974567
1770452351332,131,3,3.002505969823701,3.2992486661299085,3.522433207083763
1770452351336,130,2,2.0445071948145324,2.348158481638546,2.5701848930468945
1770452351340,130,2,1.1914341408453248,2.2373090076089976,1.72324963089704
1770452351344,129,1,0.8473457790883435,1.1797693795804904,1.381116065451652
1770452351348,129,1,1.2210676402424834,1.4448559403385697,1.751259681132014
1770452351352,131,3,2.2150213729156247,3.000071804184828,2.738965657828558
1770452351356,131,3,3.437903152055443,3.676829157502432,3.9573998477114
1770452351360,133,5,4.373084516158732,4.865509390392166,4.892267155892907
1770452351364,133,5,4.639959518982938,5.592678388151743,5.161500995319643
1770452351368,133,5,4.193239442666179,4.983860062365956,4.716614870228055
1770452351372,131,3,3.3073229726429747,3.4580146413295796,3.830593162382128
1770452351376,130,2,2.338177749010957,2.223521194171174,2.860562829386077
1770452351380,130,2,1.454389588344584,2.267175747520806,1.9763794650140576
1770452351384,129,1,0.5734823431213341,1.2948687030603632,1.094997564455403
1770452351388,128,0,-0.4551354475583751,0.1571098829715933,0.0644559172639431
1770452351392,127,-1,-1.621839025700234,-0.5980045971191276,-1.1055007564273225
1770452351396,125,-3,-2.718225104225302,-2.867654245230897,-2.2044435152301505
1770452351400,124,-4,-3.5176833221770796,-3.5582154009658997,-3.0040680738509327
1770452351404,125,-3,-3.974575648681097,-2.901095174164745,-3.459646123416942
1770452351408,124,-4,-4.229363358373317,-3.656634034646322,-3.7143791881499855
1770452351412,124,-4,-4.425617684358099,-3.7426093771927182,-3.913270958078042
1770452351416,124,-4,-4.548086699237821,-3.821295367295794,-4.039479368799068
1770452351420,123,-5,-4.457018765996569,-4.550730411612197,-3.950474926412882
1770452351424,124,-4,-4.074001096784539,-3.957745601798238,-3.5672961726021177
1770452351428,125,-3,-3.5113716174378,-2.5420489245854165,-3.0048101356143633
1770452351432,126,-2,-3.0057098396849926,-1.8905130320823296,-2.5019276623477973
1770452351436,125,-3,-2.7366249076498255,-2.690604793817216,-2.2371055831089386
1770452351440,125,-3,-2.7217891987596894,-2.691757529538437,-2.22489531469227
1770452351444,126,-2,-2.860367568112239,-1.851580858254026,-2.36359683979772
1770452351448,125,-3,-3.035092766795779,-2.5816811770323445,-2.5381978910172194
1770452351452,125,-3,-3.173718090659356,-2.9115197740024295,-2.6786930627752317
1770452351456,125,-3,-3.2553071908664406,-2.616214832754027,-2.764014653098952
1770452351460,125,-3,-3.2869353376963537,-2.8649842172055395,-2.7994631935187155
1770452351464,125,-3,-3.270995137103041,-2.629561749082931,-2.785881832912872
1770452351468,125,-3,-3.1842006594261028,-2.802860666915591,-2.69982180163509
1770452351472,125,-3,-2.9857525371005624,-2.707249692373962,-2.501876537629562
1770452351476,126,-2,-2.6493231680310187,-1.7889689865441891,-2.1676097894982425
1770452351480,126,-2,-2.198813394779104,-1.7940354683665842,-1.7214081950705689
1770452351484,126,-2,-1.7302907869097388,-1.6257883531959672,-1.2577242554202028
1770452351488,127,-1,-1.396984603546752,-0.8525333270010597,-0.9278127901711328
1770452351492,127,-1,-1.3348128635053245,-0.6115512641573773,-0.8673230082922709
1770452351496,127,-1,-1.5570664869466335,-0.9341945450915664,-1.09076292954575
1770452351500,126,-2,-1.9104841289086991,-1.6640301047643058,-1.445832347727492
1770452351504,126,-2,-2.1595877142937203,-1.761224212244971,-1.6970234455242386
1770452351508,126,-2,-2.1502302020076756,-1.7053246539822973,-1.6900113016745624
1770452351512,126,-2,-1.9196366871777129,-1.741801868223969,-1.462613674344588
1770452351516,127,-1,-1.659600028340021,-0.8347244383947697,-1.2075313014149505
1770452351520,127,-1,-1.5658250859209208,-0.7718806715019615,-1.1199958241930446
1770452351524,126,-2,-1.7038559075562585,-1.6840079699715025,-1.2629441966277837
1770452351528,126,-2,-1.9939721769064271,-1.7522118225238594,-1.5541044943524545
1770452351532,126,-2,-2.2908788888126304,-1.7050358925242508,-1.8490072571220464
1770452351536,126,-2,-2.4577063040223894,-1.8807829157155735,-2.0150928367620393
1770452351540,126,-2,-2.393111014292148,-1.741986853350373,-1.9547332547885377
1770452351544,126,-2,-2.061398125394127,-1.722536997490892,-1.6314341596822648
1770452351548,126,-2,-1.55549261788999,-1.710313557676291,-1.13360407468509
1770452351552,127,-1,-1.1168224302702163,-0.7380206696025948,-0.6990807644214235
1770452351556,128,0,-1.0132458287440174,0.1281080518433692,-0.596146209227397
1770452351560,127,-1,-1.3194250733160306,-0.7568759060341235,-0.9023366046624068
1770452351564,126,-2,-1.8015363785445488,-1.7228319691576894,-1.3858510934779933
1770452351568,126,-2,-2.0584194062379666,-1.713934581729162,-1.645769834293382
1770452351572,126,-2,-1.8311524507498425,-1.7226697354298957,-1.422895849355152
1770452351576,127,-1,-1.2189780368020933,-0.9172295380787026,-0.8164376188536753
1770452351580,128,0,-0.6133837488100967,0.3282001363982099,-0.2174019872052734
1770452351584,128,0,-0.4060062781684384,0.1303807796782374,-0.0157862340760784
1770452351588,127,-1,-0.7128374835780567,-0.5308685385109653,-0.325662511903336
1770452351592,127,-1,-1.325966239576602,-0.9535557759199232,-0.939000805433088
1770452351596,126,-2,-1.899944344687419,-1.6790907526311862,-1.5128994585971094
1770452351600,126,-2,-2.1999515246244483,-1.9002917364154528,-1.8158721905796928
1770452351604,126,-2,-2.225314815149782,-1.662946748043286,-1.8482973350028389
1770452351608,126,-2,-2.146799320207716,-1.708585349187206,-1.778446823354804
1770452351612,126,-2,-2.1353792002742167,-1.8332102882358392,-1.7731899451784487
1770452351616,126,-2,-2.2150895679454257,-1.7687680526925922,-1.854438681273187
1770452351620,126,-2,-2.231291592520626,-1.8483528706961785,-1.8694555805788493
1770452351624,126,-2,-1.9443262211337224,-1.6930787651949204,-1.582989616725226
1770452351628,127,-1,-1.1915213143090246,-0.6863872122433214,-0.8354087035437521
1770452351632,128,0,-0.0253702241307109,0.122887355389091,0.3218193750467939
1770452351636,129,1,1.2647175673838698,1.2836253426565103,1.6032932200526724
1770452351640,131,3,2.2921053884136375,3.075234077206859,2.6256715957612826
1770452351644,131,3,2.814912587262937,3.401134684429197,3.147160117254789
1770452351648,131,3,2.9134735150786266,3.1914830433853822,3.2456747570352737
1770452351652,131,3,2.942131668713796,3.2451550831089815,3.272936150268648
1770452351656,131,3,3.2591877862448735,3.139532362956948,3.5859643834110653
1770452351660,132,4,3.933949091379005,4.2173506758806605,4.254352190667741
1770452351664,133,5,4.6669935384711385,5.290241074567165,4.9799983139816355
1770452351668,133,5,4.994047335153061,5.2641982013521975,5.3001229670542465
1770452351672,133,5,4.618511284267087,5.190206003420114,4.919048818300631
1770452351676,132,4,3.620836713775832,4.139294800591247,3.9176034628851513
1770452351680,130,2,2.3938514352657183,2.2250398166228367,2.688864390794376
1770452351684,129,1,1.3688176703399166,1.2987415638713105,1.6636474786746678
1770452351688,129,1,0.7598534082242459,1.2398624835825938,1.0538150622748743
1770452351692,129,1,0.5182058221175377,1.2379679103450218,0.8075061881453237
1770452351696,129,1,0.4738193822178121,1.0315845411584486,0.7540011840229043
1770452351700,128,0,0.4713367884949824,0.376900781214177,0.7413679861193436
1770452351704,128,0,0.3721478717631555,0.0839611080245013,0.6355367344961932
1770452351708,128,0,0.0027294329801828,0.513308624742162,0.2640570375152689
1770452351712,128,0,-0.7923017939143799,-0.0944874446399084,-0.5315219962064672
1770452351716,126,-2,-1.989979893336726,-1.615050920061365,-1.7315923137261902
1770452351720,125,-3,-3.3025454429533085,-2.991989842362926,-3.0486527695776924
1770452351724,123,-5,-4.310569194207318,-4.577001091128949,-4.061368395583936
1770452351728,123,-5,-4.73621371281736,-4.788724837205249,-4.491175282483956
1770452351732,124,-4,-4.619873040259048,-3.837967164838525,-4.379900018215546
1770452351736,124,-4,-4.251992022068332,-3.81604948927531,-4.0189370219437315
1770452351740,124,-4,-3.9444340632089343,-3.8584671146343057,-3.718348644480931
1770452351744,124,-4,-3.847745841589565,-3.674835312523265,-3.625871517918704
1770452351748,124,-4,-3.929305812243246,-3.758661251077728,-3.70875972994517
1770452351752,124,-4,-4.065120511996245,-3.823603857915112,-3.8463405806801
1770452351756,124,-4,-4.134220347240051,-3.8505865781523383,-3.921085508536852
1770452351760,124,-4,-4.049055208495458,-3.8165477225439703,-3.84530233334392
1770452351764,124,-4,-3.7187936390169143,-3.73770796679276,-3.524264167787541
1770452351768,125,-3,-2.9746372100019585,-2.718157235120493,-2.784852340414965
1770452351772,127,-1,-1.5073127765101524,-0.8490744757210382,-1.3165108788114894
1770452351776,129,1,1.105987082219206,1.175645464757508,1.3008725353063384
1770452351780,133,5,5.221653168143803,5.160510129943748,5.418522056148033
1770452351784,139,11,10.83281156625823,11.26257555827475,11.02486954733479
1770452351788,145,17,17.31666640464508,17.26870030939752,17.49617462532184
1770452351792,151,23,23.423168891988414,23.164233360178276,23.586486677349185
1770452351796,156,28,27.608131029465145,28.171946371126587,27.758272539064325
1770452351800,157,29,28.627080045585632,29.136313607161956,28.771720493802395
1770452351804,154,26,26.11188783067881,26.2448397293796,26.25849831138138
1770452351808,149,21,20.790400198782795,21.27605890892376,20.9421950243835
1770452351812,142,14,14.17744401064042,14.134974986565911,14.332715279011715
1770452351816,135,7,7.885840470878994,7.251125023379609,8.040089067487273
1770452351820,131,3,2.961127012116446,3.04464800216079,3.109332649270166
1770452351824,128,0,-0.3693154737637418,0.3468894289679172,-0.2313583205908164
1770452351828,126,-2,-2.4510161859142645,-1.843411683486464,-2.3250928587189854
1770452351832,124,-4,-3.745563540141262,-3.74313297203508,-3.6293598876072193
1770452351836,123,-5,-4.538109823785295,-4.86955695577089,-4.426099827711261
1770452351840,123,-5,-4.942051898425377,-4.865072650461349,-4.829619681121597
1770452351844,123,-5,-5.044901362152502,-4.7378891123216125,-4.931940724042342
1770452351848,123,-5,-4.986615294450425,-4.787743708395523,-4.876797249847266
1770452351852,123,-5,-4.9161474772013,-4.770838962368072,-4.812951448245934
1770452351856,123,-5,-4.91140009700018,-4.865913618267585,-4.815313802102412
1770452351860,123,-5,-4.951075549980327,-4.885612762364906,-4.860224155547877
1770452351864,123,-5,-4.953280157790034,-4.720839790805616,-4.865722164492485
1770452351868,123,-5,-4.84322638205676,-4.82267208252531,-4.758298506934106
1770452351872,123,-5,-4.605599660300026,-4.704322586523569,-4.523879622405541
1770452351876,124,-4,-4.293064937296113,-3.965542258513149,-4.215895443240967
1770452351880,124,-4,-3.9916925472768336,-3.781602380128051,-3.920473564977635
1770452351884,124,-4,-3.778024118519047,-3.8606516806312454,-3.7131326287133017
1770452351888,124,-4,-3.7035658714179616,-3.6631717406004074,-3.643823828679984
1770452351892,124,-4,-3.797836996294283,-3.871827628449017,-3.7415366230522578
1770452351896,124,-4,-4.050013571113801,-3.80896275020968,-3.996574863134045
1770452351900,124,-4,-4.366840962210667,-3.934412342516701,-4.316967267474677
1770452351904,123,-5,-4.56679131212106,-4.75632807046276,-4.520893130278136
1770452351908,123,-5,-4.4591542018188,-4.720349124757717,-4.416525672241756
1770452351912,124,-4,-3.961867338405128,-3.860759879785999,-3.922216370042512
1770452351916,125,-3,-3.15231603020871,-2.7835638701115952,-3.117416057275926
1770452351920,126,-2,-2.211515285405313,-1.9986086372174867,-2.1839205864987714
1770452351924,126,-2,-1.3298765606458234,-1.6933166169531602,-1.3097844892541493
1770452351928,127,-1,-0.6483660925988971,-0.7868029625333635,-0.6327539960719177
1770452351932,128,0,-0.2282135189084003,0.1783865738895264,-0.2135337069037828
1770452351936,128,0,-0.0183109972640382,0.2122702756986811,-0.0035461982669333
1770452351940,128,0,0.1464335407973368,-0.0481817811298342,0.1593662994209657
1770452351944,128,0,0.4580513502860189,0.3939449285119107,0.466095643149413
1770452351948,129,1,0.9859028194756908,1.0694461236183237,0.9868996294820128
1770452351952,129,1,1.5815337151727589,1.3531726622337064,1.5753899879335218
1770452351956,130,2,1.9383440186332328,2.02670273839873,1.9268779021872913
1770452351960,130,2,1.7924101645140709,2.1300567283215783,1.777957801183409
1770452351964,129,1,1.1309434554386106,1.2043092091809704,1.114852504823025
1770452351968,128,0,0.243775306439864,0.2317681404904855,0.2259865691460576
1770452351972,127,-1,-0.4422455309189598,-0.8038949533492591,-0.4626555552359092
1770452351976,127,-1,-0.6299720439268222,-0.8100070270363051,-0.6541999013725799
1770452351980,128,0,-0.3127327456440874,-0.0411973198140055,-0.3418419870094266
1770452351984,128,0,0.2866170190391453,0.388465604083684,0.2522497357875339
1770452351988,129,1,0.9218610885759289,0.9930997422328064,0.8829614414006905
1770452351992,129,1,1.487713642181938,1.475973075231598,1.4456467023179511
1770452351996,130,2,2.017782157327046,1.8471142417915276,1.9733498218570336
1770452352000,130,2,2.550595027538721,2.3572820561279397,2.503236505491503
1770452352004,131,3,3.008043360974295,2.937746726516681,2.95630857549323
1770452352008,131,3,3.207925882506115,3.456174940033027,3.1509261845686383
1770452352012,131,3,3.006120679273595,3.005019707539603,2.9446608492454134
1770452352016,130,2,2.4474165511780543,2.2852753506146493,2.383562571088576
1770452352020,130,2,1.796024190118193,1.9623687460536328,1.731361445643682
1770452352024,129,1,1.4107997314073055,1.2619188988039096,1.3451328346568712
1770452352028,129,1,1.5416607359290817,1.194596299663527,1.4732899606940992
1770452352032,130,2,2.1808951047694163,2.1948350188892607,2.1077881732911616
1770452352036,131,3,3.0729917132081854,3.1613916551268355,2.993833256925031
1770452352040,132,4,3.875727585043399,4.0116560696461985,3.790696113837721
1770452352044,132,4,4.350965076910892,4.270658056437439,4.2620198497954815
1770452352048,132,4,4.451746737484955,4.101086278598078,4.361669639170163
1770452352052,132,4,4.27298359525029,4.339585771046934,4.183343999507464
1770452352056,132,4,3.9384318822813578,3.97032053522178,3.848209182065126
1770452352060,131,3,3.5136123005455686,3.227529197645645,3.4198925747031126
1770452352064,131,3,2.983568115076651,3.044121369451066,2.883764980276891
1770452352068,130,2,2.2863267200151696,2.301299383034363,2.180223250684595
1770452352072,129,1,1.3726853893171187,1.1451667397598624,1.2628316812140918
1770452352076,128,0,0.2617642358828838,0.1494534653525495,0.1516214615570625
1770452352080,127,-1,-0.9288275774582644,-0.9439518363629372,-1.0378843891283305
1770452352084,126,-2,-1.9959970288957496,-1.7935373254943303,-2.105999092432205
1770452352088,125,-3,-2.727710961624686,-2.8803427764526246,-2.8420524254325694
1770452352092,124,-4,-3.030638847197765,-3.665206377549076,-3.150751215286048
1770452352096,125,-3,-3.0216724639292596,-3.0713821198993134,-3.1460838803108
1770452352100,125,-3,-2.9742036981317908,-2.6772848285383395,-3.100600992253701
1770452352104,125,-3,-3.122616199915236,-3.1256961927810876,-3.2500696482341267
1770452352108,124,-4,-3.4834074386725344,-3.4983998629139457,-3.6124782563344966
1770452352112,124,-4,-3.862955807453304,-4.123359724398133,-3.994360378145729
1770452352116,123,-5,-4.052782114280326,-4.581731780645182,-4.186626270558976
1770452352120,124,-4,-4.030524918565851,-4.172199282733727,-4.166839212366984
1770452352124,124,-4,-3.975347048780863,-3.646749412016466,-4.114675325836452
1770452352128,124,-4,-4.0863492883943735,-3.9417607006282784,-4.229060216846294
1770452352132,123,-5,-4.3847171824853675,-4.765226540520059,-4.529871493422179
1770452352136,123,-5,-4.687451913411974,-4.884369769471685,-4.833252624083795
1770452352140,123,-5,-4.764459697048755,-4.936910164907841,-4.910273220418191
1770452352144,123,-5,-4.525696700215208,-4.819372969959309,-4.67316710285001
1770452352148,124,-4,-4.083198881113397,-3.808233026795804,-4.234788966402213
1770452352152,124,-4,-3.658946899227559,-3.889577939489653,-3.81537396604826
1770452352156,124,-4,-3.427101513687893,-3.8057815630180207,-3.586549573217162
1770452352160,125,-3,-3.4034282867218746,-2.993709529266567,-3.563283716887766
1770452352164,124,-4,-3.445371471825071,-3.787530501770369,-3.6043848032286134
1770452352168,124,-4,-3.3574924244533983,-3.813024981702747,-3.516405544207034
1770452352172,125,-3,-3.032519624387493,-2.9189757823213434,-3.193300794537965
1770452352176,125,-3,-2.527826488401785,-2.7821387918766156,-2.692410178146047
1770452352180,126,-2,-2.0227390448403235,-2.034595445133653,-2.1917567647526113
1770452352184,126,-2,-1.6957826875872686,-1.715267935481027,-1.8679349112218788
1770452352188,126,-2,-1.6148840479979514,-1.9254977613918032,-1.7877242948183774
1770452352192,126,-2,-1.7082439917145216,-1.7890980009349775,-1.8800946629679105
1770452352196,126,-2,-1.8191802459353372,-1.9607767630212445,-1.9905044825177889
1770452352200,126,-2,-1.802779143103573,-1.8466743121051623,-1.975518577549819
1770452352204,126,-2,-1.61302128418539,-1.875951580970212,-1.7886141630358827
1770452352208,126,-2,-1.3345999328016618,-1.8061409098910135,-1.5130368983594602
1770452352212,127,-1,-1.1296099813394762,-0.878845314921739,-1.310330376254299
1770452352216,127,-1,-1.12154781355498,-0.942234637199492,-1.3042746371117862
1770452352220,126,-2,-1.3056807067426823,-1.82439250279425,-1.4898296962148647
1770452352224,126,-2,-1.565769961007092,-1.91746029819211,-1.749952077367241
1770452352228,126,-2,-1.7723184592423684,-1.762639702355106,-1.9555186013747412
1770452352232,126,-2,-1.8600941336455132,-1.933089796777366,-2.043153456615558
1770452352236,126,-2,-1.8293116843108437,-1.9247274944369144,-2.014441212101828
1770452352240,126,-2,-1.7102399345129755,-1.7974802636651483,-1.898880354752488
1770452352244,126,-2,-1.5497360416061063,-1.9998167580979824,-1.7412298321322512
1770452352248,126,-2,-1.4173663049115692,-1.628210724244782,-1.6098261193678405
1770452352252,127,-1,-1.3863929566946127,-1.140596146174627,-1.578491740416647
1770452352256,126,-2,-1.481032037948561,-1.690737391707862,-1.6727112627176426
1770452352260,126,-2,-1.6423776512320012,-2.03947443921085,-1.8343311552788204
1770452352264,126,-2,-1.760140781220271,-1.782142794839511,-1.953219979927218
1770452352268,126,-2,-1.7509834530529569,-1.8032178148939808,-1.9457957982629484
1770452352272,126,-2,-1.6212960154984364,-2.0588114898956285,-1.8177539076373652
1770452352276,126,-2,-1.4661747997869488,-1.683611695052258,-1.663547766759308
1770452352280,127,-1,-1.3993362080817966,-1.1418107837660187,-1.5970402013111735
1770452352284,126,-2,-1.462391584713822,-1.606447417263954,-1.6604560252816447
1770452352288,126,-2,-1.5938097583880109,-2.0375011234756153,-1.792430909375078
1770452352292,126,-2,-1.6933678567543131,-1.8319826717453236,-1.8924736249113807
1770452352296,126,-2,-1.7215243073130966,-1.887694254102379,-1.921074761851915
1770452352300,126,-2,-1.7341093827071647,-1.9976367127422456,-1.9345324276901628
1770452352304,126,-2,-1.8178880584346355,-1.6678723519714531,-2.0198250963698383
1770452352308,126,-2,-1.98897890143018,-2.0713750643895725,-2.1924598888708884
1770452352312,125,-3,-2.1480308400839903,-2.751944374403694,-2.352014375403846
1770452352316,126,-2,-2.129249521570559,-2.018947324638966,-2.3321719750621543
1770452352320,126,-2,-1.797958291167436,-1.8447717913219304,-1.9988940052963835
1770452352324,126,-2,-1.1234369388495318,-1.8154124012905328,-1.323081148024854
1770452352328,128,0,-0.1877668638522809,0.055854711600082,-0.3885514252527901
1770452352332,129,1,0.8566441896417549,1.1165338470283277,0.6520876695969227
1770452352336,129,1,1.8336979508538471,1.0791887795154071,1.6251410957620007
1770452352340,130,2,2.5667315751373847,2.0790842045392917,2.3571284716525915
1770452352344,131,3,2.913859413995211,3.245457766799215,2.7067573193318615
1770452352348,131,3,2.852214904526608,2.9926323703714455,2.6486095287287967
1770452352352,130,2,2.5479337271255487,2.1552287999602107,2.346005368949294
1770452352356,130,2,2.297113567123698,2.045127426371934,2.094407574587363
1770452352360,130,2,2.3329678538585625,2.078285302390254,2.1283103732914492
1770452352364,130,2,2.647045380796311,2.2993354871503087,2.4407914756849673
1770452352368,131,3,2.98644501546368,2.878399812939192,2.779476840834356
1770452352372,131,3,3.0456381240131125,3.315652011431938,2.8383948965713435
1770452352376,131,3,2.699887329361741,2.816197388555339,2.4925229874821335
1770452352380,129,1,2.0808868936267,1.3266076573829375,1.8740500604342107
1770452352384,129,1,1.4347383585880684,1.0445650071276853,1.2293636893457975
1770452352388,129,1,0.9059855417007838,1.1093142144792631,0.7020770376926297
1770452352392,128,0,0.4472223573148234,0.1321748204208008,0.2434660708134949
1770452352396,128,0,-0.088637393447741,-0.0898541984276481,-0.2937033612215571
1770452352400,127,-1,-0.7878490492204057,-0.6751429033937549,-0.9944842362600356
1770452352404,126,-2,-1.5982396747480545,-2.083437492316367,-1.8053365975362856
1770452352408,125,-3,-2.3868709621239987,-2.6504221211315984,-2.5929743490715365
1770452352412,125,-3,-3.0578141966050336,-3.203015511211068,-3.262360437494725
1770452352416,124,-4,-3.6106181981757097,-3.7099947955922143,-3.814291026658697
1770452352420,124,-4,-4.09268159908037,-4.066105908233068,-4.296599097426618
1770452352424,123,-5,-4.507782894125493,-4.744198767408766,-4.7123955356467935
1770452352428,123,-5,-4.7783051364108955,-4.923910726422823,-4.983035936852656
1770452352432,123,-5,-4.798060097726596,-5.025152364150074,-5.001796641853433
1770452352436,123,-5,-4.526487855886136,-4.800809911751124,-4.728373491075182
1770452352440,124,-4,-4.040833958460299,-4.064518146412549,-4.240961107694433
1770452352444,124,-4,-3.500773874118186,-3.685603983967847,-3.700572556205513
1770452352448,125,-3,-3.0509838950057753,-3.0439063898650436,-3.2528784286900465
1770452352452,125,-3,-2.7301769362931023,-2.879303522167233,-2.936179045868373
1770452352456,125,-3,-2.4345314516982484,-2.9717835579284446,-2.6443464238553074
1770452352460,126,-2,-1.9243115765537544,-1.903150147321103,-2.1343610564676068
1770452352464,127,-1,-0.8362244975152957,-0.8294695964276243,-1.0407376516473736
1770452352468,129,1,1.2902022128174937,1.0562081268299537,1.0959811443639622
1770452352472,133,5,4.902333649031698,5.068066076573087,4.718306043260408
1770452352476,138,10,10.186775274840022,10.025623656730255,10.00638284880924
1770452352480,144,16,16.747091577109963,16.132481128142143,16.560173697147974
1770452352484,151,23,23.410357272520606,23.10382855937288,23.209332212332686
1770452352488,156,28,28.40498184061592,28.125334630763422,28.1900198454902
1770452352492,158,30,29.992005306758397,29.973618645295243,29.77128819423395
1770452352496,156,28,27.31554547470848,28.094463425568804,27.10058833142324
1770452352500,149,21,20.981048667141184,21.050193959945357,20.780613920556068
1770452352504,140,12,12.922701446036594,12.1404055801737,12.738819270656585
1770452352508,133,5,5.53637215084842,5.145008043894397,5.363657105025022
1770452352512,128,0,0.5612944303339877,-0.093019914347931,0.3893349549023299
1770452352516,126,-2,-1.6170215200496465,-1.7524397405727523,-1.798825383561091
1770452352520,127,-1,-1.8652255657067052,-1.1395510358490633,-2.0620545224412634
1770452352524,126,-2,-1.56736632685125,-1.668012295336411,-1.7757030837591894
1770452352528,126,-2,-1.7933037179442417,-2.072040983154888,-2.0028321325464105
1770452352532,125,-3,-2.859322186829041,-2.9282332545251286,-3.059551709564478
1770452352536,123,-5,-4.415975679094094,-4.87949401556687,-4.602935239257768
1770452352540,122,-6,-5.856861998532738,-6.064158997247456,-6.0347633600614285
1770452352544,121,-7,-6.728904793242995,-6.675305546425333,-6.905978371691081
1770452352548,121,-7,-6.928074900126257,-7.14730449415034,-7.110489239267641
1770452352552,121,-7,-6.648111088788697,-6.812706612944585,-6.836721587123861
1770452352556,122,-6,-6.1870816546926415,-6.022107143082552,-6.37854459173958
1770452352560,122,-6,-5.758236656433978,-5.932384865172339,-5.948318960346097
1770452352564,122,-6,-5.410338675969995,-5.769577739019767,-5.596532212962692
1770452352568,123,-5,-5.071923554952577,-5.140053201019061,-5.254185693960649
1770452352572,123,-5,-4.651083889544556,-4.760560360884664,-4.830958702287898
1770452352576,124,-4,-4.108964027754027,-4.146099184213698,-4.28801612236664
1770452352580,124,-4,-3.47497817521886,-3.740189866650315,-3.653941946009638
1770452352584,125,-3,-2.819276044827425,-3.0145967894128884,-2.9985411473130306
1770452352588,126,-2,-2.2124851433535966,-1.890630252460714,-2.3926063223827647
1770452352592,126,-2,-1.7025802376497663,-2.028797104952754,-1.883446352151204
1770452352596,126,-2,-1.3220742204504596,-1.8978889581357177,-1.501975428002155
1770452352600,127,-1,-1.0964122142040882,-0.9455686385339178,-1.273156202633141
1770452352604,127,-1,-1.0111345767705946,-0.8661236728362214,-1.1843381217878317
1770452352608,127,-1,-0.9618702527396416,-1.0076865982520262,-1.133339901236965
1770452352612,127,-1,-0.7772362405175922,-0.967887312681289,-0.9488395680624666
1770452352616,127,-1,-0.3481790817945596,-0.9247458550789812,-0.5200968571867532
1770452352620,128,0,0.2416698867537153,0.046214899904948,0.07016239648861
1770452352624,129,1,0.7328575482894254,1.1826839333932453,0.5617195410976108
1770452352628,129,1,0.8686224498510257,0.881381737191838,0.6972890823464262
1770452352632,128,0,0.5806962289013469,0.174599392580306,0.4098092976929514
1770452352636,128,0,0.022342916078502,-0.1222301077186605,-0.1460389582511508
1770452352640,127,-1,-0.5537595825373913,-0.7311690978954661,-0.7183381725362394
1770452352644,127,-1,-0.9435267331866763,-1.048754527274088,-1.105593035178642
1770452352648,127,-1,-1.056100093421439,-0.8922508721032572,-1.2184367448430875
1770452352652,127,-1,-0.8927689232202922,-1.0474124850975932,-1.0566638456120256
1770452352656,127,-1,-0.5007081869232741,-0.948674813473972,-0.6645649783849814
1770452352660,128,0,0.0600996284762837,0.1324144554818254,-0.1010864093128838
1770452352664,129,1,0.7374372961998992,1.0398754826951624,0.5797906968344897
1770452352668,129,1,1.4895700245488177,1.0691474011899,1.3339047169392786
1770452352672,130,2,2.2540520453839106,1.926692860071776,2.0979442614460964
1770452352676,131,3,2.907032742766525,3.1010722112475215,2.749045612737679
1770452352680,131,3,3.2765733350593633,3.039532908449317,3.1173254710556733
1770452352684,131,3,3.235071421172188,3.1574835660830023,3.077208829588844
1770452352688,131,3,2.815385615466046,2.9536548579827744,2.662014640989571
1770452352692,130,2,2.258523383178199,1.996626537695132,2.110717045381722
1770452352696,130,2,1.9324096341329875,2.0526978848301316,1.7880403118839752
1770452352700,130,2,2.136902895213762,2.039987053873942,1.9923564114564236
1770452352704,130,2,2.897300918042122,2.2058945674875416,2.7504864726407705
1770452352708,132,4,3.89724129833663,3.881774011464332,3.748693197260245
1770452352712,133,5,4.644133232768496,5.064220832196263,4.495565244670852
1770452352716,133,5,4.785379165436455,4.955152652410275,4.638230872305792
1770452352720,132,4,4.337956600733426,4.126510370336365,4.193502726547468
1770452352724,131,3,3.642713613755307,3.129218457949126,3.502255041687244
1770452352728,131,3,3.0940745244251593,2.93531105640944,2.9578502070253143
1770452352732,131,3,2.883794400829275,3.0295631991091887,2.7500128685707295
1770452352736,131,3,2.9480754355282763,2.9551496809075415,2.813978911059943
1770452352740,131,3,3.101393142811432,3.1389890986496076,2.965609760099437
1770452352744,131,3,3.198131662669163,3.1139484870632876,3.0617664594131795
1770452352748,131,3,3.1917842254786524,2.9115505396776657,3.0571749482501978
1770452352752,131,3,3.0865191126250497,3.0855995414791773,2.9551586653588577
1770452352756,131,3,2.8650512626278113,2.841897475969169,2.736724561503788
1770452352760,130,2,2.4699445473449404,2.2926022834117927,2.3434279264677405
1770452352764,130,2,1.849048574734221,1.9331117482178612,1.7232148377454632
1770452352768,129,1,1.0174324806032045,1.073073933072029,0.8919336342545916
1770452352772,128,0,0.0753893933227205,-0.0549638058254426,-0.0490615657535454
1770452352776,127,-1,-0.840520834886215,-1.0803710666670787,-0.9624413594984588
1770452352780,126,-2,-1.6336784025085225,-1.713558211363142,-1.7520141382766758
1770452352784,126,-2,-2.282311086945393,-2.1421287058263707,-2.3977649614001533
1770452352788,125,-3,-2.809260930341394,-2.7887457966191938,-2.9241263246490115
1770452352792,125,-3,-3.234118480920049,-3.26532509181154,-3.350256963195701
1770452352796,124,-4,-3.564881113709822,-3.836200685759505,-3.6817105626466606
1770452352800,124,-4,-3.821603924080799,-3.9891529647355344,-3.936314296900973
1770452352804,124,-4,-4.03215173641381,-3.8561628503825207,-4.142126004698236
1770452352808,124,-4,-4.177105881028016,-4.08753381412728,-4.282130158768786
1770452352812,124,-4,-4.149632798791586,-3.976822550414689,-4.251740530622728
1770452352816,124,-4,-3.817931801552134,-4.134338242414643,-3.919416351694223
1770452352820,124,-4,-3.1772185294346467,-3.7006269613315848,-3.2791819619685167
1770452352824,126,-2,-2.4523092719106225,-2.1461277134003183,-2.5547861451606884
1770452352828,126,-2,-2.0184779939124793,-1.797789434952273,-2.1208534791513776
1770452352832,126,-2,-2.168856006874738,-2.28376367499149,-2.2696458321597595
1770452352836,125,-3,-2.9057550872869973,-2.837294241067571,-3.0028210737817367
1770452352840,124,-4,-3.916583447559886,-4.016086902606087,-4.008557625040053
1770452352844,123,-5,-4.747777407698774,-4.846241628218763,-4.835258813497345
1770452352848,123,-5,-5.0559544579393565,-5.063602087410356,-5.140923454480145
1770452352852,123,-5,-4.77848591590508,-5.054615569192658,-4.86272781313966
1770452352856,124,-4,-4.124271792397824,-4.042404703515134,-4.208627256237717
1770452352860,125,-3,-3.4043714808568764,-2.856371383421316,-3.488890267792516
1770452352864,125,-3,-2.8362053144323687,-2.9958887769885965,-2.920071768918471
1770452352868,125,-3,-2.4676660892407005,-2.9287570647517445,-2.549149538563211
1770452352872,126,-2,-2.244972042382102,-2.1802466421376736,-2.3224818427114498
1770452352876,126,-2,-2.111897127370552,-1.9600395305696048,-2.1853298332740487
1770452352880,126,-2,-2.032490126230837,-1.9066655408187247,-2.1029761832535465
1770452352884,126,-2,-1.949665182085955,-1.9992396998083912,-2.018031140530856
1770452352888,126,-2,-1.765636196722131,-1.8700620098408152,-1.8317993339789531
1770452352892,127,-1,-1.3872955242943203,-1.31116886719313,-1.451199305351985
1770452352896,127,-1,-0.8017166474079545,-0.7828810275905613,-0.8640041285761668
1770452352900,128,0,-0.1202384852467939,-0.1404681708525963,-0.1814908817941156
1770452352904,128,0,0.4477466071871083,0.2728367865749892,0.3879200551670543
1770452352908,129,1,0.6926517617642076,0.8244087250778819,0.6351956905959693
1770452352912,129,1,0.5286820803623706,0.9896877011950522,0.4741828634995891
1770452352916,128,0,0.0559237968661789,-0.0908081122712236,0.0047393588562597
1770452352920,127,-1,-0.5053752598451129,-0.8606745220531614,-0.5526311693226795
1770452352924,127,-1,-0.965827575900842,-0.9760968751047512,-1.009073660503942
1770452352928,127,-1,-1.2719079140470595,-0.9698347709061308,-1.3127447102451375
1770452352932,127,-1,-1.483690635148879,-1.185117076427351,-1.5244400158588138
1770452352936,126,-2,-1.678696120506172,-1.9508607288023068,-1.7197157669920289
1770452352940,126,-2,-1.8863428775997584,-2.005325955004027,-1.9250734589806937
1770452352944,126,-2,-2.0838153529913575,-1.8322263253071,-2.1171686307946933
1770452352948,126,-2,-2.213403315594805,-2.137291006203529,-2.240802416967914
1770452352952,126,-2,-2.2011327518588524,-1.9988043278942644,-2.224845151445116
1770452352956,126,-2,-1.998500829418084,-2.150880447994821,-2.0213335072853695
1770452352960,126,-2,-1.6444476679507265,-1.8427828486651543,-1.6675182099863095
1770452352964,127,-1,-1.2864405922844078,-0.9561704923971488,-1.308802557192294
1770452352968,127,-1,-1.1061636644521782,-1.082921514640696,-1.1257657949610376
1770452352972,127,-1,-1.1834578909413436,-0.979726671431327,-1.1982803954239405
1770452352976,127,-1,-1.4085010404801293,-1.2441491951905943,-1.417489624041384
1770452352980,126,-2,-1.5301641597192746,-1.7327268325324168,-1.533851127152778
1770452352984,127,-1,-1.3244337875565249,-1.087462041477174,-1.324786670429152
1770452352988,127,-1,-0.7693506662263225,-0.9540423015138734,-0.7686666500905937
1770452352992,128,0,-0.0966805277093563,-0.0876344111299646,-0.0962447722810538
1770452352996,129,1,0.3319292456150122,0.8376396456028128,0.3324905797357635
1770452353000,128,0,0.2537163613697035,0.1703675172909601,0.2562309187616617
1770452353004,128,0,-0.3151634276363162,-0.0132453980339937,-0.3080894153624863
1770452353008,127,-1,-1.0748960841729125,-1.0214424309792287,-1.0609123102276756
1770452353012,126,-2,-1.6134548581017485,-2.025782461054722,-1.5919202264326648
1770452353016,127,-1,-1.6299202762644058,-1.2224437751732895,-1.60302758462648
1770452353020,127,-1,-1.0647501378902868,-0.7823685897348521,-1.0367106924627496
1770452353024,128,0,-0.0862008275866654,-0.0833522929173659,-0.0601488733223043
1770452353028,129,1,1.0131498320171004,1.0681069995186014,1.0379514139606716
1770452353032,130,2,1.9400794420804128,1.8652469791326531,1.9676466376324115
1770452353036,131,3,2.5168952218084377,2.867821281954747,2.5509499186278894
1770452353040,131,3,2.766410577567662,3.144093061481764,2.8075641180701596
1770452353044,131,3,2.907240295198415,2.922167144233532,2.9535711750860765
1770452353048,131,3,3.220201674807857,3.131703888885645,3.269823144478944
1770452353052,132,4,3.8513455528216056,3.734742562569701,3.9037188059245698
1770452353056,133,5,4.7013583124439435,5.028201303073417,4.756436839174718
1770452353060,134,6,5.495824224874379,5.9763701008333046,5.5530555279054585
1770452353064,134,6,5.97166093275984,6.038674511995395,6.030518903014939
1770452353068,134,6,6.018799172120104,6.08325089554675,6.079933591296297
1770452353072,134,6,5.681842328892076,5.670629563053273,5.74705895787133
1770452353076,133,5,5.068529558921336,5.187788810711779,5.13953963678035
1770452353080,133,5,4.275122236960238,4.714198834401021,4.352429380822664
1770452353084,131,3,3.3805608384953216,3.3854308844153893,3.4632148949333583
1770452353088,131,3,2.4721515149111335,2.659498079781092,2.5581040353548765
1770452353092,130,2,1.6402106508012817,2.1275099389701073,1.727269209027631
1770452353096,129,1,0.9241119485464184,0.7012712164400086,1.0115314444796706
1770452353100,128,0,0.2585823175417076,0.182858562685605,0.3480371427326383
1770452353104,128,0,-0.4995357879720741,-0.0273012860013852,-0.4050445371262916
1770452353108,127,-1,-1.4390693074655792,-1.0344117097701275,-1.3375508146563533
1770452353112,126,-2,-2.4546575909597146,-2.067353607572617,-2.3463609902305147
1770452353116,125,-3,-3.255443586587342,-3.253135632042191,-3.1421443564351645
1770452353120,124,-4,-3.567715600584493,-3.7368663780100624,-3.451376866657354
1770452353124,125,-3,-3.382179904364752,-3.221252879066422,-3.264297343719382
1770452353128,125,-3,-3.0203678351098264,-2.7532370747191712,-2.901818507042688
1770452353132,126,-2,-2.9313873607852474,-2.4175220525447276,-2.811924564757901
1770452353136,125,-3,-3.362571069121009,-2.890518589528039,-3.2399792402443284
1770452353140,124,-4,-4.164176525919832,-4.112956785676547,-4.03435492518105
1770452353144,123,-5,-4.883497608478076,-4.891991447139171,-4.742726651923584
1770452353148,123,-5,-5.070470111350065,-5.01042090925563,-4.919111082513616
1770452353152,124,-4,-4.559524129489964,-4.258570864485451,-4.403851854441331
1770452353156,125,-3,-3.537513885539584,-2.9351994180679544,-3.386488847777638
1770452353160,126,-2,-2.3871813110784084,-2.204230067529385,-2.245275489054289
1770452353164,126,-2,-1.4291907101100216,-1.700875328801484,-1.2913227709653
1770452353168,128,0,-0.6841747565141487,-0.3127199893627753,-0.5381741516758568
1770452353172,129,1,0.2688060426582639,1.1168582965943208,0.433665143783376
1770452353176,131,3,2.240967281894251,2.6374558580891554,2.426495776033968
1770452353180,134,6,6.082753462693627,6.2421924472888195,6.280912305547704
1770452353184,140,12,12.081862099880553,11.85151778878554,12.279853598713416
1770452353188,147,19,19.43386829084938,19.085963251568433,19.62109877263728
1770452353192,155,27,26.22551732019132,26.78849684103847,26.398758044668288
1770452353196,159,31,30.124541395363508,30.87777573762277,30.289480147227763
1770452353200,158,30,29.485029899504504,30.0541771767528,29.65364248984238
1770452353204,153,25,24.229221150417786,24.922713017777788,24.413808192243636
1770452353208,144,16,15.948882930868209,16.033517794479884,16.15573274078532
1770452353212,135,7,7.141843584742793,6.81622816590747,7.368137858298361
1770452353216,128,0,0.0373627101861817,-0.1019272586521895,0.2728443830681051
1770452353220,124,-4,-4.298396966489656,-3.9351561084540343,-4.066088485924281
1770452353224,123,-5,-6.113513589612692,-5.119222545674085,-5.892258884870488
1770452353228,122,-6,-6.4353325508898385,-5.896149311177835,-6.224019545053925
1770452353232,122,-6,-6.3159395521160695,-6.332267422673135,-6.105367386061639
1770452353236,122,-6,-6.337192245696317,-5.894405282533889,-6.116503975084735
1770452353240,122,-6,-6.55413650681042,-6.212540659431844,-6.3180083206437105
1770452353244,121,-7,-6.747400129968773,-6.813785402123207,-6.498449364511856
1770452353248,122,-6,-6.733111322049208,-6.23802464808101,-6.478559560285423
1770452353252,122,-6,-6.532568121944891,-5.9883712760456245,-6.278722894405125
