timestamp_ms,ecg_u8_raw,ecg_counts_raw_int,ecg_counts_filt_monitor,ecg_counts_filt_diagnostic,ecg_counts_filt_st
1768627143844,131,3,4.70874397146339,4.213849701901805,4.050444246541415
1768627143848,131,3,5.204168402052186,3.878371103488999,4.534711573997407
1768627143852,131,3,5.43144023918467,4.076393760760805,4.7526720435942424
1768627143856,132,4,5.419058365733912,4.758106981343396,4.732626722775572
1768627143860,131,3,5.2553062016154986,4.1360602114984815,4.56156507053052
1768627143864,131,3,5.08212964277093,4.028809987045105,4.3801419315003
1768627143868,131,3,5.063871581897971,4.002567904608129,4.352299467874542
1768627143872,131,3,5.313304038874386,4.03683132792482,4.591182733332463
1768627143876,132,4,5.816243944947253,4.757370119945357,5.083251406853361
1768627143880,132,4,6.420777383979366,5.189894306553081,5.677223766505296
1768627143884,133,5,6.917712948893296,5.920044073968793,6.1644381306009315
1768627143888,133,5,7.167928762301433,6.167374351680268,6.40609274378553
1768627143892,133,5,7.188754621310004,5.838316405914106,6.419409935504057
1768627143896,133,5,7.136556066159666,6.010814854488373,6.360037501534277
1768627143900,133,5,7.20005277151981,5.908292314535721,6.415645285756905
1768627143904,133,5,7.482748574906504,6.214745986337944,6.689184122907351
1768627143908,134,6,7.952292276809114,6.8842356613734035,7.148863896503839
1768627143912,134,6,8.47956653375806,7.128013665373185,7.666795071621689
1768627143916,135,7,8.929121084191188,7.749265603456659,8.108216954566466
1768627143920,135,7,9.23435011919854,8.146945649753501,8.406077061754107
1768627143924,135,7,9.405477417081205,7.999977097473246,8.569724549812415
1768627143928,135,7,9.46728075027886,8.066441081231655,8.623634261972885
1768627143932,135,7,9.382323593782363,8.025522496187982,8.530660084299633
1768627143936,135,7,9.036392237964344,7.781242856585667,8.176807005058848
1768627143940,134,6,8.311184736328796,7.212158317690307,7.44373751545301
1768627143944,133,5,7.183116005638155,5.834200763095344,6.308041956372609
1768627143948,131,3,5.754962010465629,4.318999752229145,4.873024940757841
1768627143952,130,2,4.188537535451772,2.7383630039707563,3.300690237055257
1768627143956,128,0,2.600968850846401,1.0947722382192546,1.7073497092929095
1768627143960,127,-1,1.0170628327213609,-0.0731441618671886,0.1165264088787703
1768627143964,125,-3,-0.5919145252968403,-1.9284655817949243,-1.5008145557075014
1768627143968,123,-5,-2.235499900546655,-3.850684448861859,-3.1528766697255772
1768627143972,122,-6,-3.865524339980009,-5.144206089059369,-4.789660602564776
1768627143976,120,-8,-5.387366791778609,-6.9519683782272015,-6.315973676033541
1768627143980,119,-9,-6.690391913150593,-8.07428411979521,-7.622377873281108
1768627143984,118,-10,-7.6741575173700785,-8.875224875776302,-8.610271339787928
1768627143988,117,-11,-8.277801124662018,-9.93714514890132,-9.219786717995364
1768627143992,117,-11,-8.521849020365229,-10.020403184456256,-9.471152379698692
1768627143996,117,-11,-8.537135464756018,-10.0739671348074,-9.494212451367842
1768627144000,117,-11,-8.534396082472073,-9.959545228369423,-9.4985676291602
1768627144004,117,-11,-8.704507255023564,-9.955981831404491,-9.673952902669392
1768627144008,116,-12,-9.104238872071978,-10.893512954974788,-10.076522573174138
1768627144012,116,-12,-9.605902583332147,-11.013958502997182,-10.579414281798792
1768627144016,116,-12,-9.951886955457928,-11.114401928030253,-10.927119290657489
1768627144020,115,-13,-9.895946247588205,-11.867730798813628,-10.875132762984888
1768627144024,116,-12,-9.360517200001294,-11.087101545802172,-10.345930474804016
1768627144028,117,-11,-8.508880313466003,-9.69458410754028,-9.501301183477365
1768627144032,118,-10,-7.666084481984459,-9.277289085545403,-8.66429747841442
1768627144036,118,-10,-7.128721962041549,-8.770497412534793,-8.130203177585395
1768627144040,119,-9,-6.991253669069931,-8.268981857628539,-7.993767266413421
1768627144044,118,-10,-7.106454046948135,-8.648351764082603,-8.109360225258605
1768627144048,118,-10,-7.206503805749256,-9.136942554985936,-8.210712089884524
1768627144052,118,-10,-7.099610373520091,-8.840346946777252,-8.10661707702652
1768627144056,119,-9,-6.795208415555135,-8.156248556232125,-7.806145267548627
1768627144060,119,-9,-6.46438916629744,-7.9260067247441075,-7.47927789782074
1768627144064,119,-9,-6.282105369360273,-7.930670752374851,-7.299610503918468
1768627144068,119,-9,-6.290064590757936,-7.907956591759163,-7.3083950366238515
1768627144072,119,-9,-6.381230020192186,-8.021597199119999,-7.39965127058513
1768627144076,119,-9,-6.397707885503903,-7.995160600883511,-7.416913858849065
1768627144080,119,-9,-6.255180225356362,-8.05488915444716,-7.276037284105212
1768627144084,119,-9,-5.997344008102972,-7.8031746832918865,-7.0197080975914075
1768627144088,120,-8,-5.7355814476745515,-7.032520035244389,-6.758546096296618
1768627144092,120,-8,-5.5227151947036175,-6.889767536047391,-6.54542075683676
1768627144096,120,-8,-5.282857488208565,-7.122886559123577,-6.304681751309215
1768627144100,120,-8,-4.881885699000481,-6.911836742145344,-5.902565529635201
1768627144104,121,-7,-4.282076753835044,-5.943488826668747,-5.302335932189201
1768627144108,122,-6,-3.6294396272453624,-4.895541969063105,-4.6508556071404215
1768627144112,122,-6,-3.187245514155818,-4.99539382946416,-4.210504303670159
1768627144116,122,-6,-3.171983478070631,-5.043436494883792,-4.195461557785047
1768627144120,122,-6,-3.612552748855707,-4.941629855385928,-4.633337490455703
1768627144124,121,-7,-4.316322771570265,-5.969921556997982,-5.332537894229979
1768627144128,120,-8,-4.961131254660906,-6.812281618570345,-5.97298314337638
1768627144132,120,-8,-5.267788566356462,-7.0960434611534104,-6.276909401808365
1768627144136,120,-8,-5.1481523920295675,-6.919092773714021,-6.156484776893602
1768627144140,121,-7,-4.726794853801592,-6.049467470134162,-5.735484871489009
1768627144144,121,-7,-4.229396678227912,-5.887638931616574,-5.237726267865068
1768627144148,121,-7,-3.833529090293861,-5.8509735485402645,-4.838943643899716
1768627144152,122,-6,-3.5844130663244744,-5.095495256179566,-4.584359507370623
1768627144156,122,-6,-3.4068264810632387,-4.866493176739532,-4.400741269376205
1768627144160,122,-6,-3.185942014712366,-5.138583401592346,-4.175173115511635
1768627144164,122,-6,-2.8681480372950907,-4.757712478348349,-3.8542284942619385
1768627144168,123,-5,-2.518415569526952,-3.9936687256436993,-3.5018374533092556
1768627144172,123,-5,-2.2846170025344,-3.948248837337177,-3.264870693988079
1768627144176,123,-5,-2.288681874229842,-3.981910024468297,-3.2647275732897216
1768627144180,123,-5,-2.5318386633371612,-4.0538834937709955,-3.5024227142709035
1768627144184,122,-6,-2.8904174666079876,-4.7973740586091695,-3.8544092521164384
1768627144188,122,-6,-3.2002451239472713,-4.996313625068258,-4.157168799118065
1768627144192,122,-6,-3.3574488971949235,-4.891383235696253,-4.307843934611229
1768627144196,122,-6,-3.3615007685440768,-5.060744320344504,-4.306532058767639
1768627144200,122,-6,-3.2855657217224543,-4.943895100762278,-4.2259915824262695
1768627144204,122,-6,-3.215533320866514,-4.911598164579882,-4.150959663090594
1768627144208,122,-6,-3.2041405821562345,-4.898514803527074,-4.1332388794296335
1768627144212,122,-6,-3.255646444045951,-4.946025773493667,-4.177029159324564
1768627144216,122,-6,-3.3310993727277656,-5.040477721946714,-4.2440393157783465
1768627144220,122,-6,-3.3620921295180084,-4.900618586167294,-4.266575950845253
1768627144224,122,-6,-3.2719584796502184,-5.0084301538920295,-4.168231786127272
1768627144228,122,-6,-3.007502227312184,-4.752279046017603,-3.895708856230592
1768627144232,123,-5,-2.572647367199245,-4.123272396915393,-3.4529122291008223
1768627144236,123,-5,-2.0429596863116406,-3.817085810866891,-2.91557737102031
1768627144240,124,-4,-1.54629375629803,-3.1401520438089228,-2.4114876690552047
1768627144244,124,-4,-1.215908997511157,-2.7495327846922284,-2.073232710945434
1768627144248,124,-4,-1.1380901019177618,-3.0259087337563715,-1.9862037542125064
1768627144252,124,-4,-1.3157654069320572,-2.841390252531021,-2.1530855561189135
1768627144256,124,-4,-1.6615415818623631,-3.0718745564236545,-2.4872467836371452
1768627144260,123,-5,-2.0292577546202284,-3.902707533577235,-2.8437289473619676
1768627144264,123,-5,-2.281527842799294,-3.9495438514392034,-3.086007894628282
1768627144268,123,-5,-2.3615941555610624,-3.8591073305684143,-3.15735015337462
1768627144272,123,-5,-2.321214366892925,-3.978110057079993,-3.1084742153910025
1768627144276,123,-5,-2.28140421499564,-3.926298845321088,-3.058819822941259
1768627144280,123,-5,-2.345938701344833,-4.042579288474702,-3.1114435552885893
1768627144284,123,-5,-2.516175353232939,-3.80536958892805,-3.268536718059704
1768627144288,123,-5,-2.6678942999176427,-4.00896778876278,-3.4071264307554716
1768627144292,122,-6,-2.6299100264751547,-4.82174929391463,-3.3564600030238645
1768627144296,123,-5,-2.3243627681952796,-4.059429462206273,-3.0388787025540833
1768627144300,124,-4,-1.848792636010359,-2.9083810066530553,-2.5526344208110943
1768627144304,124,-4,-1.4163042806733546,-2.927308479599011,-2.1107356196780644
1768627144308,124,-4,-1.207529149062653,-2.9007258577895234,-1.89153125431368
1768627144312,124,-4,-1.2615156538236865,-2.9034215706698,-1.931397978553849
1768627144316,124,-4,-1.4664396263339512,-3.0072950047379368,-2.1188621697412686
1768627144320,124,-4,-1.6195145655498266,-2.9042462285744386,-2.2548621436357577
1768627144324,124,-4,-1.5153829977210194,-2.969252886868969,-2.137433057702354
1768627144328,124,-4,-1.0486120881788303,-2.8109253804369265,-1.6606706967333966
1768627144332,125,-3,-0.2946481673800671,-2.024394111321432,-0.8963721349183764
1768627144336,126,-2,0.5073955124705392,-0.8600522729035719,-0.0806907146955089
1768627144340,127,-1,1.10617786257438,-0.0457404385949404,0.5347448437654583
1768627144344,127,-1,1.4299907572989057,0.1745317365650546,0.8758132844048887
1768627144348,127,-1,1.6446670700059092,0.0632428473539218,1.1065303365033654
1768627144352,127,-1,1.9972732849741737,0.06947539217292,1.473821765712823
1768627144356,128,0,2.5693762856248337,1.0803696930978766,2.05986839925123
1768627144360,129,1,3.1673443167086166,2.0123546320432344,2.6715863926185968
1768627144364,129,1,3.458615953979288,2.145084046161035,2.977167074024943
1768627144368,129,1,3.235773562817153,2.091731890433288,2.770232575283972
1768627144372,128,0,2.579311531801097,1.018136451764987,2.1315776121014847
1768627144376,127,-1,1.7896156534328678,0.1369398678032807,1.3602952851007424
1768627144380,127,-1,1.157797215994221,-0.0247897448475172,0.7455662475742688
1768627144384,126,-2,0.7641646345364665,-0.7944111025170596,0.3671509248469433
1768627144388,126,-2,0.4530648541820556,-0.9556774784329134,0.0707955618330955
1768627144392,126,-2,-0.0087786594947982,-0.954503353178421,-0.3750530962640475
1768627144396,125,-3,-0.719265218227763,-1.8916775990517116,-1.0678895944462767
1768627144400,124,-4,-1.5459700362076312,-2.985811825998375,-1.8760965318728864
1768627144404,123,-5,-2.231068702278991,-3.80309364020983,-2.5428046373190747
1768627144408,123,-5,-2.606312879815942,-3.9503178523095746,-2.900238460335343
1768627144412,123,-5,-2.72730661382992,-3.960832447716162,-3.0039584881274335
1768627144416,123,-5,-2.809678344918792,-3.8878839222895727,-3.0692082142565607
1768627144420,123,-5,-3.0298941912592032,-3.9738151421905745,-3.271979709625894
1768627144424,122,-6,-3.3714069779813087,-4.792546498772166,-3.5954134621648928
1768627144428,122,-6,-3.649189423965023,-4.972973202485633,-3.854418980520765
1768627144432,122,-6,-3.68235150272704,-4.937893555292383,-3.86821580011804
1768627144436,122,-6,-3.455353201197237,-4.909727491836401,-3.6215607991846297
1768627144440,123,-5,-3.1254524542607074,-3.938154324582849,-3.2723305429095397
1768627144444,123,-5,-2.877405576725785,-3.777026715653188,-3.005943499026156
1768627144448,123,-5,-2.767554184283364,-4.051027292010797,-2.87856995882714
1768627144452,123,-5,-2.707515440532613,-3.80197749095917,-2.8003457626860024
1768627144456,123,-5,-2.598306250265428,-4.118835836280734,-2.6705491739003993
1768627144460,123,-5,-2.4708219222578496,-3.649133702069273,-2.5202064165470013
1768627144464,124,-4,-2.474648434004791,-3.0605706140849236,-2.501960897234072
1768627144468,123,-5,-2.7041212694645913,-3.7902628658464015,-2.714229101867482
1768627144472,123,-5,-3.0134401851615915,-4.0245244985822755,-3.012101299754286
1768627144476,123,-5,-2.985406259805815,-3.9811146972656255,-2.9730893571518786
1768627144480,123,-5,-2.0693095637668466,-3.671866146864932,-2.0373995023776414
1768627144484,126,-2,0.2522322074767231,-1.0980530923383562,0.317247662747957
1768627144488,131,3,4.39760409469548,4.33898929007322,4.503243193052633
1768627144492,138,10,10.653437320781835,10.77392014561024,10.79329220283556
1768627144496,144,16,18.940138584200305,17.257686620984096,19.097240983669643
1768627144500,153,25,28.312143639025855,26.08946367893227,28.47068405689658
1768627144504,162,34,36.5941964314283,35.148302190823145,36.749113655690834
1768627144508,167,39,40.78016157345913,40.10567409099167,40.938451929869885
1768627144512,166,38,38.36231652436125,38.96897030216843,38.538372204854205
1768627144516,156,28,28.900325466595575,29.057088857451067,29.110022001257416
1768627144520,140,12,14.698151888706978,13.24689959925774,14.95310962195293
1768627144524,125,-3,-0.050985342255462,-1.991681453379196,0.2508061276744335
1768627144528,114,-14,-11.20967580817181,-12.72012358861093,-10.872486848220776
1768627144532,110,-18,-16.521985415425434,-17.138959408592115,-16.169169122106805
1768627144536,110,-18,-16.266350031222615,-16.765248702003603,-15.914330097705976
1768627144540,114,-14,-12.545996436268728,-12.935736148753216,-12.19758583452208
1768627144544,119,-9,-7.87270628331002,-7.84501316859747,-7.516427037091397
1768627144548,122,-6,-3.9762038464711855,-4.887153107759825,-3.5949073007868395
1768627144552,124,-4,-1.4247802865524803,-3.0007550343458367,-1.0064441533940391
1768627144556,126,-2,-0.0041958586222062,-0.8399730765200447,0.4521019360855958
1768627144560,127,-1,0.6615316243196614,0.1044992398164804,1.1472498789626466
1768627144564,127,-1,0.7557269111820069,0.1281983541416961,1.2600850167493705
1768627144568,127,-1,0.31577984175569,0.135194162332609,0.8332360473775708
1768627144572,126,-2,-0.5443021571820172,-1.0293005008637728,-0.0113443701209372
1768627144576,124,-4,-1.530727438480667,-2.753803248111278,-0.9753395762096048
1768627144580,124,-4,-2.2839446369548924,-3.015672454465333,-1.7011364193943666
1768627144584,124,-4,-2.5772783983558014,-2.721254264768643,-1.9679610819825568
1768627144588,124,-4,-2.4199577387764224,-3.041050067886026,-1.7890148906166474
1768627144592,124,-4,-2.010718552313416,-2.8170532958515917,-1.361694427406249
1768627144596,125,-3,-1.60679180355643,-1.9543296712499976,-0.938877683485134
1768627144600,125,-3,-1.3889684167577814,-1.8247483436469272,-0.6985712164878137
1768627144604,125,-3,-1.3786976327752278,-1.9174600682397367,-0.6628861569658941
1768627144608,125,-3,-1.445746258044925,-1.8365931732108327,-0.704153565600083
1768627144612,125,-3,-1.4071435773103969,-2.025075086324522,-0.6415380485426634
1768627144616,125,-3,-1.1575063702424098,-1.6939737218024864,-0.3702790791777882
1768627144620,126,-2,-0.7401794983586801,-1.130262273174803,0.0670422973374315
1768627144624,126,-2,-0.3077172573233228,-0.5697516088413409,0.5195907986721859
1768627144628,127,-1,-0.0060335082699506,-0.2248704744145925,0.8434553994870824
1768627144632,126,-2,0.1255787960691865,-0.5862971644042072,1.0001468399804112
1768627144636,127,-1,0.1704386352670783,-0.1501828943197481,1.07121675387462
1768627144640,127,-1,0.2693414028420854,0.3440768384071447,1.1941879806686155
1768627144644,127,-1,0.5189938890037793,-0.0552461035714412,1.4643375615748253
1768627144648,127,-1,0.8852139858975165,0.2639604442272109,1.8496213521564977
1768627144652,128,0,1.1928043410144145,0.9589205277458278,2.1782287731052623
1768627144656,128,0,1.2375684549777386,1.2764630491141569,2.247122246669766
1768627144660,128,0,0.968245449363351,0.96745128814763,2.0033995024715874
1768627144664,127,-1,0.5819583946085802,0.2608992244972623,1.6419806972257258
1768627144668,127,-1,0.4130853042673621,0.0091833185824503,1.4964149079992533
1768627144672,127,-1,0.6771350785672744,0.1681112106254757,1.782625539036744
1768627144676,128,0,1.2831519925202557,1.135196052146398,2.410112996602091
1768627144680,129,1,1.8878759723721767,2.0730620419341856,3.035680463660741
1768627144684,129,1,2.1574192497247187,2.190713032999158,3.3258920373146257
1768627144688,129,1,2.018351789687833,2.042625557796244,3.208775002143574
1768627144692,128,0,1.6937976847878593,1.161985957235482,2.9089013880254826
1768627144696,128,0,1.517490060826395,1.1283373976365458,2.7594726599992123
1768627144700,129,1,1.705689343203186,2.113016598871031,2.9738610201129543
1768627144704,129,1,2.2659408351283155,2.154819072002877,3.5567227353962014
1768627144708,130,2,3.061144162943708,3.0660016622583735,4.370900343199758
1768627144712,131,3,3.9158863902534224,4.172186348604714,5.243993040909487
1768627144716,131,3,4.669451634307826,4.069794812858575,6.018657365944429
1768627144720,132,4,5.18550898186567,5.2298594932703395,6.559253202723847
1768627144724,133,5,5.383943162920241,6.020653493815343,6.783378135206888
1768627144728,132,4,5.303611690227427,5.198223442799526,6.727323059604647
1768627144732,132,4,5.119681540381726,5.072458843222306,6.565843630476514
1768627144736,132,4,5.056891332557567,5.115019531780224,6.5249847801245275
1768627144740,132,4,5.251241466647163,5.258326425749163,6.741778557690776
1768627144744,133,5,5.675038339902331,5.9450233124109575,7.188345085375136
1768627144748,133,5,6.182336072036635,6.343736099304642,7.7179052581430785
1768627144752,134,6,6.626196655709873,6.869991336655209,8.183114165386222
1768627144756,134,6,6.946745189060216,7.347695184655774,8.524821648070722
1768627144760,134,6,7.1656801236607635,7.022540057214635,8.766135916317573
1768627144764,134,6,7.315832691214954,7.1698700579670955,8.940303044155359
1768627144768,135,7,7.399514469624113,8.189362671374411,9.048087231405283
1768627144772,135,7,7.427198503315607,7.940571879902335,9.098106698460832
1768627144776,134,6,7.475304034812846,7.361181951273756,9.167071826581571
1768627144780,135,7,7.6673073037970045,7.942957946341309,9.380579099934852
1768627144784,135,7,8.081886815919859,8.301019671771996,9.81844324677852
1768627144788,136,8,8.689075395278998,9.063353009818686,10.44935252337747
1768627144792,137,9,9.381348872033268,10.046453464726657,11.163630630378783
1768627144796,137,9,10.055718917418876,10.31056173948531,11.857987375123002
1768627144800,138,10,10.655693389456513,10.908025967697563,12.477995101199564
1768627144804,138,10,11.14456550253466,11.440808335558769,12.989203808802502
1768627144808,139,11,11.46835187087867,11.834708606878324,13.337632664583891
1768627144812,139,11,11.570430813606633,12.367972528310158,13.464341431748943
1768627144816,139,11,11.43894512968733,11.940141910080603,13.355130454745956
1768627144820,138,10,11.109594226945244,11.2807408240365,13.045464998893827
1768627144824,138,10,10.594432314473508,11.104235045495717,12.54919623432128
1768627144828,137,9,9.810619750475563,10.12253498821419,11.785544136621384
1768627144832,136,8,8.61200708914248,9.162450845156968,10.609183883116287
1768627144836,135,7,6.930912951996782,8.084510271797974,8.951913230556368
1768627144840,132,4,4.909487220298661,5.186646004796406,6.9547253452975575
1768627144844,130,2,2.879472811925051,3.1444729560180997,4.948067934601479
1768627144848,129,1,1.1736967926624606,2.1469287905108776,3.263736658420227
1768627144852,127,-1,-0.0949867863085232,0.0987844532087827,2.0145278053860576
1768627144856,126,-2,-1.1128998212149623,-0.7854737931890072,1.0151724305201348
1768627144860,126,-2,-2.2260140837901625,-0.9897909258681404,-0.0789639639594774
1768627144864,124,-4,-3.667918112321861,-2.657177328554588,-1.5003266896601888
1768627144868,122,-6,-5.361359479226478,-5.063972566249548,-3.1707490286878723
1768627144872,120,-8,-6.955258057957183,-6.6714027810252094,-4.739435059442262
1768627144876,120,-8,-8.059710223163695,-7.0106991031290935,-5.818850524340284
1768627144880,119,-9,-8.486059480890457,-7.759692039837995,-6.223246341802619
1768627144884,119,-9,-8.3351479181317,-7.879364601761014,-6.0541616897375095
1768627144888,120,-8,-7.9173791284882835,-6.837575068767564,-5.619954064131235
1768627144892,120,-8,-7.582734124538896,-6.884815332262068,-5.267778582252413
1768627144896,120,-8,-7.558165188335135,-6.820751167286272,-5.222895296482302
1768627144900,120,-8,-7.866325227563022,-6.907368366589323,-5.50789954565232
1768627144904,119,-9,-8.348563248348832,-7.788720154183832,-5.96541028672463
1768627144908,119,-9,-8.759697679601855,-7.850257797385743,-6.3523612332155
1768627144912,119,-9,-8.87754599235191,-7.935899966560256,-6.448615693387403
1768627144916,119,-9,-8.586759765322107,-7.697656114744547,-6.1393808259353095
1768627144920,120,-8,-7.924850171251295,-7.081699769514044,-5.460544693627846
1768627144924,120,-8,-7.080554913526899,-6.563333357639283,-4.598322951980675
1768627144928,122,-6,-6.32204002600707,-5.114896746883371,-3.819632430197153
1768627144932,122,-6,-5.860517659365764,-4.625908621032523,-3.3363284086129896
1768627144936,122,-6,-5.726495267577941,-5.03748663934897,-3.180161659727975
1768627144940,122,-6,-5.761037635668749,-4.721317366646782,-3.192893850525606
1768627144944,122,-6,-5.741711364719103,-4.921929297167571,-3.152435396877298
1768627144948,122,-6,-5.5455665316657505,-4.779124899678457,-2.936346504148723
1768627144952,123,-5,-5.221068519317436,-3.89536793237928,-2.593404875946107
1768627144956,123,-5,-4.924197753431911,-3.8209963908264624,-2.278821814833675
1768627144960,123,-5,-4.787219524806532,-3.882961573658387,-2.1231143653838207
1768627144964,123,-5,-4.827607015123369,-3.80362373825449,-2.1426409734165155
1768627144968,123,-5,-4.948444006644474,-3.8806135117621663,-2.241353687704039
1768627144972,123,-5,-5.006914278031884,-3.778074819394426,-2.27845315215532
1768627144976,123,-5,-4.90095271438898,-3.934919764258117,-2.1529609803745484
1768627144980,123,-5,-4.630388866977506,-3.75757409568836,-1.8641434657688745
1768627144984,124,-4,-4.297082417689488,-2.9403259669889468,-1.5127427639771212
1768627144988,124,-4,-4.036217998225872,-2.7430137003802053,-1.2332530286473875
1768627144992,124,-4,-3.9256988756015585,-2.896066905696083,-1.103249140139789
1768627144996,124,-4,-3.9459556433435776,-2.815787227655436,-1.1031182096229386
1768627145000,124,-4,-4.015926832660446,-2.8654877502392138,-1.1524183303187705
1768627145004,124,-4,-4.062457180086956,-2.858997049771457,-1.1791372301765983
1768627145008,124,-4,-4.064197670377965,-2.793578176501359,-1.1625550235657232
1768627145012,124,-4,-4.0482549109534265,-2.853034823917801,-1.1291019982898365
1768627145016,124,-4,-4.056339469748941,-2.8305622282404506,-1.1190545861567076
1768627145020,124,-4,-4.1068811738283255,-2.8619776032512148,-1.150074107369991
1768627145024,124,-4,-4.171937169712683,-2.8777151235070555,-1.1948593003899357
1768627145028,124,-4,-4.182261545483383,-2.7481905696634863,-1.1854513131505358
1768627145032,124,-4,-4.067424681361892,-2.908026557981593,-1.0520506010106168
1768627145036,124,-4,-3.813982416271555,-2.7391421877606383,-0.7808882392641258
1768627145040,125,-3,-3.494840734562623,-1.9782222446687976,-0.4442769156388757
1768627145044,125,-3,-3.2320832617780444,-1.7572281738090612,-0.1638159857728662
1768627145048,125,-3,-3.1148803791186555,-1.8624165168404063,-0.0281473620657296
1768627145052,125,-3,-3.140857833007947,-1.7861104245913146,-0.0346212030854755
1768627145056,125,-3,-3.2268792855469526,-1.841453322230296,-0.1007519695722886
1768627145060,125,-3,-3.2743964423168648,-1.8991565243447357,-0.129338462398254
1768627145064,125,-3,-3.240213451132497,-1.821362128316015,-0.0779260250661679
1768627145068,125,-3,-3.169652046081094,-1.799030079489952,0.00886721286875
1768627145072,125,-3,-3.171406634180022,-1.8357351739188472,0.0237586576079358
1768627145076,125,-3,-3.3408755417410188,-1.77101597066443,-0.1279260652780438
1768627145080,125,-3,-3.6739320117139154,-2.0073056998481515,-0.4423607674729052
1768627145084,124,-4,-4.03709362913072,-2.6742393481022617,-0.7865697742513401
1768627145088,124,-4,-4.233023995665713,-2.9854575832416153,-0.9634725200931096
1768627145092,124,-4,-4.122726038341408,-2.5862329057461473,-0.8345375743899424
1768627145096,125,-3,-3.711663326107822,-2.0549707091860503,-0.4060730654875059
1768627145100,125,-3,-3.140482496909503,-1.6929167743587177,0.1808598624272088
1768627145104,126,-2,-2.603753058802897,-1.0110591452251487,0.7324699366544816
1768627145108,126,-2,-2.2635476919627195,-0.6386845311449618,1.0882965028302365
1768627145112,126,-2,-2.201796167911607,-0.916677440057702,1.1675946711076115
1768627145116,126,-2,-2.409612793456902,-0.7407813819439628,0.9789581981382044
1768627145120,126,-2,-2.7929809436388884,-0.9692698567802442,0.6148381366531991
1768627145124,125,-3,-3.193186579207594,-1.7899776973409594,0.2324682470500423
1768627145128,125,-3,-3.4391802243511274,-1.7896263275402888,0.0026613226853265
1768627145132,125,-3,-3.4270220200994546,-1.819498506934039,0.0302645893017891
1768627145136,125,-3,-3.1792059920537734,-1.7734789307174077,0.2938170244375808
1768627145140,126,-2,-2.831618687201182,-0.9800759119255592,0.6577286513246001
1768627145144,126,-2,-2.546427479933388,-0.7459648088953098,0.9594269765992958
1768627145148,126,-2,-2.4131514195568355,-0.8558617291285981,1.1090015526471193
1768627145152,126,-2,-2.413970596130999,-0.7310640767064653,1.124386620706991
1768627145156,126,-2,-2.4722321964212415,-0.8622435204723029,1.0826420967467958
1768627145160,126,-2,-2.5294214465599314,-0.8986978095974826,1.0424023119305996
1768627145164,126,-2,-2.5776348301774794,-0.8015990172365588,1.0110269641128955
1768627145168,126,-2,-2.6244044838297933,-0.8242270862694016,0.9800868338700216
1768627145172,126,-2,-2.635622503372099,-0.7283231952987288,0.9834588944079294
1768627145176,126,-2,-2.5264998946451063,-0.8788654120658932,1.107028025875941
1768627145180,126,-2,-2.2200025286382257,-0.880889206257123,1.4292922327168878
1768627145184,127,-1,-1.7111125400696463,0.199284373338959,1.9553085775871557
1768627145188,128,0,-1.060519129946573,1.1548160694524834,2.622810999571943
1768627145192,128,0,-0.3263128959138097,1.336930212656878,3.3723453416183404
1768627145196,129,1,0.4768064845261115,2.020386238490105,4.1894326371417785
1768627145200,130,2,1.3366118113304668,3.2512199097694507,5.0630914571504135
1768627145204,131,3,2.1708069308391313,4.032116143407879,5.912073851764065
1768627145208,131,3,2.812878792061251,4.365682744817989,6.569992587809753
1768627145212,132,4,3.089121282567861,5.110894244367797,6.862147918676174
1768627145216,132,4,2.9334859719113378,5.266318568566511,6.72116856981511
1768627145220,131,3,2.4398973546192586,3.981347922219915,6.240938717189769
1768627145224,130,2,1.791563162290268,3.307979150748584,5.606264893221505
1768627145228,130,2,1.1250770468821631,3.107768521145422,4.955110337096793
1768627145232,129,1,0.4648599361481664,2.366591568654494,4.311272859689248
1768627145236,129,1,-0.2094379621847413,2.040667377553051,3.652471576193217
1768627145240,128,0,-0.8527512420850865,1.1773875672876188,3.0227047203150303
1768627145244,127,-1,-1.3434885019847835,0.1262978751407828,2.544336889153038
1768627145248,127,-1,-1.5992874975196798,0.2770684618459189,2.3012190036853584
1768627145252,127,-1,-1.6953882781746428,0.237957594061639,2.2187263460097206
1768627145256,127,-1,-1.842797183135112,0.1432898139210181,2.0853447078027885
1768627145260,127,-1,-2.2213801262664816,0.1214512396470813,1.72058402930704
1768627145264,126,-2,-2.8133972141606214,-0.8853643283074619,1.1423203691671846
1768627145268,125,-3,-3.394364712144472,-1.658160659234437,0.5756615846450817
1768627145272,125,-3,-3.698592484791446,-1.8545605277383344,0.2862984482430291
1768627145276,125,-3,-3.6187245999181528,-1.7234547013267916,0.3804167042476758
1768627145280,126,-2,-3.2730301765317624,-1.0180458251790774,0.7383745427364747
1768627145284,126,-2,-2.9004137263919096,-0.7503118263794281,1.1212988138354407
1768627145288,126,-2,-2.6906002707235572,-0.7927898592923177,1.3412663746829436
1768627145292,126,-2,-2.687367369690474,-0.721549530211204,1.356618670427196
1768627145296,126,-2,-2.810593793520513,-0.8384588084489399,1.2481351703254622
1768627145300,126,-2,-2.94006033515555,-0.9077217056485212,1.1348561775724637
1768627145304,126,-2,-2.9836430179803703,-0.8512245680875186,1.106944991065194
1768627145308,126,-2,-2.9034168307872887,-0.6999440594881784,1.200729736917753
1768627145312,126,-2,-2.719307838328469,-0.8036399960844367,1.3952548908895943
1768627145316,126,-2,-2.4997943511950775,-0.7496978774972015,1.6213672993211627
1768627145320,127,-1,-2.3088958233682337,0.0082960327725181,1.8157116765094792
1768627145324,127,-1,-2.0841051469462,0.2284918630490032,2.0448526699878244
1768627145328,127,-1,-1.4921331767503894,0.2333919559486791,2.649105430119986
1768627145332,129,1,0.1283389376617711,2.2423487447265096,4.2942906906926686
1768627145336,133,5,3.6376763584051943,6.258629094235747,7.836324472303261
1768627145340,139,11,9.736024406334874,11.949136272245648,13.962323617976487
1768627145344,147,19,18.417557526377315,20.372276827834945,22.653771822232713
1768627145348,157,29,28.44700030329525,30.02349517046666,32.67323531858861
1768627145352,165,37,37.2501862461814,38.5046582114481,41.4573766231208
1768627145356,171,43,41.582686824757765,43.94732296087431,45.7783450930452
1768627145360,169,41,38.93197183622224,42.26498297007984,43.1354654316155
1768627145364,159,31,28.994437790662086,32.02709202565431,33.22636188620649
1768627145368,143,15,14.256810500765605,16.339767921695103,18.529035715807964
1768627145372,127,-1,-0.8859375369160993,0.200348830157258,3.4243142058437495
1768627145376,116,-12,-12.10121222592756,-10.741688093113623,-7.768531480662491
1768627145380,112,-16,-17.03838458343538,-14.938086176273767,-12.704644085357838
1768627145384,113,-15,-16.091377974872476,-13.750151285575791,-11.772392513913212
1768627145388,118,-10,-11.685713109135657,-8.833085415093441,-7.383408225635611
1768627145392,123,-5,-6.696615963903797,-3.7030580753107936,-2.3991167391649113
1768627145396,126,-2,-3.0344530635744458,-0.8605382355064958,1.2760876466415336
1768627145400,127,-1,-1.150181181150567,0.1596055095599393,3.186957790059411
1768627145404,128,0,-0.4884332716861753,1.1782687211299971,3.8775438009388665
1768627145408,129,1,-0.3060825289085012,2.247310352957186,4.079623791124453
1768627145412,129,1,-0.2092328960444818,2.213835176924874,4.182803595823562
1768627145416,129,1,-0.179863492780519,2.211202762867475,4.210051246167116
1768627145420,129,1,-0.3117266018660527,2.105109930972042,4.077068013673434
1768627145424,128,0,-0.5947569947018161,1.239215008043083,3.800308392988419
1768627145428,128,0,-0.9024757226921288,1.1943875284402443,3.505562486602143
1768627145432,128,0,-1.105350951153505,1.276684604655336,3.316858091728026
1768627145436,128,0,-1.1580406709214928,1.1078898605808287,3.274893725700705
1768627145440,128,0,-1.0941688748977,1.2730412073596056,3.3458580355407643
1768627145444,128,0,-0.969749333837448,1.020362882467078,3.47660738226043
1768627145448,128,0,-0.8186394293396417,1.47536973671048,3.63530245502301
1768627145452,129,1,-0.644164284503489,1.9432469080902888,3.8180895601145064
1768627145456,128,0,-0.4414432028315148,1.4651785722073358,4.028510089870625
1768627145460,129,1,-0.2327844785690255,1.9186007062580832,4.244191055824264
1768627145464,129,1,-0.0810255240478687,2.376702283002417,4.403372826905187
1768627145468,129,1,-0.0490848162041503,2.143578332447654,4.443824641543705
1768627145472,129,1,-0.1256053274154732,2.2328417287184985,4.376319153277382
1768627145476,129,1,-0.1885274338374423,2.2256809293952693,4.321651145177901
1768627145480,129,1,-0.0639266149518675,2.1019533043770844,4.453128958008607
1768627145484,129,1,0.3432109735220947,2.271508467852075,4.866314766811513
1768627145488,130,2,0.950772925977432,3.1942378367411246,5.4799371419738545
1768627145492,131,3,1.5354693702162143,4.221041518264693,6.070956903570668
1768627145496,131,3,1.8923700221290591,4.21944118544154,6.43439151466369
1768627145500,131,3,1.9851712166059756,4.104836075730423,6.534140144395304
1768627145504,131,3,1.9574648899847231,4.299966964980608,6.513969211842884
1768627145508,131,3,2.003638657323883,4.1282037325299905,6.567870142164241
1768627145512,131,3,2.2169331516288335,4.326974206131392,6.788244623899876
1768627145516,132,4,2.5372258767426494,5.092037309981298,7.1143605922837105
1768627145520,132,4,2.825099435153058,5.254909335772549,7.407012284443903
1768627145524,132,4,2.9814700039832256,5.147836207375426,7.568098897748957
1768627145528,132,4,3.006773348428994,5.271448660552464,7.598983593783055
1768627145532,132,4,2.9665474776041636,5.19539518580484,7.565264890708418
1768627145536,132,4,2.9189446889603277,5.2064459101035965,7.524395529959985
1768627145540,132,4,2.878809583817399,5.187376893030861,7.490498250158551
1768627145544,132,4,2.842533160352552,5.171918451537544,7.459692047768749
1768627145548,132,4,2.8366589372879893,5.299722630111579,7.458718335055483
1768627145552,132,4,2.931930176229305,5.1046144847821315,7.558846011252119
1768627145556,132,4,3.1982480274764953,5.3587663231038025,7.830496887806058
1768627145560,133,5,3.636914792872055,6.000937467813244,8.274961817258184
1768627145564,133,5,4.155853291113768,6.394983911634307,8.799415859452361
1768627145568,134,6,4.616989869585371,7.057401272451374,9.264892532272176
1768627145572,134,6,4.917184676271795,7.344869123600963,9.568250244694822
1768627145576,134,6,5.034363711012777,7.132845281480508,9.688689874466007
1768627145580,134,6,5.009875220939266,7.208998958067741,9.669082859619488
1768627145584,134,6,4.9050500113307365,7.230599841739528,9.570879305620329
1768627145588,134,6,4.788177125404612,7.174184988196723,9.460692599420751
1768627145592,134,6,4.753459627129798,7.277241749459505,9.430856018112667
1768627145596,134,6,4.914056150532053,7.162002810872173,9.594377495284448
1768627145600,134,6,5.331712244100834,7.214992437852069,10.01450469866824
1768627145604,135,7,5.935421322466936,8.21499568250054,10.621476631214952
1768627145608,136,8,6.528966261499171,9.19264230492453,11.218908944858876
1768627145612,136,8,6.91221016734425,9.265697260063648,11.606011984534112
1768627145616,136,8,7.018765831088379,9.170316740775329,11.71644456012046
1768627145620,136,8,6.9504980355732515,9.20636906490047,11.652491789172457
1768627145624,136,8,6.889111647820621,9.229771585078034,11.59578199932361
1768627145628,136,8,6.967697259181137,9.166439193058308,11.678826439054392
1768627145632,136,8,7.2000767262520995,9.330403879092463,11.914816466961636
1768627145636,137,9,7.508248022321876,10.07026380586852,12.225376143699451
1768627145640,137,9,7.810041453044854,10.3510568394792,12.528714230801278
1768627145644,137,9,8.081677124135366,10.036135958115263,12.802404005492082
1768627145648,137,9,8.342167655618866,10.399463349920929,13.066644906948945
1768627145652,138,10,8.596930716140267,11.087334683067125,13.326361792705308
1768627145656,138,10,8.817305904173029,11.306114118015936,13.551122719879354
1768627145660,138,10,8.969455303832726,11.16296607644824,13.706017401400135
1768627145664,138,10,9.036029197334202,11.147394514214104,13.774212629745175
1768627145668,138,10,8.994156577284741,11.380597486928302,13.73396236800303
1768627145672,138,10,8.78075018879651,11.008419628785864,13.522816825048343
1768627145676,137,9,8.295333479572125,10.490566793522312,13.040312997851505
1768627145680,137,9,7.450430578071828,9.905673460743287,12.19861257905377
1768627145684,135,7,6.233019744828487,8.447107482668923,10.984171961614898
1768627145688,134,6,4.725678755827874,7.061396995667568,9.479277227556617
1768627145692,132,4,3.062206575383121,5.316158747511611,7.817972851421075
1768627145696,130,2,1.3468042033091132,3.2410270189146333,6.104873313251995
1768627145700,129,1,-0.3941138002880349,2.084843594247911,4.36628851860013
1768627145704,127,-1,-2.181035651609136,0.3669222370981102,2.581229070310383
1768627145708,125,-3,-4.002287829880183,-1.9795995245299671,0.7613403969347199
1768627145712,123,-5,-5.767592857978377,-3.5154470472829757,-1.0024362313511013
1768627145716,122,-6,-7.336500170397972,-5.0345651270563705,-2.5691092683025536
1768627145720,120,-8,-8.585942760113108,-6.54196203449043,-3.815834990418741
1768627145724,120,-8,-9.453300301085514,-7.071004412346147,-4.680660944623212
1768627145728,119,-9,-9.930051723326397,-7.499216577171968,-5.15542787480285
1768627145732,119,-9,-10.034254297873344,-8.01376618061784,-5.257993664814915
1768627145736,119,-9,-9.803838146838732,-7.53270037791881,-5.026026183510844
1768627145740,120,-8,-9.318595780599308,-7.015947363393064,-4.539481358549454
1768627145744,120,-8,-8.719866898276976,-6.647370395382658,-3.940000807428373
1768627145748,121,-7,-8.194241220992353,-5.8501305317512475,-3.4139902951198016
1768627145752,121,-7,-7.915046437837894,-5.744994384836727,-3.1340841692658037
1768627145756,121,-7,-7.966513710825486,-5.720632392386185,-3.1839109224836566
1768627145760,121,-7,-8.294239891659377,-5.88980462056593,-3.5090549979982324
1768627145764,120,-8,-8.719978528066816,-6.7319363570219695,-3.931862242481632
1768627145768,120,-8,-9.023333402766546,-6.783011008146205,-4.23282641803608
1768627145772,120,-8,-9.047022856985384,-6.803590011467247,-4.25537714021991
1768627145776,120,-8,-8.764378804820847,-6.6520509059263935,-3.9728707285828326
1768627145780,121,-7,-8.273946443298405,-5.961058508145567,-3.483096107979304
1768627145784,121,-7,-7.731528787715472,-5.651095164003775,-2.940862369012141
1768627145788,122,-6,-7.262660136744983,-4.877631354308261,-2.471123423984322
1768627145792,122,-6,-6.905955424922312,-4.6934167875141615,-2.1125413673681708
1768627145796,122,-6,-6.617061279194316,-4.774899655898999,-1.821333045878384
1768627145800,123,-5,-6.321488287649865,-3.822617020501761,-1.5238419153855025
1768627145804,123,-5,-5.974163115723887,-3.790095443634815,-1.1755871568452791
1768627145808,123,-5,-5.589773321729156,-3.748392397159146,-0.7912520887140133
1768627145812,124,-4,-5.2330802415815,-2.7983870946452067,-0.4351891919506609
1768627145816,124,-4,-4.978270722525316,-2.692856566390774,-0.1809754078108896
1768627145820,124,-4,-4.863918232212715,-2.8814702940356343,-0.0663326869877878
1768627145824,124,-4,-4.874399249823008,-2.743437431697717,-0.0750822005343181
1768627145828,124,-4,-4.951978746907055,-2.785259467186383,-0.1502222265608599
1768627145832,124,-4,-5.017755698129434,-2.7747270217831272,-0.2146339194972379
1768627145836,124,-4,-4.992483378408406,-2.6867796697694613,-0.1900143912818241
1768627145840,124,-4,-4.8300024857704225,-2.9137242746622065,-0.0290279758451692
1768627145844,124,-4,-4.555770939544756,-2.6812048312206542,0.244867140475911
1768627145848,125,-3,-4.264035385097123,-1.870093146489628,0.5378388418563582
1768627145852,125,-3,-4.046388802866166,-1.6808358774481966,0.756812209519226
1768627145856,125,-3,-3.9072401333551654,-1.7642586599852064,0.8961208073982745
1768627145860,125,-3,-3.7614350450982976,-1.8567046828125615,1.0413641190245586
1768627145864,125,-3,-3.529479215585194,-1.712670781244566,1.2731366443610228
1768627145868,126,-2,-3.230720618196705,-0.8761043001286589,1.5721968779135758
1768627145872,126,-2,-2.971464722371312,-0.6279426395495369,1.831570315061874
1768627145876,126,-2,-2.842691377335772,-0.8412588442968187,1.9601754381926288
1768627145880,126,-2,-2.837643125222535,-0.7554758419615376,1.9653433729619867
1768627145884,126,-2,-2.8678225711687473,-0.8363368606784329,1.935661200428183
1768627145888,126,-2,-2.8520273333222033,-0.7649316498261118,1.9515597323217673
1768627145892,126,-2,-2.7936074049575303,-0.6928258377140801,2.0090705353920653
1768627145896,126,-2,-2.7826668563114128,-0.8126119651733829,2.0184560297472873
1768627145900,126,-2,-2.920790424657416,-0.7254033557939228,1.879087012862171
1768627145904,126,-2,-3.2218785526034868,-0.9456252598261295,1.577799467176131
1768627145908,125,-3,-3.5667944423176285,-1.5966813740635133,1.2339099998310112
1768627145912,125,-3,-3.757911185240144,-1.9039430113176727,1.0445110460919798
1768627145916,125,-3,-3.641068569089472,-1.5396868411131177,1.1624126333668667
1768627145920,126,-2,-3.2048641855479203,-1.0350691016387574,1.59754593009054
1768627145924,126,-2,-2.59022893870367,-0.621880576997315,2.2088102216693506
1768627145928,127,-1,-2.0166376761294935,0.0686174558684222,2.7784927519024745
1768627145932,127,-1,-1.678690101299288,0.4310962152328313,3.1144824296890117
1768627145936,127,-1,-1.6629520955639672,0.157558648819122,3.1312679878169707
1768627145940,127,-1,-1.9109296323294376,0.2275191956672527,2.885909559634913
1768627145944,127,-1,-2.240856780776856,0.1543904830089547,2.557561009192936
1768627145948,126,-2,-2.435092450086178,-0.7594033497831899,2.3624723418288927
1768627145952,126,-2,-2.3686162311240166,-0.6838523408996859,2.426297882035758
1768627145956,127,-1,-2.098866488163583,0.2500342252198328,2.69298211526134
1768627145960,127,-1,-1.83343981281658,0.1553781833150364,2.955828814099954
1768627145964,127,-1,-1.7838598552076514,0.206831574840588,3.0037010270378564
1768627145968,127,-1,-2.01512007831787,0.1974669847875427,2.771743441904529
1768627145972,126,-2,-2.403491132840898,-0.655002372077317,2.3835048899268347
1768627145976,126,-2,-2.7248339403324557,-0.7534911137653661,2.062566681738513
1768627145980,126,-2,-2.798888017486456,-0.8478896985189804,1.9884025215643768
1768627145984,126,-2,-2.583700702882939,-0.792221763971467,2.2022418380430864
1768627145988,127,-1,-2.165503307335271,0.2096992666227067,2.6177119064143923
1768627145992,127,-1,-1.6789279007324338,0.3160843920035274,3.1010432301486586
1768627145996,127,-1,-1.239986243925698,0.302934341636061,3.5374977714350577
1768627146000,128,0,-0.9336207090073012,1.070337673604299,3.842392920169502
1768627146004,128,0,-0.822763607597341,1.312717097906658,3.951799503802111
1768627146008,128,0,-0.935068150458716,1.0707209846116554,3.837489422271629
1768627146012,127,-1,-1.2371795913954045,0.5042387363074081,3.5337059774098156
1768627146016,127,-1,-1.6308051674995203,0.0737088376647134,3.1395714956374645
1768627146020,127,-1,-1.974026499923529,0.3317078316298194,2.796061274306248
1768627146024,127,-1,-2.1172548358778513,0.0322799642375733,2.651093599777201
1768627146028,126,-2,-1.9631548440166149,-0.6424051788269538,2.801816875612632
1768627146032,127,-1,-1.5411121578179054,0.2388132795548156,3.220104225839294
1768627146036,128,0,-1.0290860742454382,1.3162675514101756,3.7289286394146774
1768627146040,128,0,-0.6677077011916093,1.109245147549804,4.087662461278407
1768627146044,128,0,-0.615119899336797,1.234616705124005,4.137980277688846
1768627146048,128,0,-0.8576581314408025,1.179757818239454,3.893486836156127
1768627146052,127,-1,-1.239936604531495,0.385827524867926,3.509329498466519
1768627146056,127,-1,-1.5763758775623538,0.2029371496773553,3.1707059905046764
1768627146060,127,-1,-1.752364555563811,0.1946786796483891,2.9921525420100337
1768627146064,127,-1,-1.7488169289089692,0.1826630970232232,2.993154095003298
1768627146068,127,-1,-1.5970767069947316,0.2129595130331214,3.142627552419188
1768627146072,127,-1,-1.324547701995356,0.368816054379685,3.412484318864658
1768627146076,128,0,-0.9436690351797752,1.1970862876686872,3.7891335958255823
1768627146080,128,0,-0.4905940896452128,1.2278529553630362,4.236560745016858
1768627146084,128,0,-0.0723423587362968,1.1274194879708177,4.649736090792407
1768627146088,129,1,0.1462336495963692,2.294563783885021,4.865686063328156
1768627146092,129,1,0.0508497647385788,2.271607085869048,4.769792392277429
1768627146096,128,0,-0.2889981715525651,1.2828933553267334,4.429291133893601
1768627146100,128,0,-0.6033865545942894,1.1770076507220004,4.11191255979073
1768627146104,128,0,-0.5835132414061737,1.132901300043897,4.126078914035796
1768627146108,128,0,-0.1132720306156416,1.3431570782304654,4.5896708472138
1768627146112,129,1,0.6251407658568386,2.1838480517576015,5.322855079868699
1768627146116,130,2,1.2856052502382354,3.4055226347064957,5.980181543374282
1768627146120,131,3,1.6466014389319583,4.036922369561361,6.338794463758675
1768627146124,130,2,1.805672342503744,3.2730752628286828,6.494885041427187
1768627146128,130,2,2.0820803661146408,3.2024571732825406,6.767621294448678
1768627146132,131,3,2.69639120737179,4.314480811307368,7.377751213376707
1768627146136,132,4,3.524051897252699,5.2972369046470265,8.20019664384041
1768627146140,133,5,4.158072457651281,6.14491614395698,8.827593879614705
1768627146144,133,5,4.2243045833251465,6.1777416081273,8.886806673767289
1768627146148,132,4,3.6696057741543657,5.2727226572034915,8.32665295766435
1768627146152,131,3,2.78704181818314,4.2319021378024555,7.4412938926512435
1768627146156,130,2,1.9827683918135648,3.3949538090698086,6.635790010384452
1768627146160,130,2,1.4982740517782382,3.0547692269507407,6.148856754797806
1768627146164,130,2,1.3066639209044353,3.2932033881838723,5.951345385617944
1768627146168,130,2,1.221547878529354,3.14359130684012,5.857289327580627
1768627146172,129,1,1.0741732240252726,2.33613213299713,5.700904829724511
1768627146176,129,1,0.7983163928157904,2.310636255501685,5.418762417049312
1768627146180,129,1,0.3975181232310257,2.1241846992062077,5.0144308409226745
1768627146184,128,0,-0.1138168925384722,1.2657843589885558,4.499867422244224
1768627146188,128,0,-0.7173343134373363,1.1387089383407465,3.891158684893551
1768627146192,127,-1,-1.357480456222673,0.3538187554967819,3.2439083258139716
1768627146196,126,-2,-1.9311607051237452,-0.7390282958465175,2.6631231733399887
1768627146200,126,-2,-2.3294141895930056,-0.7848935519735192,2.2591154832340368
1768627146204,126,-2,-2.4928106481411687,-0.8336265381050594,2.090550636949245
1768627146208,126,-2,-2.429104721485393,-0.7513577313978081,2.1479778162831447
1768627146212,126,-2,-2.193983983247384,-0.7668828037453912,2.375295215202045
1768627146216,126,-2,-1.8707233452835013,-0.6357543413079476,2.6903739903617363
1768627146220,127,-1,-1.556493133213257,0.1348667461410821,2.997148084663381
1768627146224,127,-1,-1.3331898313862065,0.2482276278888848,3.213853201289492
1768627146228,127,-1,-1.2260888988617316,0.1694938138773793,3.31503478814359
1768627146232,127,-1,-1.1918924156326545,0.3084221748033791,3.3441143859162805
1768627146236,127,-1,-1.1631291970763742,0.2629112979085943,3.3683194892516073
1768627146240,127,-1,-1.1204042888978585,0.264785157884707,3.405294706718017
1768627146244,127,-1,-1.1266018797046813,0.1169143221479727,3.389077228589472
1768627146248,127,-1,-1.2708078133435436,0.3134576738373142,3.2288183768675154
1768627146252,127,-1,-1.5297466558049275,0.1523360933985799,2.95111157308888
1768627146256,126,-2,-1.6211505206750232,-0.6044299830405506,2.846996513246349
1768627146260,127,-1,-0.938356882324476,0.1648238719085053,3.5310621272983207
1768627146264,130,2,1.3808212640152022,3.1994556399884546,5.863858032919956
1768627146268,135,7,6.210922282191786,8.283767441313271,10.707012226360831
1768627146272,142,14,13.97456438561753,15.139254461054714,18.46778867874354
1768627146276,151,23,24.02880747291761,24.44569213035755,28.497369947963765
1768627146280,162,34,34.25482751690981,35.07783410533225,38.68514034128548
1768627146284,169,41,41.36560534348596,42.31584945552314,45.76048324126724
1768627146288,171,43,42.14888625486971,44.1391686728801,46.52494156960507
1768627146292,165,37,35.166044471681936,38.257609167126866,39.54381520252145
1768627146296,150,22,21.865497889818617,23.293409781652056,26.259614263460904
1768627146300,133,5,6.223285917591786,6.177576761524674,10.636863663615571
1768627146304,120,-8,-7.052221047509724,-6.695343373333621,-2.6287706938396607
1768627146308,113,-15,-14.693126816846616,-13.861900362237876,-10.278561794195502
1768627146312,112,-16,-16.10582096740686,-14.588755657425091,-11.719339630022324
1768627146316,116,-12,-13.060061855518152,-10.92643565157717,-8.71085669797061
1768627146320,120,-8,-8.282525215393381,-6.562270374710194,-3.9645720784904146
1768627146324,124,-4,-3.9886558668629313,-3.0658365953328093,0.3149882176456327
1768627146328,126,-2,-1.1760421577313178,-0.4532568244839225,3.130115284544572
1768627146332,128,0,0.1936893360337164,0.9715092818906956,4.509046943507936
1768627146336,128,0,0.5848914109766754,1.549472178277587,4.903604563616286
1768627146340,129,1,0.4070585315052353,1.9450841366468437,4.716661961993246
1768627146344,128,0,-0.1014680588979144,1.3977695186370585,4.189160254170335
1768627146348,127,-1,-0.7643960718426599,0.1194233001632957,3.50581910631328
1768627146352,126,-2,-1.3878715944606768,-0.6300375907514293,2.867618023543306
1768627146356,126,-2,-1.8079692810430823,-0.7805844005521415,2.439192672759342
1768627146360,126,-2,-1.9714456748684397,-0.7935870576728962,2.269059177278436
1768627146364,126,-2,-1.9361735638931603,-0.8159811385443803,2.294643949453747
1768627146368,126,-2,-1.7948731513567278,-0.7114839522374988,2.422798421115472
1768627146372,126,-2,-1.6074202208021164,-0.7577513715910712,2.5967224387410455
1768627146376,126,-2,-1.3922200150033484,-0.6610742212083409,2.800507058089515
1768627146380,127,-1,-1.1492506662162434,0.0710711829450099,3.0335606327451905
1768627146384,127,-1,-0.8717705603570582,0.3368751405784114,3.3004545331397597
1768627146388,127,-1,-0.5527642392040013,0.1027351022665354,3.607462100344987
1768627146392,127,-1,-0.2126749262053113,0.479072644224721,3.935104569674309
1768627146396,128,0,0.0733513829500835,1.0664323755960734,4.208721314761935
1768627146400,128,0,0.201289311507169,1.356860128122317,4.323555566474259
1768627146404,128,0,0.1126966952054067,1.0477013715513137,4.221095176298906
1768627146408,127,-1,-0.1550938938762325,0.3751254671181432,3.9403715743678793
1768627146412,127,-1,-0.489201050674791,0.246302599455138,3.595759272095951
1768627146416,127,-1,-0.7540922494509477,0.2548997875326693,3.3216682123573102
1768627146420,127,-1,-0.8231662057281763,0.2088340590395568,3.241773355636146
1768627146424,127,-1,-0.6007927311793073,0.165207819033178,3.450163642222051
1768627146428,127,-1,-0.0768488839301579,0.2815816648373945,3.9582698531207177
1768627146432,128,0,0.6114682927191395,1.329493923619009,4.631262315322624
1768627146436,129,1,1.2015204841400202,2.171626260994236,5.207626275728039
1768627146440,129,1,1.4476078061624833,2.2946326882688313,5.441358667138756
1768627146444,129,1,1.2899314704021625,2.079185131270531,5.272054011601101
1768627146448,128,0,0.9056493821148596,1.361794994171479,4.876353280123241
1768627146452,128,0,0.5917152784213968,1.24760888965531,4.55046500593874
1768627146456,128,0,0.5688164158317659,1.2490414852227147,4.514331127656787
1768627146460,128,0,0.850552123281032,1.239996118022674,4.781490545692513
1768627146464,129,1,1.2630649336139952,2.1185512382567575,5.178745065372597
1768627146468,129,1,1.5888804413023414,2.352527484999647,5.489376033882975
1768627146472,129,1,1.7230528076865197,2.196115361719488,5.6089595310686
1768627146476,129,1,1.7277968953762195,2.359148192390318,5.600137262757709
1768627146480,129,1,1.7590833834266115,2.072710194906376,5.619115583619985
1768627146484,129,1,1.944145830935833,2.348364453374517,5.792600989850795
1768627146488,130,2,2.317809578420782,3.0809272633576965,6.153940605818298
1768627146492,130,2,2.851926525711263,3.488543211009791,6.673633337235475
1768627146496,131,3,3.5108047014346746,4.051089852517936,7.316271555806064
1768627146500,131,3,4.248088713188952,4.388601524312368,8.037298234751159
1768627146504,132,4,4.952931928544347,5.040120469501084,8.72717674436681
1768627146508,133,5,5.442826213664755,6.366139725778811,9.202986374599304
1768627146512,133,5,5.56070502504118,6.245613808707553,9.306811175185556
1768627146516,132,4,5.303065902368158,5.221400729241034,9.035434984679204
1768627146520,132,4,4.853571526211544,5.31024943122177,8.573152214288935
1768627146524,132,4,4.486793194370376,5.0126702213048855,8.193853770332344
1768627146528,131,3,4.417485732856447,4.494210612634999,8.110675460506673
1768627146532,132,4,4.692713142641155,5.04507579913957,8.369952274072844
1768627146536,132,4,5.181891072045137,5.483726915541919,8.84201062362282
1768627146540,133,5,5.665297440927637,6.001324176641304,9.30880482503122
1768627146544,133,5,5.967854224400203,6.342571258136477,9.596455022535984
1768627146548,133,5,6.05559572703411,6.153961589805705,9.671047051653494
1768627146552,133,5,6.037172263046221,6.378782457452393,9.64022684832587
1768627146556,133,5,6.077719580411662,6.181723561851271,9.66771583264334
1768627146560,133,5,6.28869840413866,6.2482414115844485,9.863948357933369
1768627146564,134,6,6.66713095456379,7.1646391237447355,10.225945581871224
1768627146568,134,6,7.116011612277241,7.258038961417659,10.657888160018056
1768627146572,134,6,7.518367757894865,7.351181715196947,11.044381039679044
1768627146576,135,7,7.811180307617098,8.14247333778907,11.32302058696582
1768627146580,135,7,8.019689875042676,8.334399762759325,11.5183417197912
1768627146584,135,7,8.233713346792396,8.036638657964417,11.71910954458213
1768627146588,135,7,8.532882758501628,8.41708190321657,12.004284583352629
1768627146592,136,8,8.908330360945754,9.185817908922749,12.36458292049353
1768627146596,136,8,9.241481665523043,9.293488697682928,12.681392628140244
1768627146600,136,8,9.35323593778277,9.21585650177022,12.776403115988138
1768627146604,136,8,9.08264350661164,9.099831442872269,12.489941859510813
1768627146608,135,7,8.349480942749473,8.41591612109368,11.742538005004471
1768627146612,134,6,7.178401845921876,7.119715597791061,10.558518729239672
1768627146616,132,4,5.679811100660672,5.424942875829188,9.047073107329677
1768627146620,131,3,3.999048484811319,4.024297704736528,7.35214607050129
1768627146624,129,1,2.2594475862492485,2.340584853300729,5.596634129736032
1768627146628,127,-1,0.5220306164271813,0.1364801840897849,3.842681936582773
1768627146632,125,-3,-1.2216500624470177,-1.5663193812895102,2.0833973987761167
1768627146636,124,-4,-3.007067317170006,-2.912771832647977,0.2835866319554099
1768627146640,122,-6,-4.815992015817597,-4.627132952359677,-1.5393612315436664
1768627146644,120,-8,-6.524266708907181,-7.009917934785415,-3.26167093517517
1768627146648,118,-10,-7.943441637743072,-8.523602235428749,-4.694620056803452
1768627146652,118,-10,-8.928679757141596,-8.882802951356057,-5.69370746089901
1768627146656,117,-11,-9.452687927701447,-9.630969075825044,-6.232565002214978
1768627146660,117,-11,-9.5917805222064,-9.86186533691525,-6.387417598731522
1768627146664,117,-11,-9.463727581660317,-9.815732938088605,-6.274612423897837
1768627146668,117,-11,-9.177344216889624,-9.6896057306025,-6.002074792272794
1768627146672,118,-10,-8.809995746837615,-8.751768301126997,-5.64806926025369
1768627146676,118,-10,-8.406222681292212,-8.733934148597065,-5.25853064167458
1768627146680,118,-10,-7.998860608235003,-8.777947935884008,-4.866327540453894
1768627146684,119,-9,-7.640171209519107,-7.877167671812204,-4.522568602129398
1768627146688,119,-9,-7.401835238942015,-7.658191645356397,-4.298132392779855
1768627146692,119,-9,-7.324043033821165,-7.770518779636751,-4.233452049248536
1768627146696,119,-9,-7.358863973419674,-7.721012749090119,-4.281344285955868
1768627146700,119,-9,-7.376374850412843,-7.776029341311527,-4.312393941603959
1768627146704,119,-9,-7.24840641593993,-7.89856208521783,-4.198458347979007
1768627146708,119,-9,-6.948391745978434,-7.620893187548519,-3.9128207451889705
1768627146712,120,-8,-6.579237185577457,-6.832367125536906,-3.558339382066859
1768627146716,120,-8,-6.296322688095495,-6.630608336588821,-3.290130897858922
1768627146720,120,-8,-6.187543668205637,-6.875362623788494,-3.195303901128941
1768627146724,120,-8,-6.211127876006456,-6.811030126617195,-3.2314151978292465
1768627146728,120,-8,-6.23435280971927,-6.697994453523295,-3.2661315962540223
1768627146732,120,-8,-6.131336656558778,-6.790951527229046,-3.174916841173571
1768627146736,120,-8,-5.8656993019707535,-6.61336963656538,-2.922646242713389
1768627146740,121,-7,-5.5079566665456205,-5.93497070949522,-2.5800522255789846
1768627146744,121,-7,-5.185103367538025,-5.718741652416917,-2.2729440094296747
1768627146748,121,-7,-5.003270276500324,-5.83046706342643,-2.105392652018247
1768627146752,121,-7,-4.993434732514043,-5.649421930642507,-2.107043674405085
1768627146756,121,-7,-5.099798006147217,-5.735469622300253,-2.2230057165233377
1768627146760,121,-7,-5.202702219199248,-5.840046188612402,-2.3362961148454855
1768627146764,121,-7,-5.170679083824046,-5.767785896620926,-2.317429653537413
1768627146768,121,-7,-4.937662987524728,-5.854979595737001,-2.09967266495184
1768627146772,121,-7,-4.569124976837374,-5.558528202336159,-1.7459536640469526
1768627146776,122,-6,-4.249648111739713,-4.881182385624097,-1.4390957088531748
1768627146780,122,-6,-4.162991488492337,-4.633603291084758,-1.3633411842769467
1768627146784,122,-6,-4.341040440477174,-5.023312286312055,-1.5521406495148642
1768627146788,121,-7,-4.619596369716435,-5.58343853290367,-1.8420691255265336
1768627146792,121,-7,-4.7603909823950445,-5.852352155330644,-1.9946066042404675
1768627146796,121,-7,-4.639968290502187,-5.575093829948,-1.8860982613387365
1768627146800,122,-6,-4.335580282764106,-4.918008186946522,-1.5940508096506574
1768627146804,122,-6,-4.036563778368034,-4.753172363920296,-1.3077404034694884
1768627146808,122,-6,-3.8734135711906137,-4.849925797341723,-1.1568342977224848
1768627146812,122,-6,-3.8202386745137114,-4.6187564459069375,-1.1146195576323366
1768627146816,122,-6,-3.7431967774544903,-4.786302233436798,-1.0474462288559645
1768627146820,122,-6,-3.535122947584124,-4.713296439469147,-0.8493630382142063
1768627146824,123,-5,-3.2127121677923416,-3.929823234399221,-0.5382653848465111
1768627146828,123,-5,-2.898418305221783,-3.705853421669448,-0.236569495143522
1768627146832,123,-5,-2.7159586351308027,-3.757968076075789,-0.0664741017897307
1768627146836,123,-5,-2.6971219852239865,-3.6612719353246392,-0.0581050984087649
1768627146840,123,-5,-2.7707395179466685,-3.815422340949467,-0.1402773396043222
1768627146844,123,-5,-2.8259305985080516,-3.8399212620792578,-0.2039762831473472
1768627146848,123,-5,-2.792392267978071,-3.779669290956,-0.1808627920574808
1768627146852,123,-5,-2.6860917963513034,-3.7254220430368825,-0.086943672339649
1768627146856,123,-5,-2.5995712518918164,-3.6578786593275616,-0.0127830427189037
1768627146860,123,-5,-2.642071267487008,-3.843851621096461,-0.0656775408572172
1768627146864,123,-5,-2.8541003264622287,-3.78178011985638,-0.286164422428524
1768627146868,123,-5,-3.1454952491966894,-3.86397002708636,-0.5856033048030511
1768627146872,122,-6,-3.3187107047910853,-4.643156108898952,-0.7674069598174214
1768627146876,122,-6,-3.1924779639678738,-4.742229774999474,-0.6501066401806046
1768627146880,123,-5,-2.742081941300731,-3.74810513134908,-0.2090125499642612
1768627146884,124,-4,-2.131727178540562,-2.8778545746184547,0.3909320686924777
1768627146888,124,-4,-1.609347974456651,-2.758329493265864,0.9018676800556062
1768627146892,124,-4,-1.3642273022620683,-2.782456536417126,1.136189537674975
1768627146896,124,-4,-1.457334225218116,-2.581872662282005,1.034513087926086
1768627146900,124,-4,-1.8358747024241768,-2.943844037480921,0.6492478468145606
1768627146904,123,-5,-2.376770736445585,-3.632049266920353,0.1016160625073836
1768627146908,123,-5,-2.923700210213346,-4.038855647282439,-0.4533420694734467
1768627146912,122,-6,-3.3232107633474146,-4.485840465082794,-0.8617759683871506
1768627146916,122,-6,-3.468758912142365,-4.8971947333828965,-1.015926703884266
1768627146920,122,-6,-3.336539825464714,-4.635224177766736,-0.8916063731414576
1768627146924,123,-5,-2.9856937140534625,-3.8955922019880984,-0.5488012050243865
1768627146928,123,-5,-2.522186275672407,-3.8250580201623823,-0.0942298977872031
1768627146932,123,-5,-2.0590796130715434,-3.6500873146568553,0.3595457371441384
1768627146936,124,-4,-1.695007250406091,-2.8083758555163483,0.7151528507008749
1768627146940,124,-4,-1.4956200369565291,-2.670007661037536,0.907751735302913
1768627146944,124,-4,-1.463852041389278,-2.8877152435158324,0.9341830604242856
1768627146948,124,-4,-1.520993207273956,-2.805765219510437,0.8719430874536465
1768627146952,124,-4,-1.531954341945101,-2.6895632457951635,0.8545352863454614
1768627146956,124,-4,-1.3793062514128764,-2.790261597097647,0.9987085084510894
1768627146960,124,-4,-1.0501045383884562,-2.6649885004432514,1.31848292841695
1768627146964,125,-3,-0.6710311635072892,-1.9022130264851325,1.6891580817413845
1768627146968,125,-3,-0.4408504846787813,-1.76266633756073,1.9130144291531277
1768627146972,125,-3,-0.4840321730758465,-1.7700551517458094,1.864900191099959
1768627146976,125,-3,-0.7356236593195815,-1.7080804328055983,1.608422617059511
1768627146980,124,-4,-0.9707066385814428,-2.7531273275920376,1.367933502176378
1768627146984,124,-4,-0.978458219209235,-2.81152649956078,1.3544025524695265
1768627146988,125,-3,-0.7395713253567466,-1.8184747122478016,1.5868959147299062
1768627146992,125,-3,-0.4457329362923103,-1.7640656680593532,1.873153742298864
1768627146996,125,-3,-0.3428394235685741,-1.6784414569100037,1.9677794652376277
1768627147000,125,-3,-0.5408061822328007,-1.8259537003393984,1.7628289291331427
1768627147004,124,-4,-0.9456696761360432,-2.7072844993945377,1.3538912469611213
1768627147008,124,-4,-1.3412107974367444,-2.9385328765114807,0.9563633115588296
1768627147012,124,-4,-1.5243560787366794,-2.6418043292851308,0.770426304938495
1768627147016,124,-4,-1.3923062922469782,-2.796265489397415,0.896767378200932
1768627147020,124,-4,-0.9585188584080098,-2.73104080314452,1.3226731181071507
1768627147024,125,-3,-0.3267129976207561,-1.7553615308030346,1.94693643694668
1768627147028,126,-2,0.3599284482005274,-0.9580442603011236,2.6280865224749705
1768627147032,126,-2,0.9867220547478036,-0.5498591121533021,3.2513077517778415
1768627147036,127,-1,1.5201508678897675,0.0287055885636409,3.781906009448536
1768627147040,127,-1,2.00502559865647,0.5159426083643109,4.263528400787759
1768627147044,128,0,2.5045739965324816,0.935674478476172,4.758761607081855
1768627147048,128,0,3.0284115573557484,1.3920418914986057,5.277242682983119
1768627147052,129,1,3.504167000476379,2.076886240342139,5.747254836403771
1768627147056,129,1,3.81599302848756,2.403315780740397,6.053967822387753
1768627147060,129,1,3.8822091436381303,2.1515207924871325,6.116426811297524
1768627147064,129,1,3.7159116191624175,2.272039041710466,5.947507484520273
1768627147068,129,1,3.4252534114233275,2.0843134177709848,5.654419818510354
1768627147072,128,0,3.146632667851043,1.3486049462240657,5.372865009898479
1768627147076,128,0,2.9470819956201404,1.167422570003504,5.169751102712345
1768627147080,128,0,2.766328731067347,1.354564042607002,4.9847027808188376
1768627147084,128,0,2.452652553496889,1.094905318057878,4.665940392841195
1768627147088,127,-1,1.8684828853920663,0.2326893361201105,4.076672879165649
1768627147092,126,-2,0.980134638093086,-0.7749171461699564,3.184669032293518
1768627147096,125,-3,-0.1252334799300447,-1.7442788443493529,2.077694166999794
1768627147100,124,-4,-1.2789603392465654,-2.707553184276234,0.9233340922133269
1768627147104,123,-5,-2.285156462699791,-3.864365462316913,-0.084203380303546
1768627147108,122,-6,-2.9754589865650227,-4.78969483657975,-0.7773202057257387
1768627147112,122,-6,-3.2629865900500827,-4.760130672313389,-1.0687018237908186
1768627147116,122,-6,-3.1767932573393756,-4.767980650812143,-0.986483673048704
1768627147120,122,-6,-2.8515051882412763,-4.676512371008993,-0.6645901402808168
1768627147124,123,-5,-2.469219076873379,-3.904786982166944,-0.28495452154612
1768627147128,123,-5,-2.1808909303629274,-3.736893933001501,0.0011989536229881
1768627147132,123,-5,-2.050501284552775,-3.8349792976173087,0.1295807051894733
1768627147136,123,-5,-2.0526358058092,-3.685956254385331,0.1254957895720956
1768627147140,123,-5,-2.1152313572204005,-3.77188341988713,0.0611035210388477
1768627147144,123,-5,-2.169512234042328,-3.8037814280624658,0.0055048436171647
1768627147148,123,-5,-2.1775352895499824,-3.824942092764231,-0.0029643404954287
1768627147152,123,-5,-2.1365020330140223,-3.773819392282416,0.0382710015554041
1768627147156,123,-5,-2.073751731223797,-3.72330571378299,0.1003563146126631
1768627147160,123,-5,-2.037554955656888,-3.774985102271718,0.1326885145285419
1768627147164,123,-5,-2.069958853668734,-3.7593426236225898,0.0920893913089591
1768627147168,123,-5,-2.1397484598380228,-3.901704265411465,0.0121536375493138
1768627147172,123,-5,-2.0337472024158085,-3.677021612277072,0.112153754709861
1768627147176,124,-4,-1.2538286355771482,-2.839004698265255,0.8965265463777565
1768627147180,126,-2,0.9814434980298032,-0.6631951619684366,3.1474794884203905
1768627147184,131,3,5.522797266709683,4.156436082780125,7.707695176760426
1768627147188,138,10,12.829346512732933,11.162011374366756,15.02301010750691
1768627147192,147,19,22.388334794547703,20.297701995811863,24.571516650771287
1768627147196,157,29,32.33617567994065,30.14005590281192,34.49244345541811
1768627147200,164,36,39.68068998780165,37.38365225044932,41.80749629562886
1768627147204,167,39,41.31999295867684,40.054408992804674,43.430516008716005
1768627147208,162,34,35.55024895841965,35.27491100894489,37.66561516873008
1768627147212,149,21,23.243669752842273,22.12382658078629,25.382037784792814
1768627147216,132,4,7.838229288679221,5.310478832259967,10.006670965310876
1768627147220,118,-10,-6.067512265770535,-8.787736826502282,-3.876209725689442
1768627147224,110,-18,-14.781277952024723,-16.735286964676447,-12.585768480786273
1768627147228,108,-20,-17.044647346433916,-18.851030786787422,-14.86581641565002
1768627147232,111,-17,-14.201831029687275,-15.73655076448814,-12.05138092658326
1768627147236,117,-11,-9.079417905753656,-9.823592537955738,-6.953708588297983
1768627147240,121,-7,-4.3830366359204165,-5.732682169474762,-2.2661677999772447
1768627147244,123,-5,-1.5612278255979848,-3.811471671992402,0.5652515839528478
1768627147248,124,-4,-0.6319123840272873,-2.781429878953596,1.514952706175627
1768627147252,124,-4,-0.7849719027780471,-2.789667555308678,1.3803274463087565
1768627147256,124,-4,-1.163322217088767,-2.7854527134543767,1.008549375242063
1768627147260,124,-4,-1.3154573012107424,-2.7572845432591024,0.8498194321823824
1768627147264,124,-4,-1.2060611677100643,-2.8338209727432946,0.9466037159464156
1768627147268,124,-4,-0.9928020255765032,-2.688454235149643,1.1509867739719022
1768627147272,124,-4,-0.8243544348890979,-2.9359006322073027,1.3194498413536646
1768627147276,124,-4,-0.7618512435555758,-2.592851914023326,1.3883151311102924
1768627147280,125,-3,-0.7819408056454864,-2.0115577073523587,1.3741988991304137
1768627147284,124,-4,-0.8076583070715708,-2.555904091947483,1.3499341028332852
1768627147288,124,-4,-0.7656580690547896,-2.967407244737315,1.3904006594418776
1768627147292,124,-4,-0.6547626665545576,-2.6506758323673676,1.5004461928666548
1768627147296,125,-3,-0.5535223100770656,-1.8812452115362184,1.6025342334312538
1768627147300,125,-3,-0.5325042074694406,-1.752248862546705,1.624611545265783
1768627147304,124,-4,-0.5631359195829437,-2.7898612103702116,1.5946830785039587
1768627147308,124,-4,-0.5409512726014876,-2.759386898432986,1.618253908471177
1768627147312,125,-3,-0.4009019011113908,-1.824756265452544,1.760550779920529
1768627147316,125,-3,-0.1871182902097645,-1.7523957092080642,1.9759723042067312
1768627147320,125,-3,-0.0068164525780778,-1.8511689131289717,2.1563836764950426
1768627147324,125,-3,0.0635897417362221,-1.715368559535136,2.226409357665034
1768627147328,125,-3,0.0254816514767102,-1.8146433712339567,2.1890203252184635
1768627147332,125,-3,-0.0585169005952188,-1.8035116247304537,2.107171192539809
1768627147336,125,-3,-0.1035998290746975,-1.739053081160487,2.064854737531646
1768627147340,125,-3,-0.0327563105582879,-1.9147433800778484,2.1383167457344125
1768627147344,125,-3,0.2050668268125786,-1.590373861983834,2.3783081954780743
1768627147348,126,-2,0.6229734107917548,-1.0036699869795762,2.7977311610607707
1768627147352,126,-2,1.1876624060558445,-0.5701017817463532,3.363209224847717
1768627147356,127,-1,1.8128978341600757,-0.0105204428906114,3.988944181095828
1768627147360,127,-1,2.362953527252132,0.3741109308426174,4.539938159240667
1768627147364,128,0,2.68750917661649,1.1179907624815792,4.866246090449128
1768627147368,128,0,2.691622972514017,1.2682075491881548,4.872887172401901
1768627147372,127,-1,2.3979509471587948,0.181739903250146,4.582325854214002
1768627147376,127,-1,1.947284965333099,0.1865046563948991,4.134834846486771
1768627147380,127,-1,1.5325480707330537,0.23845459892532,3.722616227290807
1768627147384,126,-2,1.3084718016500612,-0.8190319957843358,3.500394123174942
1768627147388,126,-2,1.3246621979454611,-0.7188407338853136,3.518584803028906
1768627147392,127,-1,1.5202206943656713,0.1017853839327087,3.7166289499953273
1768627147396,127,-1,1.789693084957086,0.3000653318753086,3.988438649906642
1768627147400,127,-1,2.067428317442213,0.1076099450431373,4.267916197689463
1768627147404,127,-1,2.351329878692688,0.3084128039299713,4.5534667707551755
1768627147408,128,0,2.6560908968179664,1.162747880789961,4.860592741453669
1768627147412,128,0,2.9665348505196274,1.1951882738776236,5.174484035895235
1768627147416,128,0,3.2503319496019025,1.2228520155208098,5.462514923302976
1768627147420,129,1,3.5151712867407534,2.172845462231409,5.73146152723607
1768627147424,129,1,3.844224347037165,2.2486682492059424,6.063619646090435
1768627147428,129,1,4.352432670064858,2.208490722042513,6.574019260414382
1768627147432,130,2,5.076687636892178,3.152136131084419,7.300369432279787
1768627147436,131,3,5.8985308078880125,4.260042431088212,8.124617885228108
1768627147440,132,4,6.594317966063712,5.1368669027619775,8.823018421141871
1768627147444,132,4,6.9872376416736,5.2920761677232,9.219107264856042
1768627147448,132,4,7.067950301139894,5.141935430208564,9.304269184254782
1768627147452,132,4,6.982048496252129,5.217530189621526,9.223811628609331
1768627147456,132,4,6.908349316466586,5.187646217962577,9.154878857068944
1768627147460,132,4,6.933200393541093,5.210933438579196,9.182479892168605
1768627147464,132,4,7.006345054631797,5.2435864980070805,9.25701590435622
1768627147468,132,4,6.9969421246677195,5.150897285991521,9.249604269882518
1768627147472,132,4,6.811658334262955,5.2291703463325225,9.06811119293372
1768627147476,132,4,6.499093230813353,5.131939340774389,8.760887445127523
1768627147480,131,3,6.256136206977574,4.314710375583808,8.524089995904845
1768627147484,131,3,6.309461164367649,4.105486383603976,8.583610793882361
1768627147488,132,4,6.754517482793672,5.313931426190521,9.033575474632292
1768627147492,133,5,7.483561324245263,6.030330704638942,9.76501085973079
1768627147496,133,5,8.251661903848362,6.33894081092247,10.533669853403897
1768627147500,134,6,8.810438986345314,7.128405777459416,11.093926048633008
1768627147504,134,6,9.01605793565784,7.253913869762225,11.304328599733095
1768627147508,134,6,8.875359572705413,7.19450300032141,11.171498938693508
1768627147512,134,6,8.531783733382508,7.088806636517215,10.836504603789791
1768627147516,133,5,8.190182442627501,6.337521828522584,10.501852729881453
1768627147520,133,5,7.99280922604562,6.0871250696871195,10.308892470187857
1768627147524,133,5,7.905689140248993,6.338074900320185,10.224092927465776
1768627147528,133,5,7.697550987410923,6.061713845167158,10.017460611964594
1768627147532,132,4,7.044286925373015,5.233671755559234,9.366599401777613
1768627147536,131,3,5.706721701849203,4.193689592393429,8.033777518272082
1768627147540,129,1,3.679446822619095,2.212471086303791,6.013896709782404
1768627147544,126,-2,1.222226264405149,-0.7589313467861594,3.5655824004173353
1768627147548,124,-4,-1.2480932181405384,-2.9020875994600432,1.103672419164896
1768627147552,122,-6,-3.344839711507965,-4.747485692737784,-0.9867342113651284
1768627147556,120,-8,-4.8748890586902816,-6.875974378569602,-2.512576408570143
1768627147560,119,-9,-5.894251991997292,-7.657975389586429,-3.5287842360418944
1768627147564,119,-9,-6.629027311024835,-7.926667981095157,-4.260399033784938
1768627147568,118,-10,-7.311034955830669,-8.747212230317954,-4.938340965159415
1768627147572,117,-11,-8.040190305733374,-9.88185141384744,-5.661344394423125
1768627147576,116,-12,-8.76321064861593,-10.794147397013203,-6.375628812076044
1768627147580,116,-12,-9.34987614455875,-10.66689527422643,-6.952593546332968
1768627147584,116,-12,-9.678175558603009,-10.998560142309309,-7.272965837016393
1768627147588,115,-13,-9.68357100843931,-11.610694419593456,-7.27324240706173
1768627147592,116,-12,-9.390678859279303,-11.083988466340708,-6.976512756317074
1768627147596,116,-12,-8.92843040001723,-10.546477317338384,-6.509677151011347
1768627147600,117,-11,-8.490280823335322,-9.95039039149216,-6.065541687747586
1768627147604,117,-11,-8.234376365599822,-9.690621910960196,-5.80264742905491
1768627147608,117,-11,-8.189834042163953,-9.943761857360109,-5.750391312403724
1768627147612,117,-11,-8.24458110237296,-9.75667201188734,-5.7967288010715965
1768627147616,117,-11,-8.223729561895947,-9.87185043154212,-5.767165786601397
1768627147620,117,-11,-7.999370412692903,-9.637630090602846,-5.534704928637623
1768627147624,118,-10,-7.561000168914092,-8.975018185437566,-5.089681100314685
1768627147628,118,-10,-7.013442154220792,-8.691502155768507,-4.536972761390558
1768627147632,119,-9,-6.516358891476617,-7.998507437688048,-4.035237460877189
1768627147636,119,-9,-6.205660642603853,-7.653588246014508,-3.718658284963855
1768627147640,119,-9,-6.135146285117889,-7.842616602802837,-3.639609997397031
1768627147644,119,-9,-6.256152753465031,-7.781186735550683,-3.7496902164569272
1768627147648,119,-9,-6.432443692494021,-7.873421810838463,-3.915013051034427
1768627147652,119,-9,-6.485897036880309,-7.853096351294981,-3.960113968083491
1768627147656,119,-9,-6.276809858228917,-7.772094514862765,-3.7455618841891103
1768627147660,119,-9,-5.8010000599839024,-7.747202953028606,-3.264683379620824
1768627147664,120,-8,-5.232030228848558,-6.861251815477053,-2.6886050675976496
1768627147668,121,-7,-4.831378183873552,-5.796589261146879,-2.2789678965764253
1768627147672,121,-7,-4.7571017774936815,-5.960024287571619,-2.195569394616027
1768627147676,120,-8,-4.931970404453756,-6.640511788884294,-2.3617291901670714
1768627147680,120,-8,-5.108611250005392,-6.9147256171805775,-2.5291021361006334
1768627147684,120,-8,-5.079354928525548,-6.671676289881677,-2.4897562152358654
1768627147688,121,-7,-4.832276770282689,-6.001074525140792,-2.233242022183038
1768627147692,121,-7,-4.521708511302782,-5.749906567864546,-1.915264346395083
1768627147696,121,-7,-4.313491413845074,-5.845881262013346,-1.700911525513806
1768627147700,121,-7,-4.264853482302036,-5.740834810411531,-1.6451030198433312
1768627147704,121,-7,-4.325807882817284,-5.827670680292757,-1.6963289517494955
1768627147708,121,-7,-4.417453908711841,-5.884917472552051,-1.776352853175891
1768627147712,121,-7,-4.491264733885659,-5.8131411870763365,-1.8388055523689248
1768627147716,121,-7,-4.524735185423326,-5.829805046559221,-1.862945010982884
1768627147720,121,-7,-4.488422813284777,-5.726416795140484,-1.8191632825598028
1768627147724,121,-7,-4.345987208652643,-5.889387734543727,-1.6691571785194528
1768627147728,121,-7,-4.098514107959442,-5.799148755601041,-1.4122281461600257
1768627147732,122,-6,-3.814740570171422,-4.9130391328505745,-1.1174551361911875
1768627147736,122,-6,-3.591027935835148,-4.70598371806852,-0.8831901055022899
1768627147740,122,-6,-3.470340494845569,-4.890436111181142,-0.7535057660981246
1768627147744,122,-6,-3.41159125533323,-4.704529850829538,-0.6861315977213569
1768627147748,122,-6,-3.3490147541992408,-5.027326244195088,-0.6134234631754101
1768627147752,122,-6,-3.2731271354362184,-4.65145063398851,-0.5259150275994529
1768627147756,123,-5,-3.2371018140878154,-3.972242098132549,-0.4788397994575462
1768627147760,122,-6,-3.2847520884577115,-4.636313734039384,-0.5174852939718879
1768627147764,122,-6,-3.393900458715231,-4.959040307458339,-0.6186041107634734
1768627147768,122,-6,-3.5037553343507137,-4.803228527632101,-0.7190492423530714
1768627147772,122,-6,-3.5822748194701775,-4.8577797999389505,-0.7858347247936637
1768627147776,122,-6,-3.642311596294443,-4.765041681958647,-0.83316145327119
1768627147780,122,-6,-3.688872795302509,-4.836168641453257,-0.8681477487664777
1768627147784,122,-6,-3.671674969300992,-4.789040150980255,-0.8413393959208819
1768627147788,122,-6,-3.5166631273612547,-4.970670400238612,-0.6776093332757043
1768627147792,122,-6,-3.2187357220815964,-4.718223042914886,-0.3701357945115329
1768627147796,123,-5,-2.893971954545808,-3.849344845406409,-0.0343784607925021
1768627147800,123,-5,-2.7125488973551835,-3.8046884451802825,0.158660817516782
1768627147804,123,-5,-2.754817205591992,-3.776778291875594,0.1276352540515613
1768627147808,123,-5,-2.9258151920027364,-4.065795942531357,-0.0324722952162361
1768627147812,122,-6,-3.0194340918018807,-4.56742293313801,-0.1148180748263785
1768627147816,123,-5,-2.8811885401824875,-4.040209499178565,0.0352826620297217
1768627147820,123,-5,-2.523744341360881,-3.562215731019351,0.4043507833362989
1768627147824,124,-4,-2.098821470615015,-3.066042268187823,0.8398259813920217
1768627147828,124,-4,-1.768423894057633,-2.7702856700923975,1.180008846662666
1768627147832,124,-4,-1.6022256648051232,-2.8841839116744743,1.3564610298251836
1768627147836,124,-4,-1.580024628395457,-2.720387387541344,1.3901588624105476
1768627147840,124,-4,-1.6643576711704124,-2.8592808534339262,1.3180075665957285
1768627147844,124,-4,-1.8499027109231825,-2.808856929170279,1.144177284264024
1768627147848,124,-4,-2.1406100136912474,-2.9978628902536566,0.8644607311455155
1768627147852,123,-5,-2.4912952186452126,-3.720096301205936,0.5250479419527747
1768627147856,123,-5,-2.7848014094545577,-3.816219127208277,0.2440203711378727
1768627147860,123,-5,-2.874607703337321,-3.8322069848325304,0.1673359321265262
1768627147864,123,-5,-2.663430630891198,-3.7612217178599416,0.3906328954167257
1768627147868,124,-4,-2.166911028325099,-3.143895401812125,0.8973667084388204
1768627147872,124,-4,-1.5254079654669097,-2.493817110394467,1.5480927043297292
1768627147876,125,-3,-0.950305527856723,-2.117825487013719,2.133228600222046
1768627147880,125,-3,-0.6181484383034008,-1.479791486660906,2.4771306080743702
1768627147884,126,-2,-0.5613518730968985,-1.1298549415031915,2.54688919169117
1768627147888,125,-3,-0.6305134035688749,-1.8320903581149703,2.4910963655720613
1768627147892,125,-3,-0.5751854382859882,-1.7228677718720244,2.559832871135568
1768627147896,126,-2,-0.1996920295479665,-1.0107684518619666,2.948350378052564
1768627147900,126,-2,0.5189900139199102,-0.4440035657393376,3.678801593880325
1768627147904,128,0,1.4300876341956368,0.7027888196483772,4.599873211618461
1768627147908,128,0,2.3026457333703547,1.4276777103940366,5.481343507442803
1768627147912,129,1,2.9319984813804387,1.9385441834022423,6.120312310723332
1768627147916,129,1,3.2008713293155955,2.338942180571693,6.401000590688282
1768627147920,129,1,3.094312906642323,2.2434445640225062,6.308540599983692
1768627147924,129,1,2.6930700198809365,1.934349945981327,5.922263519834402
1768627147928,128,0,2.1521716129756716,1.2977246431331289,5.395200456414928
1768627147932,128,0,1.6505751579142456,0.931686034416711,4.905069216581763
1768627147936,127,-1,1.309378513556449,0.462293357798592,4.573422132630741
1768627147940,127,-1,1.1153854309393578,0.028015696379985,4.388845482345368
1768627147944,127,-1,0.9150693653135222,0.2146511952279684,4.19933588465347
1768627147948,127,-1,0.5151806590980628,-0.0196023333935584,3.8117148169646695
1768627147952,126,-2,-0.1629107143881518,-0.772851627976375,3.146468645933493
1768627147956,125,-3,-0.9991813450969188,-1.8044913880256224,2.3230388151117136
1768627147960,124,-4,-1.7445156835023414,-2.754422019710558,1.5905066021279466
1768627147964,124,-4,-2.193086190692292,-2.951428310829948,1.1544673282000384
1768627147968,124,-4,-2.313410616994879,-2.9027433580906488,1.0457463918425811
1768627147972,124,-4,-2.237959027028591,-2.8620204937435716,1.1315882778338249
1768627147976,124,-4,-2.141024171725552,-2.7428680717262095,1.238437213449812
1768627147980,124,-4,-2.119196386379135,-2.805921674562364,1.2709953434478238
1768627147984,124,-4,-2.1623804172154,-2.9192433151943367,1.240095431118197
1768627147988,124,-4,-2.2115621731219113,-2.9301878700731567,1.2042704653819305
1768627147992,124,-4,-2.2315435809243915,-2.8498806241648227,1.1973388861853458
1768627147996,124,-4,-2.233465189733102,-2.747589824344982,1.2069389725110204
1768627148000,124,-4,-2.2435434286032834,-2.8103523463840663,1.2068228126665987
1768627148004,124,-4,-2.2658595253341187,-2.9210502673040315,1.1942447344649647
1768627148008,124,-4,-2.2809346105957333,-2.933761250110291,1.190463118046906
1768627148012,124,-4,-2.2747334654793354,-2.8567461982548696,1.2103245965375542
1768627148016,124,-4,-2.261127409946871,-2.7376948050303205,1.238841926168779
1768627148020,124,-4,-2.2737140672951863,-2.8198530362835017,1.2394995536090965
1768627148024,124,-4,-2.333671124649664,-2.9322511175947046,1.187912705756088
1768627148028,124,-4,-2.4095118391770773,-2.9054755388495357,1.1148259951042814
1768627148032,124,-4,-2.3702788713208376,-2.93447305306127,1.155337261252174
1768627148036,124,-4,-1.925115162269966,-2.6009136393302423,1.6083661775554094
1768627148040,126,-2,-0.5627379179629433,-1.0269033313703426,2.9914511714025727
1768627148044,129,1,2.4432803874870057,2.3479700872131684,6.028704822139309
1768627148048,135,7,7.844774853888225,7.735827115542661,11.460142966447776
1768627148052,142,14,15.958143867204852,15.487224437425994,19.58850808400274
1768627148056,152,24,26.04274349466071,24.941232522550266,29.668241118553343
1768627148060,161,33,35.91902016566705,34.43537610226671,39.527687851720195
1768627148064,169,41,42.33421348557542,41.89051080933445,45.928963944272695
1768627148068,170,42,42.23950257781463,43.11380747438922,45.83541143332472
1768627148072,162,34,34.44140468251705,35.15187306209041,38.05746211968663
1768627148076,147,19,20.584066225544294,20.155842210658747,24.23493289408289
1768627148080,130,2,4.671010729147092,3.2904844152076995,8.360871167403332
1768627148084,117,-11,-8.716293673293563,-10.033000398027196,-4.99660817774752
1768627148088,110,-18,-16.445310081245452,-16.85169486761572,-12.715051729857926
1768627148092,109,-19,-17.93128983848464,-17.840076866895913,-14.209649917432
1768627148096,112,-16,-14.837499274690764,-14.85062316086534,-11.13242862241493
1768627148100,117,-11,-9.806620283692723,-9.69082629422708,-6.111128078883962
1768627148104,122,-6,-5.1071320461659955,-5.190445035806274,-1.405475920307346
1768627148108,124,-4,-1.9049675966571789,-2.624960525670791,1.817072380941927
1768627148112,126,-2,-0.3253704257753711,-1.14495147815526,3.42272189270877
1768627148116,126,-2,0.0384872958758901,-0.4595152412329014,3.808822132457622
1768627148120,127,-1,-0.3313125534239336,-0.1712315800231124,3.4520195080271714
1768627148124,126,-2,-1.0266156540685674,-0.6951180087339432,2.7614153849665897
1768627148128,125,-3,-1.667406731027533,-2.1306333214984536,2.1229523091637232
1768627148132,124,-4,-1.911322342214445,-2.63193821234243,1.8847974745880576
1768627148136,125,-3,-1.592919452371194,-1.9204366835654352,2.2131709090722613
1768627148140,126,-2,-0.8409115336586233,-0.8042804297486411,2.975522533055374
1768627148144,127,-1,-0.0175547437508477,0.008232544565036,3.806446478714785
1768627148148,127,-1,0.4936524024651508,0.0708849342828016,4.323758052508773
1768627148152,127,-1,0.4966027918991218,0.2642883472706651,4.335080790443098
1768627148156,127,-1,0.0671606959166185,0.1022850241350464,3.917692443819039
1768627148160,126,-2,-0.5043820559530854,-0.7982530489700401,3.3593758730835916
1768627148164,126,-2,-0.8682528579824096,-1.0381529260747189,3.006258888452434
1768627148168,126,-2,-0.7978165423300829,-0.8696038853466507,3.083744335411562
1768627148172,126,-2,-0.3137413985468079,-0.7709680633187608,3.572960827415047
1768627148176,127,-1,0.3277100401266501,0.1082396202912901,4.220069783481582
1768627148180,128,0,0.7950614725627387,1.205237950667649,4.6944354351613455
1768627148184,128,0,0.895621159511435,0.9155846803836912,4.803061452397632
1768627148188,127,-1,0.6846817353187806,0.1840445097515295,4.601300318506478
1768627148192,127,-1,0.3871594057083738,0.2027910107573133,4.314208488366552
1768627148196,127,-1,0.2158554678101123,0.073777165832319,4.153352960375499
1768627148200,127,-1,0.2510635493517019,0.3061457005964559,4.196743736867803
1768627148204,128,0,0.4561936069647692,0.7138573586445212,4.406915306810731
1768627148208,127,-1,0.7613797848669128,0.4832501699009479,4.716062555737802
1768627148212,128,0,1.1116362711542669,0.8193812040313697,5.0724409916733215
1768627148216,128,0,1.4600630119028772,1.5037060653063186,5.4302042234709855
1768627148220,129,1,1.7622188361879247,1.8420202779653936,5.7426792362734425
1768627148224,129,1,2.000999916726843,2.1466966559920735,5.989692659215572
1768627148228,129,1,2.199290183085585,2.132899737802701,6.193320596877294
1768627148232,129,1,2.377387278081889,2.037617657347109,6.375667134991699
1768627148236,129,1,2.4930376815696835,2.4307620071891396,6.496612583207438
1768627148240,130,2,2.4511644731902504,2.7350886082474295,6.4616598642337255
1768627148244,129,1,2.204711028811852,2.4097707914721127,6.223129581720444
1768627148248,129,1,1.8539840378738104,1.7487446509361515,5.88064465094028
1768627148252,128,0,1.6310750132920346,1.49244264040463,5.6656325057373795
1768627148256,129,1,1.7601415214227043,1.9261245735908776,5.801301813619242
1768627148260,129,1,2.2977701716465786,2.225138792624746,6.343692691141575
1768627148264,130,2,3.073187839337137,2.967193364899476,7.122780080396227
1768627148268,131,3,3.7743072965647912,4.133905576311014,7.828033283484776
1768627148272,131,3,4.12870394810013,4.165616385305768,8.187940919162337
1768627148276,131,3,4.0637372266963,4.1517507437042935,8.129511090269354
1768627148280,131,3,3.737625285056997,4.06841570034593,7.810166225476622
1768627148284,130,2,3.4205085180655033,3.0550204109916343,7.499722423728654
1768627148288,130,2,3.3181718194047147,3.1132962071369907,7.403799640328399
1768627148292,131,3,3.4783756413348015,4.1357285300468565,7.569530705662985
1768627148296,131,3,3.839846439256608,4.190039255928752,7.93521704531748
1768627148300,131,3,4.341758461378781,4.01356715431603,8.4407611370766
1768627148304,132,4,4.966788521088108,5.106355941051021,9.070022375503353
1768627148308,133,5,5.690843671219586,6.074839631391235,9.79914181628819
1768627148312,133,5,6.420507334110703,6.14073817255614,10.533941605094611
1768627148316,134,6,7.00004931725487,7.206008401864127,11.117960116506827
1768627148320,135,7,7.29495358276853,7.957099472694458,11.416756615313094
1768627148324,134,6,7.285501469793615,7.182151168996882,11.411504785617446
1768627148328,134,6,7.087764590012058,6.984192864139947,11.219015211100988
1768627148332,134,6,6.883201379344203,7.22271043217247,11.020177699884025
1768627148336,134,6,6.8187090870644695,7.125944914065698,10.96046403210701
1768627148340,134,6,6.945729465152431,7.009706569164458,11.090768404199386
1768627148344,134,6,7.217613068354469,7.169436856616347,11.365227839849895
1768627148348,135,7,7.534744022007992,7.938386206789848,11.685095717856765
1768627148352,135,7,7.815130054848725,8.315777912317749,11.968693029865102
1768627148356,135,7,8.044097327616047,7.967967525050244,12.201659605468713
1768627148360,135,7,8.260921607782944,8.20484372065176,12.423440310406011
1768627148364,136,8,8.501387849001517,8.949776744076942,12.668921363470186
1768627148368,136,8,8.75792286618865,9.150868273577496,12.92906086342118
1768627148372,136,8,8.979754963771896,9.116360952160846,13.152893920673352
1768627148376,136,8,9.082579243109398,9.130265394735622,13.257513734662547
1768627148380,136,8,8.954087691509457,9.06334212204288,13.131682846479102
1768627148384,136,8,8.482966245244137,9.056993455025552,12.66364257026038
1768627148388,135,7,7.616751496965001,8.065381015473562,11.8002564132563
1768627148392,133,5,6.397881123042833,6.1762843597147175,10.584392420276108
1768627148396,132,4,4.937943344939726,5.073859833686965,9.128207320483863
1768627148400,131,3,3.361550689271882,4.096263264689809,7.555650895201
1768627148404,129,1,1.7722655050804157,2.0336992429313776,5.9691751773704365
1768627148408,127,-1,0.241353490512957,0.0797083266490243,4.439948608744961
1768627148412,126,-2,-1.203210774394666,-0.8251260816519552,2.9965848978548086
1768627148416,125,-3,-2.5759506460764374,-1.968558377732704,1.625013620340482
1768627148420,123,-5,-3.902661030869607,-3.83850322992802,0.2998874161361473
1768627148424,122,-6,-5.178427781351984,-5.063087140744521,-0.9732312751747116
1768627148428,121,-7,-6.346905750823611,-5.794293068121299,-2.1379665968088277
1768627148432,120,-8,-7.309805417169173,-6.981309464714954,-3.097092223375159
1768627148436,119,-9,-7.965167854000722,-7.821382632101042,-3.74996319331174
1768627148440,119,-9,-8.268240708256005,-7.978357686865574,-4.0522976577529946
1768627148444,119,-9,-8.283168343899822,-7.955515510189143,-4.067546967393605
1768627148448,119,-9,-8.178951398955094,-7.858841785288498,-3.963319908053599
1768627148452,119,-9,-8.1532053742775,-7.968592300670261,-3.936168784759598
1768627148456,119,-9,-8.319502561589804,-7.821428336935615,-4.099800522056284
1768627148460,119,-9,-8.62987227021892,-7.996360136721989,-4.407239381550621
1768627148464,118,-10,-8.89817247700481,-8.957343152356637,-4.673076403110028
1768627148468,118,-10,-8.924900190159596,-8.81699409869119,-4.697986559438272
1768627148472,119,-9,-8.63326755415437,-8.068479262831591,-4.405349070214189
1768627148476,119,-9,-8.107332274003989,-7.682335679214467,-3.8792948148847017
1768627148480,120,-8,-7.513157390306044,-7.1830579858986985,-3.285284573539853
1768627148484,120,-8,-6.984337831419811,-6.747264974999645,-2.7559891587307033
1768627148488,121,-7,-6.5611006168373605,-6.04294598827142,-2.331382779972994
1768627148492,121,-7,-6.2091358808948725,-5.86415738026308,-1.9776747553925904
1768627148496,121,-7,-5.885224833000795,-5.868312462728597,-1.6522140914467327
1768627148500,122,-6,-5.591110584804763,-5.044065092506874,-1.357002921831845
1768627148504,122,-6,-5.3708962365520385,-4.836597497916828,-1.1361759215194145
1768627148508,122,-6,-5.260664242945758,-5.014191415945976,-1.025621377868739
1768627148512,122,-6,-5.246603791356705,-4.854332873032049,-1.011227134068455
1768627148516,122,-6,-5.274297868289858,-4.925320551207955,-1.0384860497543429
1768627148520,122,-6,-5.295231009196291,-4.976589210839489,-1.0589973750966353
1768627148524,122,-6,-5.302530477857495,-4.90426904864075,-1.0658763233571251
1768627148528,122,-6,-5.322352051493033,-4.9571239146004125,-1.085119653481839
1768627148532,122,-6,-5.367653339097535,-4.91952357309823,-1.1297176693769877
1768627148536,122,-6,-5.395821968704019,-4.863505078208777,-1.157328839302723
1768627148540,122,-6,-5.31530260295245,-5.070042978198906,-1.0765110494886383
1768627148544,122,-6,-5.048223452337746,-4.775497896764165,-0.8091689214168878
1768627148548,123,-5,-4.601305979423297,-4.127150197356713,-0.3618478271889565
1768627148552,123,-5,-4.080388009690132,-3.727142021525834,0.1593395548556637
1768627148556,124,-4,-3.630153506645801,-3.0882031811563326,0.609178300340051
1768627148560,124,-4,-3.347923068545201,-2.846065080176126,0.8902456930991076
1768627148564,124,-4,-3.2418178749582003,-2.9994252010754514,0.9951817476520056
1768627148568,124,-4,-3.2582391380607403,-2.9238338526845404,0.9787380034615863
1768627148572,124,-4,-3.336783118286056,-2.9181782037013773,0.9017424774538716
1768627148576,124,-4,-3.4320824047790017,-2.93202662466754,0.8086006940216759
1768627148580,124,-4,-3.4920881657105767,-2.979447268355544,0.7496397835585373
1768627148584,124,-4,-3.443945628046815,-2.8970203506184737,0.7967264530188225
1768627148588,124,-4,-3.2376787045974926,-3.0054772043334945,1.0004953268267245
1768627148592,124,-4,-2.925050329817559,-2.878466528767068,1.3107949726233832
1768627148596,125,-3,-2.682107806964374,-1.9443471685594815,1.5526789387670346
1768627148600,125,-3,-2.712453243900086,-2.0116041945720244,1.5226103611580744
1768627148604,124,-4,-3.0877480254542196,-2.823928589326092,1.148453162090973
1768627148608,124,-4,-3.663834692061956,-3.1366046441833393,0.5736509494131616
1768627148612,123,-5,-4.156756819078274,-3.717124411107156,0.0812422001566082
1768627148616,123,-5,-4.328543939938703,-4.156518056801251,-0.0914192049268298
1768627148620,123,-5,-4.143649975666836,-3.7596913565878705,0.0914994236763155
1768627148624,124,-4,-3.7779589726494938,-3.0931841593137785,0.4551588003032512
1768627148628,124,-4,-3.4750581082011984,-2.8801797649797125,0.7569729504480147
1768627148632,124,-4,-3.3659374163523537,-2.9700900826861147,0.8660952347436957
1768627148636,124,-4,-3.394666059331258,-2.957798762660526,0.8375972319320577
1768627148640,124,-4,-3.399543754130035,-2.9094214850101205,0.832243392601876
1768627148644,124,-4,-3.2726220322266473,-2.9941318347508235,0.9580505303925492
1768627148648,124,-4,-3.060324269488946,-2.930646143751823,1.1693236564980842
1768627148652,125,-3,-2.913185515504961,-1.9911081393435448,1.315684674280036
1768627148656,125,-3,-2.923267481793673,-1.891507865528424,1.3047465338640714
1768627148660,124,-4,-3.008658282297888,-3.0396978487202797,1.2187456048891052
1768627148664,124,-4,-2.976678856520158,-2.8059070614780164,1.250920849037085
1768627148668,125,-3,-2.7136308695728957,-2.176990304616652,1.5141046001626712
1768627148672,125,-3,-2.3100514007396766,-1.730715765072013,1.9158795086563456
1768627148676,126,-2,-2.002712535532182,-1.1566238111658524,2.219324846470127
1768627148680,125,-3,-1.9999836636646935,-1.79571650372686,2.218672510959154
1768627148684,125,-3,-2.340921538899005,-2.028088874541235,1.877425217944098
1768627148688,125,-3,-2.8705093176574765,-2.013385370879093,1.3500415959174803
1768627148692,124,-4,-3.3185984595473585,-2.8611634650989206,0.9037660544995028
1768627148696,124,-4,-3.436276043264236,-3.0678150345442914,0.7855994603992289
1768627148700,124,-4,-3.1321509710028512,-2.8352021263190785,1.0874080598984497
1768627148704,125,-3,-2.529515015812692,-2.0441856936912526,1.6871275911374242
1768627148708,126,-2,-1.8900734798876024,-0.9797654139610926,2.323504719701558
1768627148712,126,-2,-1.449744853163164,-0.9210626225607516,2.7608925218533145
1768627148716,126,-2,-1.2931910599355485,-1.0108955668270658,2.915674194965813
1768627148720,126,-2,-1.3531562460279027,-0.8836807276425759,2.856126146448604
1768627148724,126,-2,-1.4991507321359276,-1.0283994700238304,2.712115334862962
1768627148728,126,-2,-1.615988118298676,-1.0003576926408535,2.59649993461641
1768627148732,126,-2,-1.622999873156301,-0.8888635404213433,2.587849947047382
1768627148736,126,-2,-1.4679723429218088,-1.0755859999474786,2.7385068731179536
1768627148740,126,-2,-1.1435398822696294,-0.7820632867756679,3.058204049118384
1768627148744,127,-1,-0.7134861649976587,-0.1921201518876917,3.4857360333523304
1768627148748,127,-1,-0.2900837201309705,0.186240344437979,3.909468416431907
1768627148752,128,0,0.0566462494290922,0.908268789336832,4.257784729584617
1768627148756,128,0,0.3851202442831281,1.1224089383389282,4.586919607559411
1768627148760,128,0,0.8579671892956378,1.0320000196862988,5.05845760670309
1768627148764,129,1,1.5907401745013623,1.9328498419614133,5.7882421144813385
1768627148768,130,2,2.4944901584402244,3.1083895362711806,6.688175175836035
1768627148772,131,3,3.267052617782398,3.9228005738310134,7.457128972068219
1768627148776,131,3,3.56642157061509,4.1828864398148475,7.75419217082778
1768627148780,131,3,3.2408837646651687,3.8875192902166305,7.428143480869178
1768627148784,130,2,2.441030809849206,3.103210264514205,6.628904007530615
1768627148788,129,1,1.5270160856949713,1.889344380476742,5.715329518063487
1768627148792,128,0,0.8343627337918114,1.1621314076009777,5.022012193211691
1768627148796,128,0,0.4685547780136101,0.967828104190361,4.654120806291295
1768627148800,128,0,0.2796957844656036,1.0557081586013308,4.461843455136668
1768627148804,128,0,0.0228550493118584,0.9679561911340476,4.200950977480515
1768627148808,127,-1,-0.4442508446554432,-0.0622917880792938,3.730593674666831
1768627148812,126,-2,-1.088785011251814,-0.8124034064314563,3.084723859058305
1768627148816,126,-2,-1.7807023867714389,-1.125683834314013,2.392882088746956
1768627148820,125,-3,-2.410010404299814,-1.7964403191834246,1.7633920655839606
1768627148824,125,-3,-2.9332475409863985,-2.2492396133657224,1.2387577579857694
1768627148828,124,-4,-3.340488098556055,-2.815250544658883,0.8293963822892332
1768627148832,124,-4,-3.60685172858897,-3.0937038944296744,0.5609103254125087
1768627148836,124,-4,-3.684287037527584,-2.826128788203763,0.4812450100296557
1768627148840,124,-4,-3.543140646367999,-3.1050032483108394,0.6197111655105667
1768627148844,124,-4,-3.229854327408156,-2.972023674133669,0.9301589265157776
1768627148848,125,-3,-2.8807200774346517,-2.0766970676293006,1.2768621607012247
1768627148852,125,-3,-2.6513888170935624,-1.8719770955994264,1.5042967374262353
1768627148856,125,-3,-2.6005124866669145,-2.0157721202236583,1.553724987106459
1768627148860,125,-3,-2.6321230743907043,-1.945760217732807,1.521372062892738
1768627148864,125,-3,-2.566556448751504,-2.140353123111126,1.587157293563436
1768627148868,125,-3,-2.2944919163167468,-1.9248088723726,1.859611317679173
1768627148872,126,-2,-1.886436256069853,-1.0261763845685496,2.2660701410254993
1768627148876,126,-2,-1.5598343954793692,-0.8483608027257608,2.586866580443578
1768627148880,126,-2,-1.5148903691756497,-1.1342459538417995,2.621693689462009
1768627148884,126,-2,-1.735505659565972,-0.9605801350890896,2.390133867572591
1768627148888,126,-2,-1.857883709855108,-1.1406995108082625,2.262477042637012
1768627148892,126,-2,-1.169947982121518,-0.7973200037878061,2.956678294337838
1768627148896,129,1,1.2348840087772066,1.92935983726363,5.37872444496711
1768627148900,134,6,6.155109669956886,7.091325238386524,10.316883031207404
1768627148904,142,14,13.858076736175532,14.796584666252404,18.023846108424873
1768627148908,151,23,23.618464892597864,24.096085345143617,27.7669081982578
1768627148912,160,32,33.43612673941651,32.95486828025169,37.55329986292573
1768627148916,167,39,40.290845239219834,40.173411190642504,44.37987142821525
1768627148920,170,42,41.17706698986702,42.82181742747685,45.254934022878345
1768627148924,164,36,34.636508915861896,37.00968206711029,38.72283833848328
1768627148928,150,22,21.892288066631863,22.868799789478516,26.00007641705927
1768627148932,133,5,6.653477019907054,6.129107823785986,10.785389686895984
1768627148936,120,-8,-6.521784405375325,-6.9520695168564,-2.3739678014337784
1768627148940,113,-15,-14.349812039040335,-14.055977112362612,-10.202931069666027
1768627148944,112,-16,-16.113442749747254,-15.020779189551137,-11.98567013322482
1768627148948,115,-13,-13.447746490093202,-12.09702855861488,-9.34841130144472
1768627148952,119,-9,-8.995509891012741,-7.931074462607979,-4.91942786205477
1768627148956,123,-5,-4.934047498240658,-3.945402793089253,-0.8653133946875649
1768627148960,125,-3,-2.225551254839415,-2.1239137690794383,1.8520916417511737
1768627148964,126,-2,-0.7823398466893627,-0.932761188631268,3.311358033155876
1768627148968,128,0,-0.1128379581102936,0.8239088077792659,3.9922088080764424
1768627148972,128,0,0.1536058980881973,1.131863716561976,4.258347559840508
1768627148976,128,0,0.1543265944282044,0.9814186303758714,4.248754881347022
1768627148980,128,0,-0.0439012761031125,0.893572655045627,4.037948035407697
1768627148984,127,-1,-0.3098256737809104,0.1051015906051425,3.764602059173314
1768627148988,127,-1,-0.4878695623939191,-0.2631553063974275,3.5860941444624523
1768627148992,127,-1,-0.5198344737929699,0.2842162640363228,3.556493331875429
1768627148996,128,0,-0.4788248965218767,0.7312896070107915,3.5973109030167016
1768627149000,127,-1,-0.476567915523417,0.1807336547505793,3.595409060910619
1768627149004,127,-1,-0.5574748619567375,-0.211471627064735,3.50940839115556
1768627149008,127,-1,-0.6837371241395667,0.0578577932254791,3.380223381211906
1768627149012,127,-1,-0.7907936039954068,-0.0159769114442123,3.272031923881128
1768627149016,127,-1,-0.8317380385983446,-0.0497320886921094,3.229196628477247
1768627149020,127,-1,-0.7829185817780273,0.0283934450210618,3.274427513869835
1768627149024,127,-1,-0.64134045215359,-0.1493078588596194,3.4124526995454043
1768627149028,127,-1,-0.4293174172548623,0.0850780510610319,3.622639766070187
1768627149032,128,0,-0.1825257311402108,0.8667239490068414,3.868381638539109
1768627149036,128,0,0.0849577433344292,1.114301357927036,4.133286751107912
1768627149040,128,0,0.39005725572606,0.800711712810769,4.433827236453921
1768627149044,128,0,0.7265912596564901,1.111763214513977,4.76583808563106
1768627149048,129,1,1.0041201295562434,1.7988496419571174,5.040646525560937
1768627149052,129,1,1.080843782439736,2.148341582156896,5.115967831290037
1768627149056,129,1,0.8922315168431971,1.8317293225477689,4.925697231911348
1768627149060,128,0,0.5462623128467796,1.0422626853869106,4.577211119158269
1768627149064,128,0,0.2697448405220953,0.8999816328264615,4.297838410788446
1768627149068,128,0,0.2417745613353144,0.9556419059364728,4.267063711004825
1768627149072,128,0,0.4661571958153383,1.0452807321441495,4.488385657020881
1768627149076,129,1,0.7956378377353834,1.8651576648954251,4.814247202774968
1768627149080,129,1,1.0777433770675389,2.0704246591047903,5.092720665843791
1768627149084,129,1,1.2850306343990556,1.7711498559224537,5.297445580647054
1768627149088,129,1,1.5177574170820622,2.163813577333161,5.5289018313104
1768627149092,130,2,1.8924593414873097,2.7413579754956743,5.902307931045327
1768627149096,130,2,2.4249998706713805,3.245814582013023,6.4319776516905875
1768627149100,131,3,2.9998877754136535,3.623885610573357,7.002402092221475
1768627149104,131,3,3.437363021857939,4.23516601231335,7.435301717655065
1768627149108,132,4,3.606514499796416,4.680737201481113,7.601227181359251
1768627149112,131,3,3.508945150199436,4.1888850149680525,7.502092892861892
1768627149116,131,3,3.2756234549843075,3.848248811543783,7.267915746217232
1768627149120,131,3,3.0820398692647224,3.941850654254174,7.072607838949198
1768627149124,131,3,3.048415540719937,3.98423313986728,7.0354884384619165
1768627149128,131,3,3.191874604431536,3.842593188234688,7.174497600253808
1768627149132,131,3,3.4487808088527236,4.087010383332027,7.42781362416876
1768627149136,132,4,3.743346461237209,4.901400613563956,7.720516731844786
1768627149140,132,4,4.0551678531768935,4.897119868111006,8.031293060656413
1768627149144,132,4,4.43020661771856,5.017440449490602,8.404468679892226
1768627149148,133,5,4.915181458898887,5.779314473971186,8.88588921547703
1768627149152,133,5,5.468504126806496,6.167493290924838,9.434520358058936
1768627149156,134,6,5.937172587265282,6.793296669453198,9.898935083120524
1768627149160,134,6,6.140902370115963,7.014543598077765,10.100149095637398
1768627149164,134,6,6.013556762414013,6.880309032304676,9.97185002172824
1768627149168,134,6,5.69157201855809,6.885714136744833,9.649121671110802
1768627149172,133,5,5.457892728129858,6.0861159632089326,9.413875032178233
1768627149176,133,5,5.554532756713645,5.824893903592146,9.50800113332674
1768627149180,134,6,6.003124805018019,7.027293187558211,9.953077681792912
1768627149184,135,7,6.592465894675045,7.823699698680711,10.53774364459883
1768627149188,135,7,7.049156307201774,7.934441404833422,10.98955597558065
1768627149192,135,7,7.237743868052379,8.05626068941603,11.175192739738218
1768627149196,135,7,7.227402346366652,7.7835868820990814,11.164744033146988
1768627149200,135,7,7.206311479812531,8.125724424826565,11.144345084411604
1768627149204,136,8,7.344401206493134,8.655605685966673,11.280874248148567
1768627149208,135,7,7.697754260214688,8.147983539621448,11.62983707607284
1768627149212,136,8,8.186462324837365,8.805391035063119,12.113601148476809
1768627149216,137,9,8.649128421847635,10.026361302321254,12.57298967351527
1768627149220,137,9,8.952481334588551,9.880891291474969,12.8748521049396
1768627149224,137,9,9.08063371897576,9.862593660527615,13.00208553545619
1768627149228,137,9,9.119639522619464,9.990798457571977,13.039700117609016
1768627149232,137,9,9.14204161513593,9.875069496372385,13.059844172635394
1768627149236,137,9,9.095374444863577,10.020813285574558,13.010143626327718
1768627149240,137,9,8.797885743217725,9.805529531785538,12.709245413906746
1768627149244,136,8,8.050237182970566,8.994346149047283,11.95830618769923
1768627149248,135,7,6.775319077220493,7.808336907722227,10.680643379679232
1768627149252,133,5,5.077010549206131,6.062625013056316,8.980518989421071
1768627149256,131,3,3.1749459936647075,3.8064872480657623,7.0777126670893935
1768627149260,129,1,1.2745197243848223,2.0111528806396377,5.176919504392716
1768627149264,128,0,-0.5172116840770293,0.8071330628713825,3.3836996331018394
1768627149268,126,-2,-2.1742845545400815,-1.0369989263246984,1.723182028194731
1768627149272,124,-4,-3.685230661581289,-3.067922850781346,0.2078774433323102
1768627149276,123,-5,-5.022473902861753,-4.133874925799412,-1.1326788342134764
1768627149280,122,-6,-6.162392949773157,-5.0011608861179,-2.273988935604299
1768627149284,121,-7,-7.105606384984512,-6.240750566464912,-3.2174555044387185
1768627149288,120,-8,-7.8652703323701,-6.9290359458624105,-3.977691178536806
1768627149292,120,-8,-8.442888008080475,-7.243765795100248,-4.55721814476244
1768627149296,119,-9,-8.826907209365489,-7.947887081558475,-4.944485256451189
1768627149300,119,-9,-9.023546630852088,-8.214626699922698,-5.144721259323314
1768627149304,119,-9,-9.089411734136853,-8.026632804637897,-5.213290915430964
1768627149308,119,-9,-9.119227870141598,-8.123599196328266,-5.244418548809706
1768627149312,119,-9,-9.178149630083338,-8.103152273255715,-5.30385924020427
1768627149316,119,-9,-9.230938965701233,-8.060844783749268,-5.357465161458358
1768627149320,119,-9,-9.142866750001112,-8.178677354526506,-5.271072887474654
1768627149324,119,-9,-8.774625411504415,-7.992742572493667,-4.905063000181
1768627149328,120,-8,-8.103629353426172,-7.220474963734131,-4.236330877082084
1768627149332,121,-7,-7.263623486440547,-5.9672598384402935,-3.398560547093367
1768627149336,122,-6,-6.459643562381818,-5.2547475510822,-2.5968884158576326
1768627149340,122,-6,-5.831795262688685,-4.981268293241215,-1.9710956253915404
1768627149344,123,-5,-5.38689753681762,-4.195344799773219,-1.5274642999351498
1768627149348,123,-5,-5.047172113787112,-4.034433903066498,-1.1882406190422543
1768627149352,123,-5,-4.758293722868963,-4.144815084457443,-0.900040472408147
1768627149356,124,-4,-4.553920373131737,-3.124940854968494,-0.697712594590024
1768627149360,124,-4,-4.523220753783964,-3.0814561989667917,-0.6704380242480448
1768627149364,123,-5,-4.723671815735771,-4.147530370910584,-0.8739936692409231
1768627149368,123,-5,-5.123584114672376,-4.0394235690027545,-1.2749849342258024
1768627149372,123,-5,-5.608342101471482,-4.194773220815673,-1.7591955286089491
1768627149376,122,-6,-6.024917929905821,-5.076377255647887,-2.1756520285632357
1768627149380,122,-6,-6.239644085310702,-5.124772968990798,-2.392013804497794
1768627149384,122,-6,-6.197414480454839,-5.135768930855082,-2.352651592599541
1768627149388,122,-6,-5.952023631939953,-5.020668503843936,-2.110098875786458
1768627149392,123,-5,-5.631493521551658,-4.270694791694462,-1.791732542809085
1768627149396,123,-5,-5.349750157221742,-3.9797103324600807,-1.5114302763712564
1768627149400,123,-5,-5.133770506410491,-4.256476886469612,-1.296155021696905
1768627149404,123,-5,-4.92739885584394,-3.9956856648144816,-1.090034992850229
1768627149408,124,-4,-4.658612151139621,-3.1723251357572093,-0.8219868661248779
1768627149412,124,-4,-4.304823242869624,-3.148829486581413,-0.4701451280485824
1768627149416,124,-4,-3.9125686237650465,-3.084694596485499,-0.0805292109629394
1768627149420,125,-3,-3.571091240332893,-2.1918340390296427,0.2587749994186445
1768627149424,125,-3,-3.357257246619203,-2.0347914450098674,0.4713564693698235
1768627149428,125,-3,-3.283475426273546,-2.182719220120358,0.5443712901264939
1768627149432,125,-3,-3.29131097304296,-2.1143076050923524,0.5357057731081452
1768627149436,125,-3,-3.3037595531895674,-2.1667730637895724,0.5221396426881935
1768627149440,125,-3,-3.2937852292033147,-2.087990928237735,0.5306385621389906
1768627149444,125,-3,-3.3079365527498776,-2.166363270600279,0.5145224032305835
1768627149448,125,-3,-3.4227944430923927,-2.0512894548860796,0.3971965799499761
1768627149452,125,-3,-3.671600282750155,-2.2588375148411775,0.1459743217885911
1768627149456,124,-4,-4.005699501892124,-3.0475705035913623,-0.1894851502528616
1768627149460,124,-4,-4.321247466638518,-3.198822697765772,-0.505009199344383
1768627149464,124,-4,-4.517696957706596,-3.0861029731555405,-0.7011981584776796
1768627149468,124,-4,-4.535898897556896,-3.1125864810020767,-0.7204792265365159
1768627149472,124,-4,-4.367690700073917,-3.235649580260674,-0.5549347435957679
1768627149476,124,-4,-4.060959855220488,-3.0563879086208585,-0.2513301215560775
1768627149480,125,-3,-3.71787394669012,-2.2340759160118715,0.0891449864389319
1768627149484,125,-3,-3.4591499185835777,-2.0292596167613235,0.3459212063370902
1768627149488,125,-3,-3.3601943662797824,-2.203684832460653,0.4435636736633572
1768627149492,125,-3,-3.407159923785403,-2.131037639895006,0.3959861635719854
1768627149496,125,-3,-3.5068970449004317,-2.199886518578031,0.2959185828581296
1768627149500,125,-3,-3.539317199037824,-2.0932079405283495,0.2625325100208688
1768627149504,125,-3,-3.4208998281375043,-2.1768788847878175,0.3788468113642635
1768627149508,125,-3,-3.151593428924003,-2.0619922548374205,0.6452746135013534
1768627149512,126,-2,-2.8188280212517185,-1.279137934695448,0.9750506248904012
1768627149516,126,-2,-2.5468288692511263,-1.077050350533543,1.2444149744463209
1768627149520,126,-2,-2.4204489313579733,-1.2259586730027638,1.3688243904365147
1768627149524,126,-2,-2.438835208649071,-1.0572279940571758,1.3491818833209035
1768627149528,126,-2,-2.527437601618083,-1.1708755225779832,1.2595505153154636
1768627149532,126,-2,-2.589598125026003,-1.217965880298307,1.1959122867156098
1768627149536,126,-2,-2.561556084416106,-1.0994499996672502,1.2218998124018574
1768627149540,126,-2,-2.444753177110071,-1.28608908722174,1.3364104073020893
1768627149544,126,-2,-2.3006946319742436,-0.925664176165074,1.4779069043638295
1768627149548,127,-1,-2.209785161955387,-0.3833097356167013,1.56557204125911
1768627149552,126,-2,-2.2254479131814975,-0.957293888513476,1.5462662858629033
1768627149556,126,-2,-2.3631971657058584,-1.4199199969400151,1.4056090818399365
1768627149560,126,-2,-2.6190305729285677,-0.9623858782879772,1.1481232659532845
1768627149564,126,-2,-2.969784159639702,-1.2472553701574505,0.7961049004848952
1768627149568,125,-3,-3.344209362594193,-2.1032438037443972,0.4197336916819578
1768627149572,125,-3,-3.6164517087982135,-2.184539493134329,0.1447377071231002
1768627149576,125,-3,-3.658872489017063,-2.288576159014376,0.0991123088138952
1768627149580,125,-3,-3.416785930707783,-2.0376635190231047,0.3376123587392845
1768627149584,126,-2,-2.937719965526203,-1.232437799276517,0.8127545276786288
1768627149588,126,-2,-2.331768820828402,-1.0785345540179507,1.4149396885399337
1768627149592,127,-1,-1.6961880472732536,-0.2464808930583799,2.0474282231623
1768627149596,128,0,-1.0566132054158426,0.7611125494325535,2.684460021113472
1768627149600,128,0,-0.3640246727158245,0.8900555032055897,3.374517464329718
1768627149604,129,1,0.4452008045738793,1.8317074065988697,4.1808790040877675
1768627149608,130,2,1.3657680163269963,2.8765804144541156,5.098051847037064
1768627149612,131,3,2.285222246172628,3.7540725165189825,6.013247599024023
1768627149616,132,4,3.0271200708542785,4.77568243086365,6.749902827070307
1768627149620,132,4,3.440333550853052,4.822250803134248,7.157543099325742
1768627149624,132,4,3.465061074350249,4.917996556337846,7.177538107824819
1768627149628,132,4,3.139860884129189,4.774437176366291,6.849098542079265
1768627149632,131,3,2.5686267712046194,3.8477067950598096,6.275525875935791
1768627149636,131,3,1.884012865532929,3.6563803733686697,5.588059997427229
1768627149640,130,2,1.2188881129211837,2.9434253529720293,4.918563467821512
1768627149644,129,1,0.6717584302807207,1.7653407400414292,4.365686207167512
1768627149648,129,1,0.2646557624398378,1.9531261114793343,3.9522702449585503
1768627149652,129,1,-0.0737445619155698,1.63908148980804,3.607637858313532
1768627149656,128,0,-0.4683782271640306,0.8387115136919088,3.207200879342379
1768627149660,128,0,-1.016930956025914,0.7806174142298494,2.653508955242571
1768627149664,127,-1,-1.721286674988778,-0.1333004995935343,1.944661196966822
1768627149668,126,-2,-2.4776003820480685,-1.095847596270416,1.184033591790977
1768627149672,126,-2,-3.132370916326627,-1.3802150877865556,0.5244045449087329
1768627149676,125,-3,-3.569226028165855,-2.1119257782134544,0.0816455428341664
1768627149680,125,-3,-3.770869092261574,-2.3172666309537298,-0.1269509512760205
1768627149684,125,-3,-3.816214293848337,-2.016990441630408,-0.1799160982919483
1768627149688,125,-3,-3.815923614547741,-2.226056862056913,-0.1873165504863454
1768627149692,125,-3,-3.833576500064036,-2.2817924296971692,-0.2120299523220814
1768627149696,125,-3,-3.848915161710112,-2.186346200451234,-0.2333339337176476
1768627149700,125,-3,-3.782988271534366,-2.322714506837416,-0.172594016408575
1768627149704,125,-3,-3.557698447347468,-1.942835193199001,0.0471118650206601
1768627149708,126,-2,-3.1474433913496247,-1.3743040812749967,0.4502163806632575
1768627149712,126,-2,-2.602485535362591,-1.0925986037002549,0.9865128206920404
1768627149716,127,-1,-2.0490127869849477,-0.4265294499381016,1.53126534238233
1768627149720,127,-1,-1.669569765479572,-0.0898733058661222,1.9032240869445785
1768627149724,127,-1,-1.6507246681900536,-0.1733469792665919,1.9149939917006904
1768627149728,127,-1,-2.089763409223132,-0.1796026227484521,1.466382364993986
1768627149732,126,-2,-2.888377144834687,-1.2527304921326836,0.6536517176125924
1768627149736,125,-3,-3.6899353044353074,-2.3500646318364793,-0.1642212141425165
1768627149740,125,-3,-3.8979817036591577,-2.109922695496011,-0.3838486210755558
1768627149744,126,-2,-2.7675427150273544,-1.2266393230417916,0.7462640268688556
1768627149748,129,1,0.4509447375510622,1.93390276129991,3.9745385404321825
1768627149752,136,8,6.296573217679429,8.594606546135124,9.82874258262762
1768627149756,144,16,14.76442894697442,16.80509417370218,18.289610349181416
1768627149760,153,25,24.883303010299993,25.71833176778059,28.380734774436533
1768627149764,162,34,34.452756618972266,34.91754611957759,37.910978862401294
1768627149768,169,41,40.37137874927213,41.79689727354915,43.79562199936138
1768627149772,170,42,39.794415626447694,42.66013142001266,43.20202197348877
1768627149776,162,34,31.708252921840245,34.76080994913036,35.1182154648602
1768627149780,147,19,17.90917511229262,19.644910728245584,21.333697237460683
1768627149784,130,2,2.5170552281312255,3.04789565319916,5.957308434099745
1768627149788,118,-10,-9.885130201197695,-9.414458931606337,-6.439934502943071
1768627149792,112,-16,-16.37728821086416,-14.993812466443734,-12.946372852853656
1768627149796,113,-15,-16.79005567717641,-14.59818131937562,-13.391959464290045
1768627149800,116,-12,-13.221941872291932,-10.93555762444181,-9.863948271852294
1768627149804,121,-7,-8.515032613904975,-6.452666331352425,-5.1889955730585955
1768627149808,124,-4,-4.762831065564781,-2.985441720434288,-1.4509757724213013
1768627149812,126,-2,-2.6730985470963944,-1.42937472020085,0.64066983957491
1768627149816,126,-2,-1.8892599560060777,-1.1986129546840285,1.431698229881956
1768627149820,127,-1,-1.749047590808956,-0.2664845140552437,1.5715384745730638
1768627149824,128,0,-1.8337845578215115,0.7837236702191281,1.471973966416436
1768627149828,127,-1,-2.037104917936177,-0.1868908219947198,1.2429294656454657
1768627149832,126,-2,-2.353137520942765,-1.3049924769801855,0.9011052165843014
1768627149836,126,-2,-2.7149923355166954,-1.251433248282221,0.5219264767500134
1768627149840,126,-2,-2.9959239901863617,-1.2658599253230904,0.231411807929232
1768627149844,126,-2,-3.075127926705969,-1.2038952258414366,0.1430995926101079
1768627149848,126,-2,-2.88143835082725,-1.240517086834946,0.3227608880996642
1768627149852,126,-2,-2.4233065375500686,-1.2683489126501677,0.7627142258197277
1768627149856,127,-1,-1.8124896866351512,-0.2727137065688148,1.3549946838323903
1768627149860,128,0,-1.235405766420103,0.7341504477769281,1.9151018299795848
1768627149864,128,0,-0.854200784060051,0.7932935021048799,2.2800992808958656
1768627149868,128,0,-0.7113945240678781,0.7252201403091496,2.406365706187364
1768627149872,128,0,-0.7283911992186464,0.7531864896713283,2.372554890572296
1768627149876,128,0,-0.793064996791611,0.6965410060754166,2.2912812217395246
1768627149880,128,0,-0.8439924319506101,0.765514866000913,2.2237913341055835
1768627149884,128,0,-0.8774607760659717,0.7593822980470193,2.172944864178646
1768627149888,128,0,-0.8924390837627046,0.7170110339605555,2.1391204043366683
1768627149892,128,0,-0.8490396002174797,0.7670910792789682,2.162600473734461
1768627149896,128,0,-0.6938402547834938,0.6406977865875096,2.2981411998322416
1768627149900,128,0,-0.426773377341323,0.8581630323835379,2.5467879369169917
1768627149904,129,1,-0.128681674364427,1.6235721847717424,2.8270804205561655
1768627149908,129,1,0.0969466565626894,1.8556798592617616,3.033819309130017
1768627149912,129,1,0.2162963705878116,1.593948378038234,3.132329416136137
1768627149916,129,1,0.2911777144803373,1.7985839201328957,3.18551040379484
1768627149920,129,1,0.4063612487041017,1.721247138393808,3.2800051684578584
1768627149924,129,1,0.5776396366681399,1.7074642367939703,3.4320795125402954
1768627149928,130,2,0.745179316173162,2.806018194993241,3.5803697607888156
1768627149932,130,2,0.8593812508658124,2.581229175801612,3.673579895736324
1768627149936,129,1,0.953090676660416,1.822492053345619,3.744631740818053
1768627149940,130,2,1.1060462915143574,2.6919823247602466,3.874649732168312
1768627149944,130,2,1.3390769438200265,2.700377729975071,4.085279115289489
1768627149948,130,2,1.5631331180222574,2.82624828691626,4.287103152471969
1768627149952,131,3,1.6486913519191924,3.5304902766151542,4.350073967718265
1768627149956,130,2,1.5531169653980417,2.865444094631721,4.23178964440652
1768627149960,130,2,1.3841376401133805,2.64100016486969,4.04056063953036
1768627149964,130,2,1.337074363108436,2.720453042017812,3.9715197129893047
1768627149968,130,2,1.5573944005437688,2.8139317503926087,4.168943145970324
1768627149972,131,3,2.0389729783773887,3.50859638303365,4.62569166877836
1768627149976,131,3,2.629204193348471,3.914232420447638,5.189546271480745
1768627149980,132,4,3.127368521533255,4.536290655919841,5.6614045160775115
1768627149984,132,4,3.4036052353996946,4.843354161251245,5.912904030985715
1768627149988,132,4,3.46184210107628,4.64291243798637,5.9481093919989725
1768627149992,132,4,3.413201242230853,4.688567778862911,5.876732552072981
1768627149996,132,4,3.3862368374997702,4.721302910611385,5.825399982954831
1768627150000,132,4,4.639230329713133,4.591712210314167,4.670928311834045
1768627150004,133,5,4.869371056536812,5.0142690271068195,4.900373609788321
1768627150008,133,5,5.4865460256476455,5.437246980886535,5.515740070971457
1768627150012,134,6,6.29383526521036,6.283656616247183,6.321758207994392
1768627150016,135,7,7.043326561021003,7.1768962796571,7.071472574472061
1768627150020,135,7,7.534708377214446,7.506347798635945,7.564109224644873
1768627150024,136,8,7.696579666156085,8.018974859199993,7.727252120028751
1768627150028,135,7,7.599995302795427,7.516331370916544,7.631773328357688
1768627150032,135,7,7.391981313474886,7.123934588993054,7.425401443193851
1768627150036,135,7,7.201834865438761,7.40380113671642,7.237629767454108
1768627150040,135,7,7.0970221003685054,7.228794412977557,7.134842074940775
