timestamp_ms,ecg_u8_raw,ecg_counts_raw_int,ecg_counts_filt_monitor,ecg_counts_filt_diagnostic,ecg_counts_filt_st
1769234427996,50,-78,-63.60315028176496,-77.66402154565655,-77.59710832389997
1769234428000,49,-79,-64.66090435437613,-78.65257930596673,-78.617496912298
1769234428004,49,-79,-64.88170749246655,-78.67608039602743,-78.79886406898247
1769234428008,49,-79,-64.2717123376477,-78.56952258485967,-78.14751213994316
1769234428012,51,-77,-63.0008859901619,-76.71703202198741,-76.83327710481475
1769234428016,53,-75,-61.34315538234883,-74.63620769153178,-75.12979186358471
1769234428020,54,-74,-59.563151815794555,-73.71946572296736,-73.30088789249929
1769234428024,56,-72,-57.83479191053722,-71.5497314766467,-71.5195623514046
1769234428028,58,-70,-56.23383171536757,-69.67861044140399,-69.86166957818695
1769234428032,59,-69,-54.77328966331818,-68.59567949198846,-68.34151733137364
1769234428036,61,-67,-53.43369278804764,-66.70300285302405,-66.94079517892311
1769234428040,62,-66,-52.17411377531488,-65.69021695914901,-65.61840765462588
1769234428044,63,-65,-50.93511135619177,-64.51780304420704,-64.313691152165
1769234428048,65,-63,-49.64186460358917,-62.695712651418425,-62.950833309133834
1769234428052,66,-62,-48.208655231448766,-61.55070957561454,-61.44425918379288
1769234428056,68,-60,-46.55034498271817,-59.715114314712416,-59.709993710580775
1769234428060,70,-58,-44.60818047739917,-57.68589995786123,-57.69066102860771
1769234428064,72,-56,-42.38206562806883,-55.48465744954966,-55.38667865954355
1769234428068,75,-53,-39.94538095819391,-52.70504796746507,-52.87029559066532
1769234428072,77,-51,-37.42113740149061,-50.50786042562439,-50.26230183079273
1769234428076,80,-48,-34.9166262929829,-47.73807451646732,-47.66869918503064
1769234428080,83,-45,-32.44229249767187,-44.66929362975315,-45.10106178684194
1769234428084,85,-43,-29.875743820101672,-42.44918625952888,-42.439530574307334
1769234428088,88,-40,-27.035196736828897,-39.756654435551155,-39.50382993688164
1769234428092,91,-37,-23.85011627981602,-36.360089926275144,-36.222904193721206
1769234428096,95,-33,-20.504396700821555,-32.93748948904594,-32.77925628476348
1769234428100,98,-30,-17.408687634739948,-29.405649731625477,-29.582746784259054
1769234428104,101,-27,-14.986588679790984,-26.706681498001167,-27.056984392283507
1769234428108,102,-26,-13.423618172601408,-25.497811867669675,-25.38755854985144
1769234428112,103,-25,-12.56685492747119,-24.52868980294911,-24.421252459435355
1769234428116,104,-24,-12.036810188434224,-23.85719267294467,-23.77824295635249
1769234428120,104,-24,-11.44246443617023,-23.355093312437862,-23.067709120701245
1769234428124,106,-22,-10.53078766911415,-21.83312623594535,-22.03755713362528
1769234428128,107,-21,-9.19424839230188,-20.23738485248643,-20.58152164959448
1769234428132,109,-19,-7.404669707929898,-18.83291044469175,-18.67228465406443
1769234428136,111,-17,-5.195590714514257,-16.510167614753506,-16.343330360165723
1769234428140,114,-14,-2.7282892249171056,-13.689041729680437,-13.754860509796512
1769234428144,116,-12,-0.349129381684115,-11.50071366365732,-11.2515228637608
1769234428148,118,-10,1.4846575118401295,-9.478939637139272,-9.28936492348997
1769234428152,120,-8,2.432827157861343,-7.629406654865765,-8.209086116222071
1769234428156,120,-8,2.5201460288497977,-7.654995366841685,-7.987359826637208
1769234428160,119,-9,2.1949533739257134,-8.584705341236264,-8.176493699588736
1769234428164,119,-9,2.1018796577472294,-8.534320506087987,-8.131487672485568
1769234428168,120,-8,2.7143904801031766,-7.43457097666252,-7.379051254978794
1769234428172,122,-6,4.104800908607714,-5.610707294480228,-5.84824349117552
1769234428176,124,-4,6.001243478165506,-3.681034136144654,-3.812118396422832
1769234428180,126,-2,8.028975424894952,-1.5232223760495769,-1.6448530183463643
1769234428184,128,0,9.910648776601237,0.39033710133985,0.3784416699760311
1769234428188,129,1,11.495988820430709,1.7071634596918388,2.1097089321374183
1769234428192,131,3,12.681995035535444,3.2324560191385245,3.446159687812796
1769234428196,132,4,13.38139452065274,4.5482358194266785,4.298367561938105
1769234428200,133,5,13.60858130388057,5.200024957928312,4.6784042624085105
1769234428204,132,4,13.576025885049203,4.75380934915408,4.798734964592224
1769234428208,132,4,13.641823647757704,4.305338738439973,5.0191019126929834
1769234428212,133,5,14.102079252082294,5.723431420654494,5.635862034193497
1769234428216,135,7,15.000480729111436,7.034469825027033,6.690800566277833
1769234428220,135,7,16.114598278229344,7.768781567341337,7.960319343900062
1769234428224,137,9,17.109602572962828,9.197629511296684,9.111370715472606
1769234428228,137,9,17.731560599289708,9.876549276170646,9.893003681002858
1769234428232,138,10,17.92878826248612,10.18153336806203,10.254393789290004
1769234428236,138,10,17.860051339376334,10.57538748005094,10.35225172629366
1769234428240,138,10,17.800118167149378,10.296725887221498,10.45860316369968
1769234428244,138,10,17.990153101215952,10.631469935427775,10.81357182739907
1769234428248,139,11,18.512427800273223,11.557815362820888,11.500357954169978
1769234428252,140,12,19.265645280087533,12.404441029566172,12.419151954343878
1769234428256,141,13,20.053927464931203,13.507975959036164,13.374806945415022
1769234428260,142,14,20.718663222512816,14.264164033884386,14.208453554038629
1769234428264,142,14,21.2134829444816,14.79423474715498,14.873112284307949
1769234428268,143,15,21.577037975139454,15.329299702693673,15.40719694856383
1769234428272,143,15,21.84805482730522,15.70211576846602,15.84968164948017
1769234428276,144,16,22.013454553935738,16.225366099059926,16.18769191534735
1769234428280,144,16,22.041192291949397,16.55629093236802,16.38887484482185
1769234428284,144,16,21.958890512661583,16.57638007426334,16.480239369812097
1769234428288,144,16,21.8845035417456,16.48627734939852,16.579437362053945
1769234428292,144,16,21.956916810084245,16.65581438836073,16.825600004268946
1769234428296,145,17,22.2181827619788,17.20376470199654,17.261142343145732
1769234428300,145,17,22.561142861120157,17.701310706607146,17.77882074933706
1769234428304,146,18,22.808392321663245,18.383743849581016,18.200805189382976
1769234428308,146,18,22.868453095914717,18.743360990537745,18.435763891497153
1769234428312,146,18,22.83336426754565,18.389924607459267,18.576974532208304
1769234428316,146,18,22.92512301251044,18.49113590738052,18.84754171014625
1769234428320,147,19,23.335974636708094,19.470125523392763,19.438683690386675
1769234428324,148,20,24.09915585311018,20.611083932804377,20.38055334405609
1769234428328,149,21,25.07555915327235,21.572990200893717,21.53176398361203
1769234428332,150,22,26.022405949759,22.55199442822128,22.65064984488228
1769234428336,151,23,26.668011362087007,23.354790826459713,23.469289398889387
1769234428340,151,23,26.774469116091517,23.640194583139007,23.75277461935934
1769234428344,151,23,26.2193182952929,23.44736496798568,23.378221391352
1769234428348,150,22,25.08931582753787,22.79079157842124,22.429219825303537
1769234428352,149,21,23.703025597941753,21.3195510032528,21.22156022020061
1769234428356,147,19,22.48201882760881,19.631936741754348,20.1765494142581
1769234428360,147,19,21.716260511261854,19.37300794249476,19.585505784222665
1769234428364,147,19,21.39931021220201,19.757691139722223,19.44298604931922
1769234428368,147,19,21.27744938638307,19.51675852019365,19.495530409168605
1769234428372,147,19,21.071078369107887,19.596926751125014,19.46389857469891
1769234428376,147,19,20.67806218428473,19.39361913349043,19.246534788501428
1769234428380,146,18,20.200313716009816,18.58718404661207,18.945291530775865
1769234428384,146,18,19.798168969097745,18.615696536258024,18.719266694841252
1769234428388,146,18,19.517560710912765,18.663623072557588,18.612687419405184
1769234428392,146,18,19.23954231786868,18.49336345000652,18.505969668915984
1769234428396,146,18,18.781573297067855,18.50673404412439,18.217845125778908
1769234428400,145,17,18.052734389578617,17.486606164054084,17.659568601971035
1769234428404,144,16,17.138948305869576,16.737400233374743,16.918115133964832
1769234428408,144,16,16.266993112064675,16.59290772650828,16.2193874392252
1769234428412,143,15,15.681718217351268,15.565052368705274,15.806598861803575
1769234428416,143,15,15.51061541801147,15.485316306956564,15.806176507375053
1769234428420,144,16,15.689070903453311,16.498508273843832,16.15307414810347
1769234428424,144,16,15.985326080970143,16.76835005410569,16.615330313858564
1769234428428,144,16,16.103617069193195,16.590926278360662,16.897076122459694
1769234428432,144,16,15.812423917323802,16.584703859202513,16.76665951314837
1769234428436,144,16,15.071735283274595,16.495941512555127,16.184504019416927
1769234428440,143,15,14.151040681498351,15.468055848523118,15.422849614441349
1769234428444,142,14,13.691463530581196,14.87778050436383,15.128092887753962
1769234428448,144,16,14.633902647497312,16.46098734806997,16.244823718091283
1769234428452,147,19,17.96613394871618,19.812273550547378,19.757175397502337
1769234428456,154,26,24.30557913193368,26.223811245714224,26.270874980282017
1769234428460,163,35,33.404649307916515,35.82761472828471,35.52607873564149
1769234428464,173,45,43.76305862337696,45.507935662076065,46.02009662399789
1769234428468,181,53,52.63832856706326,53.87276040778915,55.02128390818511
1769234428472,187,59,56.73341051681516,59.414870844111945,59.249123506304294
1769234428476,185,57,53.53910436741704,57.5762631387078,56.20549905205032
1769234428480,174,46,42.763090786130206,46.516702460887245,45.59860073552731
1769234428484,157,29,26.924216546913925,29.77745951431769,29.939142504454033
1769234428488,140,12,10.517560769798514,12.687958742766282,13.70952363463504
1769234428492,128,0,-1.9286191301030409,0.5829464734001859,1.4252046255349031
1769234428496,123,-5,-7.80030157271529,-4.445958017774527,-4.306854267383915
1769234428500,124,-4,-7.247905817320461,-3.445570209699773,-3.6334156783420575
1769234428504,129,1,-2.590471476760225,1.846411400404124,1.1397943955338992
1769234428508,135,7,3.1816580414317084,7.570392998601964,7.037313894679848
1769234428512,139,11,7.8399041287559825,11.675085147123578,11.837694389754317
1769234428516,142,14,10.557500464174312,14.484751435776452,14.71009972712119
1769234428520,143,15,11.650719259909764,15.60191430428928,15.959774250603504
1769234428524,143,15,11.858537250962511,15.927602507096797,16.315272823391297
1769234428528,144,16,11.739183282591554,16.412497947160105,16.330298710522193
1769234428532,144,16,11.499664962137908,16.9306403450382,16.21431672297541
1769234428536,144,16,11.168247589681242,16.177092337463307,16.002859514437063
1769234428540,142,14,10.79744939378292,14.994793135426074,15.755905866827026
1769234428544,143,15,10.494100312352469,15.575854683053064,15.582737969052872
1769234428548,143,15,10.334759849701538,15.735229683445557,15.55582738066877
1769234428552,143,15,10.328922435782696,15.68990384329238,15.6782939709846
1769234428556,144,16,10.469246789529985,16.34959519260772,15.940120027884287
1769234428560,143,15,10.771380353599588,15.968905065665393,16.359566275081512
1769234428564,144,16,11.234029691884093,16.52014912083665,16.939310140404974
1769234428568,145,17,11.777905243583552,17.911247328842204,17.60091465308408
1769234428572,146,18,12.264163038741666,18.432988375336937,18.203367674280017
1769234428576,146,18,12.590222411406083,18.70389556934975,18.642587431064765
1769234428580,146,18,12.757055418139268,18.617809843792703,18.92054545076984
1769234428584,146,18,12.840344272981763,18.89439818666772,19.114255730390138
1769234428588,147,19,12.916214861636256,19.57273176090924,19.29917502451577
1769234428592,147,19,13.02507929516383,19.749317479713053,19.514125687934044
1769234428596,147,19,13.181045148063342,19.476693794185177,19.77317278415184
1769234428600,147,19,13.380378394065096,19.819070194198023,20.073998594351444
1769234428604,148,20,13.597632741939032,20.77883770834917,20.391834642363516
1769234428608,148,20,13.796792050021612,20.62629452027528,20.68982990075907
1769234428612,148,20,13.957754860707828,20.79356799927647,20.94697461449878
1769234428616,149,21,14.084447562058278,21.3985693670506,21.167435324616523
1769234428620,148,20,14.183271054871248,20.99030801603534,21.358496410670178
1769234428624,149,21,14.243362077437617,21.56522228866125,21.509590344552016
1769234428628,149,21,14.250331414046055,21.91509665586711,21.6057572222249
1769234428632,149,21,14.219992990215465,21.46969934842704,21.66229492248988
1769234428636,149,21,14.203694783295644,21.807898141892295,21.730738424222295
1769234428640,149,21,14.243637168125778,21.581962346742067,21.85351454293384
1769234428644,149,21,14.31974917158124,21.981894158967304,22.010028042204397
1769234428648,150,22,14.347147189971237,22.56501768442405,22.11483027608847
1769234428652,149,21,14.229030807606556,21.761949275312237,22.071851356029818
1769234428656,149,21,13.916057441255733,21.656798531235967,21.833371472219714
1769234428660,149,21,13.434153315746192,21.640054280429943,21.425832187217317
1769234428664,148,20,12.880310884784087,21.05239122333416,20.944848884743877
1769234428668,148,20,12.38844035318763,20.41473662551589,20.52253743806409
1769234428672,147,19,12.06141139259812,20.025918159478096,20.26122404647279
1769234428676,148,20,11.897506910431517,20.362721463596245,20.160080880150876
1769234428680,147,19,11.77063755940466,19.994849545642477,20.094421051402406
1769234428684,147,19,11.496652789122708,19.70697533333537,19.88087031126513
1769234428688,147,19,10.952488621170485,19.762744519946175,19.39597610173054
1769234428692,146,18,10.166738914277596,18.74277795780819,18.66751430415737
1769234428696,145,17,9.30630230147197,17.618069175672428,17.862252351908786
1769234428700,144,16,8.558951557564804,16.83094164653932,17.168269154926218
1769234428704,144,16,8.009200253133995,16.822686293815316,16.669720315695727
1769234428708,144,16,7.615252300776914,16.73374649299097,16.324017279103685
1769234428712,143,15,7.287932403895118,15.752471239127305,16.042137726519385
1769234428716,143,15,6.973056782984173,15.67345283304924,15.771148932130824
1769234428720,143,15,6.660397778992321,15.76543063261716,15.501711198828495
1769234428724,142,14,6.334854173677941,14.926278786247751,15.218169984072633
1769234428728,142,14,5.936234822513885,14.639138574230412,14.858809190149207
1769234428732,142,14,5.373506639618215,14.896049687275555,14.331666106171577
1769234428736,141,13,4.58137412311801,13.54961410073937,13.572446466308897
1769234428740,139,11,3.5654027874100223,11.891452213420468,12.588933512574618
1769234428744,139,11,2.404766393185783,11.85492195907354,11.461197553119254
1769234428748,138,10,1.2317847125629395,10.678830861367176,10.320058498246317
1769234428752,136,8,0.2004434044903522,8.957115577959998,9.31746565854994
1769234428756,136,8,-0.5773110040067237,8.467475194390275,8.564690166479785
1769234428760,135,7,-1.1160486185197236,8.01765671033537,8.047622695471773
1769234428764,135,7,-1.590833946972257,7.735970304917437,7.591994911177627
1769234428768,134,6,-2.268784302692298,6.814742446862919,6.931812204340092
1769234428772,133,5,-3.3705341961748303,5.885357626317113,5.847699007471434
1769234428776,132,4,-4.94759327738371,4.528697475596458,4.28852613858542
1769234428780,129,1,-6.847996305272039,1.9988530140124343,2.405064152830645
1769234428784,128,0,-8.788891622604659,0.7377872906530571,0.4782176557560431
1769234428788,126,-2,-10.496555456170164,-1.121140965569233,-1.2191775450425828
1769234428792,124,-4,-11.837874186310415,-3.167925010199479,-2.5531182649208297
1769234428796,124,-4,-12.86407907979946,-3.359753627093358,-3.5735438699300133
1769234428800,123,-5,-13.730098128480543,-4.127895368682324,-4.435102449964644
1769234428804,122,-6,-14.54627899966403,-5.105263958886048,-5.248255738814618
1769234428808,121,-7,-15.291657032612832,-6.252836562652401,-5.991489053751737
1769234428812,120,-8,-15.864220274329297,-6.9987345748975605,-6.562433115381001
1769234428816,121,-7,-16.200776608928052,-6.510005846835216,-6.899057657238675
1769234428820,120,-8,-16.338241159975272,-6.952232928336085,-7.039979329787109
1769234428824,120,-8,-16.37490060977965,-7.276099957524784,-7.083467742534187
1769234428828,120,-8,-16.396214308145517,-7.031743931270343,-7.113027673022462
1769234428832,120,-8,-16.43480538191913,-7.2081692982817716,-7.159570098573505
1769234428836,120,-8,-16.47492826074108,-7.269286802346341,-7.207688609358392
1769234428840,120,-8,-16.477035133783065,-7.179570336700715,-7.21974623720644
1769234428844,120,-8,-16.40517780609803,-7.020582774685912,-7.161251800404071
1769234428848,120,-8,-16.25384572876655,-7.267524829647369,-7.026267549367593
1769234428852,120,-8,-16.06560071918898,-6.925922541768367,-6.85562069387754
1769234428856,121,-7,-15.917120281656034,-6.553030917135165,-6.724775784422469
1769234428860,120,-8,-15.86486660837647,-6.853813193024961,-6.690495489627926
1769234428864,121,-7,-15.88802401539218,-6.345542613576376,-6.7330130400929615
1769234428868,120,-8,-15.892669709099788,-6.889029467527234,-6.758994121713492
1769234428872,120,-8,-15.796360195070507,-7.3063496193328,-6.686135839141266
1769234428876,121,-7,-15.625346321967218,-6.120579249621008,-6.541062039034176
1769234428880,121,-7,-15.527629641950645,-6.290195284593605,-6.47187281601436
1769234428884,120,-8,-15.68282566276296,-6.871470586781683,-6.656908437496623
1769234428888,120,-8,-16.183225789900423,-7.324028367221256,-7.186628988965481
1769234428892,119,-9,-16.96409539255044,-7.887632310975453,-7.996103294659512
1769234428896,119,-9,-17.81035220608684,-8.465498074291613,-8.871910143966824
1769234428900,117,-11,-18.44005905890091,-9.986130719650664,-9.533588343316056
1769234428904,117,-11,-18.640012641932817,-10.06916752183766,-9.7681035008226
1769234428908,118,-10,-18.375839203644368,-9.174342789317146,-9.54072349633132
1769234428912,118,-10,-17.792809226747167,-8.943411250697569,-8.996360426371815
1769234428916,119,-9,-17.111141035235196,-8.450783667004282,-8.354543506228408
1769234428920,119,-9,-16.50441234934494,-7.9242817935860845,-7.788095940459519
1769234428924,120,-8,-16.03756645698589,-7.147641922874754,-7.361818977708176
1769234428928,120,-8,-15.676396543849624,-7.052162971589557,-7.04169525681028
1769234428932,120,-8,-15.340923398145016,-7.04332817496771,-6.7477018079227085
1769234428936,121,-7,-14.96205439797205,-6.337274693453662,-6.411075859967493
1769234428940,121,-7,-14.50320862186525,-5.992478528560514,-5.996604462882843
1769234428944,122,-6,-13.94681103843718,-5.083271927193608,-5.487846421695482
1769234428948,122,-6,-13.294703078881906,-5.055341902916183,-4.885662427605412
1769234428952,122,-6,-12.611782486329975,-5.056768543143482,-4.252618182803082
1769234428956,124,-4,-12.054167254730952,-3.2607680721479295,-3.744002872607366
1769234428960,124,-4,-11.799024667856608,-3.0867359131674883,-3.538341610142965
1769234428964,123,-5,-11.90693724006892,-3.920154679207635,-3.697331218699024
1769234428968,123,-5,-12.256484440164398,-4.236330884909442,-4.098991753170104
1769234428972,122,-6,-12.6275092352269,-4.807699781308167,-4.522539328590801
1769234428976,123,-5,-12.850652599700402,-4.559354319532621,-4.79932798081706
1769234428980,122,-6,-12.89007674359834,-4.67186013163264,-4.894366712633637
1769234428984,122,-6,-12.81682602184845,-5.375047918018206,-4.8782531179443005
1769234428988,122,-6,-12.722910134668238,-4.712978688087103,-4.842032884307463
1769234428992,123,-5,-12.642375319098038,-4.317222840012476,-4.819470817553941
1769234428996,122,-6,-12.528711302863355,-5.099523725021715,-4.7640255447838005
1769234429000,122,-6,-12.30801361287295,-4.969975112468626,-4.601557770029903
1769234429004,123,-5,-11.961802243158507,-4.204851736586603,-4.314085566865991
1769234429008,123,-5,-11.551738473919812,-3.6901263193368488,-3.96468717022074
1769234429012,124,-4,-11.16276198897919,-3.486275590294229,-3.638765868596955
1769234429016,123,-5,-10.840564192320654,-3.7792427739281407,-3.3804032462886453
1769234429020,124,-4,-10.591870368094224,-3.3502524643230007,-3.1944984206842673
1769234429024,124,-4,-10.419330279019835,-2.7538183725010827,-3.08399732794882
1769234429028,124,-4,-10.325007768587422,-3.105446517531022,-3.0528697933950255
1769234429032,124,-4,-10.280253468140256,-3.1152229854393365,-3.0735012151389873
1769234429036,124,-4,-10.215411002075738,-3.0230144509038133,-3.075260214880652
1769234429040,124,-4,-10.054128636016651,-3.2178571053738416,-2.980103591835073
1769234429044,124,-4,-9.756705955486732,-2.713284517828212,-2.747876218750287
1769234429048,125,-3,-9.325896298992635,-2.239009109295566,-2.3826090601482446
1769234429052,125,-3,-8.775949659984754,-1.8794163017535968,-1.9001602026673732
1769234429056,126,-2,-8.112561878846083,-1.2752637627748975,-1.3064084838865977
1769234429060,126,-2,-7.357065301679066,-0.95152380369107,-0.6212596054643234
1769234429064,127,-1,-6.583055637294493,0.0866765631865167,0.0832264141562157
1769234429068,128,0,-5.899612440200226,0.9412135326975956,0.6981936027277227
1769234429072,128,0,-5.366984714848632,1.0086124563270422,1.1624010808781176
1769234429076,129,1,-4.9169895003829405,1.8191687963607703,1.543082896633586
1769234429080,129,1,-4.370768845633581,1.9946022456105617,2.0191393947750953
1769234429084,129,1,-3.5672148244379107,2.1618688346110293,2.7522390977156608
1769234429088,131,3,-2.5045543047484324,3.888886121908964,3.7439446400896736
1769234429092,132,4,-1.3679027712027825,5.113003478120111,4.808134438159127
1769234429096,133,5,-0.4157183492135932,5.696999358016656,5.686301464897023
1769234429100,133,5,0.1694372531657997,6.174099707559084,6.197717754663848
1769234429104,133,5,0.345440860131224,5.976869926240176,6.302119692808338
1769234429108,133,5,0.1770679212285406,6.092507951073746,6.06375582110934
1769234429112,133,5,-0.2240547308692591,5.983050953533903,5.591837137646183
1769234429116,132,4,-0.7385765187073403,4.7800022686593255,5.004286990171741
1769234429120,131,3,-1.270014560039936,4.197232363212889,4.398515781506726
1769234429124,131,3,-1.7763635967232672,3.8977838499253776,3.818122080676763
1769234429128,130,2,-2.273982872745748,3.239173434410698,3.247035693435918
1769234429132,130,2,-2.797346699992461,2.8663908892709467,2.65009550031578
1769234429136,129,1,-3.3521201315613647,1.8935226956954845,2.021465998424906
1769234429140,128,0,-3.909582642825343,1.1540864113892977,1.3904129028607946
1769234429144,128,0,-4.437641172266617,0.8927911307101244,0.7892060049593099
1769234429148,127,-1,-4.9217497210262335,0.3250962571611544,0.2318207669737315
1769234429152,127,-1,-5.353469640559955,-0.2189756049287119,-0.2737483124715307
1769234429156,126,-2,-5.712252703127078,-0.980034499830206,-0.7067112224336922
1769234429160,126,-2,-5.968003934337724,-0.9470197894460056,-1.0365708288338933
1769234429164,126,-2,-6.098184348586801,-1.025129757718843,-1.2407045266666263
1769234429168,125,-3,-6.09978315184539,-1.6864252703421236,-1.3161124502529171
1769234429172,126,-2,-5.9887919072394356,-1.2119636339230482,-1.278671698667507
1769234429176,126,-2,-5.7897334734062635,-0.9252852230177884,-1.152669069211536
1769234429180,126,-2,-5.527007594105869,-1.009112812364883,-0.9621100703093974
1769234429184,126,-2,-5.236217663369375,-0.9514037105228308,-0.7426246243008894
1769234429188,126,-2,-4.988523000860066,-0.7068540381005222,-0.5670507298537677
1769234429192,127,-1,-4.882640222737819,-0.2053639423508935,-0.5371415250515188
1769234429196,126,-2,-4.970484717137928,-0.8353700715167345,-0.7060598261688336
1769234429200,126,-2,-5.140243107496181,-1.1636669572361296,-0.9581785360505246
1769234429204,126,-2,-5.015150381067069,-0.708455702280502,-0.9086918658912332
1769234429208,127,-1,-3.921194460110464,0.013387333232127,0.1228601851735424
1769234429212,130,2,-0.9780454935981896,3.1552377961585396,3.0147763222790065
1769234429216,136,8,4.622968326824683,8.83900481629339,8.563674887415155
1769234429220,144,16,13.133210352902758,17.151386798663953,17.006274572093677
1769234429224,154,26,23.679557365619317,27.054559549407003,27.46391693908157
1769234429228,163,35,33.95826258926863,36.19082016005396,37.641603114455606
1769234429232,171,43,40.63544458574877,44.08709706593099,44.22193045520077
1769234429236,173,45,40.62458392685272,45.837213034354264,44.131381220161884
1769234429240,164,36,32.747280311279944,37.20931637652634,36.19518427960821
1769234429244,149,21,18.737032350554543,21.92769987756907,22.14159325362216
1769234429248,132,4,2.7552787041171047,5.363191097455209,6.120351978310875
1769234429252,119,-9,-10.450063395485204,-8.057751514547078,-7.134932716402124
1769234429256,112,-16,-17.670656708868478,-14.92021539712689,-14.425894427912606
1769234429260,112,-16,-18.416178429615425,-14.921401772227808,-15.261100218295647
1769234429264,116,-12,-14.59738059203481,-10.95136599566413,-11.539060912056154
1769234429268,121,-7,-9.11969919384464,-5.71554703441474,-6.149710571598161
1769234429272,126,-2,-4.354178362119011,-1.0602787871166663,-1.454855293685787
1769234429276,128,0,-1.3308506828853537,1.1469520757353764,1.5142905038416008
1769234429280,129,1,0.1147027813662107,2.0054506230369977,2.9129323699702954
1769234429284,130,2,0.6475201505429955,3.169099196564458,3.3945704147056737
1769234429288,131,3,0.8232160402897035,4.162856757436791,3.5072832326738377
1769234429292,131,3,0.9064395701570968,4.076671338503054,3.516740190244999
1769234429296,130,2,0.9969953104554854,3.062455262161672,3.531242243930372
1769234429300,130,2,1.1550460848215156,3.1110333280449094,3.619484763577258
1769234429304,131,3,1.3986331402722525,4.096287092233125,3.80102521879955
1769234429308,131,3,1.6721211093845303,4.231524929960126,4.0154522555985785
1769234429312,131,3,1.8836120951787163,4.043956200208233,4.166371131725174
1769234429316,131,3,1.979609022419492,4.123192001537492,4.20005578035207
1769234429320,131,3,1.9819538684766873,4.086409721227142,4.140350031608388
1769234429324,131,3,1.9708206330120464,4.114749204037615,4.0681552081662575
1769234429328,131,3,2.0408259118976235,4.254197962179156,4.077308806855307
1769234429332,131,3,2.2498672435517775,4.021500661132241,4.22547646816215
1769234429336,131,3,2.577916939841955,4.2072441821377975,4.493535085957286
1769234429340,132,4,2.9317558046025156,5.0111750855972685,4.788797672625984
1769234429344,132,4,3.215295784008956,5.202655087531356,5.014501944256254
1769234429348,132,4,3.4147910959755716,5.194958382082618,5.156202728060812
1769234429352,132,4,3.609090982797034,5.089355311791297,5.293133032833975
1769234429356,132,4,3.883144867632055,5.191677462063889,5.51091653928372
1769234429360,133,5,4.2322623519280675,6.027527312616554,5.804535941550874
1769234429364,133,5,4.5588160658768775,6.228770348578989,6.075437754868857
1769234429368,133,5,4.761245779936001,6.159832753474368,6.222039675740118
1769234429372,133,5,4.8214080647515445,6.186717703271164,6.227363865095736
1769234429376,133,5,4.812569280318051,6.07360389057402,6.165684844926749
1769234429380,133,5,4.8369008835341925,6.217316770356761,6.138850350242384
1769234429384,133,5,4.956647416817777,6.0115516284571955,6.207683992445831
1769234429388,133,5,5.170247585353398,6.444222990678031,6.369361474192156
1769234429392,134,6,5.435810090165916,6.895795978355551,6.582157462142844
1769234429396,133,5,5.705600701513118,6.406285908964642,6.8000785431353785
1769234429400,134,6,5.9403173211877665,6.898335300149338,6.985566929014502
1769234429404,134,6,6.111615218809132,7.34849750789447,7.110120896486465
1769234429408,134,6,6.2158272396355265,7.13880878877,7.168070976180857
1769234429412,134,6,6.2864630527541845,7.214435634721975,7.191140018030708
1769234429416,134,6,6.370126419130264,7.132754842387087,7.22609801373136
1769234429420,134,6,6.469791874334155,7.158801874447206,7.27774103955206
1769234429424,134,6,6.514558390958217,7.1465586276012685,7.276827368654804
1769234429428,134,6,6.408939846181553,7.323726448052198,7.127908939366103
1769234429432,134,6,6.1369792563517445,7.104956487766031,6.813732151152129
1769234429436,133,5,5.820943573675262,6.212960374288022,6.455398959536741
1769234429440,133,5,5.653763685282156,6.145962419166711,6.245654335153719
1769234429444,133,5,5.741891127781515,6.126763797479701,6.29131026566312
1769234429448,133,5,5.995146582059253,6.4215956139013946,6.502441592067428
1769234429452,134,6,6.17084965399482,6.998304939037768,6.6365655644405255
1769234429456,133,5,6.044563383640022,6.37759998430183,6.469731630498944
1769234429460,133,5,5.570123528905336,5.959921551035407,5.956412457342084
1769234429464,132,4,4.905755120266052,5.346771232461662,5.255082054824722
1769234429468,131,3,4.297478405795388,4.221790024656345,4.6112850179709675
1769234429472,131,3,3.921153149734422,4.221809259451254,4.199775174669206
1769234429476,131,3,3.804270603535328,4.223853625681842,4.046863107707366
1769234429480,131,3,3.868598283563964,4.060382757200483,4.074033356328111
1769234429484,131,3,4.0282158845554985,4.338699380763895,4.196627059748518
1769234429488,131,3,4.244555595990377,4.176951639284428,4.378159960101967
1769234429492,131,3,4.506524416130846,4.356899193397851,4.608561564267727
1769234429496,132,4,4.788963466914489,5.084743624669487,4.8614382845872735
1769234429500,132,4,5.050461960205587,5.220493076465912,5.092934955073965
1769234429504,132,4,5.262594203284821,5.203281497466325,5.273348122584828
1769234429508,132,4,5.41417131579942,5.319256220872812,5.392513012131598
1769234429512,132,4,5.472690775723888,5.2549333874816195,5.420037505526072
1769234429516,132,4,5.356635521700149,5.21176286104161,5.2755515733062746
1769234429520,132,4,4.9768249466806385,5.1006397151125675,4.869324404754689
1769234429524,131,3,4.32695583428416,4.362909117766004,4.1938144321439985
1769234429528,130,2,3.530887639293266,3.146590366931341,3.372205617352539
1769234429532,129,1,2.779010597299032,2.4899471898706658,2.5948847701366557
1769234429536,129,1,2.1928817232349163,1.9745854734473631,1.9834613148384224
1769234429540,128,0,1.7334265951477452,1.37210431506964,1.4988082789733586
1769234429544,128,0,1.2345827935532656,1.123264274323993,0.9751196370018144
1769234429548,127,-1,0.5381693778503616,0.374572903793803,0.2550248265077104
1769234429552,126,-2,-0.3765143374786355,-0.6716442293946066,-0.68122525109843
1769234429556,125,-3,-1.3673594932669797,-1.8904208747100903,-1.6913478368790744
1769234429560,124,-4,-2.219594416043124,-2.701156199461463,-2.5617173950644467
1769234429564,124,-4,-2.7746519339393,-2.8069059838185937,-3.135459899368449
1769234429568,123,-5,-3.009097407108116,-3.657668733936805,-3.389872241567995
1769234429572,123,-5,-3.028078017020955,-3.6147556378459584,-3.429358670900709
1769234429576,124,-4,-2.9914275677856836,-2.933436942317868,-3.412329401385165
1769234429580,123,-5,-3.01999287891979,-3.633288103025938,-3.4583951135314637
1769234429584,123,-5,-3.1378145228786205,-3.861381610183731,-3.591102534708018
1769234429588,123,-5,-3.277895330158926,-3.5738235158372675,-3.7441509498525902
1769234429592,123,-5,-3.3324941012931983,-3.677457363865244,-3.8113364314985754
1769234429596,123,-5,-3.214927806765842,-3.8559417637140014,-3.707154801560815
1769234429600,123,-5,-2.912879071480047,-3.670040366981765,-3.419492215184378
1769234429604,124,-4,-2.510247969419241,-2.832613709598317,-3.0317696723653285
1769234429608,124,-4,-2.154371413416301,-2.5486704647107636,-2.6901652894397894
1769234429612,124,-4,-1.9819657247208735,-2.707090939830291,-2.529555788072398
1769234429616,124,-4,-2.0499551339877944,-2.785686969468403,-2.6058005737394705
1769234429620,124,-4,-2.3027061996773774,-2.7344735737285335,-2.864739253522292
1769234429624,124,-4,-2.584658015739704,-2.7477678173299074,-3.15386979650336
1769234429628,123,-5,-2.7125633857834965,-3.5996806364913443,-3.2913347794318115
1769234429632,123,-5,-2.60081273047573,-3.641873868747972,-3.189880628113519
1769234429636,124,-4,-2.3568372513282707,-2.817115216170706,-2.954531541389341
1769234429640,124,-4,-2.234345945335808,-2.698836604301316,-2.838424517637846
1769234429644,124,-4,-2.4439741308012826,-2.7529343251396057,-3.053184763714768
1769234429648,123,-5,-2.976184783835228,-3.5682219475117503,-3.5898866203299367
1769234429652,122,-6,-3.601804170760754,-4.66542719154323,-4.219014825450254
1769234429656,122,-6,-4.051495028287446,-4.76860152157961,-4.671130395630364
1769234429660,122,-6,-4.20892197516709,-4.730446993376368,-4.830768394939253
1769234429664,122,-6,-4.155016259189771,-4.691251421047425,-4.779751783373521
1769234429668,122,-6,-4.054167040821121,-4.586341602815963,-4.682187705349573
1769234429672,122,-6,-4.0093091657252025,-4.655271861856427,-4.639787297275045
1769234429676,122,-6,-4.011642249061609,-4.750617303899884,-4.642810914152694
1769234429680,122,-6,-4.003628480960269,-4.750253938508737,-4.633786261399687
1769234429684,122,-6,-3.973389726755927,-4.617594951051712,-4.601630583365897
1769234429688,122,-6,-3.984692221411561,-4.6433361983068835,-4.610976526788025
1769234429692,122,-6,-4.117345978408568,-4.571490476056281,-4.742029908919937
1769234429696,122,-6,-4.380996232226587,-4.838257652898594,-5.004044293000832
1769234429700,121,-7,-4.691791849989249,-5.63993960122613,-5.312224439762161
1769234429704,121,-7,-4.937840847770104,-5.698343826231379,-5.554118957105246
1769234429708,121,-7,-5.066577288609054,-5.525115929832264,-5.677667145700436
1769234429712,121,-7,-5.107203200769893,-5.678551862416261,-5.713054871179154
1769234429716,121,-7,-5.115858134636229,-5.714664467571407,-5.716741150759652
1769234429720,121,-7,-5.109325398900593,-5.753502873815972,-5.704895444256309
1769234429724,121,-7,-5.053343278684395,-5.55725038031027,-5.642393667477416
1769234429728,121,-7,-4.911626087641334,-5.624041542433532,-5.492664481859292
1769234429732,121,-7,-4.705309478154641,-5.582166355346923,-5.277623791662894
1769234429736,122,-6,-4.522053123249403,-4.7685848991476805,-5.0863426434547225
1769234429740,122,-6,-4.461900922317495,-4.724936321973107,-5.019261610106441
1769234429744,121,-7,-4.574668721500924,-5.5115031405495065,-5.124524028442946
1769234429748,121,-7,-4.847381727637479,-5.688534750842661,-5.387101987436509
1769234429752,121,-7,-5.227442092702386,-5.458063487801898,-5.7546780040555365
1769234429756,121,-7,-5.628205630220323,-5.915289514462255,-6.142984799892148
1769234429760,120,-8,-5.922302306664055,-6.541053851050633,-6.426049289363434
1769234429764,120,-8,-5.980310727359843,-6.654546504660782,-6.473359008876357
1769234429768,120,-8,-5.756225054554453,-6.56022978120864,-6.237330962587259
1769234429772,121,-7,-5.334499811283719,-5.510483750199777,-5.8025887013727235
1769234429776,122,-6,-4.87567777088692,-4.917254344530324,-5.330860395184289
1769234429780,121,-7,-4.510854090980357,-5.444246679369586,-4.953368082900279
1769234429784,122,-6,-4.286344868613703,-4.794042434743583,-4.71541004562642
1769234429788,122,-6,-4.186973093828717,-4.348793247757098,-4.601202229000707
1769234429792,122,-6,-4.181613270399832,-4.748196845963406,-4.579949503933346
1769234429796,122,-6,-4.2392952623993025,-4.633680684532188,-4.621241630686016
1769234429800,122,-6,-4.316231452637828,-4.698993607992209,-4.681760955832924
1769234429804,122,-6,-4.341232641963382,-4.553838035866577,-4.690754051667015
1769234429808,122,-6,-4.2261324543369945,-4.50995815758143,-4.5600335765911755
1769234429812,122,-6,-3.90868090677879,-4.646237231219258,-4.2266065084245685
1769234429816,123,-5,-3.3960438073005785,-3.6348604027400992,-3.696861693824144
1769234429820,124,-4,-2.7569808680982306,-2.738011798321283,-3.039478105618593
1769234429824,124,-4,-2.056288870065113,-2.452158166227331,-2.3196874835993015
1769234429828,125,-3,-1.294158124844136,-1.6100398073415865,-1.538187362899151
1769234429832,126,-2,-0.4160598053743984,-0.5397608133319611,-0.6409198877966089
1769234429836,127,-1,0.6090913615045865,0.304405151197491,0.4029963753242938
1769234429840,128,0,1.7076274044399713,1.3088144352252935,1.5202287283974614
1769234429844,129,1,2.6903737277708273,2.5744456015735033,2.5221050108636
1769234429848,130,2,3.3394590510249693,3.329339083574957,3.190876459867063
1769234429852,130,2,3.5399270562505385,3.5716527433974714,3.411618495611349
1769234429856,130,2,3.3507077482533587,3.1936188475555234,3.2437487853830307
1769234429860,129,1,2.9508874404766092,2.430601649220045,2.8667031620257624
1769234429864,129,1,2.5103520585933277,2.5161187553436135,2.4494181423059462
1769234429868,129,1,2.0997239018460996,2.349746076134446,2.0607300046548778
1769234429872,128,0,1.6976719475741489,1.6347090409288776,1.6788167051294982
1769234429876,128,0,1.2506199208509083,1.0951656918826034,1.2517895341746228
1769234429880,127,-1,0.7169199452810429,0.581300907093389,0.7400026932704789
1769234429884,127,-1,0.0839120269515767,0.3762452302874814,0.1309714265258703
1769234429888,126,-2,-0.6216740593649606,-0.5070535498647448,-0.5499639363538096
1769234429892,125,-3,-1.334423784148458,-1.4465612294386374,-1.2386051755399938
1769234429896,125,-3,-1.9797131582440912,-1.8583560383498487,-1.86058920704098
1769234429900,124,-4,-2.5178627276607375,-2.395134636229056,-2.3759264270298615
1769234429904,124,-4,-2.964968596527906,-2.6753394815520473,-2.800124278648316
1769234429908,123,-5,-3.373407428259013,-3.3907386926116168,-3.1848279266450055
1769234429912,123,-5,-3.788039796367927,-3.57319252020571,-3.574605770441164
1769234429916,123,-5,-4.206025475436611,-3.6915591349884025,-3.967217904358284
1769234429920,122,-6,-4.566525620050666,-4.571133982033364,-4.302759529617349
1769234429924,122,-6,-4.78478068793234,-4.456942191104262,-4.496694094550571
1769234429928,122,-6,-4.813094491825836,-4.597143021857731,-4.500463809333931
1769234429932,122,-6,-4.682165537277312,-4.347791836418272,-4.343466338813219
1769234429936,123,-5,-4.488686416893543,-3.878834998567995,-4.122061085534058
1769234429940,122,-6,-4.338101099178186,-4.410426627874914,-3.9437215510935184
1769234429944,123,-5,-4.277757139483249,-3.543073446159121,-3.8596756231581777
1769234429948,123,-5,-4.250472297069392,-3.5528698071561973,-3.8147857473208
1769234429952,122,-6,-4.077931260602316,-4.304581595368546,-3.6268775216186153
1769234429956,124,-4,-3.4520448767571974,-2.97380759665549,-2.979003999263747
1769234429960,125,-3,-1.8974705149819069,-1.2241797294978791,-1.3888965720830937
1769234429964,129,1,1.2630955548826326,2.213753740586192,1.818551070838108
1769234429968,134,6,6.782816836749896,7.802541519800592,7.384583357375767
1769234429972,142,14,15.042866060186132,15.297958516433033,15.676211384185825
1769234429976,152,24,25.373164161538917,25.480949514561367,26.0173224897001
1769234429980,162,34,35.59383306857408,35.32501623529811,36.23523258439637
1769234429984,169,41,42.34938788188427,42.65670223123638,42.990284613309434
1769234429988,171,43,42.42939052949389,44.40788658755082,43.08617548413269
1769234429992,163,35,34.52609851079003,36.64111224335113,35.220060322177325
1769234429996,148,20,20.32607083348084,21.141522210234516,21.07334630129275
1769234430000,130,2,4.0521769791664415,3.6572354932658,4.856873623803416
1769234430004,117,-11,-9.43577693317038,-9.648952763757425,-8.583932008944108
1769234430008,110,-18,-16.85837542263097,-16.167102043825874,-15.980056026816245
1769234430012,110,-18,-17.731950194317086,-16.72313411704288,-16.847797272528155
1769234430016,114,-14,-14.007782655085908,-12.436889557513112,-13.126809028374987
1769234430020,120,-8,-8.602804797674747,-6.799597601941944,-7.717482191532712
1769234430024,123,-5,-3.8626605529219464,-3.2258892629101608,-2.9542131214942717
1769234430028,126,-2,-0.8027949431284693,-0.5800563203674076,0.1468882606101433
1769234430032,128,0,0.7146210465819838,1.717148659427756,1.7123905437543034
1769234430036,129,1,1.3181650695767486,2.1618190870868994,2.357192527545071
1769234430040,129,1,1.5556400425764685,2.578938328430459,2.6220244861699427
1769234430044,130,2,1.693685881540599,3.439206230750913,2.776555580173811
1769234430048,129,1,1.803802336952477,2.7256048065143528,2.90166960662449
1769234430052,129,1,1.9015622543353867,2.512863515487623,3.0210462424809283
1769234430056,130,2,2.0031407731501907,3.34360160739612,3.151957075113097
1769234430060,130,2,2.1234826910621627,3.430557410141774,3.3041063352894384
1769234430064,130,2,2.277933438150938,3.5715857787457312,3.487263107817681
1769234430068,130,2,2.481953370699202,3.625786996762024,3.7159470754576143
1769234430072,130,2,2.7210216396031197,3.6494711787896215,3.97857171620704
1769234430076,131,3,2.922166614020535,4.222019539080616,4.2046087793901075
1769234430080,131,3,2.988369959269594,4.565404288816715,4.296702763707166
1769234430084,131,3,2.887350376334558,4.432280979389006,4.221307577824934
1769234430088,130,2,2.7020894258258976,3.790531956208473,4.061631551735148
1769234430092,130,2,2.5775612999502173,3.5334794609022673,3.963646623976437
1769234430096,131,3,2.6160683663591877,4.313093217418435,4.029108259314924
1769234430100,131,3,2.8270516024725607,4.55524566877049,4.265515901542097
1769234430104,131,3,3.1574287029382755,4.360567134497277,4.619044425879417
1769234430108,131,3,3.5366928761950707,4.985414996818228,5.020751919130098
1769234430112,132,4,3.8895318494721702,5.2786615280040055,5.3972852184605875
1769234430116,132,4,4.143373153634509,5.630664958774592,5.676335992767214
1769234430120,133,5,4.266322079422203,6.248173134097011,5.824922038574452
1769234430124,132,4,4.308690654776535,5.642198881724446,5.892586132056603
1769234430128,132,4,4.389615877251591,5.785515535356625,5.998412094100839
1769234430132,133,5,4.621045161046867,6.4389901058612935,6.254030002381304
1769234430136,133,5,5.028897659042364,6.530652062814005,6.684586921033889
1769234430140,134,6,5.531961003159129,7.349017945066377,7.208884827127921
1769234430144,134,6,5.985839013222895,7.547768675740567,7.684046383014698
1769234430148,134,6,6.259655974423319,7.921674630440291,7.980988495145498
1769234430152,135,7,6.307451289898708,8.286447404320104,8.053868749256713
1769234430156,134,6,6.2000690312102265,7.73479801894355,7.9715856611171425
1769234430160,135,7,6.090723187775186,8.129166385350278,7.885145390178495
1769234430164,134,6,6.116609687653585,7.812209490713696,7.931489098662613
1769234430168,134,6,6.2906642159844735,7.652355518773307,8.125415790694728
1769234430172,135,7,6.472457007758582,8.586737888471138,8.328312592918989
1769234430176,135,7,6.469083240173229,8.458939710073,8.347191629683147
1769234430180,135,7,6.202680747379618,8.392463755886334,8.102890214211039
1769234430184,134,6,5.793646831378361,7.613277851607966,7.715203873636711
1769234430188,133,5,5.466865699454184,6.7962174499434,7.409489091990717
1769234430192,134,6,5.359521072371816,7.528413081840054,7.323189417555681
1769234430196,134,6,5.411444691784059,7.486211433289472,7.395539871187653
1769234430200,134,6,5.435229559465036,7.424068158147479,7.438578819882808
1769234430204,134,6,5.287951816997101,7.582313793664277,7.309780051989656
1769234430208,133,5,4.983529480557641,6.828910666529574,7.024108997306845
1769234430212,133,5,4.658393041141114,6.511668952632262,6.718696882537319
1769234430216,133,5,4.442866516532464,6.5246667811313745,6.523577987760973
1769234430220,133,5,4.36598853547196,6.416274279550376,6.466699583219572
1769234430224,133,5,4.3734688145081115,6.6030177479587815,6.492751274932388
1769234430228,133,5,4.421110303583588,6.824472649101764,6.557551359228817
1769234430232,133,5,4.533674567317311,6.507083984965398,6.687062596363871
1769234430236,133,5,4.761836722061681,6.564848733003707,6.933142471644874
1769234430240,134,6,5.085262037914105,7.398112966603163,7.275086436572073
1769234430244,134,6,5.373635427189837,7.633830318527977,7.58083000764335
1769234430248,134,6,5.455227269433935,7.816056484542146,7.677623019408083
1769234430252,134,6,5.227546618835039,7.508617424334978,7.464249965691517
1769234430256,133,5,4.710149947995006,6.583600892578474,6.96273070531854
1769234430260,133,5,4.012143967828391,6.407989568700427,6.283123587969691
1769234430264,132,4,3.2668793066670574,5.631432570962895,5.556985152913295
1769234430268,131,3,2.5857470445198345,4.849145576758707,4.892763724265712
1769234430272,131,3,2.029126002371883,4.471196080952992,4.3494543793490195
1769234430276,130,2,1.572514800898993,3.6448079050211177,3.903924971894811
1769234430280,130,2,1.084042360641596,3.3622769785527313,3.4271450954165763
1769234430284,129,1,0.3648195558140794,2.70146266031607,2.722039355483833
1769234430288,128,0,-0.728180149005031,1.789029038745496,1.6449641857952415
1769234430292,127,-1,-2.1448452085228897,0.5440164127472538,0.2439799118098071
1769234430296,125,-3,-3.613209818919719,-1.4234194681851529,-1.2101986773774915
1769234430300,124,-4,-4.781037811719838,-2.543683599043512,-2.3649048902996848
1769234430304,123,-5,-5.439752687743645,-3.373384509077325,-3.0108626588819587
1769234430308,123,-5,-5.6469506775330816,-3.11920174282289,-3.206220198164307
1769234430312,124,-4,-5.640942213160458,-2.519409121087894,-3.190192187410773
1769234430316,123,-5,-5.634685331056894,-3.3723810601576125,-3.174800537146167
1769234430320,123,-5,-5.683586123768326,-3.5506509062941536,-3.2129138946577767
1769234430324,123,-5,-5.721110196900993,-3.394594442984459,-3.237010917439934
1769234430328,123,-5,-5.674968194954855,-3.0386609187282354,-3.1770820501011516
1769234430332,124,-4,-5.53128781263613,-2.622135668542501,-3.0222682775233563
1769234430336,123,-5,-5.322390139065584,-3.203961996022191,-2.805175027749202
1769234430340,124,-4,-5.099907779885566,-2.758180860110872,-2.5751864937776117
1769234430344,124,-4,-4.923677083041192,-2.1387895553445584,-2.390356813345709
1769234430348,124,-4,-4.842833790211384,-2.3101916410578673,-2.299958155502882
1769234430352,124,-4,-4.863563709343588,-2.3077528464040795,-2.311016199237744
1769234430356,124,-4,-4.938211159509552,-2.494790664220921,-2.376248074993895
1769234430360,124,-4,-4.99495442343601,-2.4898174931695394,-2.4241185972345596
1769234430364,124,-4,-4.982040927588114,-2.360546115682588,-2.4035023436162057
1769234430368,124,-4,-4.893127699542141,-2.1188701018037044,-2.3082473017406757
1769234430372,124,-4,-4.76933085428675,-2.411576476846857,-2.178535532955238
1769234430376,124,-4,-4.686108578352966,-2.437215235765932,-2.0886921730801977
1769234430380,125,-3,-4.720186056372799,-1.48566316188293,-2.1154884700219245
1769234430384,124,-4,-4.901434581195296,-2.410354193953636,-2.2898113140013256
1769234430388,123,-5,-5.189086170823101,-3.019881790518201,-2.5716290197363376
1769234430392,124,-4,-5.503478524636535,-2.477685362403101,-2.881224682306518
1769234430396,123,-5,-5.785712174713751,-3.3957754562748117,-3.1590841492166333
1769234430400,123,-5,-6.028156518926556,-3.4640734773262007,-3.396754284852839
1769234430404,123,-5,-6.251052415383571,-3.488233695167261,-3.6141374417909806
1769234430408,122,-6,-6.4490136680923715,-3.8626204425602735,-3.8066104622347634
1769234430412,123,-5,-6.559579118455774,-3.6554023162691904,-3.913010849051628
1769234430416,122,-6,-6.497461161320965,-4.174266818681154,-3.848472056985326
1769234430420,123,-5,-6.242038209400824,-3.6989136575790456,-3.591399972455944
1769234430424,123,-5,-5.898593838000363,-3.2426098448196563,-3.2457948182682
1769234430428,123,-5,-5.653363614442525,-3.073801280282651,-2.997624617905964
1769234430432,124,-4,-5.6348257214066155,-2.4472272041084215,-2.976076876622184
1769234430436,123,-5,-5.798350057617529,-3.325958825765498,-3.1370681092361363
1769234430440,123,-5,-5.951319059482136,-3.610180670945147,-3.2878695964908986
1769234430444,123,-5,-5.909948545538806,-3.2554566346832483,-3.244692723411484
1769234430448,123,-5,-5.648991192922554,-3.104885966289858,-2.982923858226611
1769234430452,124,-4,-5.312045473219975,-2.325147816987938,-2.6466074846810623
1769234430456,124,-4,-5.084922974322263,-2.4718719485841687,-2.4207983024797333
1769234430460,124,-4,-5.052867452652995,-2.4548310460795646,-2.3892464718683373
1769234430464,124,-4,-5.156475630912375,-2.4117492954787587,-2.491931192212458
1769234430468,123,-5,-5.260880429430362,-2.9357215816105233,-2.5950978806184626
1769234430472,124,-4,-5.2632756226298625,-2.4494292916963283,-2.5977555182062844
1769234430476,124,-4,-5.154173467579467,-2.3317948825675736,-2.490982735632027
1769234430480,124,-4,-5.004172588955518,-2.602666133559992,-2.34403656728037
1769234430484,124,-4,-4.904318543710594,-2.2617480636066376,-2.24635064066314
1769234430488,124,-4,-4.902081325678321,-2.068173174975838,-2.245502503788641
1769234430492,124,-4,-4.96716158668997,-2.284099434092348,-2.3126810828139885
1769234430496,124,-4,-5.013326501386322,-2.4804850378928824,-2.3623232913208443
1769234430500,124,-4,-4.970929336253995,-2.4445477310201333,-2.3236959022895034
1769234430504,124,-4,-4.849656607497034,-2.4548355837342584,-2.2052901664435307
1769234430508,124,-4,-4.719256425912335,-1.8092806506948944,-2.077399609724866
1769234430512,125,-3,-4.6134932962289605,-1.5533544831801906,-1.9753838521390152
1769234430516,124,-4,-4.4608222002088755,-2.1555724011896267,-1.8280580643164392
1769234430520,125,-3,-4.1357853815346575,-1.79496518793438,-1.5086243316057049
1769234430524,125,-3,-3.590084530809494,-1.1210069470834427,-0.9677790173069872
1769234430528,126,-2,-2.91681113170213,-0.0874753422788821,-0.2992910834347837
1769234430532,127,-1,-2.267889177327462,0.7176071593127151,0.3439327320574148
1769234430536,127,-1,-1.711313868560992,0.658278607411491,0.8944040478560451
1769234430540,128,0,-1.1801425806643548,1.2999615543236902,1.420289903279127
1769234430544,128,0,-0.5590859320816166,1.8480152426858336,2.0365648199612267
1769234430548,129,1,0.1860326192138897,2.8905103470188545,2.7754350905509835
1769234430552,130,2,0.951439603461995,3.860635302440235,3.5320814939739797
1769234430556,130,2,1.5400292517396714,3.4876125061363217,4.110899336410595
1769234430560,131,3,1.763841172041288,4.468674239904939,4.326255845044029
1769234430564,131,3,1.549700895478605,4.675905090776334,4.105575230197925
1769234430568,129,1,0.9939093125675746,3.0350461834606657,3.543877248028592
1769234430572,129,1,0.3184568113550816,2.842638530457772,2.8616365829161214
1769234430576,129,1,-0.2602139291370975,2.4511995833628286,2.274719394991791
1769234430580,128,0,-0.66256521145977,1.550043743574256,1.8630169205641272
1769234430584,128,0,-0.9822452985614536,1.5307884751597518,1.5332895412448262
1769234430588,127,-1,-1.4000318244134196,1.2447876723883209,1.1044699103342517
1769234430592,127,-1,-2.036255688547335,0.6541470921096857,0.4560719110786975
1769234430596,126,-2,-2.8552598025688622,-0.325969254806107,-0.3745256917293487
1769234430600,125,-3,-3.699521956768966,-1.695336508951597,-1.226830335198693
1769234430604,124,-4,-4.410311591296907,-2.2676165098898573,-1.941798065766195
1769234430608,124,-4,-4.905975580806343,-1.873458462934134,-2.44263278775344
1769234430612,124,-4,-5.156948832961561,-2.244931535642841,-2.7062009200449912
1769234430616,123,-5,-5.143415629784188,-3.321374107743504,-2.7136840695935205
1769234430620,124,-4,-4.895543157210746,-2.809313839417644,-2.4880971922309647
1769234430624,124,-4,-4.559252613508498,-2.114651814250953,-2.165064116909142
1769234430628,124,-4,-4.332804609761952,-2.033900585761456,-1.9381228744075176
1769234430632,125,-3,-4.257825684831628,-1.0199807207166869,-1.8553996670760196
1769234430636,125,-3,-4.081217568298419,-1.4824697886642686,-1.679189996938956
1769234430640,125,-3,-3.4340598978888703,-1.7622947969180969,-1.0542038257928257
1769234430644,126,-2,-2.289477914524423,-0.1162725429899049,0.0474449230074909
1769234430648,126,-2,-1.288151374105753,-0.0128588446903394,1.0047544887458062
1769234430652,127,-1,-1.4442795641215809,0.9191458930724076,0.8291944964005511
1769234430656,126,-2,-3.1616400296297216,-0.1101420641167783,-0.8738706355386769
1769234430660,126,-2,-5.1883272221452374,-1.6554115712712951,-2.8705190477398013
1769234430664,126,-2,-4.577402817934561,1.344529068947704,-2.2432825445745443
1769234430668,128,0,1.6897733358466915,-0.071265361386243,4.01109580022343
1769234430672,133,5,14.121159848247087,9.626878206122592,16.40499648193002
1769234430676,165,37,29.199902673146696,35.83015178405697,31.43205501444851
1769234430680,171,43,40.63834111573096,46.61297334191066,42.815666029876986
1769234430684,172,44,42.886811734216494,43.97655699938487,45.02450770032256
1769234430688,162,34,34.38263761375408,37.14929934276239,36.51568717714794
1769234430692,146,18,18.298351876857275,19.57065341274774,20.462003644082877
1769234430696,128,0,0.5891292405142163,1.4918248939470686,2.791874335042438
1769234430700,115,-13,-13.102322939342857,-11.373947181696597,-10.8863677362854
1769234430704,109,-19,-19.796493838228763,-17.567507179976182,-17.608675913292327
1769234430708,109,-19,-19.745466346725316,-16.634970009191086,-17.6144561378918
1769234430712,113,-15,-15.390002341537643,-13.217141810073304,-13.316198135337515
1769234430716,119,-9,-9.678183869205585,-7.394316208012599,-7.639108425799754
1769234430720,124,-4,-4.75754671072176,-2.6303828734812384,-2.726270709908671
1769234430724,126,-2,-1.5242555499871169,-0.2642791851316888,0.5140002048446477
1769234430728,128,0,0.1020586091750134,2.133965308380541,2.144865762490715
1769234430732,129,1,0.6328531641955373,2.845845529013167,2.666983028081362
1769234430736,129,1,0.5899700433163567,2.638207212149669,2.6024350820077347
1769234430740,129,1,0.3370974152291069,2.340003908605697,2.322754211235721
1769234430744,128,0,0.0806670399665945,1.8246863296515357,2.042199508133029
1769234430748,128,0,-0.0781441062890029,2.080287966823541,1.8644228387824529
1769234430752,128,0,-0.1005059997758553,1.7961515255629017,1.8259854181234556
1769234430756,128,0,0.0104483918161092,1.7481334224775529,1.9209117486519411
1769234430760,129,1,0.2156888029233402,2.2238004752924483,2.109405902617002
1769234430764,128,0,0.4548109299598533,2.0394079460867425,2.331546573324706
1769234430768,129,1,0.6847072928146476,2.8207209880099904,2.544087244555508
1769234430772,129,1,0.9194774476153338,3.040657786724168,2.760349070195197
1769234430776,129,1,1.22068854576856,2.4843323899972685,3.041947116157016
1769234430780,130,2,1.624454212077823,3.5257239257785637,3.426284125904453
1769234430784,130,2,2.0715121353180423,3.835739321526398,3.8551877798643295
1769234430788,130,2,2.428136977533215,3.931070341478531,4.194418315505663
1769234430792,131,3,2.601341728201834,5.007826281371816,4.349461102199809
1769234430796,131,3,2.64164637334858,4.385907441932492,4.3703804318344455
1769234430800,130,2,2.716037790255724,3.7725009903881546,4.425541235875599
1769234430804,131,3,2.9592986568844575,4.571700608144645,4.650903844538173
1769234430808,131,3,3.3517849621061773,5.213431373236932,5.0257474031966645
1769234430812,132,4,3.751770662576531,5.705587154363732,5.406269867478283
1769234430816,132,4,4.03882728691153,5.650759364377283,5.671994154983029
1769234430820,132,4,4.210545482403328,5.589927035712227,5.822927614458023
1769234430824,132,4,4.3498168216706246,5.749763719869511,5.943917630122993
1769234430828,132,4,4.5323490351692355,6.064515284179017,6.109724038025973
1769234430832,133,5,4.786673572281374,6.805341957162675,6.3462569009787035
1769234430836,133,5,5.123340210150935,6.5668397184789535,6.662989083212724
1769234430840,133,5,5.558468517633368,6.703095982833574,7.077455036723388
1769234430844,134,6,6.08521630850259,7.675802606055704,7.584429281191659
1769234430848,134,6,6.636141788168441,8.12401961205893,8.116261628646772
1769234430852,135,7,7.096159907892393,8.730284465402724,8.556701353900506
1769234430856,135,7,7.359001566872658,8.645118951877468,8.799321274217888
1769234430860,135,7,7.374883905886622,8.647039487387946,8.795334919176192
1769234430864,135,7,7.162629734063269,8.782717855306082,8.564234418082435
1769234430868,134,6,6.798757510297872,7.974877324098404,8.182049529186852
1769234430872,134,6,6.397371633824308,7.905436621095991,7.761944347483683
1769234430876,134,6,6.078248685672667,7.428723509102413,7.42336497128918
1769234430880,133,5,5.923921002504588,6.939366412922175,7.249249496216932
1769234430884,134,6,5.946880701308158,7.480724617962722,7.252510351979563
1769234430888,133,5,6.09320806190983,7.303992118026151,7.379177950147137
1769234430892,134,6,6.282625189416997,7.532343876577205,7.548776532129639
1769234430896,134,6,6.452903530800312,7.821948279472102,7.699257907422503
1769234430900,134,6,6.576412815992967,7.572114613521196,7.803482457538816
1769234430904,134,6,6.647876818374259,7.857897913408384,7.856372170719586
1769234430908,134,6,6.668618679904116,7.956818405468681,7.85880435533252
1769234430912,134,6,6.645668528694019,7.813735750802828,7.817091416085434
1769234430916,134,6,6.597335197000716,7.597803467196098,7.7492108869814285
1769234430920,134,6,6.547350940409675,7.776384024727703,7.679269751935043
1769234430924,134,6,6.506338103619514,7.715226116511636,7.618746839977688
1769234430928,133,5,6.458090886490039,7.072675001011831,7.551983464858936
1769234430932,134,6,6.371288333682166,7.690041111413895,7.447163638347862
1769234430936,134,6,6.236135752648181,7.72748325202943,7.29352097911408
1769234430940,133,5,6.087065794294377,6.666694188137011,7.125463943862644
1769234430944,133,5,5.970322400572359,6.852878067626238,6.990134581537278
1769234430948,133,5,5.880414598647234,6.94027141814435,6.882199081690213
1769234430952,133,5,5.741091745852296,6.7709521182254715,6.724347683313412
1769234430956,133,5,5.458508849325877,6.708487129631222,6.422234834804011
1769234430960,132,4,4.987171023182558,5.65184252574716,5.931645819985869
1769234430964,131,3,4.344328397050581,4.942666489133382,5.271337698948791
1769234430968,131,3,3.582952541503752,4.798353822655113,4.493828647331149
1769234430972,130,2,2.7716434377543244,3.9217934611155743,3.665835868514983
1769234430976,129,1,1.9855085653022335,2.56413261617484,2.8615816867793424
1769234430980,128,0,1.2774556925948608,1.8189559022950932,2.1347907741767456
1769234430984,128,0,0.6410029643733473,1.8033778556730071,1.479997636170557
1769234430988,127,-1,0.0151714522912338,0.9085657996541304,0.8364733243990856
1769234430992,126,-2,-0.6582894038188227,-0.177173447703566,0.1459076031432999
1769234430996,126,-2,-1.3752630028928938,-0.3465164105904947,-0.5875901560794627
1769234431000,125,-3,-2.057009694954757,-1.226250576801522,-1.2854313853290145
1769234431004,124,-4,-2.592945103608305,-2.1616717747724357,-1.8373845263807036
1769234431008,124,-4,-2.90806824447677,-2.1104123977529756,-2.1688565565938864
1769234431012,124,-4,-3.0071280473727153,-2.1852260549466007,-2.284830272228352
1769234431016,124,-4,-2.9652783437831496,-2.3173816200042583,-2.2601751460898445
1769234431020,124,-4,-2.8794533991097286,-2.2303993804291107,-2.1910771591073437
1769234431024,124,-4,-2.819741205507087,-2.1570886054569596,-2.147135249771426
1769234431028,124,-4,-2.8069271641915092,-2.114004025218191,-2.149419395914929
1769234431032,124,-4,-2.8200846344684516,-2.200194904085006,-2.1776327227060746
1769234431036,124,-4,-2.82534286684323,-2.2857166733296785,-2.198141060685239
1769234431040,124,-4,-2.8068261903149656,-2.238359465454476,-2.194831285005042
1769234431044,124,-4,-2.776542767924472,-2.1421008083136184,-2.179481194319413
1769234431048,124,-4,-2.7559976687783863,-2.1341769185246187,-2.173639215157308
1769234431052,124,-4,-2.7501665531960993,-2.194253297202927,-2.1824130160848196
1769234431056,124,-4,-2.7428522885125637,-2.2737001226187603,-2.1896245246326114
1769234431060,124,-4,-2.718213717803472,-2.237257576843059,-2.1793738412916106
1769234431064,124,-4,-2.6831801275141207,-2.123716045456923,-2.1584916675376045
1769234431068,124,-4,-2.664259187324578,-2.1685194350381245,-2.1532759752149695
1769234431072,124,-4,-2.67981712007258,-2.168482054220896,-2.1818884599924004
1769234431076,124,-4,-2.7137664360760048,-2.2758961470671513,-2.2284006331863724
1769234431080,124,-4,-2.716147036495217,-2.2464575171096035,-2.2433985231761717
1769234431084,124,-4,-2.636559971831184,-2.0547303375601427,-2.176802488736496
1769234431088,124,-4,-2.472936961997493,-2.308321395976279,-2.0262041236406665
1769234431092,124,-4,-2.2989197292455636,-1.9708165846457544,-1.864793408164665
1769234431096,125,-3,-2.2349678968173468,-1.521555278834831,-1.813157548562891
1769234431100,124,-4,-2.3711485229387637,-1.9421963469747063,-1.9616310723219557
1769234431104,124,-4,-2.704431915190703,-2.3654453484268982,-2.306747247531161
1769234431108,123,-5,-3.1482037594512775,-3.016309814014789,-2.7611886075515684
1769234431112,123,-5,-3.597700347237772,-3.2459666323905028,-3.220466719223209
1769234431116,123,-5,-3.9825111690749058,-3.2788461736084944,-3.6153662647901488
1769234431120,122,-6,-4.270674227068409,-4.102829398640093,-3.914544592666987
1769234431124,122,-6,-4.451620510797109,-4.259215795195656,-4.106756846072491
1769234431128,122,-6,-4.531472161581381,-4.07031150956726,-4.1971517764788535
1769234431132,122,-6,-4.536228722593013,-4.265796409616641,-4.211535652405305
1769234431136,122,-6,-4.504512135688684,-4.20094245307473,-4.1889648443504015
1769234431140,122,-6,-4.470811645561556,-4.177786270078312,-4.164291404649752
1769234431144,122,-6,-4.4527745121288875,-4.1769516023175965,-4.155186729970908
1769234431148,122,-6,-4.4498928363945165,-4.151651067023791,-4.16097324906244
1769234431152,122,-6,-4.451738764664171,-4.22318654590075,-4.171059761768919
1769234431156,122,-6,-4.449074771122143,-4.20468267509085,-4.176213872023368
1769234431160,122,-6,-4.439985198395359,-4.16748500118952,-4.174746715812653
1769234431164,122,-6,-4.427697200628943,-4.168776334179976,-4.170137490753527
1769234431168,122,-6,-4.415125802399676,-4.180840018250459,-4.1652479329249
1769234431172,122,-6,-4.4037812041151465,-4.206507649879935,-4.161162862344742
1769234431176,122,-6,-4.396955339302991,-4.207624273911394,-4.160759847999554
1769234431180,122,-6,-4.399144396707806,-4.1421010217031995,-4.1686094607881
1769234431184,122,-6,-4.408097219323192,-4.180706951687093,-4.183048302516376
1769234431188,122,-6,-4.408972937300918,-4.196476885158051,-4.18979051360385
1769234431192,122,-6,-4.3839090078474525,-4.188211139731028,-4.170872408315097
1769234431196,122,-6,-4.335439392465913,-4.233219496545199,-4.128052937357439
1769234431200,122,-6,-4.3019079485849,-4.07609667337158,-4.0990197756081175
1769234431204,122,-6,-4.34093833360819,-4.241945191299701,-4.1417489634306275
1769234431208,122,-6,-4.483134223739389,-4.1691365008726144,-4.287988044700492
1769234431212,122,-6,-4.694657418887784,-4.191212830064145,-4.504372690642636
1769234431216,121,-7,-4.8930615680623735,-5.273730055647105,-4.707368381448462
1769234431220,121,-7,-5.009577194387585,-4.956416023080564,-4.8268041421462256
1769234431224,122,-6,-5.029172281777998,-4.394878004605707,-4.847860198495378
1769234431228,121,-7,-4.956723022582048,-5.0134091957277445,-4.7771138456232505
1769234431232,122,-6,-4.751138877107006,-4.350560210488219,-4.574564465434129
1769234431236,122,-6,-4.319693392984192,-4.130488815363256,-4.146599931469927
1769234431240,122,-6,-3.5992274871064653,-4.048913395366941,-3.4282938914101253
1769234431244,124,-4,-2.642720015581391,-2.331170553267893,-2.4722134315372686
1769234431248,125,-3,-1.6081671885357465,-1.0451692098974772,-1.437748799048094
1769234431252,126,-2,-0.6509506285296518,-0.3786272638838079,-0.4814843696797464
1769234431256,126,-2,0.1650341158826187,-0.0400669319699633,0.3331562315804532
1769234431260,127,-1,0.8465503759015551,0.8134100970596547,1.0139664774993289
1769234431264,128,0,1.383354868634866,1.8616074510438296,1.5507440924567435
1769234431268,128,0,1.704804223274482,1.7166824598971746,1.872401665517618
1769234431272,128,0,1.7256723190658814,1.877891156178868,1.893987484306753
1769234431276,128,0,1.431013983166502,1.707167354616634,1.6011650512262825
1769234431280,127,-1,0.9229679561530352,1.0489774507612322,1.095825005963492
1769234431284,127,-1,0.3848125920775045,0.6724928974701374,0.5602096768577791
1769234431288,126,-2,-0.0271622621103126,-0.154020057451937,0.1499781263472108
1769234431292,126,-2,-0.2958598470947142,-0.1892511454300667,-0.1174277725617605
1769234431296,126,-2,-0.5695627783036803,-0.2834466764193677,-0.3895959701590947
1769234431300,125,-3,-1.0645089672383043,-0.8981598359670384,-0.8824373945006458
1769234431304,125,-3,-1.907400221044813,-1.4227974820165037,-1.7225743651292411
1769234431308,123,-5,-3.040257904320466,-3.035916805944506,-2.8517216982976636
1769234431312,122,-6,-4.261372888188989,-4.329689945037392,-4.067834834505895
1769234431316,121,-7,-5.35791342362145,-5.140862761844625,-5.158482444412628
1769234431320,120,-8,-6.212366417861832,-6.0081469155399585,-6.007334039375755
1769234431324,120,-8,-6.809510751342509,-6.343469079547512,-6.600001673902446
1769234431328,119,-9,-7.1781255945674385,-7.067142358666768,-6.964833658613756
1769234431332,119,-9,-7.35100390622329,-7.367555421338882,-7.133543104054691
1769234431336,119,-9,-7.376206006616305,-7.052960637143612,-7.153742362204132
1769234431340,119,-9,-7.339708886571054,-7.118019180248504,-7.111715359315305
1769234431344,119,-9,-7.350661412335411,-7.218857867040954,-7.116623101150242
1769234431348,119,-9,-7.488388763202842,-7.174523475484548,-7.246965454714582
1769234431352,119,-9,-7.753437971293206,-7.321403101170237,-7.502497002063121
1769234431356,118,-10,-8.067876756880871,-8.038202464299216,-7.806097718354925
1769234431360,118,-10,-8.331571198176945,-8.196338296653485,-8.060796706716435
1769234431364,118,-10,-8.485501481196316,-8.04983852335624,-8.21140300176987
1769234431368,118,-10,-8.511184869876635,-8.427119657593499,-8.239846156987813
1769234431372,118,-10,-8.335373866405655,-8.009057014546489,-8.066790525649388
1769234431376,119,-9,-7.678750181645201,-7.406384030990848,-7.4027829949391935
1769234431380,120,-8,-5.942312273628936,-5.792457598803875,-5.642864325440394
1769234431384,125,-3,-2.2552578618597376,-1.4377539397511434,-1.9219233303890624
1769234431388,131,3,4.198862638214875,4.935235863043252,4.560674102482471
1769234431392,140,12,13.562372472574417,13.671813259200256,13.932611947536277
1769234431396,150,22,24.620816533387305,23.8591254134645,24.97760281572905
1769234431400,160,32,34.56802791578288,33.993685063061044,34.90197592345491
1769234431404,167,39,39.72210636343503,40.7309582128672,40.04167786956939
1769234431408,165,37,37.16512289896794,38.76230858900012,37.49118699232635
1769234431412,154,26,26.488203567471153,27.802484869031673,26.84330405774967
1769234431416,137,9,10.465371522348327,10.672134500808374,10.863590290948457
1769234431420,119,-9,-5.979499090133421,-6.789357677402485,-5.538766310619335
1769234431424,108,-20,-18.02149943502358,-18.485922641866313,-17.553658913630453
1769234431428,103,-25,-23.070678378151623,-22.894652607635862,-22.598783517930883
1769234431432,106,-22,-21.574026793568606,-20.536251798548253,-21.116790838342595
1769234431436,111,-17,-16.19451677347225,-14.951264925062477,-15.75607424920572
1769234431440,117,-11,-10.09722161526783,-9.24314666555966,-9.66516827073796
1769234431444,121,-7,-5.465799000249888,-5.059911284948223,-5.018875445587928
1769234431448,123,-5,-2.9776207987352,-3.338433277527641,-2.4982755592258847
1769234431452,124,-4,-2.198257658060167,-2.08684559035604,-1.6824065291730617
1769234431456,125,-3,-2.321213174877182,-1.392333265421513,-1.779022806455428
1769234431460,124,-4,-2.69646853446959,-1.822261937525477,-2.143607123632338
1769234431464,124,-4,-2.982555405766439,-2.476669015503312,-2.4285696068625113
1769234431468,123,-5,-3.080814913537309,-2.9271202354700225,-2.5239256524065254
1769234431472,124,-4,-3.032679359274608,-2.466295745627236,-2.4642932595049603
1769234431476,124,-4,-2.9276130757805916,-2.0445238825184764,-2.340708755702366
1769234431480,124,-4,-2.8177414512505337,-2.1297939073592533,-2.211016710496353
1769234431484,124,-4,-2.679181049820258,-2.2447684968772608,-2.055113094913238
1769234431488,124,-4,-2.458063242435931,-2.0883011025095373,-1.8192753297805984
1769234431492,125,-3,-2.1568104179690804,-1.3733491117421073,-1.5045594868025902
1769234431496,125,-3,-1.8683459536190692,-1.070848636599167,-1.202720511911196
1769234431500,125,-3,-1.7219287785119557,-1.1501908539194217,-1.042034374284647
1769234431504,125,-3,-1.7891083180301084,-1.2167764734051398,-1.0932967572602612
1769234431508,125,-3,-2.0203674610857663,-1.12465678081475,-1.3071017393857105
1769234431512,125,-3,-2.2519338459414335,-1.349777618965692,-1.52063348248553
1769234431516,124,-4,-2.284024655244474,-2.0617880722603847,-1.535175517757955
1769234431520,125,-3,-1.9902733445653893,-1.1903150752733125,-1.2250780871112936
1769234431524,126,-2,-1.3876827186147611,-0.1568348164801829,-0.607392045311705
1769234431528,126,-2,-0.6224544036394626,-0.2213415177426334,0.1726358986142511
1769234431532,127,-1,0.1088883582992856,0.7754170259802096,0.9197604488179398
1769234431536,128,0,0.6539276410243675,1.8026288908263624,1.4818299600990907
1769234431540,128,0,0.972259213357498,1.933729040951036,1.8177825049336924
1769234431544,128,0,1.1402179880969614,1.7259651646800265,2.0036740627171894
1769234431548,128,0,1.2842185197483331,1.8605295184417552,2.1661129800280987
1769234431552,129,1,1.4971728177813026,2.730368022918894,2.3975897354309197
1769234431556,129,1,1.808432004342837,2.817387127312553,2.7265004142104465
1769234431560,129,1,2.2088193963605063,2.951700406481142,3.1435044030190147
1769234431564,130,2,2.6732135176375857,3.6642030991223935,3.6244127965998567
1769234431568,130,2,3.152128964672553,3.940086917029288,4.120569875422342
1769234431572,131,3,3.5639691886375853,4.621429200355975,4.550277830146989
1769234431576,131,3,3.823330199624571,4.964093200686106,4.827681843900566
1769234431580,131,3,3.892995708424332,4.774784124950119,4.915614576809939
1769234431584,131,3,3.815514196485504,4.8468827511887165,4.856967574071211
1769234431588,131,3,3.69803258260621,4.734034375958689,4.758727869366945
1769234431592,131,3,3.661055231839239,4.823581905696374,4.740710512056767
1769234431596,131,3,3.7791656424702977,4.791070257370236,4.877042907809073
1769234431600,131,3,4.041741404574346,4.922132468392412,5.157220381807269
1769234431604,132,4,4.358082086244144,5.708823098709831,5.490888156764721
1769234431608,132,4,4.611394108532367,5.838362180215057,5.761691591490151
1769234431612,132,4,4.72761397469357,5.728079438921319,5.896242580500298
1769234431616,132,4,4.709721611281373,5.895180851658348,5.897994615730735
1769234431620,132,4,4.621070685619044,5.8106530446640186,5.829775712497636
1769234431624,132,4,4.541743053079443,5.801865330307563,5.770271695048365
1769234431628,132,4,4.5265472602635395,5.747978469123196,5.773289535984912
1769234431632,132,4,4.576739889041455,5.791110551051932,5.840519523052399
1769234431636,132,4,4.632820558735351,5.882805638204752,5.913929702565327
1769234431640,132,4,4.60066222864583,5.765936050591515,5.900397845110881
1769234431644,132,4,4.412600840713621,5.883320726038023,5.731840623367079
1769234431648,132,4,4.091647710470985,5.606227459995627,5.430171459082933
1769234431652,131,3,3.7622531825873864,4.968082750071474,5.119554254614657
1769234431656,131,3,3.580996823205655,4.694492180000763,4.9572388690972495
1769234431660,131,3,3.6371129922548833,4.948658905775452,5.0327574070333725
1769234431664,132,4,3.9104026776583183,5.702036543750195,5.325227399467177
1769234431668,132,4,4.313183332431381,5.753754328790328,5.746358746424984
1769234431672,132,4,4.753080724356502,5.850636369680338,6.2041010122759905
1769234431676,133,5,5.149032415969492,6.782365994576347,6.617980462818587
1769234431680,133,5,5.407255464348446,6.877019286289994,6.894261479173811
1769234431684,133,5,5.4114171926603625,6.736572026298607,6.916464351726008
1769234431688,133,5,5.057816299375072,6.73302551734661,6.581138915984934
1769234431692,132,4,4.318668500407302,5.855275934723817,5.860898449054813
1769234431696,131,3,3.288270425917453,4.780537120384764,4.849964135882967
1769234431700,130,2,2.1692189978040517,3.871970107568489,3.750353952913945
1769234431704,129,1,1.1894536051694602,2.7234107887768477,2.78945199149181
1769234431708,128,0,0.4912181891161267,1.748883700532069,2.1092317954888715
1769234431712,128,0,0.0658380347770108,1.836956135000778,1.7008840318188678
1769234431716,128,0,-0.2150399710437973,1.7992578524690983,1.4362760500137417
1769234431720,127,-1,-0.4975408478471379,0.8422800324340178,1.170285512649277
1769234431724,127,-1,-0.8547894092079429,0.740440998147581,0.830985859054377
1769234431728,127,-1,-1.2634337602451344,0.7177050195767563,0.4418153993380249
1769234431732,126,-2,-1.6399917296454052,-0.1297061086421789,0.0849679986685081
1769234431736,126,-2,-1.900567812056795,-0.2388596542552554,-0.1572215984057843
1769234431740,126,-2,-2.011519698274954,-0.1153727470135685,-0.251757709905875
1769234431744,126,-2,-2.007748767263669,-0.3315089878446047,-0.2328305508100538
1769234431748,126,-2,-1.970911924413767,-0.211468059954484,-0.1804836942178358
1769234431752,126,-2,-1.9794051454050328,-0.1970559861272387,-0.1718220620514854
1769234431756,126,-2,-2.053830091880665,-0.1979817259030118,-0.2275608580500527
1769234431760,126,-2,-2.129017191000674,-0.1194208221747428,-0.2838946397342594
1769234431764,126,-2,-2.0822672025314737,-0.4014763681073257,-0.2195518898081383
1769234431768,126,-2,-1.8163944803401908,-0.0925630379743198,0.0621358202313846
1769234431772,127,-1,-1.3444657041714696,0.6328824398182213,0.5486286617727316
1769234431776,127,-1,-0.8046789781293922,1.0085660151402207,1.1029169347297554
1769234431780,128,0,-0.3816359403756409,1.6450934981747878,1.5415998554726018
1769234431784,128,0,-0.1857540215612977,1.8281038950924229,1.7546288588272398
1769234431788,128,0,-0.1787291556806715,1.6549306376546475,1.7794031583259446
1769234431792,128,0,-0.2026769816440241,1.8861036139997531,1.7723065643044746
1769234431796,128,0,-0.0984760095395019,1.7546951838287583,1.891729688290825
1769234431800,128,0,0.1677165502111701,1.892767468587336,2.1720827970811616
1769234431804,129,1,0.4679369481100727,2.571743389309788,2.4863481750908982
1769234431808,129,1,0.6065412693250464,2.888502250390977,2.6392336197660695
1769234431812,129,1,0.4773250567578858,2.6562166541458967,2.524552908291569
1769234431816,128,0,0.1496241192778917,1.9736539063700416,2.2119281345916697
1769234431820,128,0,-0.191907464730568,1.673181261586577,1.8861589957658853
1769234431824,128,0,-0.3923391670841661,1.7616802837480994,1.7014331963059597
1769234431828,128,0,-0.4241924152480212,1.7093317516007147,1.684000947282808
1769234431832,128,0,-0.3683611720993714,1.8100370563118848,1.752522511410561
1769234431836,128,0,-0.3220705435327003,1.8509353856055857,1.8106485263934555
1769234431840,128,0,-0.3260961977917396,1.743662004838857,1.819024367532708
1769234431844,128,0,-0.3617296906110712,1.705476544711884,1.7971240938284634
1769234431848,128,0,-0.3956359622351484,1.7269724697627664,1.7778336318251138
1769234431852,128,0,-0.4163692552031928,1.815352080397412,1.7713557052731057
1769234431856,128,0,-0.4315533757916165,1.8332227360002813,1.769024258098019
1769234431860,128,0,-0.4442184495861863,1.7500780278915204,1.76773967551014
1769234431864,128,0,-0.445823187204704,1.678168053518089,1.7769019488747757
1769234431868,128,0,-0.4351858326499689,1.738412722066169,1.7987424176413205
1769234431872,128,0,-0.4346016972188132,1.8140672196517251,1.811451420120317
1769234431876,128,0,-0.4736850056751044,1.8238382819178964,1.7850829490381632
1769234431880,128,0,-0.5494449262674206,1.7573641964894673,1.721749955758802
1769234431884,128,0,-0.6047894189088421,1.6336606460149894,1.677731419558179
1769234431888,128,0,-0.5594060515460735,1.7816522701342912,1.7332521215841985
1769234431892,128,0,-0.3807849987675608,1.7676747386618978,1.9215482041737355
1769234431896,128,0,-0.1364774078045815,1.8685533016914,2.175772605132563
1769234431900,129,1,0.0329580049438,2.7082861574808548,2.3552667843826955
1769234431904,129,1,0.0159556498680999,2.6448154650086755,2.3480685288012433
1769234431908,128,0,-0.1801089767218179,1.7711127354817109,2.16178514573384
1769234431912,128,0,-0.4382535749560575,1.763303291094248,1.913803708301399
1769234431916,128,0,-0.6278109706732278,1.8817642480836496,1.73426623507339
1769234431920,128,0,-0.6925630040317609,1.672756186279977,1.6783651144814469
1769234431924,128,0,-0.6648375560969424,1.6717011061903442,1.7137438396126266
1769234431928,128,0,-0.6184422191026243,1.729111891371887,1.7676979991931423
1769234431932,128,0,-0.6090031130225925,1.7939067813563474,1.7853636093454597
1769234431936,128,0,-0.6391000083773212,1.8539536530694696,1.7637058896060456
1769234431940,128,0,-0.6666299590696185,1.6828060028234768,1.7439996885693878
1769234431944,128,0,-0.6526628099861863,1.642256943399131,1.7651323139480075
1769234431948,128,0,-0.6131774385328382,1.7592843672976644,1.811675227341156
1769234431952,128,0,-0.6235837771719,1.7322359774941605,1.8082514285488545
1769234431956,128,0,-0.7592388780867139,1.9380599726734813,1.6788458451580537
1769234431960,128,0,-1.0221294146685207,1.5691667680427446,1.421367218487566
1769234431964,127,-1,-1.3314297059317226,0.7368717516303351,1.117769798129468
1769234431968,127,-1,-1.5941082994922178,0.6693500952411244,0.8619744386585073
1769234431972,127,-1,-1.778331329729533,0.7740261444049961,0.6847295629922652
1769234431976,127,-1,-1.9079674655278216,0.9477473007880102,0.5601527341792174
1769234431980,127,-1,-1.9992942676186576,0.5003361031579416,0.4718866536220951
1769234431984,126,-2,-2.033422705499139,-0.1719186130550092,0.4410618449567614
1769234431988,127,-1,-1.9951338583738327,0.5230078009057002,0.4844322428162702
1769234431992,127,-1,-1.9060127697693376,0.928776792589792,0.57920959082632
1769234431996,127,-1,-1.7947362923580936,0.7920445092248554,0.694728253181494
1769234432000,127,-1,-1.6516971397774576,0.6499863171822526,0.8405655041961033
1769234432004,127,-1,-1.44048893046695,0.6607307015060648,1.0544868615292402
1769234432008,128,0,-1.1494196025088124,1.6425644019778165,1.3484876570453124
1769234432012,128,0,-0.8068516932779728,1.829318164677681,1.6932687754186788
1769234432016,128,0,-0.4401653951508401,1.8702217162612815,2.06140106782383
1769234432020,129,1,-0.0350909010186284,2.601135167621445,2.4687127132676654
1769234432024,129,1,0.4573184359803253,2.6468619081631672,2.9651683533284654
1769234432028,130,2,1.0819120153694377,3.641126199905035,3.5940485865641643
1769234432032,131,3,1.845909244932888,4.828328228506153,4.359658714368745
1769234432036,131,3,2.693360983669505,4.873690279210146,5.20516817329312
1769234432040,132,4,3.47659561332576,5.603970293991389,5.985287096858341
1769234432044,133,5,3.95969151686553,6.598960133448766,6.467231529531565
1769234432048,133,5,3.9129060423796793,6.6504029977012085,6.422130162654064
1769234432052,132,4,3.2753186681060487,5.834224203422047,5.787422716888865
1769234432056,131,3,2.2524461194889343,4.8570962294857605,4.7664867767797245
1769234432060,130,2,1.227885705755683,3.637401174171429,3.742022861066718
1769234432064,129,1,0.5202577308020515,2.493831667640535,3.033016904883172
1769234432068,129,1,0.1677044116760104,2.7630598001283424,2.678076291426931
1769234432072,129,1,-0.0785627322762445,2.702396189642686,2.428376184215753
1769234432076,128,0,-0.5404894982936113,2.019213346448269,1.9622697905239277
1769234432080,128,0,-1.3594605507583002,1.4580385825139537,1.1398966328059004
1769234432084,126,-2,-2.4103081510841733,-0.3904735054244117,0.0881641045904775
1769234432088,125,-3,-3.4265986191785234,-1.3662436925943764,-0.9269116610830044
1769234432092,125,-3,-4.193469010788205,-1.1813594010354134,-1.6935841420338522
1769234432096,124,-4,-4.642094376857207,-2.045071905377493,-2.145867559167656
1769234432100,124,-4,-4.819661248529869,-2.5200054674774948,-2.330222515888224
1769234432104,124,-4,-4.824084007259343,-2.42659542861832,-2.3410770011862265
1769234432108,124,-4,-4.765069093758256,-2.4107949868237455,-2.285976287415124
1769234432112,124,-4,-4.733843618296696,-2.1000536293525465,-2.257504722682007
1769234432116,124,-4,-4.762029988539631,-2.1122857380780995,-2.2898411041941538
1769234432120,124,-4,-4.805448012209803,-2.465464207012815,-2.3388207944331105
1769234432124,124,-4,-4.794100934879762,-2.5277343571594493,-2.331589304292921
1769234432128,124,-4,-4.718767664511448,-2.360227541013264,-2.257120000818412
1769234432132,124,-4,-4.667016421071787,-2.14787724603075,-2.206081406256803
1769234432136,124,-4,-4.761292361320841,-2.008703943241027,-2.307621849947308
1769234432140,124,-4,-5.050536088394056,-2.615899066053343,-2.614340095773697
1769234432144,123,-5,-5.441599023409811,-3.397252607196411,-3.0276347700597994
1769234432148,123,-5,-5.677426141941249,-3.577963046693644,-3.2773894688774563
1769234432152,123,-5,-5.285643051753873,-2.889302148552529,-2.8805155970445653
1769234432156,126,-2,-3.4883911489420254,-0.2496191011569495,-1.061757837250993
1769234432160,130,2,0.7401903220768364,3.6438325010946535,3.1870213573942614
1769234432164,137,9,8.209352076351463,10.2735530997496,10.653650523429386
1769234432168,147,19,18.654676905856753,20.706018505529652,21.06611779358567
1769234432172,157,29,30.00632434456637,30.85658263043136,32.369468265591
1769234432176,166,38,38.575208525455665,39.97671567856535,40.90142538656945
1769234432180,171,43,40.56767507842416,44.50704042225226,42.88504322453042
1769234432184,166,38,34.33496835185131,39.16437658376845,36.66654338145299
1769234432188,152,24,21.83522199569854,25.890697157938185,24.187236248509155
1769234432192,134,6,7.931403300242808,7.502082400144211,10.297953172999511
1769234432196,121,-7,-2.331375891809536,-4.507679008555085,0.0387457052801933
1769234432200,124,-4,-6.56988956693395,-3.0074882059514416,-4.212797337690647
1769234432204,126,-2,-5.90678704040918,-0.2782233619004381,-3.5831357673795248
1769234432208,126,-2,-3.4117394364636273,-0.6561433351309485,-1.1319585484769492
1769234432212,126,-2,-1.7060491070203634,-0.0622228247538609,0.5421311716157597
1769234432216,126,-2,-1.614705746704034,0.0527968419337954,0.629643108910146
1769234432220,126,-2,-2.452701162963385,-0.730128619161766,-0.1915598231101962
1769234432224,125,-3,-3.1725104512069335,-1.3695960265788163,-0.8963951477555345
1769234432228,126,-2,-3.272730014977409,-0.680902276634622,-1.0009818927473026
1769234432232,126,-2,-2.931703691928678,0.0724044179347265,-0.6839890297686826
1769234432236,126,-2,-2.5705556599123693,-0.261165826362844,-0.3531806418914454
1769234432240,126,-2,-2.402127050004444,-0.4041620532684709,-0.206783312281984
1769234432244,126,-2,-2.3414511873785244,-0.6803191460206475,-0.1545805949446714
1769234432248,126,-2,-2.21838189614097,-0.3615392898690492,-0.0325839200494622
1769234432252,127,-1,-1.9795075403138789,0.7692439404539098,0.201851985348977
1769234432256,127,-1,-1.6849202328815582,0.9310212331029168,0.4829342542717274
1769234432260,127,-1,-1.3876475271960371,0.3934048401555756,0.761058617265264
1769234432264,127,-1,-1.0860890068222957,0.5252078005373035,1.04529996376622
1769234432268,128,0,-0.7850625868846866,1.4583999597269397,1.3341538920543463
1769234432272,128,0,-0.5406751060838992,1.93020424189178,1.5684642862236449
1769234432276,128,0,-0.411756591714967,1.7105895759760563,1.6851007293187663
1769234432280,128,0,-0.3907758993855621,1.563481710520596,1.6911622441904215
1769234432284,128,0,-0.4130774487841788,1.3878611761690487,1.654046419794828
1769234432288,128,0,-0.4280098979482638,1.574178615587268,1.6260210025923354
1769234432292,128,0,-0.4347442523445082,1.850919383923189,1.6064374587592694
1769234432296,128,0,-0.4420621266675599,1.6781078006600163,1.5843492802356542
1769234432300,128,0,-0.4171864713130901,1.6072505294021928,1.5928877546346114
1769234432304,128,0,-0.3009563873411669,1.3138879138920774,1.69378298501253
1769234432308,128,0,-0.0710372342362104,1.6689052461548206,1.9106953338419872
1769234432312,129,1,0.2378133114606476,2.764772594061531,2.2069850334139587
1769234432316,129,1,0.5901839525460852,2.669998107745854,2.544481785016886
1769234432320,129,1,1.0018681439560444,2.6297809856795347,2.938888805368795
1769234432324,130,2,1.501085868334973,3.239495817659666,3.4210243267695386
1769234432328,130,2,2.0391070917980896,3.7849882258689087,3.944115733627244
1769234432332,131,3,2.475194820530051,4.626250561114682,4.366498849864448
1769234432336,131,3,2.681519499754247,4.752546010265882,4.557963287844316
1769234432340,131,3,2.6650124648971953,4.541256505155026,4.524669805726915
1769234432344,131,3,2.567478481951104,4.263505287187638,4.410193498546358
1769234432348,130,2,2.531157787009297,3.8358302038670704,4.358717849316417
1769234432352,131,3,2.567749183891291,4.487273210939673,4.381276533377164
1769234432356,131,3,2.5707586061488685,4.934493270236217,4.368688816717869
1769234432360,131,3,2.450114547796086,4.255163139664953,4.229724274294158
1769234432364,130,2,2.230218584270741,3.580506829516905,3.99093155358052
1769234432368,130,2,2.009543926546772,3.5017923498267227,3.75366423193402
1769234432372,130,2,1.854812133213939,3.786871329900471,3.584803395806415
1769234432376,130,2,1.7664137926737655,3.656877946501628,3.4822892265178234
1769234432380,130,2,1.7380865828424363,3.430649190278672,3.43779442249428
1769234432384,130,2,1.8103129328090024,3.473830148711945,3.492016317230479
1769234432388,130,2,2.034828477474061,3.5079737033349216,3.6982792233693793
1769234432392,130,2,2.384697375847626,3.852767178898053,4.0306700391473065
1769234432396,131,3,2.716698739201175,4.48379198709875,4.345713474313645
1769234432400,131,3,2.8455576277007815,4.651042781790807,4.457485325563438
1769234432404,131,3,2.6769663581099215,4.168880741277443,4.2716933851250225
1769234432408,130,2,2.2852506138859012,3.850951179586222,3.863283108909581
1769234432412,130,2,1.8697839958808535,3.451854499717302,3.431962320145084
1769234432416,129,1,1.6268870628648124,2.880275671321349,3.1735053792857912
1769234432420,130,2,1.6359677253416849,3.2315332961451753,3.1661400751821156
1769234432424,130,2,1.8362685805276668,3.559247328348246,3.348240585009969
1769234432428,130,2,2.090582068176264,3.4738154664375185,3.583028315656789
1769234432432,130,2,2.2673232501209086,3.765795505495488,3.740596741035466
1769234432436,130,2,2.281122657317902,3.5919683490013496,3.7370930063294097
1769234432440,130,2,2.093067242297306,3.4238258876212173,3.5334903016706227
1769234432444,130,2,1.7071707656674011,3.432831964692066,3.132186961947887
1769234432448,129,1,1.174673748995629,2.5033432552881516,2.582948448669189
1769234432452,128,0,0.5802523351675826,1.7929915509838334,1.9704237276666303
1769234432456,128,0,-0.0049013632831467,1.4662884939358962,1.366876458568565
1769234432460,127,-1,-0.5708738891219414,0.5817251808665089,0.783088917049187
1769234432464,127,-1,-1.168438900793085,0.2096805205118852,0.1682502410264765
1769234432468,126,-2,-1.8524065145124435,-0.233812599037027,-0.5329317731311463
1769234432472,125,-3,-2.61845229449876,-1.5398367287159125,-1.316262038642705
1769234432476,124,-4,-3.392651538556322,-2.2021295942146217,-2.1075872681832624
1769234432480,124,-4,-4.080168421573182,-2.786177688933302,-2.812121436912032
1769234432484,123,-5,-4.622181455755775,-3.4561692604467664,-3.371410224863882
1769234432488,123,-5,-5.01257217433383,-3.527802807618144,-3.7792978972977673
1769234432492,122,-6,-5.274309537960797,-4.329843973050723,-4.058210088027813
1769234432496,122,-6,-5.426008501423171,-4.387342014650927,-4.226652855948021
1769234432500,123,-5,-5.463285453449552,-3.68246646475422,-4.280904569916102
1769234432504,122,-6,-5.3689995858553194,-4.53330168389258,-4.204197781915552
1769234432508,122,-6,-5.153258444524193,-4.4897793496567155,-4.006117669723648
1769234432512,123,-5,-4.887050431346957,-3.3618353685921125,-3.757151593318674
1769234432516,123,-5,-4.677011642521421,-3.422962702747077,-3.564082734442049
1769234432520,123,-5,-4.588094463491453,-3.6512300641116417,-3.4919986900179074
1769234432524,123,-5,-4.58955630608464,-3.5908473472469224,-3.509937481145588
1769234432528,123,-5,-4.578505762605122,-3.440728857038887,-3.515048299242145
1769234432532,123,-5,-4.457257723252483,-3.436882891960008,-3.410131333317074
1769234432536,123,-5,-4.2017958106584565,-3.3788589669024085,-3.171483475617487
1769234432540,124,-4,-3.8761520441253303,-2.72862967378808,-2.8629710554338867
1769234432544,124,-4,-3.587197014940807,-2.512974427096315,-2.591149535763936
1769234432548,124,-4,-3.4146009404460216,-2.5509078952789968,-2.43551855828344
1769234432552,124,-4,-3.3681745154206215,-2.339890844800477,-2.405794112308249
1769234432556,124,-4,-3.3997922298414203,-2.5156995285843777,-2.45364469887365
1769234432560,124,-4,-3.4503371319239013,-2.630676841583529,-2.519726927866956
1769234432564,124,-4,-3.4858761949040877,-2.5928669632112147,-2.5703319886310663
1769234432568,124,-4,-3.4925074748246403,-2.5283986120325377,-2.592412346686448
1769234432572,124,-4,-3.4450609725855363,-2.3388832377871975,-2.5614706286676583
1769234432576,124,-4,-3.299523127602773,-2.599622912820547,-2.432990146989149
1769234432580,124,-4,-3.0352880107232583,-2.5389740674139105,-2.1851201673569687
1769234432584,125,-3,-2.704320567264899,-1.720602102606915,-1.8694045138812343
1769234432588,125,-3,-2.417593962792705,-1.4049237644542378,-1.597697972795344
1769234432592,125,-3,-2.26515083183375,-1.4852614128868076,-1.4608999922984378
1769234432596,125,-3,-2.2479567677468486,-1.4995371142557914,-1.4596406892633038
1769234432600,125,-3,-2.2904334959044608,-1.6587473513526556,-1.517387171624906
1769234432604,125,-3,-2.314864858782828,-1.637078076150811,-1.5561992557429754
1769234432608,125,-3,-2.299539916608638,-1.4740585009322205,-1.5551777647449776
1769234432612,125,-3,-2.271326263925801,-1.4606093160722244,-1.542009083648545
1769234432616,125,-3,-2.2567984393920035,-1.5409305617293696,-1.5430791350704665
1769234432620,125,-3,-2.2517664924211136,-1.667638099286239,-1.5532571966896949
1769234432624,125,-3,-2.236097198961053,-1.6424291335998211,-1.5519028871671756
1769234432628,125,-3,-2.2056948274593013,-1.477542489904396,-1.5354396676325228
1769234432632,125,-3,-2.1805468570382422,-1.478628952202064,-1.524640847605354
1769234432636,125,-3,-2.1828656048739097,-1.5600251426561629,-1.5416995278054315
1769234432640,125,-3,-2.21202017078975,-1.67866042768809,-1.5852186177554688
1769234432644,125,-3,-2.237695963887219,-1.6706928935991403,-1.6243922916435496
1769234432648,125,-3,-2.210230669719017,-1.434858499041791,-1.609862263651319
1769234432652,125,-3,-2.081383115088755,-1.5654009564994318,-1.4939732582365144
1769234432656,125,-3,-1.8330833178896504,-1.4859525600358772,-1.2589957222094044
1769234432660,126,-2,-1.5018925388005933,-0.80653462049907,-0.9416554593952802
1769234432664,126,-2,-1.1766559049391194,-0.5625594328822379,-0.630767460731416
1769234432668,126,-2,-0.9639013672502228,-0.5447093087213233,-0.43229441602154
1769234432672,126,-2,-0.9418660440887796,-0.4924960746693902,-0.4235672210717092
1769234432676,126,-2,-1.1254499303882188,-0.5690214480301363,-0.6190758372669258
1769234432680,126,-2,-1.4524935406826769,-0.8058569515933809,-0.9571619161740528
1769234432684,125,-3,-1.8006093586936809,-1.5314445839417834,-1.3164308333465973
1769234432688,125,-3,-2.038096600620732,-1.647564924581162,-1.566008776833038
1769234432692,125,-3,-2.088357120402313,-1.3395139773777438,-1.6294080003382445
1769234432696,125,-3,-1.9709204974669103,-1.823561207865932,-1.525354055326504
1769234432700,125,-3,-1.7922344256034417,-1.5418038083539332,-1.3592593360741028
1769234432704,126,-2,-1.6833058014974345,-0.8446977299018879,-1.2619009470978555
1769234432708,125,-3,-1.715024622920767,-1.3441453293090178,-1.304711264465483
1769234432712,125,-3,-1.8529830316994536,-1.645732347503429,-1.4536413442220348
1769234432716,125,-3,-1.994157698375718,-1.585443915188927,-1.6055265296426138
1769234432720,125,-3,-2.0543779890904688,-1.788143475538314,-1.676159516378514
1769234432724,125,-3,-2.0275311970892913,-1.6563496692531448,-1.659882618553502
1769234432728,125,-3,-1.9701022296441224,-1.4982162654530748,-1.6137006782898082
1769234432732,125,-3,-1.9377633600548256,-1.554915317199825,-1.5931324946357033
1769234432736,125,-3,-1.93981284140594,-1.677427692969781,-1.6064806785495829
1769234432740,125,-3,-1.949616437208157,-1.7767907381930046,-1.6261104187308026
1769234432744,125,-3,-1.9468055434847056,-1.6633802079038484,-1.631805946912988
1769234432748,125,-3,-1.9373849345037255,-1.5130627611447334,-1.6309803436543766
1769234432752,125,-3,-1.9332858427589967,-1.5504885160618491,-1.6368738394846531
1769234432756,125,-3,-1.9276205847078345,-1.7263530160085605,-1.642379491232224
1769234432760,125,-3,-1.9051972104718449,-1.7780832506094708,-1.6307171153787223
1769234432764,125,-3,-1.8751931338134145,-1.6794919586010368,-1.609738413465076
1769234432768,125,-3,-1.8748847138359672,-1.5132439385939946,-1.61696498708156
1769234432772,125,-3,-1.9247274793271876,-1.5497687117858934,-1.674303454432418
1769234432776,125,-3,-1.9811845421975176,-1.7910861789361066,-1.739362558968219
1769234432780,125,-3,-1.9512432044656811,-1.7414771116283982,-1.718933155033216
1769234432784,125,-3,-1.7720394027340292,-1.7606074550278263,-1.549029247075648
1769234432788,125,-3,-1.481605250905482,-1.426012656553156,-1.2669419659255905
1769234432792,126,-2,-1.1996970368846822,-0.651042712713439,-0.9927257195819146
1769234432796,126,-2,-1.0216608368041893,-0.7373354268320322,-0.8223209256669879
1769234432800,126,-2,-0.9233926906597754,-0.8428703869709651,-0.7315367327701756
1769234432804,126,-2,-0.7736583263562011,-0.6873588035017346,-0.5886897258878752
1769234432808,126,-2,-0.4437972253498468,-0.5210840798480032,-0.2654098014820629
1769234432812,127,-1,0.0904728693309995,0.4594288074539954,0.2615939809098651
1769234432816,128,0,0.7426053560816603,1.0819702639993194,0.9055498611697096
1769234432820,128,0,1.391963039044018,1.324938368107333,1.5471001424861544
1769234432824,129,1,1.9656478971132767,2.070524449511866,2.114673311867862
1769234432828,129,1,2.468053937318877,2.7452400637377536,2.6122222073009795
1769234432832,130,2,2.9526883415763434,3.1491505460144884,3.091536884479507
1769234432836,130,2,3.457273042840888,3.381421388124166,3.589503421278698
1769234432840,131,3,3.938587090797939,3.9653851151151702,4.063762322549395
1769234432844,131,3,4.260772810746988,4.387459920670474,4.379602636791006
1769234432848,131,3,4.269409542871827,4.436508063295972,4.3826552730052475
1769234432852,131,3,3.907571174459263,4.412001898644121,4.015480608795386
1769234432856,130,2,3.2705068473078818,3.1304082228501584,3.3734970578119263
1769234432860,129,1,2.5380139819642737,2.10305609026551,2.6370416654571285
1769234432864,129,1,1.8441213111502297,2.2769153062337493,1.9396545903056652
1769234432868,128,0,1.2064838707538474,1.4747446000485285,1.2975818251457605
1769234432872,127,-1,0.5643416249228447,0.4264931149449682,0.6495265757853153
1769234432876,127,-1,-0.1384978701058105,0.0343931218855884,-0.0595457487923238
1769234432880,126,-2,-0.9074753144723978,-0.8251496126664906,-0.8334834384495831
1769234432884,125,-3,-1.704398262439366,-1.8717928907919883,-1.6336644760150594
1769234432888,124,-4,-2.471551026944738,-2.3478632297030093,-2.4032857462255546
1769234432892,124,-4,-3.1411683912569335,-2.786913089199196,-3.075622812246031
1769234432896,123,-5,-3.6373701851058935,-3.758887201040996,-3.574874066395912
1769234432900,123,-5,-3.896746342427503,-4.114957316927644,-3.837235759995885
1769234432904,123,-5,-3.904706819195109,-3.614451430510581,-3.848522428325902
1769234432908,123,-5,-3.712371869206186,-3.610824576014171,-3.6607859621268526
1769234432912,123,-5,-3.416470007276233,-3.5375320732420934,-3.3703473469318945
1769234432916,124,-4,-3.121898374537724,-3.0205871581221615,-3.079669683035657
1769234432920,124,-4,-2.9081526561863713,-2.9518332699418677,-2.8658949519959336
1769234432924,124,-4,-2.802571091818879,-2.7917514684212823,-2.7570792470904197
1769234432928,124,-4,-2.768561191791884,-2.46692849912671,-2.7209100645606483
1769234432932,124,-4,-2.7356153624731547,-2.6578643978384537,-2.6914845868250614
1769234432936,124,-4,-2.678970489710582,-2.9583464952869187,-2.6446683188520694
1769234432940,124,-4,-2.6823240423313095,-3.0598586883966736,-2.659605534338876
1769234432944,124,-4,-2.861462877299348,-2.7548989980542844,-2.845375436367616
1769234432948,124,-4,-3.106816786360046,-2.480900107775298,-3.0880729090100636
1769234432952,124,-4,-2.8100913998742456,-2.664228707744422,-2.780412247444301
1769234432956,126,-2,-0.8738980173492976,-0.97243192996836,-0.831409702695816
1769234432960,131,3,3.825500011525349,3.875496840679432,3.8744078584263737
1769234432964,138,10,11.68361094756792,11.27988305126298,11.728456924773065
1769234432968,148,20,21.759899784715323,21.483405250281773,21.793673055795157
1769234432972,158,30,31.76961043594078,31.40384844815422,31.79223580814032
1769234432976,166,38,38.8394556230443,38.87212411864061,38.85368295893529
1769234432980,170,42,40.71258085839745,42.952828726759904,40.7194327656601
1769234432984,164,36,36.70175294735536,37.125287640574285,36.70383954935838
1769234432988,151,23,27.788364271749575,24.58254279902839,27.79557717559582
1769234432992,142,14,15.937183958987884,15.372013077367445,15.961868008279865
1769234432996,133,5,3.327977466954895,5.797860153238462,3.3719814432665753
1769234433000,120,-8,-7.967520981925952,-6.929926719116219,-7.916193834804213
1769234433004,110,-18,-16.0871134219975,-17.055456776529116,-16.042232571342147
1769234433008,105,-23,-19.75783493613794,-21.215718922723763,-19.723234088155422
1769234433012,108,-20,-18.891799650961637,-18.883636653059305,-18.863445395869135
1769234433016,113,-15,-14.78648260433932,-13.94153721466408,-14.761439079438906
1769234433020,118,-10,-9.553037449270327,-9.221657718023351,-9.531764839976375
1769234433024,122,-6,-5.101776100482586,-4.805384968349137,-5.082980907484921
1769234433028,124,-4,-2.376599955021172,-2.5326436009710696,-2.3541838723436825
1769234433032,125,-3,-1.2626140202478062,-1.6764431532588444,-1.2296426988255802
1769234433036,126,-2,-1.0589594787547525,-1.1207155427327309,-1.013864533616593
1769234433040,126,-2,-1.082036225943439,-1.0862741166447851,-1.030142963756731
1769234433044,126,-2,-1.011538461734613,-0.8997951006497018,-0.9606888516850752
1769234433048,126,-2,-0.8725117292447272,-0.5492732403215821,-0.8271893736999654
1769234433052,126,-2,-0.8098203800482577,-0.6780414824178811,-0.7686236549081789
1769234433056,126,-2,-0.8895522899787074,-1.1895359625543382,-0.8473308474125751
1769234433060,126,-2,-1.05426961200147,-0.9729615802422976,-1.0065058479734093
1769234433064,126,-2,-1.1974861618734485,-1.0601264450066323,-1.1431728625911228
1769234433068,125,-3,-1.2482348920958275,-1.44309521145063,-1.189329164454952
1769234433072,126,-2,-1.195788637433756,-0.8307525137636194,-1.1345818512019434
1769234433076,126,-2,-1.0601518538360972,-1.099107193590074,-0.9973697840737432
1769234433080,126,-2,-0.85356876054055,-1.0150924637533334,-0.7885679942495236
1769234433084,127,-1,-0.5695438662000197,-0.0850339672993842,-0.5015748624571419
1769234433088,126,-2,-0.2047279075208327,-0.4369832177736084,-0.1335179332566645
1769234433092,127,-1,0.2085961817444755,0.0609833014428242,0.2832296612317106
1769234433096,128,0,0.5950545241950012,1.0147485809527648,0.6735204050575159
1769234433100,128,0,0.8743784996943373,0.8504292450777846,0.95702428484945
1769234433104,128,0,1.0205805296946813,1.033893507172052,1.1072872252961232
1769234433108,128,0,1.0864868272205452,1.3964107977738536,1.1767625043966832
1769234433112,128,0,1.1627329357507976,1.1306650483269665,1.256339706780072
1769234433116,128,0,1.3006485952683615,0.9544773058934806,1.3980238980412711
1769234433120,129,1,1.4701116428801253,1.8819697970742757,1.5719384373152832
1769234433124,129,1,1.5997395542228408,2.0068869492555605,1.7062448580796628
1769234433128,128,0,1.6638602771208195,1.349080565761024,1.7747914612211382
1769234433132,129,1,1.725534064496012,2.10835073206693,1.840663214572669
1769234433136,129,1,1.8879236313522976,1.9658773788620412,2.0073752024434732
1769234433140,129,1,2.198750649398365,1.828905221301416,2.322884664814197
1769234433144,130,2,2.5982208561636075,3.1100139548396237,2.7271909876849234
1769234433148,130,2,2.962779196648787,3.1132220985317707,3.096274582842834
1769234433152,130,2,3.2075139930393415,3.3373035454727735,3.345238986856764
1769234433156,131,3,3.349895573971656,3.6638883896880934,3.492345160966855
1769234433160,130,2,3.4745492631828987,3.1398592506655296,3.622842496329299
1769234433164,131,3,3.640002328802922,3.7951103513346434,3.7945675820636966
1769234433168,131,3,3.823441950417462,4.343428967690571,3.983216880718712
1769234433172,131,3,3.948085927923019,4.077142225794725,4.111686709170177
1769234433176,131,3,3.947001329148061,3.851727435515985,4.114592652378483
1769234433180,131,3,3.798820894339315,3.982171658368359,3.972101580699447
1769234433184,131,3,3.5266268563966587,3.903811356054904,3.706836597190297
1769234433188,130,2,3.1856764231804795,3.1912499956600624,3.3722275623539253
1769234433192,130,2,2.845900157874344,3.1757941495418063,3.0373052687485314
1769234433196,130,2,2.560774148967306,2.6928787782713623,2.7565911609207654
1769234433200,129,1,2.3375808617911753,2.164259160078804,2.538951005976621
1769234433204,130,2,2.1449944877696523,2.6768975939778556,2.3531829215974973
1769234433208,129,1,1.9656430937677312,2.371019175568426,2.1805570944523853
1769234433212,129,1,1.8407561486736077,1.9539553871461368,2.061343427532797
1769234433216,129,1,1.842420979351855,1.8265229564187155,2.06815592968377
1769234433220,129,1,1.9868093221865577,2.09930213235441,2.218136430416733
1769234433224,130,2,2.182819925504677,2.617628594559432,2.42023441478028
1769234433228,129,1,2.284601003134222,2.496493905319923,2.527956035994413
1769234433232,130,2,2.2064863404677046,2.6549359631889877,2.4555080145601673
1769234433236,129,1,1.991333713506647,2.1771098508028635,2.2465020860489533
1769234433240,129,1,1.7693752357791914,1.666604705064492,2.0317737345412805
1769234433244,129,1,1.6509384226280048,2.0591532624496605,1.921012972348292
1769234433248,129,1,1.6517747014581172,2.0197190718092632,1.9285534117990373
1769234433252,129,1,1.7028590906520555,2.028414856960773,1.9847938513060832
1769234433256,129,1,1.7114360176420065,1.8371401506026397,1.9979315570527023
1769234433260,129,1,1.6126376392400912,1.8898590234250343,1.9045413852849664
1769234433264,129,1,1.3868247987506104,1.913470608514234,1.6856389081108638
1769234433268,128,0,1.0524545370784208,1.0255447067555823,1.3592663117632091
1769234433272,128,0,0.6498476379315605,1.0418695780846328,0.9646443288594352
1769234433276,128,0,0.2254344863942616,0.7354106767770034,0.5470941888609158
1769234433280,127,-1,-0.1834784641135263,-0.0204315431480293,0.1437236603091309
1769234433284,127,-1,-0.5701359807588773,-0.1753518833549132,-0.2377099970642022
1769234433288,126,-2,-0.9768927860490432,-0.976926547267822,-0.6384455296581606
1769234433292,126,-2,-1.479287828201628,-0.9587498383012716,-1.1340266635524756
1769234433296,126,-2,-2.124880121503655,-1.357160824688834,-1.7727350988391084
1769234433300,124,-4,-2.8752124635352576,-2.9115521499729224,-2.516218127079547
1769234433304,124,-4,-3.614484417970547,-3.331180361204356,-3.2482041814828717
1769234433308,123,-5,-4.220742677377238,-3.862394326217699,-3.847009548901243
1769234433312,123,-5,-4.62898744764294,-4.122640582327704,-4.248691092911641
1769234433316,123,-5,-4.838816112562775,-4.25396508927656,-4.453041504444097
1769234433320,122,-6,-4.8870274520480335,-4.989937922016802,-4.495580690078536
1769234433324,123,-5,-4.820693040898993,-4.349008096127592,-4.422265512845725
1769234433328,123,-5,-4.675475353665819,-3.813659585342214,-4.269190380571332
1769234433332,123,-5,-4.4618011287664405,-4.313793234577693,-4.047966667094057
1769234433336,123,-5,-4.180465059602652,-4.025170637683026,-3.7600434889515286
1769234433340,124,-4,-3.863916073008784,-3.2870291917465044,-3.437938106690446
1769234433344,124,-4,-3.594335905298601,-3.074385422421358,-3.163470900728444
1769234433348,124,-4,-3.46516947188525,-3.117122889268808,-3.0289533061349516
1769234433352,124,-4,-3.5130763765463704,-3.1034765393753116,-3.0696375416201573
1769234433356,124,-4,-3.672314273737156,-3.2283701626023555,-3.219702490648949
1769234433360,124,-4,-3.783479824092193,-3.1592520860711257,-3.3215835751267786
1769234433364,124,-4,-3.6645902396250096,-3.1810770758731652,-3.1954549630124456
1769234433368,124,-4,-3.2254952916750828,-3.108239195205419,-2.7516578447430726
1769234433372,125,-3,-2.561406086238285,-2.1132561651389254,-2.084029796652583
1769234433376,126,-2,-1.9398799138475953,-1.3095665196459942,-1.4582048661588818
1769234433380,126,-2,-1.6567960586175232,-1.0603714993336484,-1.1688567371259555
1769234433384,126,-2,-1.8482502489274537,-1.343637706732093,-1.3522099488716894
1769234433388,125,-3,-2.3957347010359875,-1.9811231114125103,-1.8911341599638924
1769234433392,125,-3,-2.997833915670817,-2.3046689262652182,-2.485741816439249
1769234433396,124,-4,-3.361767375283865,-3.159512609676392,-2.843532227890712
1769234433400,124,-4,-3.3814235750036756,-3.2218411054279876,-2.8575049693351953
1769234433404,125,-3,-3.170378524828402,-2.215214625622049,-2.6406924676563217
1769234433408,125,-3,-2.9256331106617774,-2.154051932650129,-2.390470142669822
1769234433412,125,-3,-2.7472857112517732,-2.2015621591322145,-2.207034094372355
1769234433416,125,-3,-2.5845265179035586,-2.290725808212043,-2.0386505040099037
1769234433420,125,-3,-2.3479633909329376,-2.142715890378484,-1.795152209075994
1769234433424,126,-2,-2.0539854547942893,-1.2904104338148914,-1.4936734961383151
1769234433428,126,-2,-1.8421849938176145,-1.1585888825383144,-1.275517194289016
1769234433432,126,-2,-1.8511738203934365,-1.2148885638363538,-1.280031737720626
1769234433436,126,-2,-2.085275373576261,-1.3647096473697435,-1.510247599589352
1769234433440,125,-3,-2.405050017380365,-2.0619816885759974,-1.8245220051126536
1769234433444,125,-3,-2.6431672185097668,-2.4435975037483715,-2.054841597589473
1769234433448,125,-3,-2.723352692731174,-2.0051576075463,-2.126946648512754
1769234433452,126,-2,-2.6712995077891355,-1.4509394500022648,-2.06924777985747
1769234433456,125,-3,-2.5388801530463,-2.153047914697761,-1.9337960400634635
1769234433460,125,-3,-2.3542132314020874,-2.3146571758004986,-1.7461380510956723
1769234433464,126,-2,-2.145200749278672,-1.242689760978828,-1.5320479139223138
1769234433468,126,-2,-1.9689107041608105,-1.2164066938510592,-1.3490619419278134
1769234433472,126,-2,-1.882663684994876,-1.3373225856430226,-1.2562725785776905
1769234433476,126,-2,-1.8885693145194096,-1.2366357505287833,-1.2567478231037803
1769234433480,126,-2,-1.9221453452534552,-1.358180630288027,-1.285785584695211
1769234433484,126,-2,-1.9030882717117608,-1.1574145900969293,-1.2624287321801986
1769234433488,126,-2,-1.804403619733411,-1.4115163719410169,-1.159207087732018
1769234433492,126,-2,-1.679916140432501,-1.1348672368910129,-1.0299990890576718
1769234433496,127,-1,-1.6214184080263638,-0.5058231438030685,-0.9670431822113494
1769234433500,126,-2,-1.6787402396216131,-1.1292987177350922,-1.0202520167042617
1769234433504,126,-2,-1.8175537988849928,-1.4213173540712216,-1.1547284035289702
1769234433508,126,-2,-1.9540910992780225,-1.2040902830863425,-1.2863452826307935
1769234433512,126,-2,-2.025704630929249,-1.368253568402651,-1.3530069073598034
1769234433516,126,-2,-2.028568457907988,-1.3339187960710812,-1.3517108059473966
1769234433520,126,-2,-2.001073419755505,-1.3114315041923723,-1.3209268563800087
1769234433524,126,-2,-1.9834001264138128,-1.3224362837864332,-1.3001618642253396
1769234433528,126,-2,-1.9905341427362335,-1.3066410774940096,-1.3037753131090934
1769234433532,126,-2,-2.012292747302043,-1.3512374642730347,-1.3215484510998174
1769234433536,126,-2,-2.0308436352422277,-1.3542245595491196,-1.336057335357141
1769234433540,126,-2,-2.03766864979569,-1.3587037954335432,-1.339185227125089
1769234433544,126,-2,-2.037742085171784,-1.3042347456259384,-1.3360305607863996
1769234433548,126,-2,-2.04145912472052,-1.374576874390495,-1.3368793564349457
1769234433552,126,-2,-2.054014206407867,-1.3392366602962626,-1.3467662647830612
1769234433556,126,-2,-2.070995918108854,-1.3773238737657405,-1.361152060942976
1769234433560,126,-2,-2.0811993583874164,-1.4222545276212857,-1.3686691029533873
1769234433564,126,-2,-2.071591891966147,-1.2290599238263582,-1.356115828255147
1769234433568,126,-2,-2.0286136748175623,-1.5545679112425512,-1.3100663988428207
1769234433572,126,-2,-1.9330019331269128,-1.1571196935913943,-1.211833161561792
1769234433576,127,-1,-1.7539285405889442,-0.6233774109225612,-1.0309813552503049
1769234433580,126,-2,-1.4580190190898807,-1.2205705134217817,-0.7336656855579117
1769234433584,127,-1,-1.0365664203526703,-0.4497440183316414,-0.310416989939995
1769234433588,128,0,-0.5209028710913466,0.5767619961829509,0.207362422798756
1769234433592,128,0,0.0427957279341255,0.7143627572446416,0.7728812239063783
1769234433596,129,1,0.633272785042079,1.4180692818981733,1.3649426259037
1769234433600,129,1,1.254242484472702,1.744531394162859,1.9878237655477895
1769234433604,130,2,1.8912747301032993,2.487302597259558,2.626739640743152
1769234433608,131,3,2.479339823741563,3.62912635894414,3.2153979685491425
1769234433612,131,3,2.91583928221453,3.602219102616348,3.650997524650816
1769234433616,131,3,3.096736947385246,3.486089209683642,3.831208665613024
1769234433620,131,3,2.9481028990036373,3.660911871959564,3.683644519093008
1769234433624,131,3,2.4612781844767153,3.4661786536816015,3.1989225973178597
1769234433628,130,2,1.729811058264963,2.6599694387361046,2.4687161458104865
1769234433632,129,1,0.9367030287634271,1.4855674891609076,1.6756081995049028
1769234433636,128,0,0.2580224833687822,0.5981432878267925,0.9967996058553756
1769234433640,128,0,-0.2513735465831475,0.4818254495144263,0.4875428744687841
1769234433644,128,0,-0.6777377535496101,0.5945325054929493,0.0604759226912037
1769234433648,127,-1,-1.1543931696428018,-0.4904402413842514,-0.4183816357930336
1769234433652,126,-2,-1.754380060008482,-1.436992891471477,-1.0208865484981082
1769234433656,126,-2,-2.463252870311086,-1.4818539561605824,-1.7309046757775324
1769234433660,125,-3,-3.2193530256944176,-2.5436155388216353,-2.4865254087195363
1769234433664,124,-4,-3.952168725633415,-3.383194602455844,-3.218546987012592
1769234433668,124,-4,-4.587018761015685,-3.574850991671612,-3.853875571881431
1769234433672,123,-5,-5.039940102518644,-4.383920164139331,-4.3091509610709755
1769234433676,123,-5,-5.2388054052106305,-4.579027774039807,-4.511438308938852
1769234433680,123,-5,-5.172220685943944,-4.516752426417932,-4.447924310527037
1769234433684,123,-5,-4.920146835316361,-4.432926614083774,-4.198023114928928
1769234433688,124,-4,-4.615793383145497,-3.5927193853513004,-3.895745418695283
1769234433692,124,-4,-4.352633727270242,-3.3635048617712044,-3.635321751880723
1769234433696,124,-4,-4.122713066143246,-3.704319394723928,-3.4080437459674138
1769234433700,124,-4,-3.856314549811396,-3.394746679707402,-3.142764058229332
1769234433704,125,-3,-3.528059698209004,-2.653691620189117,-2.8143764140288385
1769234433708,125,-3,-3.2222079416809755,-2.370272143536493,-2.5099588232557624
1769234433712,125,-3,-3.092595092999342,-2.635415475723093,-2.3868294134361174
1769234433716,125,-3,-3.242543530054815,-2.4905383561418892,-2.5493107929765637
1769234433720,125,-3,-3.5894412591037126,-2.6525442449708314,-2.9108706161243147
1769234433724,124,-4,-3.767040191685707,-3.4773676733516177,-3.096997539455866
1769234433728,125,-3,-3.0994944344527706,-2.5466745385749707,-2.424630586641866
1769234433732,128,0,-0.6783113029579595,0.4895082415346312,0.0134433437333107
1769234433736,133,5,4.401433955199788,5.352139113750367,5.11022393661405
1769234433740,141,13,12.582120519986193,13.443794150984814,13.2928770662841
1769234433744,151,23,23.22594267542491,23.392600424018593,23.916783590127977
1769234433748,161,33,34.178092796519216,33.52186137518932,34.83430367224104
1769234433752,170,42,42.03024930783595,42.41311707644011,42.65288082750828
1769234433756,173,45,43.35243430055998,45.30840032004791,43.95642729579709
1769234433760,166,38,36.45921789868534,38.45395524273178,37.06503174375807
1769234433764,151,23,22.64433813446073,23.2449708650798,23.269031030401287
1769234433768,133,5,5.930235351296979,5.65595975659434,6.580300123912554
1769234433772,119,-9,-8.686997359275457,-8.778822190100906,-8.019610012044659
1769234433776,110,-18,-17.484606691245794,-17.473838338685006,-16.820036365645905
1769234433780,109,-19,-19.443159128200733,-18.73655183275062,-18.803738138620528
1769234433784,113,-15,-16.16308478560149,-14.62191134674839,-15.561053844989022
1769234433788,118,-10,-10.56035096882364,-9.482115480495285,-9.99121126626463
1769234433792,123,-5,-5.285767477131754,-4.826100233790646,-4.731829837722768
1769234433796,126,-2,-1.7565657283090683,-1.3930223352327875,-1.1983395692044223
1769234433800,128,0,-0.1009382316476461,0.0214371472361094,0.4712625386289679
1769234433804,128,0,0.291291725452742,0.6780539151769829,0.87299753419666
1769234433808,129,1,0.1418055004811229,1.1017962450728571,0.7194109757112888
1769234433812,128,0,-0.0719148263449778,0.5587769115556223,0.4888770471064279
1769234433816,128,0,-0.1705684634217145,0.1834883339779225,0.3692262185318631
1769234433820,128,0,-0.1719475206219037,0.373386439577017,0.3515716395686351
1769234433824,128,0,-0.1644653141013969,0.3436737620804579,0.3506672723849301
1769234433828,128,0,-0.2059032745144746,0.3241190316226978,0.3054605563243162
1769234433832,128,0,-0.2675854888053206,0.3315992654142464,0.2389364560839303
1769234433836,128,0,-0.2482837146454477,0.3117501020773914,0.2490260069587486
1769234433840,128,0,-0.0603171352544582,0.2312045617859068,0.424444127415583
1769234433844,128,0,0.2687237668893369,0.444339753538608,0.7409364312309459
1769234433848,129,1,0.5759252272415452,1.1570513228853283,1.0375487419567704
1769234433852,129,1,0.6733050914727843,1.4697753869680137,1.1254009962674305
1769234433856,129,1,0.510239428860717,1.080495566445028,0.9520616976740428
1769234433860,128,0,0.2328149040033451,0.4577670890729495,0.6633932308999408
1769234433864,128,0,0.068394685181788,0.1412671108429772,0.4879546314518211
1769234433868,128,0,0.1404960284222028,0.4331943354467331,0.5497095201344366
1769234433872,129,1,0.3942612485284166,1.1256069616891673,0.7926417617747321
1769234433876,129,1,0.6941451928843458,1.3876402214544157,1.0801150323024242
1769234433880,129,1,0.9742395444664456,1.1005822586074818,1.3468560879191207
1769234433884,129,1,1.2816577107627294,1.4486289110898314,1.6415394772744851
1769234433888,130,2,1.6866555298256891,2.0704824763786465,2.034893462654988
1769234433892,130,2,2.1733956788338333,2.4270199216174513,2.5100620244268317
1769234433896,131,3,2.6259296444022313,3.0658149183615673,2.9500326601501365
1769234433900,131,3,2.9152082650117364,3.3501998326844147,3.225783938784652
1769234433904,131,3,3.0011438135969373,3.1807846091358822,3.297963747791386
1769234433908,131,3,2.962891438375496,3.2275656367212116,3.2462283329685917
1769234433912,131,3,2.93948170584596,3.276161132071781,3.2096889722471547
1769234433916,131,3,3.0336404975439257,3.114029665451776,3.2910650760845037
1769234433920,131,3,3.254604554292933,3.3290289376331152,3.499293714328892
1769234433924,132,4,3.5424958777980047,4.082816228318128,3.773560136562958
1769234433928,132,4,3.844974839858776,4.320815648356068,4.060815319663061
1769234433932,132,4,4.1601237689924355,4.078995978667562,4.359960263666295
1769234433936,132,4,4.49243824908965,4.316793340914733,4.677209355320882
1769234433940,133,5,4.778909318882951,5.036089986943199,4.949948891516861
1769234433944,133,5,4.8938202568277145,5.368682634803936,5.050948315617051
1769234433948,133,5,4.749856157721473,4.928583811282973,4.891580762949717
1769234433952,132,4,4.388812783974593,4.465726630369473,4.514360018751367
1769234433956,132,4,3.959440338644927,3.839984669457554,4.069741369543819
1769234433960,131,3,3.605904775206634,3.495000323660482,3.7021457122376744
1769234433964,132,4,3.3814501945278943,3.8486227843189225,3.463148591759801
1769234433968,131,3,3.257518431289098,3.392703744396561,3.322726684711751
1769234433972,131,3,3.1879812670704872,2.9708384762102966,3.235328038394333
1769234433976,131,3,3.148353599263512,3.2443342264844452,3.178292294443788
1769234433980,131,3,3.128501457810202,3.091881145303841,3.1424434608062106
1769234433984,131,3,3.1172606446891313,3.1313904365516145,3.11594411001938
1769234433988,131,3,3.1088558729380855,3.151948045165429,3.0917626422596234
1769234433992,131,3,3.1183049584964957,3.055233011899276,3.084404103581944
1769234433996,131,3,3.176179611559488,3.2109276062541374,3.124954946923918
1769234434000,131,3,3.2963027084393772,2.9726605159276267,3.2279024618995247
1769234434004,131,3,3.4459381312245765,3.286436648093738,3.360354666325738
1769234434008,132,4,3.554384369570651,3.886611771924511,3.450944722217242
1769234434012,131,3,3.556036418590238,3.310111807537172,3.434159406956414
1769234434016,131,3,3.425335071076979,2.874716574989185,3.2854291808260276
1769234434020,131,3,3.180051557763635,3.260420185653378,3.023008311824632
1769234434024,131,3,2.8717737172636983,2.9576458033775763,2.6978390283521767
1769234434028,130,2,2.575874546673803,2.145189910741878,2.384618337095652
1769234434032,130,2,2.363585972677557,2.042809477338595,2.154553928040877
1769234434036,130,2,2.2571744856875733,2.033621865112512,2.02980435718236
1769234434040,130,2,2.2066595161217606,2.0902443327510105,1.959958086030493
1769234434044,130,2,2.1103335675574595,2.0432012059971547,1.843598282036193
1769234434048,129,1,1.8565774744643615,1.0478069237314585,1.5703240934422498
1769234434052,129,1,1.363997726856944,1.0522742269955994,1.0593542636219822
1769234434056,129,1,0.6226379687048988,0.9996264478375176,0.2999798172346624
1769234434060,127,-1,-0.2779568940628845,-0.9779953706012464,-0.6189491841239914
1769234434064,126,-2,-1.1775767173244347,-1.8855991297150645,-1.5368712815167944
1769234434068,126,-2,-1.9322502793097136,-2.1057072737470532,-2.3096578179654816
1769234434072,125,-3,-2.4876638203767034,-2.8319306945722813,-2.884033573298818
1769234434076,125,-3,-2.880925806813182,-3.1737911569260957,-3.298066564980009
1769234434080,124,-4,-3.1927116869809273,-3.868471387410791,-3.63176592750117
1769234434084,124,-4,-3.501206635121023,-4.026525744923994,-3.9614976068818946
1769234434088,124,-4,-3.8514278876684447,-4.039240705512086,-4.330943941251422
1769234434092,123,-5,-4.229823143999307,-4.927335634165946,-4.726701892857285
1769234434096,123,-5,-4.551756905509351,-5.165164997970405,-5.065760290146182
1769234434100,123,-5,-4.683450908202184,-4.897858281992942,-5.216435234727046
1769234434104,123,-5,-4.507726139603155,-5.075648346025323,-5.062265192439303
1769234434108,123,-5,-4.014324525587913,-5.023050585173433,-4.591417534208285
1769234434112,124,-4,-3.355249349691739,-3.9992437626111426,-3.953689821531929
1769234434116,125,-3,-2.791893597320128,-3.1600252957367876,-3.4100691546696074
1769234434120,125,-3,-2.5353915851828743,-2.9468040481020745,-3.173031672332109
1769234434124,125,-3,-2.602388709282248,-3.081411617703285,-3.2600922329260547
1769234434128,124,-4,-2.8252049974739695,-4.080517643555046,-3.503045856744869
1769234434132,124,-4,-3.0116321204827705,-3.986389009425558,-3.709291259318765
1769234434136,125,-3,-3.095928300930891,-3.2441604269177873,-3.813882049274747
1769234434140,124,-4,-3.1425535063423453,-3.892510507805606,-3.8818838996460423
1769234434144,124,-4,-3.2291809645872616,-4.190800474974032,-3.990037915250437
1769234434148,124,-4,-3.3435884335136192,-4.028024977172743,-4.124847779837277
1769234434152,124,-4,-3.382907960665861,-4.105576160346367,-4.183681229903259
1769234434156,124,-4,-3.2402020192316776,-4.188095190838764,-4.061010186696726
1769234434160,124,-4,-2.9053524784917197,-3.9704417916253263,-3.747545216528404
1769234434164,125,-3,-2.5027240496247187,-3.1810007127854547,-3.367144209760965
1769234434168,125,-3,-2.227761833391796,-3.077232167293469,-3.114101636510699
1769234434172,125,-3,-2.220229253371034,-3.1447815044444907,-3.1274028398329614
1769234434176,125,-3,-2.468845841895621,-3.1942319618185406,-3.3958626054034644
1769234434180,124,-4,-2.8226773223615584,-4.0076214045401075,-3.769340318226348
1769234434184,124,-4,-3.100502661334709,-4.203856607713327,-4.067519291107963
1769234434188,124,-4,-3.211208801414997,-4.088544577201115,-4.199682232250663
