timestamp_ms,ecg_u8_raw,ecg_counts_raw_int,ecg_counts_filt_monitor,ecg_counts_filt_diagnostic,ecg_counts_filt_st
1770454385580,128,0,0.532373701835954,2.596175086010322,2.4819914235863845
1770454385584,128,0,0.8188450328807848,2.8350299701561585,2.7670180965568427
1770454385588,128,0,0.9407811233633566,2.7469174225392345,2.8883940277231313
1770454385592,128,0,0.935480290710912,2.7499315138656826,2.882940668743068
1770454385596,128,0,0.8195016606655263,2.9468761923927875,2.766206880133397
1770454385600,128,0,0.5689060740700074,2.5968829046901583,2.5137816234975454
1770454385604,127,-1,0.1478486953904655,1.8654435800398848,2.0905341222942813
1770454385608,127,-1,-0.448099137212627,1.6734838116993724,1.493188668734833
1770454385612,126,-2,-1.1662135285359814,0.8116685032282378,0.774815947041235
1770454385616,125,-3,-1.9013645118298863,-0.1232616066031933,0.0398230661945326
1770454385620,125,-3,-2.5304070934602825,-0.3808789844506703,-0.5896024654662684
1770454385624,124,-4,-2.962458184719517,-1.140243642955208,-1.0228644726642102
1770454385628,124,-4,-3.178545783600155,-1.3744504969871492,-1.240514160395835
1770454385632,124,-4,-3.233764181047716,-1.118804787544604,-1.297042477457505
1770454385636,124,-4,-3.2163801604852424,-1.2462639910862991,-1.2805043913261596
1770454385640,124,-4,-3.192779266100463,-1.2633986621144433,-1.257424842659578
1770454385644,124,-4,-3.181466869335961,-1.2798996516877543,-1.2465949117745645
1770454385648,124,-4,-3.171549938698159,-1.267326335900084,-1.2374373207573202
1770454385652,124,-4,-3.159081179779041,-1.2185696810926836,-1.2261056983500631
1770454385656,124,-4,-3.162630468111459,-1.1991269978334866,-1.230798962069585
1770454385660,124,-4,-3.203563159343225,-1.29664864675019,-1.2722819247780564
1770454385664,124,-4,-3.269004930375329,-1.3104077638198257,-1.337522174801567
1770454385668,124,-4,-3.2922760271882567,-1.207039469836551,-1.360386950300492
1770454385672,124,-4,-3.1787182184171705,-1.353265777088811,-1.2469222028818812
1770454385676,124,-4,-2.873551759707889,-1.026308438211231,-0.9425837111467784
1770454385680,125,-3,-2.4262356782015946,-0.5453865077167783,-0.4966347128928861
1770454385684,125,-3,-1.991439018155633,-0.0441216519847873,-0.0634464242443193
1770454385688,126,-2,-1.7499883226255686,0.4881508315751395,0.176583127966857
1770454385692,125,-3,-1.803112460959061,-0.0717486241373019,0.1228363662316502
1770454385696,125,-3,-2.117834581841277,-0.3109382871333619,-0.1914182903966723
1770454385700,125,-3,-2.5553533356760196,-0.3245415072569866,-0.6278763643365581
1770454385704,124,-4,-2.952141474294228,-1.2376771496293495,-1.0238943119754875
1770454385708,124,-4,-3.200108156878042,-1.3889458711438276,-1.2719372804089388
1770454385712,124,-4,-3.2836660731572858,-1.1529274998007704,-1.3564983113879754
1770454385716,124,-4,-3.2600186805210023,-1.3115841902870726,-1.3344889325741491
1770454385720,124,-4,-3.206965136762564,-1.3051726372227224,-1.283019602070165
1770454385724,124,-4,-3.1806932657856195,-1.309010667192969,-1.2575162810624083
1770454385728,124,-4,-3.201886077982172,-1.3234597429841348,-1.2785148616242663
1770454385732,124,-4,-3.25521111002143,-1.2438133537413008,-1.3312612205183718
1770454385736,124,-4,-3.28883687570688,-1.2382919480853072,-1.3644469447794711
1770454385740,124,-4,-3.2249348497476595,-1.4217815555321396,-1.3001527419790555
1770454385744,124,-4,-2.9935956257967336,-1.1847833494577775,-1.0683418649154894
1770454385748,125,-3,-2.5742375675753317,-0.5115637857953033,-0.6490457933619576
1770454385752,125,-3,-2.013490299441457,-0.0234282903695046,-0.0897140124820929
1770454385756,126,-2,-1.4101949317787608,0.4656632924429107,0.5111424979162602
1770454385760,126,-2,-0.8814444816198148,0.8930809770320309,1.0380716003080714
1770454385764,127,-1,-0.5181005697661882,1.4365916888729344,1.401649932177261
1770454385768,127,-1,-0.3327646315218433,1.8636150734339971,1.5891086478479628
1770454385772,127,-1,-0.2273473331952009,1.5834055303694994,1.696923301366854
1770454385776,127,-1,-0.0253538099518779,1.815719556993896,1.8998261811662291
1770454385780,128,0,0.4222134246822664,2.5483749616707927,2.3461918249431464
1770454385784,128,0,1.116430097635837,2.7154162962751003,3.037996098711485
1770454385788,129,1,1.8685575806834749,3.596723689599648,3.7880181066649983
1770454385792,130,2,2.391532864552787,4.818720723108626,4.3100660602751955
1770454385796,130,2,2.4794568049590255,4.546931765252893,4.3982958408945585
1770454385800,129,1,2.1399148835155777,3.806068274102126,4.060076417347878
1770454385804,129,1,1.5679791588223888,3.3947003657708716,3.489877511483982
1770454385808,128,0,0.987912498396536,2.923851458486205,2.9107232356639203
1770454385812,128,0,0.4981183898839361,2.455697061825241,2.4200631890909268
1770454385816,127,-1,0.0323728573966561,1.9041878320976664,1.9521890504285375
1770454385820,127,-1,-0.5541388132526359,1.4214713631089024,1.3638624579871306
1770454385824,126,-2,-1.34953939905204,0.7164094255310254,0.5680052824629247
1770454385828,125,-3,-2.2981818137798147,-0.3762650458893111,-0.379957599968844
1770454385832,124,-4,-3.2227697895982095,-1.33326574599094,-1.303530543303928
1770454385836,123,-5,-3.938285043330998,-2.2304654513950912,-2.0183214860477787
1770454385840,123,-5,-4.3662520917764915,-2.58208761997917,-2.446313183447302
1770454385844,123,-5,-4.556295002525861,-2.2069809635365045,-2.637348462529165
1770454385848,123,-5,-4.609954545818552,-2.570615135725521,-2.6923648212321947
1770454385852,122,-6,-4.594484372991456,-3.089125426521991,-2.67742445829084
1770454385856,123,-5,-4.526381145086345,-2.534736242423202,-2.6088057759587806
1770454385860,123,-5,-4.413578059438668,-2.308276598269273,-2.4958789889439266
1770454385864,123,-5,-4.29179401591663,-2.4976327786846944,-2.3756961543533137
1770454385868,123,-5,-4.2200283112273835,-2.3312957060688517,-2.3064232423982025
1770454385872,123,-5,-4.244471289721289,-2.310168691310665,-2.3317139676296073
1770454385876,123,-5,-4.354385645202061,-2.3830756992548467,-2.439145030009909
1770454385880,123,-5,-4.460320552995269,-2.456250187147404,-2.540366287153062
1770454385884,123,-5,-4.429928276778613,-2.414472518565557,-2.506534137772568
1770454385888,123,-5,-4.187378206729987,-2.412946597862883,-2.2655272649768055
1770454385892,123,-5,-3.8126226080112544,-2.2580533796523614,-1.8987478781862936
1770454385896,124,-4,-3.5238665813498,-1.4693002798080546,-1.6219579101291033
1770454385900,124,-4,-3.470842147038583,-1.384137939132967,-1.5784970898470572
1770454385904,124,-4,-3.4148953308187067,-1.5543480196854036,-1.5220559834847518
1770454385908,125,-3,-2.5156493568380376,-0.2548229163479032,-0.608814122279794
1770454385912,128,0,0.5452897917915518,2.520569432944841,2.474060786704337
1770454385916,134,6,7.024614126211816,8.764595839809807,8.969858377477156
1770454385920,145,17,17.324279289082842,19.34157755855688,19.26788120974636
1770454385924,157,29,30.32452249934484,31.710898745107016,32.24664303176479
1770454385928,170,42,43.29287901396991,44.448336379565944,45.18536086415849
1770454385932,180,52,52.64565545422619,54.77814108371538,54.51703774689805
1770454385936,184,56,55.40014604038387,58.44543973821383,57.26904180197424
1770454385940,179,51,50.626494129443905,53.58401662768085,52.51021561199967
1770454385944,167,39,39.99784608267311,41.44379926247723,41.90457987688273
1770454385948,153,25,26.985533091462187,27.629296876915287,28.91230511036533
1770454385952,142,14,15.145411360107891,16.66332859849975,17.08028329455862
1770454385956,134,6,6.5715216515978545,8.493566376806163,8.499175877525069
1770454385960,129,1,1.4097949181648075,3.6412067075124,3.3191393530244464
1770454385964,127,-1,-1.484914210472433,1.2858840567984615,0.4048795581618756
1770454385968,124,-4,-3.415781928782142,-1.2021508926404083,-1.5370117066896585
1770454385972,122,-6,-5.063028470072086,-3.6318087714228673,-3.182629029541075
1770454385976,120,-8,-6.439924904870886,-5.193531755497807,-4.548769909049016
1770454385980,120,-8,-7.345225130449195,-5.714425255371678,-5.44284276960907
1770454385984,120,-8,-7.77219690876885,-5.36019424908567,-5.866039090497318
1770454385988,120,-8,-7.944645979889035,-5.5860683916068155,-6.043854253287608
1770454385992,119,-9,-8.083564889763112,-6.344030370583724,-6.192107549407483
1770454385996,119,-9,-8.224102720108911,-6.457638566350612,-6.338908853289985
1770454386000,119,-9,-8.258245625531936,-6.541907412589822,-6.373296318644186
1770454386004,119,-9,-8.107435345527307,-6.46653145431116,-6.219433116879204
1770454386008,120,-8,-7.82213341556699,-5.593316026875203,-5.932659087094511
1770454386012,120,-8,-7.522064926311413,-5.308059443597494,-5.634953501056867
1770454386016,120,-8,-7.269609545108859,-5.615331073730353,-5.386740243440525
1770454386020,120,-8,-7.020066902167628,-5.32591742423199,-5.139948967960642
1770454386024,121,-7,-6.684917234980188,-4.777441225934673,-4.805125708225537
1770454386028,121,-7,-6.222241003915304,-4.249528216765601,-4.342443737232008
1770454386032,122,-6,-5.666073017180039,-3.7446284827808265,-3.788154310203349
1770454386036,122,-6,-5.09147993797383,-3.192953582465876,-3.217059819307696
1770454386040,123,-5,-4.566701535559383,-2.7746450210687432,-2.6952632180256577
1770454386044,123,-5,-4.125867774463979,-2.379652679784301,-2.2555849194316973
1770454386048,124,-4,-3.759235965010401,-1.626307452861091,-1.889243756341913
1770454386052,124,-4,-3.416091880211949,-1.4870543299688816,-1.5473974184187336
1770454386056,124,-4,-3.0331271803020727,-1.4003163076226604,-1.1672771642121669
1770454386060,125,-3,-2.58725505759438,-0.6930598951329019,-0.7246544030738802
1770454386064,125,-3,-2.1293039433407097,-0.3846583956200766,-0.2691866013699204
1770454386068,126,-2,-1.7502672028849953,0.2461867031226592,0.1080210288350658
1770454386072,126,-2,-1.495081954340274,0.6939632428695497,0.3612090544933903
1770454386076,126,-2,-1.3058559553005562,0.2933229988795551,0.5481071825472745
1770454386080,126,-2,-1.060641609992002,0.6419681116463567,0.7912989717687906
1770454386084,127,-1,-0.678741150838764,1.2232253952093202,1.1717109165535056
1770454386088,127,-1,-0.1927474512776771,1.6060198407817212,1.6558776278262948
1770454386092,128,0,0.2771048010628138,2.328128288337933,2.122512819295665
1770454386096,128,0,0.6115569292357327,2.564557006834176,2.4525650167233195
1770454386100,128,0,0.7563848975132293,2.397059486716321,2.5933604977763705
1770454386104,128,0,0.7177705345552654,2.367527586205891,2.5523667096504727
1770454386108,128,0,0.5262638018220482,2.4993949526566843,2.359729867565444
1770454386112,128,0,0.227291506625804,2.333072232154812,2.059394134811391
1770454386116,127,-1,-0.102687321277499,1.5797585290626133,1.7269980588159142
1770454386120,127,-1,-0.3638132212484442,1.2959372605954231,1.462697026766877
1770454386124,127,-1,-0.4822067923300294,1.4654072259410424,1.3407628296705458
1770454386128,127,-1,-0.4592571010287397,1.358949699742198,1.3598047585232471
1770454386132,127,-1,-0.3740661826831436,1.4291937759937543,1.440944915495272
1770454386136,127,-1,-0.3353738124292635,1.4792479342977414,1.4760844156051545
1770454386140,127,-1,-0.4121973841358456,1.3013150459580043,1.3964460086257575
1770454386144,127,-1,-0.580336501474448,1.48111522247573,1.2257296597682323
1770454386148,127,-1,-0.7216680750782754,1.2538498442349642,1.0817037796327391
1770454386152,126,-2,-0.6931339697717286,0.5501243388643846,1.1076698606108266
1770454386156,127,-1,-0.4249851929539139,1.2832835745525757,1.3731764985859662
1770454386160,128,0,0.0352232195316083,2.477513926430996,1.8295516294731096
1770454386164,128,0,0.5677973945201218,2.260398621352602,2.3567065855245737
1770454386168,128,0,1.0543509375831994,2.4369095946798427,2.837790597114606
1770454386172,129,1,1.408924755499948,3.352920740714332,3.188648627768294
1770454386176,129,1,1.5757089177557704,3.3928693578351066,3.353285779758723
1770454386180,129,1,1.5374800282622134,3.374831978756333,3.31273224426673
1770454386184,129,1,1.329131814172557,3.2850561256730435,3.100794309977569
1770454386188,128,0,1.0166204806457964,2.420246435424786,2.783826186221997
1770454386192,128,0,0.6433643514289404,2.291023788074889,2.4059391662216507
1770454386196,128,0,0.1984473618678519,2.4403547749347414,1.9563023586640813
1770454386200,127,-1,-0.3574694861804728,1.265701305992715,1.3956520131217365
1770454386204,126,-2,-1.0369601846887857,0.376566922327201,0.7119239633283521
1770454386208,126,-2,-1.79118736610618,0.2936973286621371,-0.0458677636840016
1770454386212,125,-3,-2.514294179593698,-0.645742417087618,-0.7724309985184781
1770454386216,124,-4,-3.082566820731248,-1.642609339386604,-1.3445752606312635
1770454386220,124,-4,-3.414945746714677,-1.7090929871536449,-1.6812727055933956
1770454386224,124,-4,-3.5183850940253993,-1.6633803302513828,-1.7895143192894354
1770454386228,124,-4,-3.4783871057153117,-1.716224569062919,-1.754980019932428
1770454386232,124,-4,-3.401355455120754,-1.6743086738491786,-1.6837898755577494
1770454386236,124,-4,-3.358678439321398,-1.663336762570614,-1.6464395744400333
1770454386240,124,-4,-3.369540121400918,-1.7271914844974212,-1.661435192515773
1770454386244,124,-4,-3.415701702062282,-1.6847783640133651,-1.7109227367562805
1770454386248,124,-4,-3.4611023354654455,-1.7199314390818006,-1.7600982395950535
1770454386252,124,-4,-3.464820393811154,-1.738295198717771,-1.768979471255454
1770454386256,124,-4,-3.3977089712357804,-1.6099012152703351,-1.7080478238017776
1770454386260,124,-4,-3.268384806224516,-1.865256200875653,-1.5846798890446032
1770454386264,124,-4,-3.1360450639451334,-1.5394029254682686,-1.4574742918575725
1770454386268,125,-3,-3.079502147950671,-0.9385625958032388,-1.4058749477923094
1770454386272,124,-4,-3.1350708808727727,-1.5401302466935336,-1.4668673930969125
1770454386276,124,-4,-3.2640962969056138,-1.8663757349106096,-1.6014210724134603
1770454386280,124,-4,-3.3874780877858335,-1.6544011780387078,-1.7297262777237377
1770454386284,124,-4,-3.449601115311999,-1.7784542076432477,-1.796375513788551
1770454386288,124,-4,-3.447764311969173,-1.7542616028285192,-1.7996484337668104
1770454386292,124,-4,-3.412443497573033,-1.7342840365919403,-1.7706031668397992
1770454386296,124,-4,-3.3744385231627803,-1.759969844561564,-1.739602778887407
1770454386300,124,-4,-3.3522817560132525,-1.768692432577646,-1.7241617520975638
1770454386304,124,-4,-3.358039545605662,-1.746362815034863,-1.7356210191907997
1770454386308,124,-4,-3.3977370433642187,-1.7785204924989229,-1.780145941734224
1770454386312,124,-4,-3.454236217155773,-1.7937534586377295,-1.8414693157835509
1770454386316,124,-4,-3.470429398296546,-1.705817147271144,-1.863310207294122
1770454386320,124,-4,-3.3643635220712045,-1.918456802574633,-1.7637746219677708
1770454386324,124,-4,-3.0820519474596315,-1.597721655331077,-1.488278613370829
1770454386328,125,-3,-2.647662692121285,-0.9877775944760016,-1.06052271556305
1770454386332,125,-3,-2.1581202818591345,-0.6190289445037616,-0.5775191836070785
1770454386336,126,-2,-1.7157867621313667,0.08787270835848,-0.1418335473224834
1770454386340,126,-2,-1.354789444980357,0.1939787819315559,0.212644034934863
1770454386344,126,-2,-1.0255618444538286,0.3039609352443988,0.5359018450486683
1770454386348,127,-1,-0.646447336683708,1.0017266181500344,0.9094504923679136
1770454386352,127,-1,-0.171596216039477,1.4289268632812453,1.378372435697213
1770454386356,128,0,0.3776375773147742,1.9168150693674464,1.920751658260149
1770454386360,128,0,0.9270480186049406,2.3830426199034243,2.4625646180735874
1770454386364,129,1,1.3862935902792657,3.0096345300330594,2.9140629389315036
1770454386368,129,1,1.6826975879395667,3.298133795694726,3.203067509848099
1770454386372,129,1,1.7776164947494195,3.0634650915509356,3.2911513041580553
1770454386376,129,1,1.665466168108105,3.250020864060706,3.172583719782495
1770454386380,129,1,1.3683954516138082,2.9897593743787545,2.8690779217026527
1770454386384,128,0,0.9343974100734802,2.356366634961553,2.428303680670553
1770454386388,128,0,0.4293318007742546,1.9142868248106453,1.9161770449645368
1770454386392,127,-1,-0.0864090217151712,1.4011433515236038,1.3932497034488656
1770454386396,127,-1,-0.5858197420949902,0.8722348403214508,0.8863997666545793
1770454386400,126,-2,-1.085865025317573,0.2995234066863124,0.3783640420840166
1770454386404,126,-2,-1.6306028924836695,0.0241605793996102,-0.1748201246091758
1770454386408,125,-3,-2.2582815268554404,-0.829800424082026,-0.810657051616475
1770454386412,124,-4,-2.973058136300555,-1.8549272669869616,-1.532595733955977
1770454386416,124,-4,-3.7311173899326855,-1.9722345352288624,-2.2970749892325153
1770454386420,123,-5,-4.442100544761718,-2.856943004457762,-3.014726384975886
1770454386424,122,-6,-4.995152356043329,-3.917915631172875,-3.575300202887508
1770454386428,122,-6,-5.31323372667013,-3.881600880102639,-3.90160701696304
1770454386432,122,-6,-5.403373514458464,-3.8834601689333255,-4.000330468045613
1770454386436,122,-6,-5.356527885674596,-3.975834534956209,-3.962177415577348
1770454386440,122,-6,-5.291805504811408,-3.9088168787182274,-3.9060096113698126
1770454386444,122,-6,-5.2861234494390015,-3.920428942599869,-3.908673248260884
1770454386448,122,-6,-5.333773606771077,-3.9206505870208943,-3.96460627574936
1770454386452,122,-6,-5.356539824536331,-3.8899056363240807,-3.995305703366229
1770454386456,122,-6,-5.260122163234346,-4.031091291012126,-3.905449282275217
1770454386460,122,-6,-5.0061604147046825,-3.8833131093729816,-3.65626121348349
1770454386464,123,-5,-4.650457687998904,-3.0255458113620946,-3.305557789589388
1770454386468,123,-5,-4.317885373156127,-2.8229394184180063,-2.98214688941284
1770454386472,123,-5,-4.134590938077874,-3.0783471744625275,-2.8146429127040897
1770454386476,123,-5,-4.1537478874594855,-2.853614816313133,-2.8538202710231664
1770454386480,123,-5,-4.269525605448082,-3.149983943780544,-2.9865514211072823
1770454386484,123,-5,-4.092683712147226,-2.7982926309988243,-2.8156827113897176
1770454386488,125,-3,-2.8326290777606635,-1.073597816945699,-1.548409515188582
1770454386492,128,0,0.6544729592255552,2.088048241682387,1.9519634672467157
1770454386496,135,7,7.475352219814837,8.993821619649733,8.778758626733996
1770454386500,145,17,17.9746603388948,18.887311448567075,19.26589710176174
1770454386504,157,29,31.008089967852868,31.183716167129862,32.26920286208863
1770454386508,171,43,43.77171578876656,44.841328820209576,44.99620238917048
1770454386512,180,52,52.59217619954878,54.17459388302709,53.78859735178898
1770454386516,183,55,54.50108216288446,56.75890804499304,55.687280500360984
1770454386520,177,49,48.76212152710909,51.094190192584975,49.95518174586961
1770454386524,164,36,37.35257006396988,37.83201808427273,38.56091439032389
1770454386528,150,22,23.990761309733607,24.17568919986729,25.21130707133217
1770454386532,139,11,12.281893725061702,12.8380206920715,13.502049610300766
1770454386536,131,3,4.15715570281929,5.040997841903886,5.360668451360849
1770454386540,128,0,-0.4927056509890155,1.8878049339967065,0.6822618378421601
1770454386544,125,-3,-2.9969728693861803,-1.1185221169351591,-1.8515748377735717
1770454386548,122,-6,-4.693055734953903,-3.866283029612141,-3.5668817307520753
1770454386552,121,-7,-6.195637500812115,-5.259455085864069,-5.073927397896863
1770454386556,119,-9,-7.44836636889762,-6.881651152858662,-6.321818620730821
1770454386560,119,-9,-8.218152179253803,-7.233666654660021,-7.088309744998987
1770454386564,119,-9,-8.489733627525114,-7.044004861242369,-7.366173459461943
1770454386568,119,-9,-8.48763699422278,-6.9954692221425825,-7.379885902059057
1770454386572,119,-9,-8.44994380502204,-7.222589272956931,-7.360734914746517
1770454386576,118,-10,-8.447702694633032,-7.945535836214317,-7.372518742988872
1770454386580,119,-9,-8.404288311000869,-7.2514360946450385,-7.336627261057756
1770454386584,119,-9,-8.233400347269555,-7.016427421802887,-7.170448865208388
1770454386588,119,-9,-7.931673656210013,-7.142704895498827,-6.875603225190242
1770454386592,120,-8,-7.559771364874047,-6.0856514734417075,-6.514654336270304
1770454386596,120,-8,-7.170549651947433,-6.183738371339511,-6.138491563447246
1770454386600,120,-8,-6.772898613036202,-6.043838811232154,-5.752706249309573
1770454386604,121,-7,-6.35681880108319,-5.252593398042909,-5.345870048020557
1770454386608,121,-7,-5.930710277670101,-5.007280848756913,-4.927870894243015
1770454386612,122,-6,-5.51843005488514,-4.23445055699358,-4.524990356081352
1770454386616,122,-6,-5.127425145926133,-4.146319645334371,-4.145248993991285
1770454386620,122,-6,-4.73975721827904,-4.083672536852276,-3.769016109948363
1770454386624,123,-5,-4.339959991642347,-3.2981373064436497,-3.3791857900945947
1770454386628,123,-5,-3.935370986052504,-2.990556111186112,-2.983541273266921
1770454386632,124,-4,-3.534119966370428,-2.344982911772956,-2.591931128307092
1770454386636,124,-4,-3.1129091966159272,-2.0657183498681864,-2.1816720121632684
1770454386640,124,-4,-2.631676710132977,-2.234109381901288,-1.711617706109462
1770454386644,125,-3,-2.0889551870921794,-1.197322851690518,-1.1793387881452793
1770454386648,126,-2,-1.5454236359749922,-0.1360129373099265,-0.6459283940843337
1770454386652,126,-2,-1.076506675884233,-0.291838217670485,-0.1875098437442486
1770454386656,126,-2,-0.7062054186326924,-0.1386506813948931,0.1721844772732244
1770454386660,127,-1,-0.3937876456111544,0.7522222062647961,0.474502046553733
1770454386664,127,-1,-0.077936867071255,0.7738849502505789,0.780610366045132
1770454386668,127,-1,0.2691575897352031,0.8328173270433115,1.117547345900873
1770454386672,128,0,0.6184886363717658,1.6764121490970674,1.4558067449771142
1770454386676,128,0,0.9020487332158158,1.842696595228662,1.727742085682063
1770454386680,128,0,1.0533153302705838,1.7056875682126824,1.8678358990510475
1770454386684,128,0,1.0401954554940154,1.7612137405869448,1.844584670916146
1770454386688,128,0,0.8770687557141696,1.7955649349489888,1.6717569149398694
1770454386692,128,0,0.6195305369229673,1.629715887597566,1.4039429069403813
1770454386696,127,-1,0.3392777188763463,0.8729444346058166,1.1128205882865867
1770454386700,127,-1,0.0816823506162983,0.5644138665803868,0.8444800830265082
1770454386704,127,-1,-0.1592456434586606,0.8957077260638286,0.5929944587004667
1770454386708,127,-1,-0.4142045145691434,0.5555196146214081,0.327039697353785
1770454386712,126,-2,-0.685630449666706,-0.1615180252126848,0.0441815974657193
1770454386716,126,-2,-0.9300306348295756,-0.3918297009729241,-0.2112551142683494
1770454386720,126,-2,-1.0890163800795003,-0.2697170708796599,-0.3804799324356889
1770454386724,126,-2,-1.1225031074059588,-0.2711021733829653,-0.4239386028273797
1770454386728,126,-2,-1.0111598957294197,-0.4156269814540398,-0.3228739337228021
1770454386732,126,-2,-0.7452570575968542,-0.1514515487846228,-0.0676135744760091
1770454386736,127,-1,-0.3260855737309664,0.4363739248538341,0.3405934472886045
1770454386740,127,-1,0.2198862680064284,0.9262790250479174,0.8752464998902709
1770454386744,128,0,0.8273268900511779,1.395139716117098,1.4713254521754031
1770454386748,128,0,1.3907519385217475,1.9160078503939628,2.0238758440837703
1770454386752,129,1,1.7888966443996923,2.42963499225325,2.411580273064283
1770454386756,129,1,1.93606477917558,2.7893923349302545,2.5480880947872735
1770454386760,129,1,1.8265000589019584,2.5289193691841714,2.427485032926754
1770454386764,128,0,1.524723051709315,1.6916328116878008,2.114998393229927
1770454386768,128,0,1.105271864250044,1.6013133963824768,1.6854971147763067
1770454386772,128,0,0.605984646631275,1.6522759718726263,1.1759942848754006
1770454386776,127,-1,0.039172864935047,0.5218454309863476,0.5980295495497574
1770454386780,126,-2,-0.5719868058571652,-0.2696654791009045,-0.024727077184905
1770454386784,126,-2,-1.18500214035538,-0.5853248383623084,-0.6488505759149343
1770454386788,125,-3,-1.756365358346932,-1.1741991945399466,-1.2307945157146891
1770454386792,125,-3,-2.2525147380396096,-1.6384913997897117,-1.737523483731643
1770454386796,124,-4,-2.646174946134296,-2.246413042995023,-2.1417914163803755
1770454386800,124,-4,-2.91442787410904,-2.555835341655444,-2.420387392932903
1770454386804,124,-4,-3.041215894772128,-2.39932636683918,-2.5575157799825483
1770454386808,124,-4,-3.016922274430851,-2.3779197201340057,-2.544130427703847
1770454386812,124,-4,-2.8435121742983345,-2.5510562547493225,-2.382033014970741
1770454386816,124,-4,-2.5550470453907907,-2.3301284053034124,-2.104488142711812
1770454386820,125,-3,-2.2311388136995545,-1.6029761032682592,-1.790918649198752
1770454386824,125,-3,-1.969762879676409,-1.377738826175505,-1.5400391720700426
1770454386828,125,-3,-1.8315187713345653,-1.4919804264062957,-1.4129730126246338
1770454386832,125,-3,-1.809477414006573,-1.4813315813601744,-1.4022975193088891
1770454386836,125,-3,-1.8521064642263976,-1.4709136504671774,-1.4555978397586022
1770454386840,125,-3,-1.9073137361620405,-1.5306977328110094,-1.5205328174044113
1770454386844,125,-3,-1.9413035248177632,-1.528778701854381,-1.5638805366943582
1770454386848,125,-3,-1.9263333973571912,-1.38146332127523,-1.558738980293679
1770454386852,125,-3,-1.8307295976772933,-1.6809242464589935,-1.4739767531387655
1770454386856,125,-3,-1.638256898823396,-1.3085012830728988,-1.2933080843290163
1770454386860,126,-2,-1.384186769984376,-0.7923340029610255,-1.0512441651994004
1770454386864,125,-3,-1.1677028960084703,-1.319979717679536,-0.845866528056346
1770454386868,126,-2,-1.109845527880481,-0.660500288001181,-0.7977766629255016
1770454386872,126,-2,-1.2673418436215556,-0.4584667665326742,-0.9644618839277724
1770454386876,125,-3,-1.5643337282558858,-1.6081255671442574,-1.2711584095200057
1770454386880,125,-3,-1.8152531470632385,-1.5640156523899031,-1.532575131520436
1770454386884,125,-3,-1.8412976474779053,-1.612562196577238,-1.5693553209583968
1770454386888,125,-3,-1.588710897868077,-1.4503232567231448,-1.327137351159388
1770454386892,126,-2,-1.148156123667992,-0.6924830306382059,-0.8965413209325812
1770454386896,126,-2,-0.6632736083507833,-0.4789999789933716,-0.4218120808297341
1770454386900,127,-1,-0.2130003724121124,0.2553434116140354,0.0174808870797273
1770454386904,127,-1,0.2275184145689079,0.4804217690292205,0.4465114542387853
1770454386908,127,-1,0.7158010396211325,0.3836727266083133,0.9240608025841768
1770454386912,128,0,1.2400466558875176,1.4357285321028894,1.4390468788763886
1770454386916,129,1,1.7061645014078954,2.30012073778353,1.8965158674758236
1770454386920,129,1,2.038714763452405,2.422802866362357,2.2196745600103647
1770454386924,129,1,2.281491210528204,2.2213973508163027,2.4521154626796147
1770454386928,129,1,2.571821165552656,2.575865409035433,2.7319418331383805
1770454386932,130,2,3.001660247112589,3.187237949750196,3.1515022117236846
1770454386936,130,2,3.503304243327482,3.461862013409704,3.642736274190446
1770454386940,131,3,3.8737561784563983,4.231086464669737,4.002434189501358
1770454386944,131,3,3.920048169255556,4.279841836984292,4.038230824973027
1770454386948,130,2,3.6009890967786777,3.508490215781783,3.709827430134805
1770454386952,130,2,3.0490122873412213,3.1054684060352624,3.149651900237731
1770454386956,129,1,2.462367561229471,2.5600084366777005,2.554704407129476
1770454386960,129,1,1.9607331600960447,1.986326592046527,2.0433448555853446
1770454386964,128,0,1.5123017559940253,1.5197662871001394,1.5837703508475371
1770454386968,128,0,0.9764786147577392,1.1463346696426353,1.0366614295051508
1770454386972,127,-1,0.2241991393551332,0.4147831260231533,0.2741883942695893
1770454386976,126,-2,-0.752325223970102,-0.8138347894211471,-0.7112970527807199
1770454386980,125,-3,-1.8180707399459788,-1.7389695369920886,-1.7855817654457606
1770454386984,124,-4,-2.7728580169078634,-2.786190846476265,-2.7492735966429755
1770454386988,123,-5,-3.465042544324584,-3.673579573756915,-3.450817015975752
1770454386992,123,-5,-3.853087541163569,-3.785011994893248,-3.848333689913406
1770454386996,123,-5,-3.9722496064662263,-3.724558342021077,-3.9768760635618094
1770454387000,123,-5,-6.262786380285043,-6.354616346369392,-6.388979044948646
1770454387004,123,-5,-6.244722095324383,-6.395490221711076,-6.369988368340337
1770454387008,123,-5,-6.19831913272217,-6.406422746427767,-6.323828401848741
1770454387012,123,-5,-6.1455532613091295,-6.293053795789785,-6.272340946997329
1770454387016,123,-5,-6.123030888559614,-6.296829583857693,-6.250919155133063
1770454387020,123,-5,-6.163221550092569,-6.329438099030899,-6.289837930666011
1770454387024,123,-5,-6.25928860471857,-6.381904536297392,-6.380825634155103
1770454387028,123,-5,-6.339688226671098,-6.437775671888177,-6.453857867345689
1770454387032,123,-5,-6.290762283883127,-6.214154327967055,-6.399967645087943
1770454387036,123,-5,-6.042902726387951,-6.362050235395181,-6.154570473433711
1770454387040,123,-5,-5.66945301868088,-6.234274494058269,-5.792186695979136
1770454387044,124,-4,-5.37875613397606,-5.439169952114387,-5.516032467058686
1770454387048,124,-4,-5.30131412085705,-5.415561883406347,-5.446730309416718
1770454387052,124,-4,-5.1307332390797615,-5.151240912170664,-5.2691369624293385
1770454387056,126,-2,-3.872740695543891,-3.4702840447175554,-3.98871013134538
1770454387060,129,1,-0.0155722395489321,-0.0150022330138739,-0.1049445255190613
1770454387064,137,9,7.748519636458738,7.288473168222083,7.67268676801711
1770454387068,148,20,19.49508990927321,18.944993398251516,19.408436132549696
1770454387072,162,34,33.326913328625515,32.488185155444626,33.209044219776295
1770454387076,174,46,45.55833130461132,44.91311882998038,45.406387770244905
1770454387080,182,54,52.04514712301662,52.654335284540466,51.875137158246574
1770454387084,181,53,50.14788367877061,51.50488257330128,49.98369618659442
1770454387088,170,42,40.22116513493994,40.81099962517765,40.08097673863777
1770454387092,154,26,25.600884975676458,24.506961559971177,25.489722319419226
1770454387096,138,10,10.958008120338224,9.040724351313878,10.867459239859272
1770454387100,129,1,0.0214886589733183,-0.4815441742353259,-0.0660515513495476
1770454387104,124,-4,-5.89580765594299,-5.229588827838697,-5.999334962623908
1770454387108,122,-6,-7.795533692623212,-7.418991770323387,-7.92582873068279
1770454387112,122,-6,-7.705677354658261,-7.262552823812006,-7.859422705841814
1770454387116,122,-6,-7.286492372805904,-7.179090559823611,-7.448923750656431
1770454387120,121,-7,-7.203220544530686,-8.312686091651678,-7.357789501409423
1770454387124,121,-7,-7.3759594183468415,-8.333469846613639,-7.514460346548857
1770454387128,122,-6,-7.574097502744705,-7.284934498757773,-7.700739044570365
1770454387132,122,-6,-7.7568344315144255,-7.384022192307517,-7.8836774373164
1770454387136,121,-7,-7.99811233055925,-8.014827093138944,-8.135442561669592
1770454387140,121,-7,-8.273136214313189,-8.532724677225897,-8.422558530192303
1770454387144,120,-8,-8.419273512003743,-9.02894035521221,-8.574743054637633
1770454387148,121,-7,-8.296454983917634,-8.60394829844903,-8.451099757148416
1770454387152,121,-7,-7.936821385094018,-7.978003626335486,-8.088835241541332
1770454387156,122,-6,-7.513786718168106,-7.447616003617877,-7.666705069224129
1770454387160,122,-6,-7.175513028084296,-7.078457128195544,-7.333780648538176
1770454387164,122,-6,-6.925952135071805,-7.469607644564923,-7.090572697397206
1770454387168,122,-6,-6.665109721629641,-7.148321327214389,-6.83338154170328
1770454387172,123,-5,-6.319045538307624,-6.358132798956225,-6.4880240751922456
1770454387176,123,-5,-5.906671325050191,-6.099652951084679,-6.076375286431551
1770454387180,124,-4,-5.484923060305678,-5.37256578421348,-5.658017620332144
1770454387184,124,-4,-5.059907649517186,-5.195334677810127,-5.238624120834602
1770454387188,124,-4,-4.578739205059803,-5.373489557718051,-4.762674092469279
1770454387192,125,-3,-4.006298528857629,-4.110829163053786,-4.1934012209770035
1770454387196,126,-2,-3.3854212389511926,-3.3140140335076858,-3.5745964717883876
1770454387200,126,-2,-2.8061363130963564,-3.1733481944252895,-2.9982751541441983
1770454387204,127,-1,-2.3248611979678175,-2.3359527796390154,-2.5215216444606825
1770454387208,127,-1,-1.928686785585408,-2.2583821094263588,-2.1304378716579357
1770454387212,127,-1,-1.5784803247345514,-2.151039799576781,-1.7847720620837415
1770454387216,128,0,-1.273160957501924,-1.288774583086807,-1.4834249282538785
1770454387220,128,0,-1.0589581731927833,-1.1607918003805904,-1.2732980401276912
1770454387224,128,0,-0.9740287603714456,-1.3396623087615338,-1.1927660160062832
1770454387228,128,0,-0.9893199531776404,-1.2319512811930682,-1.2123601232947117
1770454387232,128,0,-1.005860682703874,-1.1423349175727384,-1.2328523521727115
1770454387236,128,0,-0.913228483613389,-1.2962454015369012,-1.1441861863194784
1770454387240,128,0,-0.6650493986584827,-1.1105213286733064,-0.9006733943139204
1770454387244,129,1,-0.3151009270684297,-0.3911920708965662,-0.5564671929293735
1770454387248,129,1,0.0135595033893489,-0.1435783922522147,-0.2341159323909228
1770454387252,129,1,0.2006036617874988,-0.2069452340591517,-0.0527128381058682
1770454387256,129,1,0.1881119904904268,-0.2268368590673194,-0.0695136419276808
1770454387260,129,1,-0.0009460205112309,-0.1416668654143288,-0.2624609420344483
1770454387264,129,1,-0.2812171963146086,-0.3685294070169869,-0.5476316716827108
1770454387268,128,0,-0.5521710382488225,-1.11193668051311,-0.8244979023882144
1770454387272,128,0,-0.7588710407036134,-1.2345306423308895,-1.0368168518184169
1770454387276,128,0,-0.9214237190997048,-1.1680043316794244,-1.2042463945191852
1770454387280,128,0,-1.0927676754300697,-1.1909730036914643,-1.380971252461476
1770454387284,128,0,-1.278363277694973,-1.294994855540439,-1.5733965989719525
1770454387288,127,-1,-1.410692115695213,-2.156965398859244,-1.7128442832958846
1770454387292,127,-1,-1.415740607739183,-2.172319465758759,-1.723448610495779
1770454387296,128,0,-1.2897181112992566,-1.2165583766181394,-1.6015549727675684
1770454387300,128,0,-1.0857680381668178,-1.1094465778998548,-1.4022993539155837
1770454387304,128,0,-0.8311703205209563,-1.374959418499944,-1.154140796790295
1770454387308,128,0,-0.490469195588147,-1.0100699721670936,-0.820761519058731
1770454387312,129,1,-0.028072740836756,-0.3623753632527962,-0.3651772393418774
1770454387316,129,1,0.5029885805542647,0.0469456853930516,0.1598537960995605
1770454387320,130,2,0.9494558272665852,0.5982873585333948,0.6003326396675613
1770454387324,130,2,1.1432402743404366,0.9972960890179492,0.787516566908705
1770454387328,130,2,1.009584173808692,0.5971834355313401,0.6467772696100899
1770454387332,129,1,0.6054860069376014,0.0669730655074312,0.2358074194360264
1770454387336,129,1,0.0622229146393567,-0.3875740403836798,-0.3136289876415492
1770454387340,128,0,-0.5082573418609949,-0.9300474165739212,-0.8898174698951116
1770454387344,128,0,-1.0601229249209658,-1.4382977353587227,-1.4476848077522986
1770454387348,127,-1,-1.5863410845126111,-1.950827473906879,-1.98086060968762
1770454387352,127,-1,-2.0628281468231076,-2.3648923233818495,-2.4652466623578397
1770454387356,126,-2,-2.4314223043982945,-2.9630390354273772,-2.8418323385709336
1770454387360,126,-2,-2.6437575265973847,-3.300846263604537,-3.0611896727837453
1770454387364,126,-2,-2.719246024225841,-3.0698835395679267,-3.142603746844955
1770454387368,126,-2,-2.747975837286374,-3.2419133388051717,-3.177441171664726
1770454387372,126,-2,-2.8236972129173843,-3.135054821777196,-3.26095370423261
1770454387376,126,-2,-2.970971662413986,-3.099573310957003,-3.417486882194053
1770454387380,125,-3,-3.144295493394279,-4.226179758551571,-3.599382560028011
1770454387384,125,-3,-3.296608080870188,-4.0389463007348105,-3.7579235820673
1770454387388,126,-2,-3.426898069941593,-3.2957463086494694,-3.893169966274474
1770454387392,125,-3,-3.54341252512468,-4.048639466996486,-4.015980477393588
1770454387396,125,-3,-3.600231666260251,-4.169581053392163,-4.081456172097404
1770454387400,125,-3,-3.5124329161924464,-4.144239966314906,-4.00318314834764
1770454387404,125,-3,-3.2533853074145895,-4.091006012916484,-3.7526315888149377
1770454387408,126,-2,-2.9218149521331394,-3.2105213902728016,-3.428322473997549
1770454387412,126,-2,-2.686757626971181,-3.1282126328887747,-3.2005016928215477
1770454387416,126,-2,-2.650317927194453,-3.0584760335858032,-3.172042959688102
1770454387420,126,-2,-2.7612617924903837,-3.255307124629959,-3.29106824143957
1770454387424,125,-3,-2.8657301890986995,-3.944980202977044,-3.402763243964484
1770454387428,126,-2,-2.8440560100673387,-3.3455019251086258,-3.3878655227207024
1770454387432,126,-2,-2.701278886101,-2.95095397642829,-3.252969018023746
1770454387436,126,-2,-2.5383274121753536,-3.229620301368786,-3.099658078548901
1770454387440,126,-2,-2.4536890942123675,-3.062619781868539,-3.025103124421075
1770454387444,126,-2,-2.471517967006748,-3.1089195955425617,-3.051596390316463
1770454387448,126,-2,-2.5374045491585075,-3.195871469828345,-3.124305541693901
1770454387452,126,-2,-2.5592746826559187,-3.022290016533773,-3.1523567936745764
1770454387456,126,-2,-2.4579491456522096,-3.1893045481543227,-3.0581140578645325
1770454387460,126,-2,-2.2052429398506996,-3.038016441571794,-2.814254371805524
1770454387464,127,-1,-1.835114787354729,-2.151263623832707,-2.4545910286274575
1770454387468,127,-1,-1.423260501149818,-2.1134051416267816,-2.0535771197885597
1770454387472,127,-1,-1.0481097346609587,-2.087845078009298,-1.6878334947024114
1770454387476,128,0,-0.7503173688220386,-1.0940980106989366,-1.397086906898494
1770454387480,128,0,-0.5010652248634775,-1.1225949578979628,-1.1534975797373352
1770454387484,128,0,-0.1987737605885211,-1.053516704417667,-0.8576578856889157
1770454387488,129,1,0.2785689112759506,-0.1781325991444117,-0.3891281432248649
1770454387492,129,1,0.973458426594472,-0.0095768104610884,0.2948162125256834
1770454387496,130,2,1.768017272733747,0.8617433474036023,1.0779764405110628
1770454387500,131,3,2.40490835593078,1.9334797440584144,1.7046807269881308
1770454387504,131,3,2.6287796644458905,1.9078332987012796,1.920114220487405
1770454387508,131,3,2.3597824310892426,1.8719766404771951,1.6439629489645222
1770454387512,130,2,1.7584922832146193,0.9877458383893286,1.035997418194874
1770454387516,129,1,1.11501938095262,-0.1596813463373917,0.385344843443773
1770454387520,129,1,0.6434429834642907,0.0277281490631955,-0.0950527713082713
1770454387524,129,1,0.3449893760384912,-0.2145713397582275,-0.4043973273606835
1770454387528,128,0,0.0379415933321938,-0.9430783750638504,-0.723173608924853
1770454387532,128,0,-0.4867674914284809,-1.1839601116601752,-1.2583446679371175
1770454387536,127,-1,-1.305163288282296,-1.9882308387837777,-2.0850081026320906
1770454387540,126,-2,-2.2989102814050284,-3.1034496719401137,-3.085773254586849
1770454387544,125,-3,-3.228210344978905,-4.099188083274572,-4.022308733803148
1770454387548,124,-4,-3.889685385916044,-4.983452341876295,-4.691978759802319
1770454387552,124,-4,-4.244833670204905,-5.165890501091947,-5.056550871669057
1770454387556,124,-4,-4.418453478202178,-4.940280709698241,-5.241028334212045
1770454387560,124,-4,-4.575038607241607,-5.183693950589719,-5.409285427275218
1770454387564,123,-5,-4.791395030992783,-5.956896102718135,-5.636184344066599
1770454387568,123,-5,-5.033433782470351,-6.135776955214388,-5.8860217300133195
1770454387572,123,-5,-5.2242516625880056,-5.969095302620413,-6.082907263445016
1770454387576,123,-5,-5.307540943830524,-6.132313961583761,-6.173716888948686
1770454387580,123,-5,-5.255477490436505,-5.968384953640886,-6.132597751847271
1770454387584,123,-5,-5.058896941767041,-6.134502631360307,-5.948645606236297
1770454387588,123,-5,-4.744969548317543,-5.972850717239126,-5.645021456473038
1770454387592,124,-4,-4.401130081053271,-5.0654002240263925,-5.306940441396441
1770454387596,124,-4,-4.153424320818651,-5.0676325821738155,-5.062711660995638
1770454387600,124,-4,-4.100742933777647,-4.966957416672346,-5.0168132221192225
1770454387604,124,-4,-4.265370288617291,-5.134846085186195,-5.196166832415628
1770454387608,123,-5,-4.594228051477019,-5.968696784204073,-5.546899798541991
1770454387612,123,-5,-4.955793419071689,-6.016345242399931,-5.930055341227253
1770454387616,123,-5,-5.038310901440486,-6.143311375841122,-6.023841728819331
1770454387620,124,-4,-4.151665322988881,-4.809499652265565,-5.1329213441100325
1770454387624,128,0,-1.1240152937154413,-1.305724997908569,-2.090426388991818
1770454387628,133,5,5.417055631576929,4.244403592546377,4.4623764651841835
1770454387632,144,16,16.26569900230064,14.795129108322389,15.30554536706273
1770454387636,158,30,30.673489604673897,29.05531710205032,29.68593389127038
1770454387640,173,45,45.87207282170874,44.06605606008039,44.84393867489096
1770454387644,186,58,57.67515346699943,56.776979623477885,56.610184837314485
1770454387648,191,63,62.14628445569852,62.21750676304555,61.06240031412903
1770454387652,187,59,57.530096301150365,57.71848725042928,56.44879472860286
1770454387656,173,45,45.26393993991152,44.16841746733334,44.19975499136706
1770454387660,156,28,29.33112165591215,26.938470559365054,28.28608036524045
1770454387664,141,13,14.291499419688186,11.95146374398188,13.254796108571307
1770454387668,131,3,3.2290002279588164,2.1610439913894286,2.181513755465521
1770454387672,126,-2,-3.164071002354545,-3.222109941046493,-4.2404442896233485
1770454387676,122,-6,-6.055086458312017,-6.767879715302859,-7.167021599582633
1770454387680,121,-7,-7.17505218889335,-8.211559034876515,-8.313825369105045
1770454387684,120,-8,-7.74750680332866,-8.842552760020535,-8.895418348322295
1770454387688,119,-9,-8.183717863168695,-10.088443312527271,-9.326198958132595
1770454387692,119,-9,-8.411209015048442,-9.915426303186033,-9.545552388097592
1770454387696,120,-8,-8.337220779415837,-9.023084160237126,-9.47228229570602
1770454387700,120,-8,-8.056062333964896,-8.986975580075432,-9.204189263676604
1770454387704,120,-8,-7.7675715927316835,-9.015363893799936,-8.935385377496951
1770454387708,120,-8,-7.617580692639735,-8.957811678540645,-8.802552675522838
1770454387712,120,-8,-7.633770765765972,-8.970094486252732,-8.828236731679976
1770454387716,120,-8,-7.758119351055375,-8.9554196219798,-8.95620984559238
1770454387720,120,-8,-7.891470834515481,-9.023702060285842,-9.093036238177696
1770454387724,120,-8,-7.913573732625183,-8.984204741914674,-9.122801269367343
1770454387728,120,-8,-7.713591698755436,-8.974576735770661,-8.934603609902686
1770454387732,120,-8,-7.258676838893026,-8.92139725757717,-8.492366723455117
1770454387736,121,-7,-6.65253585761408,-7.965297899252228,-7.897035595785566
1770454387740,122,-6,-6.099144708638752,-6.991813863697169,-7.352435775488592
1770454387744,122,-6,-5.763582460258268,-7.017349694409403,-7.024991201191103
1770454387748,122,-6,-5.640341580554862,-6.933771678639338,-6.909849946207657
1770454387752,122,-6,-5.55349426636339,-6.923088420195428,-6.830738048210943
1770454387756,122,-6,-5.2935704070810505,-6.954876485406871,-6.578299054932881
1770454387760,123,-5,-4.7704152617994655,-5.93882707313615,-6.06366575268115
1770454387764,124,-4,-4.058198073128487,-5.107737520817015,-5.362036731167324
1770454387768,124,-4,-3.3195502783171227,-4.780054752831427,-4.634978684781045
1770454387772,125,-3,-2.695971804083284,-4.1034380834941695,-4.021413706762924
1770454387776,125,-3,-2.246072770903395,-3.696718235861429,-3.5787058269867593
1770454387780,126,-2,-1.942101019307825,-3.22318471856015,-3.2807941744951443
1770454387784,126,-2,-1.699616665127066,-2.775091395844034,-3.045977706310813
1770454387788,126,-2,-1.430909121153921,-3.1118005519573098,-2.7872308079892463
1770454387792,126,-2,-1.111403777050366,-2.7644800326967793,-2.4781596453252543
1770454387796,127,-1,-0.8104613299937525,-1.9553935754762837,-2.186245888717336
1770454387800,127,-1,-0.6378512608954003,-2.025761560387731,-2.0212906208463983
1770454387804,127,-1,-0.6364182775125912,-1.8591921441679904,-2.02743088079935
1770454387808,127,-1,-0.7257552501740406,-2.1069573230099374,-2.125006178234571
1770454387812,126,-2,-0.7662599106965452,-2.678002142855219,-2.174094128758388
1770454387816,127,-1,-0.6905549475005114,-2.0611121317426697,-2.1069199991818772
1770454387820,127,-1,-0.5721850163689954,-1.8744857447207943,-1.997239237893782
1770454387824,127,-1,-0.5599140037641976,-1.9888120827281803,-1.993983367665612
1770454387828,127,-1,-0.7403100599218165,-1.9793172339657603,-2.183059141967452
1770454387832,126,-2,-1.058156887720455,-2.763521159593351,-2.5083329108378845
1770454387836,126,-2,-1.3608679410569615,-2.994996029547548,-2.8174393070300847
1770454387840,126,-2,-1.516305365429303,-2.8665187098597062,-2.9798411277290606
1770454387844,126,-2,-1.5005771546075188,-3.0174210064513964,-2.972985209549756
1770454387848,126,-2,-1.3973773882393732,-2.8950800805910633,-2.879936562562777
1770454387852,126,-2,-1.3269333279391642,-2.8551712703101755,-2.818786073466531
1770454387856,126,-2,-1.3594100797990405,-2.884840139870193,-2.858341199595112
1770454387860,126,-2,-1.4613579806127015,-2.9395358457239458,-2.96603993483828
1770454387864,126,-2,-1.5049025318230624,-2.939984459116634,-3.016045512881042
1770454387868,126,-2,-1.3445073130112617,-2.9299906891742262,-2.8636758101516793
1770454387872,126,-2,-0.924132317465458,-2.826791506047096,-2.451858892534191
1770454387876,127,-1,-0.3361369682357939,-1.8793810575518208,-1.8716970353424496
1770454387880,128,0,0.2308997534893745,-0.930599100289908,-1.311869584118882
1770454387884,128,0,0.6235811392157782,-0.912851074667951,-0.9266631581703848
1770454387888,128,0,0.8154114986683917,-0.9495432554890278,-0.7427478723336127
1770454387892,128,0,0.873325226866207,-0.7902395309415277,-0.6924631154579035
1770454387896,128,0,0.8442376047723168,-0.9092201357913342,-0.7283557125658436
1770454387900,128,0,0.6878985536510874,-0.8699854171424852,-0.8909971958747855
1770454387904,128,0,0.3260743064050992,-0.9284480908287288,-1.2593241898418444
1770454387908,127,-1,-0.2483196146115548,-1.9416738410298096,-1.8407357148758656
1770454387912,126,-2,-0.920274475894992,-2.7578292610756683,-2.5200451227265113
1770454387916,126,-2,-1.516599537706286,-2.9741194482992293,-3.1237049443212137
1770454387920,125,-3,-1.928374489596496,-3.7257125055336866,-3.542369368771205
1770454387924,125,-3,-2.182646378360686,-4.083840185284964,-3.802843812570884
1770454387928,125,-3,-2.3972992993181164,-3.717741396468202,-4.023502666494806
1770454387932,125,-3,-2.653188888137759,-4.0197610602873155,-4.286109904875072
1770454387936,124,-4,-2.9015755506223617,-4.677698110942995,-4.541896871083649
1770454387940,124,-4,-3.0060092782795347,-5.001098445769221,-4.653126631223479
1770454387944,124,-4,-2.884269082832371,-4.782650086562229,-4.536727003359847
1770454387948,125,-3,-2.601768201589951,-3.978530029369987,-4.25908859241002
1770454387952,125,-3,-2.316204323999801,-3.7671092080445607,-3.97960244082215
1770454387956,125,-3,-2.1370238299784123,-3.910174539318171,-3.807907729709933
1770454387960,125,-3,-2.050760837878427,-3.7441729818116314,-3.7289083975316974
1770454387964,125,-3,-1.979340029464752,-4.022740780389532,-3.663088340912735
1770454387968,125,-3,-1.8902059521128527,-3.7038782452939834,-3.5784174128299093
1770454387972,126,-2,-1.8319860900105371,-3.034283788618885,-3.5252592480473757
1770454387976,125,-3,-1.8667793618035948,-3.62617645196432,-3.566318991638198
1770454387980,125,-3,-1.9882589472328192,-4.0008180670450155,-3.694012737014462
1770454387984,125,-3,-2.117145018234673,-3.75794295601526,-3.827835882808765
1770454387988,125,-3,-2.1684514241593957,-3.92351366088462,-3.883349027922753
1770454387992,125,-3,-2.1189392876721715,-3.837021506564255,-3.838814176021779
1770454387996,125,-3,-2.0252533066892093,-3.742440816118981,-3.7513726783010823
1770454388000,125,-3,-1.9920244706836152,-3.9374792784903554,-3.724731732773519
1770454388004,125,-3,-2.1106562101647732,-3.730416823584932,-3.8491779495518217
1770454388008,125,-3,-2.3964260138600064,-3.988531355673756,-4.139609106905409
1770454388012,124,-4,-2.760877952229543,-4.725525247762273,-4.50773670436037
1770454388016,124,-4,-3.0461864820857043,-4.825934896296769,-4.796122883423834
1770454388020,124,-4,-3.1050108047524945,-4.873280114820655,-4.858178845857131
1770454388024,124,-4,-2.8724948054400494,-4.711802602569548,-4.630073454797838
1770454388028,125,-3,-2.3881249843182877,-4.059341421530252,-4.151759599904597
1770454388032,125,-3,-1.7679586429224758,-3.555121883429263,-3.5383983697981956
1770454388036,126,-2,-1.1550482605524586,-3.0525828078843755,-2.9312078734404574
1770454388040,126,-2,-0.6685862747294525,-2.569860031880353,-2.4482732255101247
1770454388044,127,-1,-0.3556094821404194,-2.0376988233596487,-2.1374125768941767
1770454388048,127,-1,-0.1585710481446727,-1.6962202539726268,-1.942800975501919
1770454388052,127,-1,0.0635504057437937,-1.8838491876750012,-1.7241064688263608
1770454388056,127,-1,0.4425184238444593,-1.7440619547191356,-1.3489312687643311
1770454388060,128,0,0.9934739427698762,-0.8034315507407468,-0.8017842740625983
1770454388064,129,1,1.5898349997160897,0.1440332321244374,-0.2098749831615722
1770454388068,129,1,2.046863172815143,0.2296843108608042,0.2418704483844886
1770454388072,129,1,2.233844378093513,0.1273158154329884,0.4240154212632478
1770454388076,129,1,2.124617139742732,0.3393367057679839,0.3118678886986608
1770454388080,129,1,1.7778419073892109,0.0413091023057854,-0.0360036024028227
1770454388084,128,0,1.2935956373104736,-0.599128564920532,-0.5210623431835262
1770454388088,128,0,0.7750998158529201,-1.063116304250901,-1.0415949375927716
1770454388092,127,-1,0.2938724516969785,-1.503274104051524,-1.526504506902944
1770454388096,127,-1,-0.1415456030421368,-2.0563673326157845,-1.9665645508307965
1770454388100,126,-2,-0.5959740248771115,-2.5397183332069884,-2.4254247621288103
1770454388104,126,-2,-1.17634485548706,-2.973499422685001,-3.009105247642265
1770454388108,125,-3,-1.9602852381442757,-3.710943409468602,-3.794975646156424
1770454388112,124,-4,-2.9234177504334773,-4.751493792522209,-4.7590156757464275
1770454388116,123,-5,-3.920808169464916,-5.907054542297434,-5.757079696013462
1770454388120,122,-6,-4.746376934794561,-6.560829321710801,-6.5839840165679995
1770454388124,122,-6,-5.237847615374983,-7.038028130583735,-7.077836416841294
1770454388128,121,-7,-5.362388309154383,-7.516360271372156,-7.205310684184938
1770454388132,122,-6,-5.228548956821371,-6.9923735636678925,-7.074102576003446
1770454388136,122,-6,-5.014574875385494,-6.6184142792492455,-6.862069869798627
1770454388140,122,-6,-4.862252679268112,-6.852994550636136,-6.711250715063498
1770454388144,122,-6,-4.814577494147496,-6.736192626779345,-6.665164700056608
1770454388148,122,-6,-4.8353715995345645,-6.751781089789157,-6.688002355376623
1770454388152,122,-6,-4.874109412032574,-6.788952094285824,-6.728912005234199
1770454388156,122,-6,-4.908715434503079,-6.7489241381127005,-6.764481114443584
1770454388160,122,-6,-4.936653406317654,-6.772158959751118,-6.790670818769924
1770454388164,122,-6,-4.942691013046845,-6.738599792825149,-6.792557905656659
1770454388168,122,-6,-4.895272569409306,-6.761423694785847,-6.742009290496772
1770454388172,122,-6,-4.792332056396172,-6.732445140153012,-6.642040550411186
1770454388176,122,-6,-4.711728499949489,-6.805240180129902,-6.572980714571418
1770454388180,122,-6,-4.774031532715249,-6.7092106692624425,-6.651080147783419
1770454388184,122,-6,-4.953567651895687,-6.755691239797441,-6.839906032179801
1770454388188,122,-6,-4.789460126888384,-6.7507834156645385,-6.668407904354385
1770454388192,124,-4,-3.190857577880382,-4.675570578503628,-5.045774707025684
1770454388196,129,1,1.4027643519450042,0.1033781521030641,-0.4249249774774606
1770454388200,137,9,10.347616208834236,8.453687268286542,8.532048751379497
1770454388204,150,22,23.759801998470607,21.08021590219785,21.93219678823781
1770454388208,165,37,39.67914055020131,36.482748104551774,37.8222961901996
1770454388212,181,53,54.17464697083847,52.08190884616913,52.287997322121754
1770454388216,191,63,62.73678634200874,62.352515302848566,60.83422766500764
1770454388220,191,63,62.40067736029534,62.17149763975299,60.50194293569768
1770454388224,180,52,53.31447196481829,51.34718293370629,51.436985883671014
1770454388228,164,36,38.66331553938155,35.205085714937745,36.81575329409828
1770454388232,149,21,22.9759454631776,20.376690621937374,21.15346805646185
1770454388236,137,9,9.960976890359238,8.144355730575345,8.14618314577695
1770454388240,128,0,1.2031632914537926,-0.553007558143626,-0.6243940160205617
1770454388244,124,-4,-3.7372559339746503,-4.829830541313154,-5.588514491861513
1770454388248,121,-7,-6.2686329993280285,-7.676208003089341,-8.139178893588713
1770454388252,119,-9,-7.658607743899102,-9.71648574194502,-9.533407942204931
1770454388256,118,-10,-8.531825154307239,-10.811249122284844,-10.395819816077742
1770454388260,117,-11,-9.027610542391658,-11.484042476260102,-10.874492082056731
1770454388264,118,-10,-9.199844131618434,-10.929593982074069,-11.034082930047989
1770454388268,118,-10,-9.219835761916707,-10.500579392697029,-11.051642428764255
1770454388272,118,-10,-9.28216003564414,-10.986482154645982,-11.11929767351267
1770454388276,117,-11,-9.435098736663628,-11.461644642692606,-11.277615300929243
1770454388280,117,-11,-9.568202184896167,-11.828152593436863,-11.410042865469515
1770454388284,117,-11,-9.55488970221195,-11.536014172267262,-11.390443929990171
1770454388288,118,-10,-9.371900396033556,-10.864451361911325,-11.200979603001397
1770454388292,118,-10,-9.079884253366233,-10.674433841147776,-10.906472636843652
1770454388296,118,-10,-8.730145680649485,-10.702060055496684,-10.557066158048055
1770454388300,118,-10,-8.326739893059907,-10.60064448563062,-10.152663513599457
1770454388304,119,-9,-7.866941831223285,-9.69216168977866,-9.6888019351812
1770454388308,120,-8,-7.37618312702571,-8.716008578390557,-9.19322291885126
1770454388312,120,-8,-6.887852470916762,-8.82475150761718,-8.70205188351866
1770454388316,120,-8,-6.415565935205239,-8.519513911620077,-8.228531038654323
1770454388320,121,-7,-5.968448265792414,-7.770617076566538,-7.779236177295955
1770454388324,121,-7,-5.577646737697442,-7.473670145004754,-7.384033571823102
1770454388328,122,-6,-5.274598162942554,-6.932583149559185,-7.075715761324426
1770454388332,122,-6,-5.0332793280298604,-6.598987504015935,-6.830300842186664
1770454388336,122,-6,-4.756676704777795,-6.726226163678595,-6.551022047911958
1770454388340,122,-6,-4.352369381889415,-6.548546069548542,-6.143961362614446
1770454388344,123,-5,-3.8329834489678927,-5.642739308342448,-5.620734593550523
1770454388348,124,-4,-3.3267619104866974,-4.774874512289472,-5.11026496491967
1770454388352,124,-4,-2.9705267443718935,-4.717900558137757,-4.7503606307354875
1770454388356,124,-4,-2.789277338830811,-4.619833077177056,-4.565597691476341
1770454388360,124,-4,-2.6837193214722523,-4.612942242846101,-4.455391737884062
1770454388364,124,-4,-2.530205834820255,-4.564335515916968,-4.295943976524651
1770454388368,125,-3,-2.286671267647251,-3.8306112270443,-4.046770564590787
1770454388372,125,-3,-2.010603605880484,-3.636718255455449,-3.766879504225438
1770454388376,125,-3,-1.7975284869010937,-3.7045464197264897,-3.5512944087965685
1770454388380,125,-3,-1.7161749635667694,-3.4844501429164447,-3.466656756147715
1770454388384,125,-3,-1.787704791149222,-3.695234100568976,-3.5328112076844898
1770454388388,125,-3,-1.9928203155406123,-3.6662414633792975,-3.731286286477105
1770454388392,125,-3,-2.277614638999794,-3.783849885855352,-4.00996590358746
1770454388396,124,-4,-2.563639141494911,-4.54641006018727,-4.291088922798783
1770454388400,124,-4,-2.7810300993420456,-4.618165240052506,-4.503981411122388
1770454388404,124,-4,-2.909468434502192,-4.538412774165808,-4.6274270906539545
1770454388408,124,-4,-2.984558051263883,-4.819592782324988,-4.697133227792592
1770454388412,124,-4,-3.0562521502902564,-4.578195520644604,-4.763620229767976
1770454388416,124,-4,-3.139160148286193,-4.772179064088853,-4.841420656402905
1770454388420,123,-5,-3.203676496968444,-5.340122312869064,-4.900257057156532
1770454388424,124,-4,-3.208165559166318,-4.833242628610306,-4.8983499940453665
1770454388428,124,-4,-3.1270313267366685,-4.474552835363659,-4.810850329298672
1770454388432,124,-4,-2.946646682299929,-4.916373312702714,-4.62473080266208
1770454388436,124,-4,-2.6502534615831843,-4.415062670150278,-4.322903854430347
1770454388440,125,-3,-2.2205905892888804,-3.659615689594129,-3.887384590103843
1770454388444,125,-3,-1.6574276030903294,-3.5517821865904,-3.3176565141708068
1770454388448,126,-2,-0.991438347678858,-2.6571703979726857,-2.6447160041370097
1770454388452,127,-1,-0.2853864517757709,-1.7899272685403411,-1.9319484765951545
1770454388456,127,-1,0.374972060205881,-1.450054732320921,-1.265558079880048
1770454388460,128,0,0.8927138849775695,-0.6715347762623796,-0.7423337125158598
1770454388464,128,0,1.1703641733855903,-0.4887774571981416,-0.459076228915678
1770454388468,128,0,1.126160281650808,-0.7109675209493131,-0.4969101637885629
1770454388472,128,0,0.7249975184313162,-0.7207250804529475,-0.8908734721977285
1770454388476,127,-1,0.0148075479055109,-1.4696260239581267,-1.5934243908192869
1770454388480,126,-2,-0.8640657557553557,-2.6915427168291877,-2.464592331316288
1770454388484,125,-3,-1.7216272256788745,-3.3920124462660732,-3.3146449448757136
1770454388488,125,-3,-2.3952178296609175,-3.8422589927324218,-3.981197466508115
1770454388492,124,-4,-2.811319881803362,-4.5165035425003754,-4.390780304082986
1770454388496,124,-4,-2.9969508216827885,-4.676896547931867,-4.570016177355187
1770454388500,124,-4,-3.0412825176115654,-4.4696212482699735,-4.607590172691295
1770454388504,124,-4,-3.034955678562021,-4.58659354995255,-4.593998636709177
1770454388508,124,-4,-3.0261546799500545,-4.6545663089512725,-4.577592551003736
1770454388512,124,-4,-3.019920664086201,-4.6409694656664975,-4.563669491268184
1770454388516,124,-4,-3.010137236123514,-4.5745018008613485,-4.546328668913987
1770454388520,124,-4,-3.006247429610362,-4.519681952427593,-4.535018448766098
1770454388524,124,-4,-3.028734178044413,-4.55954828862642,-4.549933910121659
1770454388528,124,-4,-3.081854980510301,-4.6258506044991865,-4.595075893058372
1770454388532,124,-4,-3.132346814955878,-4.672987762909851,-4.637380386832243
1770454388536,124,-4,-3.1169832500262613,-4.500569688400827,-4.6140918102933055
1770454388540,124,-4,-2.9813191048277705,-4.598233550119017,-4.4708640242783915
1770454388544,124,-4,-2.7265802199232967,-4.45580416596891,-4.208543544324405
1770454388548,125,-3,-2.424382077968484,-3.709435191466298,-3.8984906443554097
1770454388552,125,-3,-2.1759315167592765,-3.565628957605938,-3.6420670110237214
1770454388556,125,-3,-2.0441453738737145,-3.5884575249652646,-3.5023171524929735
1770454388560,125,-3,-2.019293629105361,-3.4950261521170085,-3.4692970826325795
1770454388564,125,-3,-2.0471520649366437,-3.559316272187892,-3.48855836807066
1770454388568,125,-3,-2.0872467958871956,-3.5644734609384288,-3.519866675640044
1770454388572,125,-3,-2.14343923405937,-3.70399696611527,-3.5677565554634136
1770454388576,125,-3,-2.23989725973577,-3.409615041083408,-3.656784450611262
1770454388580,125,-3,-2.370769493499158,-3.6746207657050225,-3.7803969386563896
1770454388584,124,-4,-2.4784237681995496,-4.368607257083317,-3.8795384598407066
1770454388588,125,-3,-2.481078518333528,-3.7232551533206144,-3.871964244457723
1770454388592,125,-3,-2.315399626659937,-3.5363530997221257,-3.6957936388367263
1770454388596,125,-3,-1.9562396722789428,-3.5283715269323324,-3.3279085296584916
1770454388600,126,-2,-1.419610833556906,-2.573927801017942,-2.784733021969868
1770454388604,126,-2,-0.7704876370523968,-2.41763159591298,-2.1295708400553055
1770454388608,127,-1,-0.1222248291917356,-1.7140489718548215,-1.473695437429836
1770454388612,128,0,0.4078678841057792,-0.4507169992182629,-0.9337477349481252
1770454388616,128,0,0.7810928135203765,-0.6526677506108571,-0.5493789512309631
1770454388620,128,0,1.0877714805558791,-0.3937959437046088,-0.2318092170599851
1770454388624,129,1,1.4964197178951166,0.3971067086114401,0.1863295489148499
1770454388628,129,1,2.1170813483406383,0.4684512627940287,0.8148135224131918
1770454388632,130,2,2.879717370354794,1.4352165384686772,1.5842232514727992
1770454388636,131,3,3.5342530379458315,2.4539447002857395,2.245532203992497
1770454388640,131,3,3.794131122048561,2.5369577839997213,2.513172736748401
1770454388644,131,3,3.527899629624822,2.4593350668424288,2.256400305505342
1770454388648,130,2,2.852689342639856,1.4164889829452725,1.5924260730090276
1770454388652,129,1,2.0563450885183956,0.5188106067383829,0.8080673748613261
1770454388656,129,1,1.4104019926548768,0.3966446619160776,0.1729986020440579
1770454388660,128,0,1.0109499707261107,-0.3803558093333845,-0.218051756970674
1770454388664,128,0,0.7460678453336567,-0.6190540437693297,-0.4767170970572194
1770454388668,128,0,0.3921334762008395,-0.4881725337918379,-0.8248635818399856
1770454388672,127,-1,-0.2356001210992668,-1.548863571226616,-1.4451683058054927
1770454388676,126,-2,-1.1733143497393832,-2.5356342123866256,-2.372698773134636
1770454388680,125,-3,-2.294825553139095,-3.3788705861731265,-3.4819368752447835
1770454388684,124,-4,-3.3803041561390574,-4.688556692201911,-4.555202328504347
1770454388688,123,-5,-4.21494044647773,-5.315598024300921,-5.379727093969881
1770454388692,123,-5,-4.6731075849325805,-5.774001010438827,-5.830168087727058
1770454388696,122,-6,-4.764053849788944,-6.222875643409149,-5.9142346379591455
1770454388700,123,-5,-4.62204415129264,-5.703930906812797,-5.76442690693632
1770454388704,123,-5,-4.434852596176581,-5.358646163888818,-5.568064190445839
1770454388708,123,-5,-4.3407558904346,-5.600881497480737,-5.464296773914036
1770454388712,123,-5,-4.358022645568308,-5.518913679781701,-5.472393872860338
1770454388716,123,-5,-4.394938705665778,-5.381968996017904,-5.500507603718557
1770454388720,123,-5,-4.33024202944184,-5.6078754971187,-5.42583389786337
1770454388724,123,-5,-4.1060525904958505,-5.372567567377304,-5.188991924864962
1770454388728,124,-4,-3.7714576461203886,-4.6207121898167385,-4.840045586106041
1770454388732,124,-4,-3.4561729125265668,-4.449732012744365,-4.512950475689795
1770454388736,124,-4,-3.309728498912611,-4.420799118063226,-4.36197267030903
1770454388740,124,-4,-3.451366422377384,-4.586978202617123,-4.506807560858112
1770454388744,123,-5,-3.915842417946479,-5.3405824987304,-4.9757858440521865
1770454388748,123,-5,-4.52494311767881,-5.692645921307462,-5.580286136500056
1770454388752,123,-5,-4.669987315163465,-5.291192157504515,-5.704673054441871
1770454388756,125,-3,-3.1617669142973517,-3.600460481873392,-4.162883112379423
1770454388760,129,1,1.5642958809488716,0.6562940753484598,0.596335597383725
1770454388764,138,10,10.71702091165702,9.401242386762991,9.76622553581138
1770454388768,151,23,24.11754157403982,22.60863141087997,23.161175811756657
1770454388772,166,38,39.503975058184515,37.44254542001467,38.5269257814345
1770454388776,180,52,52.855427269204526,51.67868694426918,51.859269404947874
1770454388780,189,61,59.90736839124849,60.39745233111754,58.907859362080835
1770454388784,187,59,58.18782302717862,58.576143616364575,57.20485101587411
1770454388788,176,48,48.34078496145685,47.457885693689114,47.38913488937534
1770454388792,160,32,33.803595166850684,31.537153965912182,32.88811504131157
1770454388796,145,17,18.999434759780925,16.689030222374534,18.113447716315807
1770454388800,135,7,7.24544421998806,6.401571780025834,6.372665960734036
1770454388804,128,0,-0.3260462596217266,-0.3005822753715423,-1.204054721024323
1770454388808,124,-4,-4.419988832823907,-4.676065837238002,-5.313103134125146
1770454388812,121,-7,-6.42741969667101,-7.28704393088919,-7.3308145597918735
1770454388816,120,-8,-7.439790399877651,-8.533518777660364,-8.33804951122369
1770454388820,119,-9,-7.956968859832045,-9.354503620676596,-8.835277275918342
1770454388824,119,-9,-8.142029909910505,-9.504534827998668,-8.995578813079279
1770454388828,120,-8,-8.142041678694097,-8.45655894853155,-8.977165084864733
1770454388832,120,-8,-8.152208974099882,-8.4665509178244,-8.97961317885859
1770454388836,119,-9,-8.27747910601235,-9.4116535856404,-9.103647135909592
1770454388840,119,-9,-8.44507469653924,-9.413651852808004,-9.26866663815708
1770454388844,119,-9,-8.497507112928341,-9.464428238195588,-9.312641288948583
1770454388848,119,-9,-8.358464576712475,-9.406354128951165,-9.160743222287325
1770454388852,120,-8,-8.091793715495854,-8.543124808078183,-8.881545272616545
1770454388856,120,-8,-7.808753640054803,-8.295608901266018,-8.589492247933894
1770454388860,120,-8,-7.544429914201606,-8.573603200920388,-8.318936938269758
1770454388864,120,-8,-7.24264832145538,-8.222145043354267,-8.010664873629715
1770454388868,121,-7,-6.85353913343829,-7.663862679563425,-7.612824314341012
1770454388872,121,-7,-6.419813370508628,-7.224589612383716,-7.168804269129122
1770454388876,122,-6,-6.047748628383156,-6.632977006520608,-6.786897926747201
1770454388880,122,-6,-5.792361398151397,-6.2366742279568115,-6.523070535674323
1770454388884,122,-6,-5.582879245444942,-6.496959411320506,-6.3055660228038235
1770454388888,122,-6,-5.273803095944747,-6.423779875224707,-5.987537031793666
1770454388892,123,-5,-4.7727831817701025,-5.353581391448088,-5.476928632111193
1770454388896,124,-4,-4.117375473327359,-4.6017686667095985,-4.812880800843903
1770454388900,124,-4,-3.4363495284028587,-4.155942225194327,-4.124705574742661
1770454388904,125,-3,-2.851252408662931,-3.631963305810167,-3.5325326626348508
1770454388908,125,-3,-2.408545523418155,-3.216237088099988,-3.081290240615556
1770454388912,126,-2,-2.0736532743741205,-2.555885200728274,-2.736648091738536
1770454388916,126,-2,-1.765408930116811,-2.417968598307397,-2.418873235488833
1770454388920,126,-2,-1.4065676352687762,-2.268690491152248,-2.051469663013203
1770454388924,127,-1,-0.9714362512877384,-1.5670707604220713,-1.608290909109165
1770454388928,127,-1,-0.5033710493981338,-1.1775870941894446,-1.132118400539278
1770454388932,128,0,-0.085341620433896,-0.6489167042189625,-0.7060370922413906
1770454388936,128,0,0.2132211250466994,-0.2659424039991458,-0.3998140170489641
1770454388940,128,0,0.3649177398598687,-0.4250939713160727,-0.2406105231568268
1770454388944,128,0,0.3672911242449148,-0.4079209058607241,-0.2302242419166029
1770454388948,128,0,0.2128225605547024,-0.2590922366324995,-0.3759521419345251
1770454388952,128,0,-0.107223973565085,-0.6265909659456416,-0.6870487652766131
1770454388956,127,-1,-0.5646810543113268,-1.192423759176087,-1.1360083112631731
1770454388960,127,-1,-1.0707235799124777,-1.559221058043058,-1.634183333266488
1770454388964,126,-2,-1.505708385804658,-2.1995492599401545,-2.061623482767641
1770454388968,126,-2,-1.7857396104289152,-2.474425326311902,-2.3340765033335753
1770454388972,126,-2,-1.9073635857219435,-2.3784409380431706,-2.4480139756081924
1770454388976,126,-2,-1.927215900762587,-2.4268941491581724,-2.460148510679552
1770454388980,126,-2,-1.8939719732285751,-2.314850133395214,-2.4190350561847738
1770454388984,126,-2,-1.7966342422016843,-2.4240538168967656,-2.313445331474229
1770454388988,126,-2,-1.5764733547233725,-2.2250824380607837,-2.084868391974832
1770454388992,127,-1,-1.1877831696499463,-1.61970718610641,-1.6883573136694263
1770454388996,127,-1,-0.6514267418429178,-1.1525324197322775,-1.1451799470999482
1770454389000,128,0,-0.0600368720586461,-0.5928000972931481,-0.5472364152936819
1770454389004,128,0,0.4648933656324859,-0.1109256232764025,-0.0148257728777005
1770454389008,129,1,0.8362099447368978,0.4697087647054893,0.3650660430272847
1770454389012,129,1,1.0462169999028752,0.7020183631967554,0.5835965214028
1770454389016,129,1,1.157107245082398,0.554765671324899,0.701881016740505
1770454389020,129,1,1.230901833150089,0.6914786379809703,0.7821822019133935
1770454389024,129,1,1.2500969096911616,0.6558696835281337,0.8080903545185856
1770454389028,129,1,1.1080472338816754,0.6840137517855118,0.6734483169810086
1770454389032,129,1,0.6966083846087021,0.5478799458492924,0.2695320800624279
1770454389036,128,0,0.0205734772712204,-0.3126950355504025,-0.3994044102533614
1770454389040,127,-1,-0.7742711747539297,-1.3950882093566117,-1.1871264031130253
1770454389044,126,-2,-1.4968308021050305,-2.271345780046402,-1.9018955000880464
1770454389048,126,-2,-2.040230498253626,-2.3427168253627415,-2.437331589458693
1770454389052,126,-2,-2.4207701110513624,-2.4259690948644237,-2.810932732026051
1770454389056,125,-3,-2.704516837894333,-3.284949657021683,-3.088917206003649
1770454389060,125,-3,-2.9144568291344632,-3.4507564532100266,-3.2929756676552486
1770454389064,125,-3,-3.008828965340451,-3.1631640215438876,-3.380117001766777
1770454389068,125,-3,-2.9330434478345206,-3.4781268297409573,-3.2958991533862836
1770454389072,125,-3,-2.685389146076437,-3.2283213722364787,-3.039969914762128
1770454389076,126,-2,-2.3403557123799077,-2.4693491316308256,-2.688269594254143
1770454389080,126,-2,-2.0163984808369007,-2.270858554646795,-2.3594855998086093
1770454389084,126,-2,-1.8219851061271533,-2.30054023994885,-2.1605803825956023
1770454389088,126,-2,-1.8220573946566136,-2.3739338984056504,-2.1545039022001893
1770454389092,126,-2,-2.0273443597456424,-2.2565858858190024,-2.3515556634373582
1770454389096,126,-2,-2.382630501670774,-2.458014312095428,-2.6980645939509724
1770454389100,125,-3,-2.7604102994767254,-3.2414600518896135,-3.068322412525579
1770454389104,125,-3,-2.998115915753137,-3.3338551148413766,-3.30012146198026
1770454389108,125,-3,-2.9841392051809086,-3.3273222617961986,-3.2808567383782523
1770454389112,125,-3,-2.733381412049698,-3.2647260980439263,-3.024377413149325
1770454389116,126,-2,-2.3816286891710616,-2.4400784189300997,-2.666313700683577
1770454389120,126,-2,-2.092909745453435,-2.2205767905586553,-2.371222715953966
1770454389124,126,-2,-1.9538940694268525,-2.3776638585404397,-2.226156981616384
1770454389128,126,-2,-1.942103711183728,-2.2485061362462675,-2.2084982955030226
1770454389132,126,-2,-1.983005791551496,-2.33665382702965,-2.243343245484714
1770454389136,126,-2,-2.028836798698628,-2.3368365553787736,-2.282709146914151
1770454389140,126,-2,-2.0814910779339275,-2.290712482704654,-2.3285948409507435
1770454389144,126,-2,-2.144927043698397,-2.3264709207386103,-2.385365605987358
1770454389148,126,-2,-2.165153203292786,-2.2588793565338556,-2.399409049198118
1770454389152,126,-2,-2.0332519447809823,-2.3341977563842615,-2.2617729199394514
1770454389156,126,-2,-1.6679016831835107,-2.2865679826798804,-1.890917321427979
1770454389160,127,-1,-1.1047470184494492,-1.339249089741143,-1.3226446323708707
1770454389164,128,0,-0.4956113816514591,-0.2568269116832083,-0.7089512721707775
1770454389168,128,0,-0.0042661287256459,-0.3240956266104968,-0.2128142970581608
1770454389172,128,0,0.3109270084770621,-0.2465700617258617,0.1087324540500387
1770454389176,129,1,0.5323813159447599,0.6494155432692295,0.3381397301319686
1770454389180,129,1,0.8204000213935607,0.7368286539261508,0.6339791017040004
1770454389184,129,1,1.2980261157000652,0.6837273214841102,1.1174944995452465
1770454389188,130,2,1.9497378051304504,1.7525080102602937,1.7728656986933091
1770454389192,131,3,2.6009962411909204,2.695098863762717,2.4267619797255477
1770454389196,131,3,3.005966826800611,2.7272478111908565,2.8351888183341134
1770454389200,131,3,2.9924618742394165,2.684494070497374,2.8272693960156774
1770454389204,131,3,2.567952767690488,2.7261205067729453,2.4103135960221884
1770454389208,130,2,1.9168746418403424,1.7515382792379222,1.767303474350551
1770454389212,129,1,1.286653905663648,0.6762896002833105,1.14400198454129
1770454389216,129,1,0.8327168978793598,0.8195140093612192,0.6948243755992692
1770454389220,129,1,0.5290890977109381,0.5667720268917873,0.3939384310147898
1770454389224,128,0,0.2052678970200127,-0.110342919936121,0.0723526858738188
1770454389228,128,0,-0.3259827777359072,-0.4088483959517808,-0.4551257444208982
1770454389232,127,-1,-1.140434299126382,-1.16625790473557,-1.2633882880270408
1770454389236,126,-2,-2.149126777104847,-2.2728282428956996,-2.264542011810734
1770454389240,125,-3,-3.1463045565411787,-3.3902237003742757,-3.2548373277554137
1770454389244,124,-4,-3.9282569901238777,-4.05166610186733,-4.0318295087919775
1770454389248,124,-4,-4.407726293715047,-4.5469263549109975,-4.507950369845393
1770454389252,123,-5,-4.647711765442049,-4.9159548736701,-4.74481879350542
1770454389256,124,-4,-4.792704938639203,-4.583362227507774,-4.885692107494536
1770454389260,123,-5,-4.950559839592565,-4.996560370512526,-5.038217354269258
1770454389264,123,-5,-5.117036192163651,-5.476732908658748,-5.199014868808647
1770454389268,123,-5,-5.1994802176284205,-5.093789897751882,-5.2766470693807115
1770454389272,123,-5,-5.112399236727726,-5.339836102203812,-5.1860603387731805
1770454389276,123,-5,-4.860855464710259,-5.175490345303456,-4.931261704518473
1770454389280,124,-4,-4.543121753493607,-4.31814896350931,-4.608565076613914
1770454389284,124,-4,-4.275645962797581,-4.2196047595535635,-4.333274803639137
1770454389288,124,-4,-4.115334626725828,-4.266085642992791,-4.163724283511102
1770454389292,124,-4,-4.057707599842948,-4.2175147601906104,-4.099763906964915
1770454389296,124,-4,-4.10719911380988,-4.223518748968789,-4.150465688486618
1770454389300,124,-4,-4.325142245891181,-4.294973236865255,-4.3771728527136045
1770454389304,123,-5,-4.7514274982109175,-5.177059739117039,-4.812325513256876
1770454389308,123,-5,-5.1771605651800705,-5.356357132260889,-5.235870077990308
1770454389312,124,-4,-4.879031100426026,-4.048895973356737,-4.918404684350721
1770454389316,126,-2,-2.55758069046873,-2.425697717581752,-2.566117390224023
1770454389320,131,3,3.266813688358762,2.977137048643285,3.284792430473958
1770454389324,142,14,13.378703340821184,13.570176374050938,13.402914855991504
1770454389328,154,26,26.8980238056994,25.890849747608296,26.904078513742657
1770454389332,168,40,40.888764252330326,39.77452811540137,40.86407981654667
1770454389336,180,52,51.09139544949104,51.6949799010324,51.04296920518569
1770454389340,183,55,53.70938269322248,54.927894621056446,53.65836261931834
1770454389344,177,49,47.3741157901609,48.49577280381964,47.34311276248374
1770454389348,162,34,34.042046029382455,34.04541780012739,34.044336854428124
1770454389352,145,17,18.11483547324829,16.50908542270158,18.149690427833264
1770454389356,131,3,4.254109092509656,3.116365740154724,4.307894880394781
1770454389360,124,-4,-4.730501352085083,-4.477579182780805,-4.678176752753675
1770454389364,120,-8,-8.66575711364904,-7.985287288852166,-8.632018874721826
1770454389368,120,-8,-9.244529034411167,-8.449338786640542,-9.233901260131898
1770454389372,120,-8,-8.522914426691806,-8.05547820905004,-8.52508787073263
1770454389376,120,-8,-7.787651255233103,-8.288751456890358,-7.784560401266613
1770454389380,120,-8,-7.351891207729638,-8.130980976580954,-7.329397327954628
1770454389384,121,-7,-7.042155394168699,-7.195713059464986,-6.9983258129513475
1770454389388,122,-6,-6.737949784381728,-6.318517752407976,-6.6824745630149005
1770454389392,122,-6,-6.528482207574199,-6.075440301538085,-6.474199541674422
1770454389396,122,-6,-6.535967927694744,-6.39122321223158,-6.489313652468014
1770454389400,121,-7,-6.732514496706561,-6.909118173145694,-6.690257670662328
1770454389404,121,-7,-6.961764284141949,-7.453645214939348,-6.91586483825975
1770454389408,121,-7,-7.091007149851222,-6.990602312376313,-7.036428075887124
1770454389412,122,-6,-7.095741389530917,-6.394260292426828,-7.0338726332319395
1770454389416,121,-7,-7.006607611406438,-7.118682870362713,-6.941992393658008
1770454389420,121,-7,-6.824017384596111,-7.089438936792164,-6.759151131269264
1770454389424,122,-6,-6.512142209111743,-6.333895864854399,-6.446063511457403
1770454389428,122,-6,-6.058484189641287,-5.992189477198612,-5.989269475970896
1770454389432,123,-5,-5.514512818819816,-5.461632615279413,-5.441658159281141
1770454389436,123,-5,-4.97538892057636,-4.985999473539095,-4.899739837698676
1770454389440,124,-4,-4.523143845350715,-4.252701971746598,-4.445397722365167
1770454389444,124,-4,-4.181027961818409,-4.120063863786875,-4.100770223070668
1770454389448,124,-4,-3.909841375714585,-4.1870363572491796,-3.826062294019032
1770454389452,125,-3,-3.6406327173084216,-3.260304122306754,-3.553096420903472
1770454389456,125,-3,-3.3139089436543787,-3.169890673933451,-3.2236696670534597
1770454389460,125,-3,-2.906264017553384,-3.071736936344434,-2.814550777131554
1770454389464,126,-2,-2.4433307940133497,-2.2580260546786795,-2.350200390658587
1770454389468,126,-2,-1.991565283132834,-2.027537196985243,-1.8960389663088917
1770454389472,127,-1,-1.6181441244391002,-1.423177237007781,-1.519484746087437
1770454389476,127,-1,-1.3393344251393886,-0.9716278778964712,-1.2377213568697083
1770454389480,127,-1,-1.1076419716017347,-1.2944295895590834,-1.0036230824377357
1770454389484,127,-1,-0.8611889663056452,-0.9780641487291926,-0.7550536874767577
1770454389488,128,0,-0.5903680984112779,-0.2954809485895256,-0.4822886986187178
1770454389492,128,0,-0.3514642104660529,-0.1550946943463538,-0.2416717894560881
1770454389496,128,0,-0.2140206064320128,-0.1961274543649486,-0.1023775424837079
1770454389500,128,0,-0.1971831030887099,-0.1050402212635881,-0.0829823933351314
1770454389504,128,0,-0.2514708861143884,-0.095933825367237,-0.1341797972310097
1770454389508,128,0,-0.2946024002024922,-0.1991076065358185,-0.1746549054729576
1770454389512,128,0,-0.2725580345074521,-0.2032143951773474,-0.1510320040318259
1770454389516,128,0,-0.2056039914053811,-0.1538487959774377,-0.083158580426499
1770454389520,128,0,-0.1840284347937995,-0.1351896899786335,-0.0604208645251249
1770454389524,128,0,-0.3051226880681256,-0.0293015222414947,-0.17969099808534
1770454389528,128,0,-0.5904338499271767,-0.2709425512721939,-0.4626908115976305
1770454389532,127,-1,-0.9519527082282184,-1.0818156349805816,-0.8217095842168565
1770454389536,127,-1,-1.242407179275898,-1.3033440513766998,-1.1097979077683997
1770454389540,127,-1,-1.3484327571300945,-0.9426997482098158,-1.2139895717192233
1770454389544,127,-1,-1.248974560841524,-1.213649226151463,-1.1132961585695922
1770454389548,127,-1,-1.0016106430959977,-1.0660041787369254,-0.8648132527144062
1770454389552,128,0,-0.6811250732688672,-0.2388641792157692,-0.5428815177928129
1770454389556,128,0,-0.3225006578509234,-0.200068103816382,-0.1825607296270703
1770454389560,128,0,0.0872764909722385,0.0376203958473893,0.2289192060398468
1770454389564,129,1,0.5614230429313811,0.7534153060503674,0.704770184846947
1770454389568,129,1,1.0542224917163576,1.0639432444420565,1.199263839676122
1770454389572,130,2,1.4529733517666923,1.5851249722077574,1.5993428043996392
1770454389576,130,2,1.638049130535434,2.0303066346199135,1.7850745810518736
1770454389580,130,2,1.559107069045493,1.783345888369572,1.7066399909816767
1770454389584,129,1,1.2554049207824445,1.0471274194271134,1.4044071104301232
1770454389588,129,1,0.8066667666613296,0.7911488670850378,0.9582841218537446
1770454389592,129,1,0.2753397164759956,0.8617339200328014,0.4293071171542137
1770454389596,128,0,-0.3029559593793995,-0.2116182163340384,-0.1482949014883522
1770454389600,127,-1,-0.8959210398611821,-0.9941450881741356,-0.7417376504189581
1770454389604,127,-1,-1.465736972236904,-1.1168293719541018,-1.3113833582063572
1770454389608,126,-2,-1.9806484459226024,-2.063092485409009,-1.8245279865249353
1770454389612,126,-2,-2.4155535450527124,-2.238745439373801,-2.2570093127463577
1770454389616,126,-2,-2.733337473785897,-2.1106417066465797,-2.573231231992198
1770454389620,125,-3,-2.881577241807009,-3.0804235180020063,-2.7210391616328806
1770454389624,125,-3,-2.8321435724077557,-3.010886351077219,-2.6713750234063784
1770454389628,126,-2,-2.6302330943786223,-2.148594332474027,-2.4688739005886102
1770454389632,126,-2,-2.388641049067466,-2.146360997532784,-2.226657399534723
1770454389636,126,-2,-2.219769048840825,-2.1703770062271435,-2.0573224514411987
1770454389640,126,-2,-2.1690326043940464,-2.0224310870693105,-2.005864794018899
1770454389644,126,-2,-2.20515678692335,-2.0499709546212572,-2.040745542303713
1770454389648,126,-2,-2.261340848577346,-2.0962631756007752,-2.095570682544114
1770454389652,126,-2,-2.286144689612935,-2.1750416647215496,-2.119471263640756
1770454389656,126,-2,-2.2707227608170832,-2.1262151982233948,-2.103733252926956
1770454389660,126,-2,-2.2415041071808535,-2.045601538079219,-2.0745123696198275
1770454389664,126,-2,-2.229398605754842,-2.0294038294278787,-2.06237470541871
1770454389668,126,-2,-2.2418438588757374,-2.0847556646140584,-2.0745090965713757
1770454389672,126,-2,-2.260214896460481,-2.1804295612769287,-2.0921922483110844
1770454389676,126,-2,-2.2612537448125085,-2.0926033256814245,-2.0923022677023884
1770454389680,126,-2,-2.2397608353149083,-2.066617002561772,-2.069971171022094
1770454389684,126,-2,-2.213047140839176,-2.0112839705405445,-2.0428156915953366
1770454389688,126,-2,-2.208438795203982,-2.054633225299438,-2.0383126569305303
1770454389692,126,-2,-2.2472148227696156,-2.236719244413009,-2.0777655118337814
1770454389696,126,-2,-2.333239878854013,-1.9636707498469128,-2.1647353222371852
1770454389700,126,-2,-2.448308951121872,-2.238518738514809,-2.280088487573323
1770454389704,125,-3,-2.5551636696297404,-2.7811103464517783,-2.38562724406284
1770454389708,126,-2,-2.602187911704326,-2.297524608463532,-2.4301987020762654
1770454389712,126,-2,-2.522707350640496,-1.963938473237812,-2.349100451563543
1770454389716,126,-2,-2.2467877385757458,-2.2076418339757167,-2.0738876649984372
1770454389720,126,-2,-1.753357997904062,-2.006258867175159,-1.5829545429740235
1770454389724,127,-1,-1.1341392689370635,-0.9671903728979452,-0.9663216323621592
1770454389728,128,0,-0.5830872422384995,-0.134904488430791,-0.4166260173172709
1770454389732,128,0,-0.2756225043577697,-0.0753019326759931,-0.1086512953322758
1770454389736,128,0,-0.2237479614231536,-0.0849612799586432,-0.0543995800442118
1770454389740,128,0,-0.2369989335829542,-0.1377762032723483,-0.0646116476460538
1770454389744,128,0,-0.0359745514836427,0.2088354249429516,0.1378929094819696
1770454389748,129,1,0.5515101922852441,0.6549118463044739,0.7238808020664251
1770454389752,129,1,1.4407363012216292,1.2227674648964135,1.609444811754973
1770454389756,131,3,2.298785116125035,2.590576507763604,2.4638226997448784
1770454389760,131,3,2.7342060599728324,3.222650812893616,2.8971887429001004
1770454389764,131,3,2.5557529519544815,2.844235915381096,2.718832959582291
1770454389768,130,2,1.908629229571447,2.010570793168173,2.073880635709352
1770454389772,129,1,1.1746523184875373,0.9416014803387044,1.343290301357542
1770454389776,129,1,0.7133705991296283,0.8212247442133959,0.8844949766861763
1770454389780,129,1,0.6439509901321632,1.090420162449341,0.8142941103195531
1770454389784,129,1,0.8089674585609222,0.9118317450854616,0.974875889976312
1770454389788,129,1,0.9023205142306464,1.0183426975947163,1.062568869211694
1770454389792,129,1,0.6459982105196107,0.9204346086489852,0.802716038628315
1770454389796,128,0,-0.0822713124457438,-0.1427613265174818,0.0746341154663363
1770454389800,127,-1,-1.205632659134128,-0.920345219945066,-1.0458805776845317
1770454389804,126,-2,-2.484971439902824,-2.0792339967048608,-2.3221413701246902
1770454389808,124,-4,-3.618160184397528,-3.9645205137235697,-3.454124136458093
1770454389812,124,-4,-4.365646185525377,-4.072658951724696,-4.203232032724568
1770454389816,124,-4,-4.646527751883514,-4.142812774600671,-4.488008146270722
1770454389820,123,-5,-4.56112733725104,-4.891971458104522,-4.406679597637805
1770454389824,124,-4,-4.334510074717171,-4.1069883335323345,-4.1820577303566395
1770454389828,124,-4,-4.202742546000149,-3.901066327371899,-4.050049178982398
1770454389832,124,-4,-4.285699673028127,-4.1528394941365505,-4.1327410925281045
1770454389836,124,-4,-4.521051354067797,-4.01512429315783,-4.369698998791664
1770454389840,123,-5,-4.723164406755146,-5.026141652638863,-4.574280305520988
1770454389844,123,-5,-4.737913116871724,-4.965400660021044,-4.589360542374903
1770454389848,124,-4,-4.565239414201837,-3.986534552890501,-4.413544000392217
1770454389852,124,-4,-4.342114358297596,-4.111167256063954,-4.186468474765577
1770454389856,124,-4,-4.220516035540389,-3.9652076914095944,-4.0653111541603195
1770454389860,124,-4,-4.276798838495182,-4.124281051065349,-4.130029711964818
1770454389864,123,-5,-4.521862497409927,-4.8324100290508,-4.389798066030018
1770454389868,123,-5,-4.9195575158622225,-5.103752359468689,-4.80095027063116
1770454389872,123,-5,-5.259954767632971,-4.999222948639507,-5.144148673992346
1770454389876,124,-4,-4.887005337673065,-4.002998796536783,-4.758453753073978
1770454389880,126,-2,-2.541363264005538,-2.123982507335527,-2.389135339406308
1770454389884,131,3,3.325881802222984,3.2247363488061938,3.499027210629066
1770454389888,142,14,13.672497326559064,13.825991846643545,13.848659686754733
1770454389892,155,27,27.805310493750124,27.120648189207714,27.96101474207647
1770454389896,170,42,42.86963214770822,41.92161854678647,42.99066915735955
1770454389900,183,55,54.49765034387877,54.92681661584369,54.58776816984166
1770454389904,188,60,58.591704932545774,60.192305288585096,58.669334264098715
1770454389908,183,55,53.379011662226645,54.75515880571336,53.46668104091479
1770454389912,168,40,40.46022981604246,40.24726065915455,40.574319564738246
1770454389916,151,23,24.08085425257203,22.743652043866,24.22486277838439
1770454389920,136,8,9.03500643644054,8.188723256157243,9.197252902585644
1770454389924,127,-1,-1.470325947619619,-1.0101475797633863,-1.311931142400051
1770454389928,122,-6,-6.761801232705955,-5.996897648047548,-6.627563445703642
1770454389932,120,-8,-8.177369351829107,-7.896021752858381,-8.073465367739356
1770454389936,121,-7,-7.743533375635696,-7.212110070834486,-7.659410057401759
1770454389940,121,-7,-7.0052659372084936,-6.783213447256968,-6.922532297753744
1770454389944,121,-7,-6.586102236086564,-7.1442142028544575,-6.490900195547743
1770454389948,121,-7,-6.446103132580066,-6.73534929201049,-6.336057514871515
1770454389952,122,-6,-6.3896699452917565,-6.191858345298573,-6.272588428081254
1770454389956,122,-6,-6.370542846258567,-5.883908025015232,-6.257508375044677
1770454389960,122,-6,-6.462428174788673,-6.112756422677774,-6.360249147089882
1770454389964,121,-7,-6.685261198605215,-6.842263938536374,-6.593024370763406
1770454389968,121,-7,-6.929095047062275,-6.944672839878778,-6.840615642430937
1770454389972,121,-7,-7.034337632835307,-7.016491656738329,-6.943933476386875
1770454389976,121,-7,-6.910817770168941,-6.989182506942767,-6.817607301998396
1770454389980,122,-6,-6.572536520315934,-6.065536874139715,-6.480148373345412
1770454389984,122,-6,-6.085464181156927,-5.827882447980588,-5.997997849841152
1770454389988,122,-6,-5.517046430715758,-5.970845545877043,-5.435329150346659
1770454389992,123,-5,-4.940842762839509,-4.933072185855256,-4.8625551173416
1770454389996,124,-4,-4.4509687563939515,-4.082024823874571,-4.373841244842511
1770454390000,124,-4,-4.124466245366266,-3.9812086097018424,-4.048382253738822
1770454390004,124,-4,-3.9575502365699338,-3.86485871389485,-3.883471364693626
1770454390008,124,-4,-3.857709297615955,-3.955590137936341,-3.7857764865674057
1770454390012,124,-4,-3.7132617811583097,-3.8698345665683296,-3.642994742533913
1770454390016,125,-3,-3.4714366142941664,-3.1955454061613624,-3.4033624339618513
1770454390020,125,-3,-3.155077270860745,-2.810783826957897,-3.0908320017028963
1770454390024,125,-3,-2.825837844736521,-3.052220932385845,-2.7661540114160856
1770454390028,125,-3,-2.545609863894394,-2.729888360744826,-2.4890905479789707
1770454390032,126,-2,-2.3512910130689098,-2.0674754080388507,-2.2959788661819855
1770454390036,126,-2,-2.224516654064417,-2.030944881560717,-2.1701328213676896
1770454390040,126,-2,-2.0736303178855495,-1.9037516156088097,-2.0213919716898667
1770454390044,126,-2,-1.7782730453694862,-2.011475335596381,-1.7289150053380895
1770454390048,126,-2,-1.2898568739231946,-1.6791042338050857,-1.243055440720695
1770454390052,128,0,-0.6942716376275816,-0.1668535572774465,-0.6501282131272136
1770454390056,128,0,-0.1616892568690507,0.1364832369473969,-0.1214310124942841
1770454390060,128,0,0.1695232040860625,-0.1063303098991614,0.2051827560142018
1770454390064,128,0,0.2606126888124099,0.2441622331858065,0.2930149605021155
1770454390068,128,0,0.1516290823313445,0.051949853072261,0.1830360222452449
1770454390072,128,0,-0.0871763346912931,0.121403348405914,-0.0560577139671759
1770454390076,128,0,-0.3752587940773635,-0.1104637655699183,-0.3458844132926866
1770454390080,127,-1,-0.6301907070205411,-0.8873904953042824,-0.6044043888880433
1770454390084,127,-1,-0.8015694400443656,-0.9037720368854932,-0.779975370953491
1770454390088,127,-1,-0.9108007446570714,-0.85427443401969,-0.893024932702102
1770454390092,127,-1,-1.0407030577382177,-0.8945210435708447,-1.0263567745387634
1770454390096,127,-1,-1.2659778056224076,-1.123002161077817,-1.2546274020969932
1770454390100,126,-2,-1.583519666512572,-1.819367436995623,-1.5742383954449508
1770454390104,126,-2,-1.8997926313845173,-1.9946530314853024,-1.8917961487880113
1770454390108,126,-2,-2.0742409925645133,-1.7408663819557066,-2.068011212505364
1770454390112,126,-2,-1.984656083114443,-1.9827746431793267,-1.9815997441879043
1770454390116,126,-2,-1.589452802918119,-2.0299467442466685,-1.5902856574232924
1770454390120,127,-1,-0.9608195910521058,-0.8610540175986948,-0.9650044411350354
1770454390124,128,0,-0.2538029582629607,0.0102175356204907,-0.2607157632567842
1770454390128,128,0,0.3830055744267375,0.2933312921819844,0.3731538735128399
1770454390132,129,1,0.8820914958925763,0.9958870825630626,0.8688991689629009
1770454390136,129,1,1.2475729963158504,0.9951184348176392,1.2314214680907634
1770454390140,129,1,1.4820441291032649,1.1672903680658282,1.4637276793999865
1770454390144,130,2,1.5408860817802217,1.922080663926915,1.5203791041490862
1770454390148,129,1,1.368655415248092,1.4788146172768968,1.3449793034127009
1770454390152,129,1,0.970505567332527,0.7401083463711663,0.9430902111019748
1770454390156,128,0,0.4312858025613215,0.3621654523569332,0.4008517129376774
1770454390160,128,0,-0.1372532997209571,-0.2678594142157571,-0.1696609635511746
1770454390164,127,-1,-0.6602899987087958,-0.5948383487282869,-0.6947573352122355
1770454390168,127,-1,-1.1181851491615151,-0.9795486295999164,-1.1558499247591718
1770454390172,126,-2,-1.5239202820842472,-1.824588211821879,-1.5655807263772457
1770454390176,126,-2,-1.8953236325821377,-1.9768586994750976,-1.940642063636577
1770454390180,126,-2,-2.2381709997321884,-2.02100257457745,-2.286228289321136
1770454390184,125,-3,-2.537701907290223,-2.738327401255886,-2.5878562386658706
1770454390188,125,-3,-2.7623177539722814,-2.898370252047354,-2.814500007513187
1770454390192,125,-3,-2.8834797471898397,-2.814717042793379,-2.9381309249016994
1770454390196,125,-3,-2.8994506921341876,-3.0203527160776957,-2.957339773943556
1770454390200,125,-3,-2.844653746630571,-2.9448131504098405,-2.9064612198665354
1770454390204,125,-3,-2.7778114139213814,-2.813624489341109,-2.8436029296853107
1770454390208,125,-3,-2.7540197287709,-2.809883736193988,-2.823020295572994
1770454390212,125,-3,-2.793921006207674,-2.865341571180706,-2.8648977323120866
1770454390216,125,-3,-2.867496030986728,-2.9716843420045937,-2.939693946759065
1770454390220,125,-3,-2.9049916148284662,-2.9777297028613416,-2.9789451032372156
1770454390224,125,-3,-2.8352140412678835,-2.7758940596853856,-2.9124543438895714
1770454390228,125,-3,-2.6379873001404737,-2.8256025338520567,-2.719663020680491
1770454390232,125,-3,-2.3803727438312228,-2.8246194602780124,-2.466265269379856
1770454390236,126,-2,-2.1957463324852577,-2.0001079076368415,-2.2847557389708664
1770454390240,126,-2,-2.196812217494408,-1.9447942054194032,-2.2880027506799614
1770454390244,125,-3,-2.384339813588942,-2.7977472729681594,-2.477273031588983
1770454390248,125,-3,-2.6389440926311103,-2.791222747709752,-2.733614306014636
1770454390252,125,-3,-2.8109599610679203,-2.8216778793959714,-2.9079662220264666
1770454390256,125,-3,-2.8315300303678343,-3.0200699130564126,-2.9319368297337847
1770454390260,125,-3,-2.7566940021785182,-2.86889911954892,-2.8612204779489514
1770454390264,125,-3,-2.716319838612951,-2.911394768965911,-2.8247550088576836
1770454390268,125,-3,-2.806396625658402,-2.6172734422594424,-2.917866612650577
1770454390272,125,-3,-3.002942985112286,-3.008939679012218,-3.116481622693032
1770454390276,124,-4,-3.166583067280963,-3.8056804827732753,-3.2815676961858813
1770454390280,125,-3,-3.136578168848296,-3.074571250556275,-3.2531230830721567
1770454390284,125,-3,-2.8369981153671873,-2.696273607782366,-2.955941961414819
1770454390288,125,-3,-2.317280920856521,-2.809812227954986,-2.439505145125513
1770454390292,126,-2,-1.713357523150728,-1.7941913972726324,-1.8392978590958071
1770454390296,127,-1,-1.1665493797185422,-1.0115496430720143,-1.296398058096949
1770454390300,127,-1,-0.7532527781910876,-0.8679784783278288,-0.8868997000235235
1770454390304,127,-1,-0.470548464818378,-0.8789663842967966,-0.607009352203579
1770454390308,127,-1,-0.2763757618122082,-0.6233350531014543,-0.4141168370753572
1770454390312,128,0,-0.1258904212224383,0.052129594292114,-0.2643183382652707
1770454390316,128,0,0.0387859429773391,0.1466536903051855,-0.1012992350311956
1770454390320,128,0,0.3056965623709864,-0.0126790692682425,0.1626898692123686
1770454390324,128,0,0.7512579463005407,0.2783161319099294,0.6049992563500073
1770454390328,129,1,1.356394850582987,1.2337118859607692,1.206973243894006
1770454390332,130,2,1.9723667664154017,2.2090210816422235,1.819387483563673
1770454390336,130,2,2.3851555731225185,2.027980667279603,2.228275127193884
1770454390340,130,2,2.4290975212812587,2.076159873464009,2.269057685562068
1770454390344,130,2,2.0700882589054856,2.252472089928691,1.9083877578910824
1770454390348,129,1,1.418392936983669,1.194348904129937,1.256009370284834
1770454390352,128,0,0.6703749289409116,0.3530651847541627,0.5071587308845592
1770454390356,128,0,0.0062311948698141,-0.1661424355650653,-0.1587699538328607
1770454390360,127,-1,-0.4996549358870545,-0.6672066627056862,-0.6676705764158096
1770454390364,127,-1,-0.8998213608966136,-1.0213500542685134,-1.0718609253570115
1770454390368,126,-2,-1.319022133845668,-1.5249742964394433,-1.4953019257293907
1770454390372,126,-2,-1.869282773671357,-1.870131849260282,-2.048894772069588
1770454390376,125,-3,-2.589969985959552,-2.984073929459826,-2.7713686829258113
1770454390380,124,-4,-3.4353324307738937,-3.768684683189533,-3.617562094760584
1770454390384,124,-4,-4.295931830566224,-3.994058431463978,-4.4793743077764265
1770454390388,122,-6,-5.0366828409911815,-5.454724070993939,-5.222292858327463
1770454390392,122,-6,-5.547390799971948,-5.995711309273759,-5.735409961904194
1770454390396,122,-6,-5.789712759587328,-5.765883149742957,-5.9797466938682575
1770454390400,122,-6,-5.804770998837695,-6.0411980725349235,-5.997043371906294
1770454390404,122,-6,-5.672130047379991,-5.675386548699113,-5.867859203757422
1770454390408,122,-6,-5.461779011307137,-5.761504428270224,-5.661885301211306
1770454390412,122,-6,-5.22103966576839,-5.701447950371187,-5.424697464463493
1770454390416,123,-5,-4.985927182628238,-4.983536432861591,-5.190575717871953
1770454390420,123,-5,-4.779516963109549,-4.895399841496613,-4.982288924799491
1770454390424,123,-5,-4.596889097407481,-4.728045249598454,-4.796601852916122
1770454390428,123,-5,-4.41613618405175,-4.764560305248057,-4.615217021218172
1770454390432,123,-5,-4.247226408024169,-4.624894744037767,-4.452249227171773
1770454390436,124,-4,-4.162788567533884,-4.087905736867713,-4.3813960474439
1770454390440,123,-5,-4.232873570801478,-4.749951728559055,-4.467201638208619
1770454390444,123,-5,-4.338149470190191,-4.882914173479407,-4.579835222905937
1770454390448,124,-4,-3.929336842016446,-3.582962458886113,-4.162307461651536
1770454390452,126,-2,-1.9055481440034336,-1.7839744410360685,-2.1166803212614025
1770454390456,131,3,3.15703716921694,3.06493281594285,2.967079633784027
1770454390460,140,12,12.307305843152331,12.17487788025414,12.12230412728749
1770454390464,152,24,25.26746628770307,24.138820251653545,25.065436370334567
1770454390468,166,38,39.81063333831656,38.4969070843864,39.577907773355555
1770454390472,180,52,52.10505289640261,52.07181751054856,51.84387961673723
1770454390476,187,59,58.17991269268083,59.2654662194108,57.90540958367923
1770454390480,185,57,55.84714211100935,56.897445477034054,55.57839282050675
1770454390484,173,45,45.89102253373951,45.4296057508941,45.64266438829792
1770454390488,158,30,31.6823804286018,30.14899201315884,31.458919903266292
1770454390492,144,16,17.4369167748989,16.494890211084478,17.230432486876953
1770454390496,134,6,6.26190223801846,5.884647345816361,6.055278676005317
1770454390500,127,-1,-0.8345660714460692,-0.6239592218277068,-1.0585105685726253
1770454390504,124,-4,-4.605770127006218,-4.016748720509004,-4.854326896381047
1770454390508,121,-7,-6.452907473060745,-6.453493107722628,-6.7198156729629845
1770454390512,120,-8,-7.437187913843376,-7.876574641056164,-7.707788729857385
1770454390516,119,-9,-7.972626085637069,-8.790972152201238,-8.233804230275446
1770454390520,119,-9,-8.11481991338864,-8.833383955912101,-8.362870592450378
1770454390524,120,-8,-7.961316609099542,-7.866329978072712,-8.202832846649107
1770454390528,120,-8,-7.769001001420153,-7.529317838829558,-8.014623181206403
1770454390532,120,-8,-7.78279880448323,-7.90026047658671,-8.038672560062594
1770454390536,119,-9,-8.046389266254847,-8.665606536923658,-8.310142676061856
1770454390540,119,-9,-8.402826779998348,-8.998081420609521,-8.667141492710359
1770454390544,119,-9,-8.643827854892306,-8.620979406232138,-8.90370404373405
1770454390548,119,-9,-8.637086423261048,-8.806121866554731,-8.893761669009017
1770454390552,119,-9,-8.347868326716888,-8.620220313489865,-8.606412875876051
1770454390556,120,-8,-7.8083491676140016,-7.909284591891623,-8.072336332089929
1770454390560,120,-8,-7.107948419281017,-7.75931065363715,-7.376638792644758
1770454390564,121,-7,-6.397051276425199,-6.8017818873243145,-6.667194406072341
1770454390568,122,-6,-5.8444424931862855,-5.653877486786023,-6.114012318626455
1770454390572,122,-6,-5.540724316795956,-5.752899227665796,-5.810354800896452
1770454390576,122,-6,-5.431038581391785,-5.777831593595312,-5.702131852731104
1770454390580,122,-6,-5.359091352684166,-5.846729624737873,-5.63162565967518
1770454390584,122,-6,-5.1909713007230565,-5.719942149598707,-5.463838359995637
1770454390588,123,-5,-4.899049645094434,-4.703617225917059,-5.171983587179922
1770454390592,123,-5,-4.536798220199383,-4.7142685210751125,-4.811039841059653
1770454390596,123,-5,-4.1581736273588366,-4.795829782616322,-4.43516387615346
1770454390600,124,-4,-3.7780591503255936,-3.798084932800227,-4.057961694143126
1770454390604,124,-4,-3.3995185357832196,-3.772525285992749,-3.681028545770748
1770454390608,124,-4,-3.053629185242074,-3.6325915149982184,-3.334996615982943
1770454390612,125,-3,-2.79190260438932,-2.7712435847136407,-3.072370125498416
1770454390616,125,-3,-2.6295529678725544,-2.7416605563408885,-2.9100150368191353
1770454390620,125,-3,-2.5035636648710926,-2.804224850211348,-2.7856027767012352
1770454390624,125,-3,-2.313042450170665,-2.786800350823364,-2.5972832531018355
1770454390628,125,-3,-2.0243524128675574,-2.578814935673119,-2.310118914227149
1770454390632,126,-2,-1.7340300595819336,-1.8482427920846356,-2.0206086610353164
1770454390636,126,-2,-1.6067687850066057,-1.6069854822514908,-1.8943581949892885
1770454390640,126,-2,-1.7345252416045591,-1.958074079328942,-2.0235327483737136
1770454390644,125,-3,-2.0506112711755264,-2.585353614123328,-2.3405292008754293
1770454390648,125,-3,-2.3756909417833167,-2.8149972925437514,-2.6654028490619917
1770454390652,125,-3,-2.541421805237394,-2.578182780519448,-2.8305396265167246
1770454390656,125,-3,-2.480711992982867,-2.855815799750344,-2.7700953215683093
1770454390660,125,-3,-2.2289577305823456,-2.6951738902761546,-2.5199382175908926
1770454390664,126,-2,-1.8618498365015224,-1.8103611814834697,-2.1551658102670057
1770454390668,126,-2,-1.432164563161929,-1.6386167498238442,-1.7273361266377498
1770454390672,126,-2,-0.9549470598974824,-1.6945513312241227,-1.2504894404301057
1770454390676,127,-1,-0.4388232333465164,-0.7639719998697979,-0.7335491077400808
1770454390680,128,0,0.0873474287246993,0.2833974110812505,-0.2069301684588769
1770454390684,128,0,0.5846850854663221,0.1837701196389058,0.2894617794086467
1770454390688,128,0,1.0222561132771948,0.3871636239263765,0.7254130677685071
1770454390692,129,1,1.36836848225158,1.281634208222206,1.0705290983240956
1770454390696,129,1,1.5740946189664486,1.271201220752921,1.2760646212000837
1770454390700,129,1,1.584085510877298,1.2957549007948217,1.2858435362190606
1770454390704,129,1,1.3679591097446595,1.1637700510472122,1.0688984799111927
1770454390708,128,0,0.9384576759190776,0.4164016118266501,0.6382348801832405
1770454390712,128,0,0.3424558139179711,0.2481071102833836,0.0414916577152002
1770454390716,127,-1,-0.3605766237426444,-0.6651574841455502,-0.6612996241023748
1770454390720,126,-2,-1.112237044495663,-1.7439321056112131,-1.4120805750556291
1770454390724,126,-2,-1.8521167295872816,-1.777895731583497,-2.1517569430495262
1770454390728,125,-3,-2.5088869619540537,-2.6476529628967596,-2.8100114931933544
1770454390732,124,-4,-3.012268633810225,-3.6892964385526024,-3.3157843348864184
1770454390736,124,-4,-3.3324559000480813,-3.691112558815945,-3.6372287619525343
1770454390740,124,-4,-3.5030377396169174,-3.701954761683026,-3.806942155165139
1770454390744,124,-4,-3.5793892417626716,-3.800243524854477,-3.881545586138337
1770454390748,124,-4,-3.560514390853394,-3.626833566045508,-3.8620812194072793
1770454390752,124,-4,-3.368335847602691,-3.708506668512433,-3.6710385073631713
1770454390756,124,-4,-2.9350528038649086,-3.657403466634485,-3.239343955764507
1770454390760,125,-3,-2.3263204969717304,-2.6921443877481974,-2.6313783088848384
1770454390764,126,-2,-1.7628535856590803,-1.8211553570736387,-2.0681358686061833
1770454390768,126,-2,-1.4881558789144138,-1.5711493965373564,-1.79416597555665
1770454390772,126,-2,-1.5899041291346296,-1.7942293510603613,-1.8970496642458452
1770454390776,125,-3,-1.9400345885660224,-2.533277664646985,-2.2472807614765866
1770454390780,125,-3,-2.3041312405554955,-2.8118339850492364,-2.609595306442208
1770454390784,125,-3,-2.5100182914295592,-2.6760356763247337,-2.813089243583411
1770454390788,125,-3,-2.529476996387972,-2.7012402581999506,-2.831924559285725
1770454390792,125,-3,-2.4361357809878843,-2.667099434038479,-2.74073408378789
1770454390796,125,-3,-2.320863998309071,-2.633813992316206,-2.628857598866535
1770454390800,125,-3,-2.252637279985005,-2.7093454419011502,-2.562616173023211
1770454390804,125,-3,-2.2880587285808476,-2.7594125798194566,-2.5973486076602876
1770454390808,125,-3,-2.4688893912818344,-2.597679503998135,-2.775996093425159
1770454390812,125,-3,-2.7769910912872904,-2.781074849406093,-3.082539388439152
1770454390816,124,-4,-3.0975832249804616,-3.479684430412411,-3.4029851773231594
1770454390820,124,-4,-3.2622271790256834,-3.8781809748481986,-3.568094892167455
1770454390824,124,-4,-3.1596140541951834,-3.557399295743047,-3.465901951611408
1770454390828,125,-3,-2.8150520190734323,-2.788697774180052,-3.122039453795041
1770454390832,125,-3,-2.3653831846567,-2.5922564466406497,-2.673480759987672
1770454390836,125,-3,-1.9607062678571947,-2.6116847718646623,-2.269478600417884
1770454390840,126,-2,-1.67675275323287,-1.8075709859431923,-1.985105694221254
1770454390844,126,-2,-1.487051337040071,-1.5327997325881286,-1.794467859994683
1770454390848,126,-2,-1.2969660932083331,-1.895821226376152,-1.603874372235191
1770454390852,126,-2,-1.0170399874795082,-1.3746369329422188,-1.3239664914368752
1770454390856,127,-1,-0.627939060450738,-0.8801002187139069,-0.9349461967297624
1770454390860,127,-1,-0.1836785998152081,-0.5107806592217308,-0.4907347539355127
1770454390864,128,0,0.2494916226473391,0.2095922742647163,-0.0578387532443509
1770454390868,128,0,0.6546046247105497,0.3045077331883687,0.346899936988996
1770454390872,128,0,1.059595341592431,0.5426331269603191,0.7519659775155776
1770454390876,129,1,1.4734061483786869,1.1019571248895788,1.166366547685778
1770454390880,129,1,1.8371601468081795,1.615793987995011,1.5304017148594735
1770454390884,130,2,2.0478734947896227,2.022744505236987,1.740435143211735
1770454390888,129,1,2.029753057193875,1.5446804672623733,1.7213123751866464
1770454390892,129,1,1.781879836348216,1.3214373493763547,1.4734034839971797
1770454390896,129,1,1.3688979701564612,1.2808897623796134,1.0616468284796592
1770454390900,128,0,0.8792854418542083,0.5299369323454592,0.5734512860217316
1770454390904,128,0,0.3851722691296854,0.0190540985123168,0.0797616969885222
1770454390908,127,-1,-0.0837368491107217,-0.3184050409423824,-0.38990234136613
1770454390912,127,-1,-0.5476183176936182,-0.9042516610604192,-0.8550032278680209
1770454390916,126,-2,-1.0586807607383983,-1.4202081805129367,-1.366907424040556
1770454390920,126,-2,-1.660907149344086,-1.781370758661197,-1.9691562404768288
1770454390924,125,-3,-2.349022466675617,-2.6774033077761543,-2.6565001897389955
1770454390928,124,-4,-3.055277336478655,-3.5411313099529704,-3.361618554152101
1770454390932,124,-4,-3.6751308377399616,-3.758859972340742,-3.9806601419280536
1770454390936,123,-5,-4.116124250867744,-4.461852382033815,-4.421634506501798
1770454390940,123,-5,-4.342714453668606,-4.820041662974261,-4.648776294185696
1770454390944,123,-5,-4.393662716120411,-4.54544548756291,-4.700199456964562
1770454390948,123,-5,-4.359271148069125,-4.701342934571217,-4.6659141753522535
1770454390952,123,-5,-4.327954941756975,-4.5829505655871685,-4.634725302011294
1770454390956,123,-5,-4.3364076311650015,-4.596973358891214,-4.643834789008204
1770454390960,123,-5,-4.358437333742139,-4.745605505441487,-4.666714117648274
1770454390964,123,-5,-4.339360109606438,-4.513548454437609,-4.6472102141309275
1770454390968,123,-5,-4.248893977818156,-4.802676455523646,-4.553723792127824
1770454390972,123,-5,-4.111585488727265,-4.405903282447658,-4.411772454478337
1770454390976,124,-4,-3.9945706702688017,-3.7955303936423737,-4.29224847286536
1770454390980,123,-5,-3.974922359052641,-4.5474430732121585,-4.276139390389908
1770454390984,123,-5,-4.119469052704902,-4.653603063740462,-4.43048867590319
1770454390988,123,-5,-4.4561065097490475,-4.711063921705834,-4.7780924328344465
1770454390992,122,-6,-4.866434363105874,-5.415082233202584,-5.192556122377713
1770454390996,123,-5,-4.888834592158041,-4.853792981650751,-5.206820171097217
1770454391000,124,-4,-3.574016728811327,-3.3937769796787283,-3.873685196437795
1770454391004,128,0,0.3660526504665364,0.1366009692309306,0.0850156804655981
1770454391008,135,7,7.978811407286262,7.58310801746466,7.704963379831181
1770454391012,146,18,19.237910024510285,18.272873729041848,18.954374863864903
1770454391016,159,31,32.4588100992557,31.48028066548897,32.15363564966878
1770454391020,172,44,44.50593417229691,44.31276778996252,44.17892329674171
1770454391024,180,52,51.93376821479174,52.37618407287603,51.59549355480471
1770454391028,181,53,52.55262820918568,53.3808179852241,52.21790100992482
1770454391032,174,46,46.48900870516825,46.39365656156828,46.16993617079908
1770454391036,162,34,36.03874303970847,34.38661497765965,35.74002010913779
1770454391040,151,23,24.41182335137835,23.4014849922136,24.128661630933152
1770454391044,142,14,14.21879602168099,14.370618531304284,13.938928358276442
1770454391048,134,6,6.622352947670086,6.4218626801378225,6.332859415544836
1770454391052,129,1,1.4725934157395022,1.4095123551502342,1.1674537587740523
1770454391056,126,-2,-1.9553416884952712,-1.6652818487110834,-2.2729203301206797
1770454391060,123,-5,-4.270491888178224,-4.539833215756073,-4.591796118985169
1770454391064,121,-7,-5.742327155428119,-6.686967388801868,-6.058835172130412
1770454391068,120,-8,-6.503932575734166,-7.467062850727272,-6.811643781661289
1770454391072,121,-7,-6.809193334877806,-6.71092598076039,-7.1102600946550485
1770454391076,121,-7,-7.022563150291065,-6.520669023650703,-7.323118368259261
1770454391080,120,-8,-7.378614040080102,-7.7269247115397315,-7.683561616848806
1770454391084,119,-9,-7.817537939342825,-8.451888239691215,-8.12668759340005
1770454391088,119,-9,-8.096283825088914,-8.698623586895925,-8.405698398730044
1770454391092,119,-9,-8.05539892973518,-8.461489121303892,-8.36219382334264
1770454391096,120,-8,-7.768828622152227,-7.741770869409216,-8.073957522898585
1770454391100,120,-8,-7.453286150821421,-7.540172474419809,-7.759675261130392
1770454391104,120,-8,-7.260247345781654,-7.568754021088329,-7.5690823082669345
1770454391108,120,-8,-7.158762789430744,-7.636140578725159,-7.468342866428651
1770454391112,120,-8,-6.994631250968128,-7.43862776115764,-7.3027132361364195
1770454391116,121,-7,-6.640735482965319,-6.834015485715759,-6.947203599860689
1770454391120,121,-7,-6.099222628463718,-6.355776321887209,-6.405951340459989
1770454391124,122,-6,-5.490805290309156,-5.808726571083416,-5.799286650381291
1770454391128,122,-6,-4.964169424171539,-5.321805359113974,-5.2740301616830045
1770454391132,123,-5,-4.598704000014374,-4.793720057089858,-4.908603823843313
1770454391136,123,-5,-4.362332260025313,-4.445397480048871,-4.671560960572357
1770454391140,123,-5,-4.1520623921964726,-4.733975234924559,-4.46084945955809
1770454391144,123,-5,-3.8901426199986866,-4.433229125956544,-4.1989949114356975
1770454391148,124,-4,-3.5952625232996853,-3.643367577684933,-3.904600533983748
1770454391152,124,-4,-3.3603954406423084,-3.520839920317339,-3.6705211278857255
1770454391156,124,-4,-3.258171344713691,-3.6422405901326,-3.5690603723774754
1770454391160,124,-4,-3.266416164085859,-3.591678982740052,-3.577622321579801
1770454391164,124,-4,-3.2802878828659248,-3.500727979347427,-3.5912846848516176
1770454391168,124,-4,-3.19335309918773,-3.621533192789584,-3.50394081830546
1770454391172,124,-4,-2.9748888889744465,-3.478149572653738,-3.2853663611776724
1770454391176,125,-3,-2.6795422306739245,-2.7192580283547105,-2.9906204648553723
1770454391180,125,-3,-2.3859775169629875,-2.457568472353672,-2.6982232776276285
1770454391184,125,-3,-2.1278896360241335,-2.6673839299784996,-2.440999848622869
1770454391188,125,-3,-1.8840744279857051,-2.402857571930217,-2.197088333018546
1770454391192,126,-2,-1.6238456934509875,-1.728493169292317,-1.9363247201586415
1770454391196,126,-2,-1.3495887420348611,-1.419961050041194,-1.6620861409588052
1770454391200,126,-2,-1.102051369455668,-1.7654544654576008,-1.4152191032096697
1770454391204,126,-2,-0.9386374578663176,-1.3361225507938363,-1.252545812978967
1770454391208,127,-1,-0.9001635627876177,-0.7260070317292022,-1.2147149698048882
1770454391212,126,-2,-0.979918321868534,-1.4130629188214652,-1.295129128228203
1770454391216,126,-2,-1.1221081577984555,-1.6957690706020214,-1.4376660458622288
1770454391220,126,-2,-1.2579713639555852,-1.4954256509321924,-1.5732521738854803
1770454391224,126,-2,-1.3407874531932251,-1.5829771809628432,-1.6556837733871852
1770454391228,126,-2,-1.3425674499394895,-1.4761123600104014,-1.6577675327147223
1770454391232,126,-2,-1.2313547767964097,-1.651666550711008,-1.5474964622440437
1770454391236,126,-2,-0.9729291493936744,-1.437158787090559,-1.289885484143912
1770454391240,127,-1,-0.5601778865814206,-0.7503346395873952,-0.8774350712291344
1770454391244,127,-1,-0.0329253895472503,-0.3061744298390413,-0.3502956987807508
1770454391248,128,0,0.5347301971118099,0.2419407372241162,0.2170750516506399
1770454391252,128,0,1.064040937420972,0.6612874618633409,0.7459484407639054
1770454391256,129,1,1.4927585385025557,1.2413243557279363,1.1741625742845785
1770454391260,129,1,1.7794214922364109,1.5965921763421649,1.460213238630769
1770454391264,129,1,1.8959991629886868,1.3523105056980251,1.5761466572781957
1770454391268,129,1,1.8193227202292883,1.5857845316854355,1.4990496041876713
1770454391272,129,1,1.5344375730686168,1.3532323372904291,1.2140488048478824
1770454391276,128,0,1.053861669932384,0.5241091300150589,0.7333657331763672
1770454391280,128,0,0.4363503700574817,0.3659429524545922,0.1154222183631423
1770454391284,127,-1,-0.2200633191460434,-0.440207134847381,-0.5416028331372431
1770454391288,126,-2,-0.8177482386511805,-1.5885985956323443,-1.1395943723215365
1770454391292,126,-2,-1.3038423802937469,-1.470347249034567,-1.625687210205616
1770454391296,126,-2,-1.6774166999923288,-1.6339001091246128,-1.9995887519361937
1770454391300,125,-3,-1.9556418280378824,-2.4714659015825964,-2.278747861603888
1770454391304,125,-3,-2.1436593915723225,-2.5762504152802506,-2.4677039124403883
1770454391308,125,-3,-2.240594823588445,-2.4644302545897654,-2.564988724298693
1770454391312,125,-3,-2.261322828449308,-2.565747101300146,-2.585704068507426
1770454391316,125,-3,-2.239782371679543,-2.5410056315139524,-2.564382302626223
1770454391320,125,-3,-2.211872368043018,-2.532950731580084,-2.5370805886788093
1770454391324,125,-3,-2.198478749057069,-2.522160899475673,-2.5243733997455298
1770454391328,125,-3,-2.201566818529615,-2.496755075292739,-2.5279241692012704
1770454391332,125,-3,-2.211450269890721,-2.538001411149968,-2.538018260148693
1770454391336,125,-3,-2.2175063460012314,-2.5417141445627873,-2.5441979519493403
1770454391340,125,-3,-2.215500987488622,-2.523192541206285,-2.5424415480904123
1770454391344,125,-3,-2.2081624552239862,-2.5209268104220697,-2.5356385880850265
1770454391348,125,-3,-2.200715589965357,-2.4924684373709547,-2.52900436334263
1770454391352,125,-3,-2.1967449016885787,-2.5308038203769776,-2.525856755563284
1770454391356,125,-3,-2.1977998949672912,-2.5376654331743045,-2.5273562667136975
1770454391360,125,-3,-2.2042773899777863,-2.504584545082266,-2.5337437349295673
1770454391364,125,-3,-2.213265634501828,-2.538970823461458,-2.5424289629066776
1770454391368,125,-3,-2.2152705837578264,-2.464590875158267,-2.544510837881212
1770454391372,125,-3,-2.1984509823642973,-2.541582742562915,-2.5284646141770044
1770454391376,125,-3,-2.1641583117036465,-2.533629839038003,-2.495354590443668
1770454391380,125,-3,-2.1412326553536953,-2.4559398457720105,-2.4734337574390413
1770454391384,125,-3,-2.1765539949774864,-2.6272000571630354,-2.509280064837436
1770454391388,125,-3,-2.2954109785385173,-2.322316134132996,-2.6282503136761446
1770454391392,125,-3,-2.460887277936329,-2.707363325392607,-2.793450258049502
1770454391396,124,-4,-2.5762726981750266,-3.3435967502215105,-2.9081824418928335
1770454391400,125,-3,-2.538288523982554,-2.6152714372487185,-2.8697618253907504
1770454391404,125,-3,-2.2981588920658105,-2.4958570302732253,-2.6303714176883166
1770454391408,125,-3,-1.8858404404217777,-2.397924670711004,-2.220011036345812
1770454391412,126,-2,-1.3915045091066924,-1.662097232634993,-1.7275268444279197
1770454391416,126,-2,-0.9196204606705288,-1.3447600741187875,-1.256027249498427
1770454391420,127,-1,-0.5315758828228625,-0.6239727435164585,-0.866916253355285
1770454391424,127,-1,-0.2061163723095278,-0.4703691510910699,-0.5401353100107651
1770454391428,127,-1,0.1435321307804482,-0.4082740984070326,-0.1900642902191744
1770454391432,128,0,0.5919462629040688,0.3415300062477673,0.2575345694385398
1770454391436,128,0,1.119066639614038,0.6915766356388153,0.7830462662691597
1770454391440,129,1,1.595810960019567,1.3191306851318747,1.2582257928679266
1770454391444,129,1,1.8591592258153973,1.6290059386095972,1.5207810661702332
1770454391448,129,1,1.8247275880316147,1.4842639562633606,1.4865475380200974
1770454391452,129,1,1.5507060521106224,1.4455472615275429,1.2134503564014567
1770454391456,128,0,1.1986552541502196,0.6401814173843778,0.8625581922214212
1770454391460,128,0,0.9159448677932328,0.3118062906104221,0.5805455338153229
1770454391464,128,0,0.73184755623908,0.7409922992152577,0.3959206260768168
1770454391468,128,0,0.5476488025842277,0.2975183168719348,0.2099042640043725
1770454391472,127,-1,0.2160090589783062,-0.2962349759312233,-0.1237263161806512
1770454391476,127,-1,-0.3621934839124133,-0.6326204084883071,-0.7027459907918678
1770454391480,126,-2,-1.184276151742241,-1.4303978573179528,-1.524239516585348
1770454391484,125,-3,-2.150073503606736,-2.444275741427845,-2.488863390773175
1770454391488,124,-4,-3.1111239083422313,-3.5843512426702455,-3.4489581472093804
1770454391492,123,-5,-3.936129810760882,-4.31624603292034,-4.27353843886004
1770454391496,123,-5,-4.5540563193726955,-4.681306653032927,-4.891673910628554
1770454391500,122,-6,-4.954033361594093,-5.315993380878249,-5.292488952222551
1770454391504,122,-6,-5.159409256705322,-5.570643771155455,-5.49899802928922
1770454391508,122,-6,-5.207905539434299,-5.447704250678765,-5.5482498944448935
1770454391512,122,-6,-5.148875932839217,-5.416491163902138,-5.488994592974991
1770454391516,122,-6,-5.043655641526047,-5.621113923121758,-5.382764357296816
1770454391520,122,-6,-4.9489963887455355,-5.309918971911404,-5.287631249597226
1770454391524,123,-5,-4.8825047845183205,-4.6185002200196905,-5.222328199035935
1770454391528,122,-6,-4.805581176991418,-5.338827932039974,-5.147046833481398
1770454391532,122,-6,-4.663987824841952,-5.554221206760653,-5.004432611006434
1770454391536,123,-5,-4.46076413433578,-4.454713066823176,-4.796381355288726
1770454391540,123,-5,-4.277988887386011,-4.471596944124498,-4.608638296954777
1770454391544,123,-5,-4.215539043233987,-4.454766625673557,-4.5470557676617105
1770454391548,123,-5,-4.316635558943247,-4.449129078021706,-4.657153697505882
1770454391552,122,-6,-4.548075595210966,-5.494502313494235,-4.900883537177042
1770454391556,122,-6,-4.787941677482124,-5.4621780387998005,-5.14712873533033
1770454391560,123,-5,-4.713306534062289,-4.490419398026809,-5.066315879310984
1770454391564,124,-4,-3.6115722475727057,-3.3860191101977666,-3.9470942238994535
1770454391568,127,-1,-0.3603797668349862,-0.5050883623322113,-0.6762231286392691
1770454391572,133,5,6.1536123118967865,5.572445150719761,5.847803907582367
1770454391576,143,15,16.220122956725508,15.463665589056069,15.907655634031098
1770454391580,155,27,28.569402239207857,27.621566495069803,28.236574888072532
1770454391584,167,39,40.34454279230032,39.5127971879602,39.98910017123387
1770454391588,176,48,48.07715607307123,48.62367061691854,47.70886573256327
1770454391592,178,50,49.28514913126049,50.393621752593866,48.91912667852821
1770454391596,171,43,43.75268662012328,43.604253710663365,43.401627453643016
1770454391600,160,32,33.6185609345652,32.465766794170534,33.288112273324806
1770454391604,148,20,22.1769393954516,20.703660788160512,21.863967301354347
1770454391608,139,11,12.21088195173474,11.48744018901497,11.90429058025181
1770454391612,133,5,4.950936816493316,5.5831634514550075,4.636585023636352
1770454391616,128,0,0.1632432497629823,0.442436322228694,-0.1678678125448468
1770454391620,124,-4,-3.0067906270740883,-3.3980410160997545,-3.352764880574545
1770454391624,122,-6,-5.223728881298302,-5.395624471164594,-5.573725275609802
1770454391628,120,-8,-6.702555754691966,-7.464010309730703,-7.044914412646029
1770454391632,119,-9,-7.450628630045899,-8.380413195679607,-7.780528412244764
1770454391636,120,-8,-7.6012898916282445,-7.634754237141581,-7.922738770285251
1770454391640,120,-8,-7.4892653818657005,-7.269962466921689,-7.810863171155638
1770454391644,120,-8,-7.454113275194202,-7.567835400971326,-7.781997333017114
1770454391648,119,-9,-7.627593328382893,-8.252108631299135,-7.960978794102281
1770454391652,119,-9,-7.9216048427110195,-8.60250286066126,-8.254501345407395
1770454391656,119,-9,-8.182523705052613,-8.38849286092455,-8.509726136814193
1770454391660,119,-9,-8.32125739508955,-8.492527812881905,-8.6427495762384
1770454391664,119,-9,-8.311800923913804,-8.373336450126928,-8.631739662620522
1770454391668,119,-9,-8.126824764502668,-8.378872458615563,-8.448938620364789
1770454391672,119,-9,-7.730229162174813,-8.539047596288611,-8.054609745851128
1770454391676,120,-8,-7.140809199304757,-7.372206312012697,-7.464821665977675
1770454391680,121,-7,-6.471712587171609,-6.543115997125287,-6.793161668041519
1770454391684,121,-7,-5.87384099182977,-6.29383939260219,-6.192778163207225
1770454391688,122,-6,-5.427821629129753,-5.4346276344776205,-5.745679506644705
1770454391692,122,-6,-5.092410761122118,-5.516792321511842,-5.410044021759886
1770454391696,122,-6,-4.7603791365662955,-5.348346987906698,-5.077186493345195
