timestamp_ms,ecg_u8_raw,ecg_counts_raw_int,ecg_counts_filt_monitor,ecg_counts_filt_diagnostic,ecg_counts_filt_st
1770454258144,119,-9,-8.366339436537364,-9.405820755189904,-9.036032601679702
1770454258148,119,-9,-8.192870094127532,-9.40164022620271,-8.861298425007105
1770454258152,119,-9,-7.994688035028556,-9.427766715782198,-8.663856673792035
1770454258156,119,-9,-7.772882155447437,-9.180593581286782,-8.441314802453594
1770454258160,120,-8,-7.516565833444687,-8.355393758366791,-8.182166605242532
1770454258164,120,-8,-7.210660402684838,-8.423041836012004,-7.872911103822474
1770454258168,120,-8,-6.837523222102055,-8.331249651738728,-7.496958965955343
1770454258172,121,-7,-6.391216542660367,-7.533844939882786,-7.04815527171093
1770454258176,121,-7,-5.8931138089064925,-7.019724649410234,-6.547593857963902
1770454258180,122,-6,-5.384033924545425,-6.560573296229144,-6.0363985459039
1770454258184,122,-6,-4.899445808412624,-6.174055402413689,-5.550286884969404
1770454258188,123,-5,-4.457095395050345,-5.58733114682328,-5.1065156390490625
1770454258192,123,-5,-4.067510084076231,-5.277693677520965,-4.714673649226413
1770454258196,123,-5,-3.746670518561386,-5.22917372203613,-4.390451151891046
1770454258200,124,-4,-3.504510953197989,-4.421369265775541,-4.1447915496239585
1770454258204,124,-4,-3.313589955299111,-4.204726197814399,-3.951581539183784
1770454258208,124,-4,-3.1012019847399253,-4.658242267064717,-3.738086550921156
1770454258212,124,-4,-2.796489089395899,-4.092717670512554,-3.4320325461767993
1770454258216,125,-3,-2.394325795748387,-3.4860734381458567,-3.027268351281664
1770454258220,125,-3,-1.9601545054723009,-3.128641492749251,-2.5897482499304436
1770454258224,126,-2,-1.5606609757368155,-2.465783422934064,-2.1873708670473704
1770454258228,126,-2,-1.194500562673985,-2.4469249619848044,-1.8192678752634777
1770454258232,126,-2,-0.8019694057873026,-2.215052589210809,-1.425214877890101
1770454258236,127,-1,-0.3452026522574198,-1.4540881212689432,-0.9666762033111445
1770454258240,127,-1,0.1283104990967571,-1.0706078151219351,-0.4909634889051715
1770454258244,128,0,0.5102040032778947,-0.569127922005109,-0.1066155905970379
1770454258248,128,0,0.7257605289857667,-0.2979243241953115,0.1114861178114611
1770454258252,128,0,0.8113803193804118,-0.3649071382440746,0.1996554696943578
1770454258256,128,0,0.9015484137864956,-0.3379924634600608,0.2922947234375278
1770454258260,128,0,1.131257027700877,-0.1173026896177598,0.5243463713572172
1770454258264,129,1,1.5339812800341293,0.4147418379398664,0.929308806825828
1770454258268,129,1,2.0203343692484004,0.8240043471515002,1.4177529171068728
1770454258272,130,2,2.454882741856338,1.431382658103959,1.8540496083922888
1770454258276,130,2,2.764754588660318,1.9273005820827087,2.1653582432870357
1770454258280,130,2,2.984042919618712,1.5846591270343056,2.3864226263716333
1770454258284,130,2,3.1965358065104756,1.734574013886323,2.6017098276339414
1770454258288,131,3,3.440658892246738,2.5413022628213606,2.84927309431383
1770454258292,131,3,3.676479719494676,2.6814418885666846,3.087949262019931
1770454258296,131,3,3.837844733262096,2.7170792007288576,3.2509711953080846
1770454258300,131,3,3.897075264927488,2.774412109186208,3.3113454358029943
1770454258304,131,3,3.8697036748366345,2.561453813835209,3.2856050601067976
1770454258308,131,3,3.7661380408975633,2.736929003332655,3.1843553618078784
1770454258312,131,3,3.552197820881779,2.4800274778475107,2.9729119975292413
1770454258316,130,2,3.1615101143529296,1.927848130501152,2.584448595096968
1770454258320,130,2,2.5485707432391123,1.582662605158921,1.9733957395106612
1770454258324,129,1,1.7361455750552706,0.721583669759627,1.1627952049382593
1770454258328,128,0,0.8139675916415177,-0.3467577081604587,0.2428548890885045
1770454258332,127,-1,-0.1155566154956813,-1.507965288449772,-0.6838600136585059
1770454258336,126,-2,-0.9982180129125756,-1.9932213114288904,-1.5638308684556632
1770454258340,126,-2,-1.8395667225462735,-2.567307912513693,-2.403563571939859
1770454258344,124,-4,-2.6652390961331474,-4.059726421376749,-3.2285767085231503
1770454258348,124,-4,-3.480612011725692,-4.583653432625685,-4.042939132439466
1770454258352,123,-5,-4.263975247820272,-5.263554811111367,-4.823946393901109
1770454258356,122,-6,-4.97786899030622,-6.2118517389187184,-5.53456754582877
1770454258360,122,-6,-5.574967921234217,-6.383116989917977,-6.128684572443455
1770454258364,121,-7,-6.004694724276036,-7.1699005287251785,-6.556366356863986
1770454258368,121,-7,-6.237244396758316,-7.533610374300962,-6.787554921596388
1770454258372,121,-7,-6.294353654912099,-7.238802126252894,-6.843553193620854
1770454258376,121,-7,-6.2526227692974565,-7.291313058676519,-6.8007669339471475
1770454258380,121,-7,-6.205512518514271,-7.255979026833111,-6.752319488383356
1770454258384,121,-7,-6.211840974646922,-7.296762575385592,-6.756445603684454
1770454258388,121,-7,-6.268869751657137,-7.406096949645585,-6.810373728510326
1770454258392,121,-7,-6.321637310112023,-7.348440498739927,-6.860184852694617
1770454258396,121,-7,-6.2969759076570755,-7.191191850717617,-6.833886135082183
1770454258400,121,-7,-6.14836634047859,-7.333262761885308,-6.6848034205662445
1770454258404,121,-7,-5.893713089237958,-7.209942251524139,-6.429446230598519
1770454258408,122,-6,-5.614111767915267,-6.482860934731608,-6.147964015537553
1770454258412,122,-6,-5.395369016471067,-6.275261868909541,-5.926652109284966
1770454258416,122,-6,-5.252485241320798,-6.246990129129498,-5.781505611966527
1770454258420,122,-6,-5.115234476568912,-6.2809133545604565,-5.642566682708818
1770454258424,122,-6,-4.901594139674664,-6.23196581239363,-5.427509217364598
1770454258428,123,-5,-4.6097355062426395,-5.479603659591804,-5.134429152317276
1770454258432,123,-5,-4.333854790498616,-5.2413118232516265,-4.857601007036877
1770454258436,123,-5,-4.186931531103459,-5.304456795300692,-4.709639241120861
1770454258440,123,-5,-4.203204212065577,-5.17869820423906,-4.724197905602813
1770454258444,123,-5,-4.3031927019368945,-5.359140591063463,-4.821805266744057
1770454258448,123,-5,-4.3449467715491235,-5.327515008707968,-4.861165759295725
1770454258452,123,-5,-4.221864631218034,-5.390373299330261,-4.736262435971616
1770454258456,123,-5,-3.937038101210666,-5.146380004194219,-4.450368428883245
1770454258460,124,-4,-3.597774615597769,-4.3128082436385125,-4.11072799169116
1770454258464,124,-4,-3.3338537963405352,-4.234071561481243,-3.846678093367367
1770454258468,124,-4,-3.209717917011422,-4.43633246059578,-3.721728614549805
1770454258472,124,-4,-3.2024630289641047,-4.283771948366849,-3.7123632452052577
1770454258476,124,-4,-3.2464511541326053,-4.235814195884177,-3.7536134369904817
1770454258480,124,-4,-3.286922607118515,-4.220266127728828,-3.79216198841072
1770454258484,124,-4,-3.3006855846815375,-4.301230421638326,-3.805404837237502
1770454258488,124,-4,-3.29019917178523,-4.38273049559619,-3.794881779161976
1770454258492,124,-4,-3.2722521772129873,-4.3117813386086015,-3.776118534123217
1770454258496,124,-4,-3.2655374894264604,-4.218472105466317,-3.767666189042379
1770454258500,124,-4,-3.275186959829073,-4.207807329425794,-3.77564531611414
1770454258504,124,-4,-3.286028010775105,-4.313111353137707,-3.785716807373379
1770454258508,124,-4,-3.278637282532365,-4.361149595096128,-3.778195384641136
1770454258512,124,-4,-3.2570300099483727,-4.3291222136880325,-3.756160283149668
1770454258516,124,-4,-3.253859851810339,-4.199446288702082,-3.7517736676307782
1770454258520,124,-4,-3.2955943136071264,-4.1958834102525575,-3.791928719863672
1770454258524,124,-4,-3.356662091315857,-4.33547037961363,-3.851775346329295
1770454258528,124,-4,-3.3558192043454884,-4.308309019063039,-3.850210852315038
1770454258532,124,-4,-3.2145710182654907,-4.407309127315643,-3.708293914874608
1770454258536,124,-4,-2.93218797701906,-4.088951651317689,-3.4251279550140716
1770454258540,125,-3,-2.6030739443856805,-3.3015078085257374,-3.095655064764918
1770454258544,125,-3,-2.3517206164135813,-3.2141065587564084,-2.844750944081603
1770454258548,125,-3,-2.243160111209832,-3.4178038853338153,-2.7367372804911483
1770454258552,125,-3,-2.247832961709982,-3.3178017018230848,-2.7408179751696085
1770454258556,125,-3,-2.2768530742112847,-3.147742201797203,-2.767809698432655
1770454258560,125,-3,-2.239552018764827,-3.2521600363564627,-2.7281988869408607
1770454258564,125,-3,-2.076754530691278,-3.2130056747524582,-2.5644813731535434
1770454258568,126,-2,-1.7645357279292075,-2.445943619021663,-2.2534067635200556
1770454258572,126,-2,-1.3115722951490487,-2.260556600548999,-1.8024241360192668
1770454258576,126,-2,-0.7670078003022502,-2.2310163606924283,-1.258465244592925
1770454258580,127,-1,-0.2210363685753043,-1.1200878573970814,-0.7109493713002992
1770454258584,128,0,0.236295504355678,-0.3515038758653225,-0.2516397715692233
1770454258588,128,0,0.5823057625697126,-0.2889141911336508,0.0946674368506174
1770454258592,128,0,0.8766380363245894,-0.4188562741234412,0.3876652828953494
1770454258596,128,0,1.1839908563778112,-0.0849339108300752,0.6938551885231532
1770454258600,129,1,1.480753275661683,0.7737755100669594,0.9907638807438904
1770454258604,129,1,1.6570248464497876,0.7494323661087448,1.16791313626738
1770454258608,129,1,1.6210884312091003,0.6488863314405233,1.1323602705935685
1770454258612,129,1,1.397848594165937,0.6157312468206728,0.9084792426777094
1770454258616,128,0,1.11798449763795,-0.1048983742657856,0.6274709862078642
1770454258620,128,0,0.9039537035501976,-0.2098433782843167,0.4127807883511776
1770454258624,128,0,0.7601285152657069,-0.2185325749331332,0.2691892913395762
1770454258628,128,0,0.5750958725720676,-0.3913193656585829,0.0845202324962778
1770454258632,128,0,0.239238177530054,-0.3238918330974608,-0.252008235913128
1770454258636,127,-1,-0.23726429778821,-1.187349594919114,-0.7302136271784461
1770454258640,126,-2,-0.7301336021044698,-2.112524338637814,-1.224367365980378
1770454258644,126,-2,-1.1285753603537978,-2.2851756460854604,-1.622638986527412
1770454258648,126,-2,-1.4471606161270087,-2.321490838315615,-1.9406668544185108
1770454258652,126,-2,-1.79804277362055,-2.3744775666154587,-2.2926118337041053
1770454258656,125,-3,-2.2569424115340153,-3.151237973850366,-2.7543318682394986
1770454258660,124,-4,-2.772486797473042,-4.132119974731603,-3.2721716090598845
1770454258664,124,-4,-3.207563744108836,-4.260925265431525,-3.707073391308407
1770454258668,124,-4,-3.450135267171047,-4.313089441210314,-3.947926409564593
1770454258672,124,-4,-3.4757168147103386,-4.394987467176133,-3.973071887954735
1770454258676,124,-4,-3.327870110980835,-4.10019721696279,-3.8275872517133713
1770454258680,124,-4,-3.077738411920694,-4.199750972981851,-3.5813055586051443
1770454258684,124,-4,-2.8155579475811594,-4.174883275184142,-3.3221052790203514
1770454258688,125,-3,-2.650910033267098,-3.377037104770091,-3.1587386420216568
1770454258692,125,-3,-2.6722188012377552,-3.342508430127552,-3.1805226823878683
1770454258696,124,-4,-2.8789960805841615,-4.112236457986474,-3.38780021197126
1770454258700,124,-4,-3.158160713687347,-4.222976620325843,-3.6674377655723545
1770454258704,124,-4,-3.3416464328588917,-4.107625894376666,-3.851361786372176
1770454258708,124,-4,-3.304436711076352,-4.460679777422417,-3.815363971632851
1770454258712,124,-4,-3.031945590853247,-4.2195952054734125,-3.545915528112999
1770454258716,125,-3,-2.614801322541947,-3.229739608610481,-3.133580222341233
1770454258720,125,-3,-2.18211273043768,-3.1165945815043923,-2.7053097658006298
1770454258724,125,-3,-1.827036984723034,-3.1833719774702964,-2.3510366085073273
1770454258728,126,-2,-1.5738822948397932,-2.4084816477687565,-2.094054347500653
1770454258732,126,-2,-1.3912539301820426,-2.213609164858698,-1.9066565886059113
1770454258736,126,-2,-1.2308833696784278,-2.272235084757854,-1.7471348072683757
1770454258740,126,-2,-1.0769570695914976,-2.0219220311079855,-1.6036068704701547
1770454258744,126,-2,-0.9711470574643188,-2.313213592439687,-1.5145720145225523
1770454258748,126,-2,-0.935877189308486,-2.2452672891917484,-1.4929691981879063
1770454258752,127,-1,-0.7447839964523966,-1.360396009399147,-1.302739771701908
1770454258756,128,0,0.3573298495318671,-0.1313510107250053,-0.18604051432479
1770454258760,131,3,3.702563512987561,2.8828319126760285,3.181556348463676
1770454258764,138,10,10.741398200845468,9.748159737994774,10.23609371398005
1770454258768,149,21,22.10882005216438,20.754629626572463,21.60031864101684
1770454258772,163,35,36.68656886287397,34.6354944913217,36.15443902166051
1770454258776,178,50,51.36188154024606,49.9104311508416,50.79631794272124
1770454258780,190,62,61.92889249268765,61.837869561907326,61.33620586000809
1770454258784,193,65,64.88141354075444,64.73873558671933,64.28016104251321
1770454258788,187,59,59.143149934732875,58.75770746342289,58.55428580664207
1770454258792,174,46,46.6565925878068,45.58139882521653,46.093174674011834
1770454258796,157,29,31.41184185385436,28.99871341093649,30.872812537898113
1770454258800,144,16,17.504662740683163,15.7841387384838,16.97539210662408
1770454258804,135,7,7.41210685740464,6.857607883617357,6.872141615298752
1770454258808,129,1,1.42099278670298,0.6974842393795702,0.8556128782523
1770454258812,126,-2,-1.7104436772630542,-2.357513265845684,-2.3020849920870954
1770454258816,124,-4,-3.5389884341458693,-4.044819568357566,-4.144949114470822
1770454258820,122,-6,-5.015988004755193,-6.233327445817704,-5.620502496948539
1770454258824,120,-8,-6.300000480791096,-8.072940218822332,-6.893359290552386
1770454258828,120,-8,-7.156932934817884,-8.389321990039056,-7.740041299387312
1770454258832,120,-8,-7.456247716220094,-8.224683582099352,-8.03801049592866
1770454258836,120,-8,-7.361532945337964,-8.192157843924312,-7.951622182454879
1770454258840,120,-8,-7.178286796795867,-8.080384225737994,-7.780611403946943
1770454258844,120,-8,-7.10377801920646,-8.218798945286895,-7.715139660282801
1770454258848,120,-8,-7.121439855211237,-8.234117992180096,-7.73548537586454
1770454258852,120,-8,-7.088570816934964,-8.349772281297112,-7.701200603934404
1770454258856,120,-8,-6.894553692247875,-8.082853783274134,-7.506642277057077
1770454258860,121,-7,-6.544349192050516,-7.155190960318435,-7.160180805664841
1770454258864,121,-7,-6.127211029535384,-7.168581492476689,-6.750299537757896
1770454258868,121,-7,-5.73924769866006,-7.230774314512401,-6.369376650485481
1770454258872,122,-6,-5.434557034982861,-6.378681229241823,-6.068700689996081
1770454258876,122,-6,-5.213444549276437,-6.014349019381083,-5.8491109989792625
1770454258880,122,-6,-5.027110135416022,-6.249910673705935,-5.6644137183752905
1770454258884,122,-6,-4.801661177144022,-6.035040135921413,-5.442630294437654
1770454258888,123,-5,-4.485845690719548,-5.360584693119262,-5.132387406199399
1770454258892,123,-5,-4.094351786039178,-5.247606953850783,-4.74674632361922
1770454258896,123,-5,-3.706997831103533,-5.106720271016355,-4.363959944115438
1770454258900,124,-4,-3.4113871451892623,-4.201654039519143,-4.071535581685604
1770454258904,124,-4,-3.222691913710268,-4.003712428943298,-3.885815661026498
1770454258908,124,-4,-3.051566621150452,-4.455374168155218,-3.7183289023786745
1770454258912,124,-4,-2.7687831899046325,-4.067247313460907,-3.439711472401542
1770454258916,125,-3,-2.322153434665795,-3.345246409124279,-2.997485911348588
1770454258920,125,-3,-1.7952173518519523,-2.908655832410144,-2.4753842801933796
1770454258924,126,-2,-1.3483361630470383,-2.3020342957012296,-2.033835760954884
1770454258928,126,-2,-1.0966512184968382,-2.139922676021094,-1.7873087910768213
1770454258932,126,-2,-1.0309541606811048,-2.3673111172274415,-1.7257104499092666
1770454258936,126,-2,-1.0367894970002631,-2.0683856793665196,-1.7345274904538883
1770454258940,126,-2,-0.9802723572806782,-2.137298039304638,-1.680863231707567
1770454258944,126,-2,-0.787170824433933,-2.1003682137745496,-1.4916628188854255
1770454258948,127,-1,-0.4653308835505663,-1.2697989807073953,-1.1751019375111145
1770454258952,127,-1,-0.0736115816809506,-1.2828871644473123,-0.789264572760227
1770454258956,127,-1,0.3245475499465061,-1.1170824684164231,-0.3964611394748079
1770454258960,128,0,0.6907437335816842,-0.0943989449055811,-0.0345713953483066
1770454258964,128,0,1.0176824505751094,-0.1282262225828163,0.2888624004033525
1770454258968,128,0,1.317678770283353,-0.2064070226972947,0.5855141194421793
1770454258972,129,1,1.6045672049387982,0.6342052698370295,0.8683899131374362
1770454258976,129,1,1.8847011750438123,0.9927049346408904,1.1433109491574778
1770454258980,129,1,2.158680172704118,0.7786542929279932,1.4114762604787812
1770454258984,129,1,2.4189280105874573,1.04337066469893,1.6667254435594958
1770454258988,130,2,2.646255173875311,1.6267940892650905,1.890421682371802
1770454258992,130,2,2.827820858254261,1.796989454284084,2.068700174416989
1770454258996,130,2,2.9873969371063516,1.8616756971123711,2.224132450029428
1770454259000,130,2,3.1803068174949027,1.873144317880308,2.41210460519778
1770454259004,130,2,3.4360388654790386,2.027239219529642,2.662916406966991
1770454259008,131,3,3.7035802758840943,2.593750949154988,2.9257327629799987
1770454259012,131,3,3.867098869079731,2.8976723126197013,3.084278703253614
1770454259016,131,3,3.8253648182043696,2.714444599495154,3.0374971077135973
1770454259020,130,2,3.5579495147219093,2.0687127891081785,2.7658853103837404
1770454259024,130,2,3.122384620420661,1.819607085955536,2.3271740860348444
1770454259028,130,2,2.602199924053486,1.8251575000631703,1.803704341671088
1770454259032,129,1,2.0553038299448336,0.6830777378807562,1.252253875656769
1770454259036,128,0,1.484761790699377,-0.081847078761913,0.6761577314182559
1770454259040,128,0,0.8387657273243982,-0.0939361874542671,0.0246571949577538
1770454259044,127,-1,0.0498896393256356,-1.0464483289300874,-0.7690227693495578
1770454259048,126,-2,-0.9026094490162088,-2.2564344829051537,-1.7255356639313455
1770454259052,125,-3,-1.957043492773081,-3.249844726837609,-2.7834444338857387
1770454259056,124,-4,-2.990858523816873,-4.12939571951207,-3.8207559249510874
1770454259060,123,-5,-3.8804791260507585,-5.041830075354794,-4.714402851493706
1770454259064,122,-6,-4.558123144706392,-6.086387857269979,-5.396589377381353
1770454259068,122,-6,-5.0326519922705435,-6.194766492751494,-5.875831597324683
1770454259072,122,-6,-5.36265898029214,-6.300933721595246,-6.210477944188201
1770454259076,121,-7,-5.60426226664656,-7.0744479536720135,-6.456479512815172
1770454259080,121,-7,-5.779212748348699,-7.089522515391661,-6.635458716637993
1770454259084,121,-7,-5.885296790273639,-7.021528324311458,-6.745372742134441
1770454259088,121,-7,-5.925806243990374,-7.256520823602009,-6.789920796579284
1770454259092,121,-7,-5.923095025901386,-7.207279115923377,-6.791607175408937
1770454259096,121,-7,-5.904451120648485,-7.177915788762363,-6.7773938321926
1770454259100,121,-7,-5.873968067945428,-6.9721330464534805,-6.750836570436924
1770454259104,121,-7,-5.797112068619127,-7.122983234839126,-6.677112881933646
1770454259108,121,-7,-5.617779327554221,-7.154576160341969,-6.500542453355091
1770454259112,122,-6,-5.299578262758937,-6.272359877060774,-6.185800847581732
1770454259116,122,-6,-4.862076685321648,-6.127488017910736,-5.753132535827476
1770454259120,122,-6,-4.390987168354653,-5.99973589042352,-5.2875835668751145
1770454259124,123,-5,-4.015970764226606,-5.090852133219684,-4.917385658300964
1770454259128,123,-5,-3.854528863435198,-5.169598047157931,-4.759365992094073
1770454259132,123,-5,-3.939098846612111,-5.25155919523879,-4.846551614027278
1770454259136,123,-5,-4.177022528579375,-5.126218889417166,-5.0871368442697875
1770454259140,122,-6,-4.391562131372737,-6.012504509513436,-5.304525777817454
1770454259144,122,-6,-4.4316059399654755,-6.050661951617103,-5.347462820406444
1770454259148,123,-5,-4.267351621031767,-5.202138910253993,-5.1866308750613035
1770454259152,123,-5,-3.9931937273514215,-5.1983327138589,-4.917073761111014
1770454259156,123,-5,-3.747838233332739,-5.1729962977949455,-4.676971920515766
1770454259160,123,-5,-3.633026581528741,-4.9488967859219395,-4.566497010204809
1770454259164,123,-5,-3.685512032668105,-5.131835327201794,-4.621564768242548
1770454259168,123,-5,-3.887103695910384,-5.081949149631711,-4.824845122131167
1770454259172,123,-5,-4.179016565212687,-5.31838030560588,-5.1189720630273525
1770454259176,122,-6,-4.478314998056138,-6.028815762162187,-5.421413663406323
1770454259180,122,-6,-4.70839499277105,-6.089320188756507,-5.654950341444983
1770454259184,122,-6,-4.831487517148768,-5.9948019163871855,-5.781284994525309
1770454259188,122,-6,-4.856902895845981,-6.191606091642015,-5.809758747722354
1770454259192,122,-6,-4.822335911827485,-6.198389636771248,-5.778250016696596
1770454259196,122,-6,-4.770043885117747,-6.12079100574103,-5.729079097829364
1770454259200,122,-6,-4.732961309012312,-6.015847800988922,-5.69517294857635
1770454259204,122,-6,-4.729011564322072,-6.042664827362842,-5.6942577198881565
1770454259208,122,-6,-4.759305595199456,-6.151967815911491,-5.727001253635891
1770454259212,122,-6,-4.808419576692769,-6.187513441883106,-5.7778112462459585
1770454259216,122,-6,-4.843571515381451,-6.1476309819229025,-5.814540918321433
1770454259220,122,-6,-4.815499499472808,-5.961007019190019,-5.788860468534202
1770454259224,122,-6,-4.675896094590035,-6.115939850860295,-5.65254410009743
1770454259228,122,-6,-4.416481653942055,-6.043151789232091,-5.3963774299737475
1770454259232,123,-5,-4.098448287308628,-5.286097542232534,-5.080746095667706
1770454259236,123,-5,-3.82882736134477,-5.030125851712242,-4.812859359180785
1770454259240,123,-5,-3.688881940204905,-5.07860407577062,-4.674695497777715
1770454259244,123,-5,-3.6773845363809703,-4.994931478893486,-4.66540837366374
1770454259248,123,-5,-3.722775339872312,-5.145371715890226,-4.713221420222295
1770454259252,123,-5,-3.750972273003749,-5.175570275786665,-4.743528826988474
1770454259256,123,-5,-3.7443278637731434,-5.104210048580411,-4.738319687667038
1770454259260,123,-5,-3.738890266655519,-5.026414142696206,-4.733861581716484
1770454259264,123,-5,-3.766242255695955,-5.0097132266140445,-4.762535355944926
1770454259268,123,-5,-3.7998995104791433,-5.151375613290164,-4.79851253973978
1770454259272,123,-5,-3.7652498479596113,-5.119769429420085,-4.766799803559172
1770454259276,123,-5,-3.6109070740558944,-5.171932079911855,-4.614717539918265
1770454259280,123,-5,-3.3695643355586684,-4.929313249611446,-4.374180760631139
1770454259284,124,-4,-3.1315503686632833,-4.120591408636094,-4.13632516724737
1770454259288,124,-4,-2.9400971869673125,-4.003760657492217,-3.945789217114612
1770454259292,124,-4,-2.7170415609553364,-4.275800228204691,-3.7245319708059057
1770454259296,124,-4,-2.315924242021538,-3.9744274047275705,-3.324929962450197
1770454259300,125,-3,-1.663510029360051,-3.152705066570035,-2.673202402284343
1770454259304,126,-2,-0.8448058262818661,-1.8660576061197245,-1.8552554798886176
1770454259308,127,-1,-0.0446788222312717,-1.2419118181304831,-1.0568176529305329
1770454259312,127,-1,0.5896650673794008,-1.0320587552283225,-0.4245407709195181
1770454259316,128,0,1.034949249865233,-0.183563235171978,0.0195361767235835
1770454259320,128,0,1.367579947359446,0.0097535177238559,0.3522287150253662
1770454259324,128,0,1.6733419953490154,0.0330173536855433,0.6586366608671992
1770454259328,129,1,1.9738632277998271,0.8343952645042663,0.9594507364571592
1770454259332,129,1,2.2199386891345916,0.966470143930048,1.20497243593721
1770454259336,129,1,2.3405091062115275,0.7675581284907238,1.324134475020175
1770454259340,129,1,2.2960834300821555,1.1062229544254258,1.2777732043514622
1770454259344,129,1,2.0936862713145548,0.9044968785110972,1.0737393542489917
1770454259348,128,0,1.760320444185034,0.0153891834019448,0.7402202194412425
1770454259352,128,0,1.3122417022207085,-0.199664510808635,0.2937833483084556
1770454259356,128,0,0.7663439005864126,-0.0721510654776231,-0.2501631640454409
1770454259360,127,-1,0.1883458053805959,-1.031955975572583,-0.8278092759966121
1770454259364,126,-2,-0.2969442116933505,-1.9792407951756943,-1.3143937255640463
1770454259368,126,-2,-0.5864620905182767,-2.0360114007511654,-1.6051073418820945
1770454259372,126,-2,-0.7070540687711009,-2.167838142407308,-1.7256427228317617
1770454259376,126,-2,-0.8244378248100142,-2.0686316537209835,-1.842510861126448
1770454259380,126,-2,-1.1166398308867722,-2.041959328847452,-2.1350018158961293
1770454259384,125,-3,-1.6233377392082762,-2.9706485491972723,-2.6423287855994837
1770454259388,124,-4,-2.2163208848188445,-3.99562500516883,-3.2344250626430036
1770454259392,124,-4,-2.7114732325026916,-4.2407296322231405,-3.726677705778895
1770454259396,124,-4,-3.0003521379979983,-3.930903810328375,-4.0127816835205765
1770454259400,124,-4,-3.085063448241489,-4.222447949095615,-4.097218918241966
1770454259404,123,-5,-3.028587593782454,-4.726865631955356,-4.042666143647024
1770454259408,124,-4,-2.9059774593453707,-4.257860555553502,-3.9216642498291376
1770454259412,124,-4,-2.7891494393869447,-3.961488114581541,-3.804262346386712
1770454259416,124,-4,-2.732427799058402,-4.185471374546353,-3.745075136547675
1770454259420,124,-4,-2.7405797010018578,-3.9920523222102946,-3.7503838586732536
1770454259424,124,-4,-2.750036387574019,-3.8789248316977334,-3.7577055076783057
1770454259428,124,-4,-2.6614296498006045,-4.173850849372393,-3.667685123659212
1770454259432,124,-4,-2.41714205037979,-3.958345016774646,-3.422366359792163
1770454259436,125,-3,-2.0640283152466563,-3.240330283503896,-3.068830774350545
1770454259440,125,-3,-1.7392305140239348,-2.8835348228477886,-2.7446141172109337
1770454259444,125,-3,-1.582654403425882,-2.9709224332644473,-2.588885004641313
1770454259448,125,-3,-1.6448997177579676,-3.10809226688568,-2.6502096152830252
1770454259452,125,-3,-1.8548954317222448,-2.9623852785110323,-2.8557563205351273
1770454259456,125,-3,-2.0608543894664937,-3.295343917000583,-3.0541116477475536
1770454259460,124,-4,-2.119661667623011,-3.74034885044179,-3.105479283031865
1770454259464,125,-3,-1.9890401871911676,-3.14330497167468,-2.972777374893669
1770454259468,125,-3,-1.7644823858491412,-2.902852896000204,-2.7549672504878817
1770454259472,125,-3,-1.6161939732900967,-3.159027395790743,-2.6195807043001635
1770454259476,125,-3,-1.617656545885008,-3.1227889718673874,-2.6307323840935286
1770454259480,125,-3,-1.4987046044447323,-2.8303458609243335,-2.5080493935590606
1770454259484,127,-1,-0.4264105619149148,-1.1262139480211792,-1.4158450429452925
1770454259488,130,2,2.980017528145294,2.2044617462038936,2.018359462924159
1770454259492,137,9,10.183653606896176,8.636166061389915,9.2426338566725
1770454259496,148,20,21.829542329006177,20.200772321863457,20.889853445555463
1770454259500,163,35,36.83090172615218,34.80957885233631,35.872170864924314
1770454259504,178,50,52.11155454800005,50.27369334383534,51.12464083569019
1770454259508,191,63,63.45667469445893,62.83476561941555,62.44890500245975
1770454259512,195,67,67.26206614368584,66.91531400612104,66.25231216239304
1770454259516,190,62,62.27760825001308,61.9632412075851,61.28554943617723
1770454259520,177,49,50.26539182814744,48.94974462364635,49.302200485456694
1770454259524,160,32,35.09279904069897,32.20816778554649,34.157250371343316
1770454259528,147,19,20.804497355562745,18.90030148594684,19.884399319012548
1770454259532,137,9,9.889255149166466,8.957502314729561,8.967150295566672
1770454259536,130,2,2.7272109242347664,1.934435415877704,1.788990986126703
1770454259540,126,-2,-1.7170994407814302,-1.9568585540600456,-2.6744769730037943
1770454259544,122,-6,-4.716182990305885,-5.928947483515511,-5.683128773118899
1770454259548,119,-9,-6.993431371866588,-8.964790697288425,-7.954249883438071
1770454259552,118,-10,-8.672138954662586,-10.159697786161534,-9.615461689339444
1770454259556,117,-11,-9.671907744483589,-10.943142718005792,-10.597432404368655
1770454259560,117,-11,-10.049706273891914,-11.017715933430912,-10.966484135872037
1770454259564,117,-11,-10.032271369683135,-10.901316674325727,-10.950654308316958
1770454259568,117,-11,-9.850166277652244,-10.97339270827996,-10.774188399549365
1770454259572,117,-11,-9.618255984551135,-11.17145697274788,-10.54405043033163
1770454259576,117,-11,-9.367598945039234,-10.883339310070593,-10.28817392537899
1770454259580,118,-10,-9.133200048895327,-10.056310075829966,-10.044793255096504
1770454259584,118,-10,-8.964466616663419,-9.85966649289712,-9.868794027899911
1770454259588,118,-10,-8.8588880030995,-10.001042143664748,-9.75997864285284
1770454259592,118,-10,-8.73170180766866,-10.174725918704723,-9.631422906798184
1770454259596,118,-10,-8.483257768675186,-9.815245854111332,-9.380210836512436
1770454259600,119,-9,-8.093680892784798,-9.130702974558275,-8.985703348504172
1770454259604,119,-9,-7.637264979223824,-8.74599876565231,-8.523967229382638
1770454259608,120,-8,-7.204306836377039,-8.120976894276932,-8.086913572306397
1770454259612,120,-8,-6.820535200016894,-8.072067236410797,-7.699866294963547
1770454259616,120,-8,-6.44688912641986,-7.866105182872778,-7.32223715725447
1770454259620,121,-7,-6.045233984732997,-7.091933762746312,-6.91538242954502
1770454259624,121,-7,-5.6261579711477205,-6.728717505825462,-6.490983477022344
1770454259628,122,-6,-5.228532947279837,-6.161695817106641,-6.089021843208926
1770454259632,122,-6,-4.866231721763367,-6.0250286773444275,-5.722975425039936
1770454259636,122,-6,-4.508557583158608,-5.879226020307854,-5.3608242271709
1770454259640,123,-5,-4.110316468079718,-5.09519757207811,-4.956917835176159
1770454259644,123,-5,-3.6507370035976825,-4.645469174731463,-4.491471558061841
1770454259648,124,-4,-3.1450905228496695,-4.306117317739251,-3.9809675777226214
1770454259652,124,-4,-2.633077333242413,-3.8207339821569057,-3.465244802081484
1770454259656,125,-3,-2.1629891756668864,-3.1056464105450066,-2.991580119500335
1770454259660,125,-3,-1.7772176059296338,-2.842462049329497,-2.601060802693389
1770454259664,125,-3,-1.495749714425589,-2.8451007771876196,-2.313240643922352
1770454259668,126,-2,-1.2975017080051865,-2.161459035811772,-2.108090882338946
1770454259672,126,-2,-1.1105182406282077,-1.888265508009988,-1.9152463479687492
1770454259676,126,-2,-0.8363026067902046,-2.099607049071749,-1.6365129835791614
1770454259680,126,-2,-0.4174206100654867,-1.7648866111137496,-1.213260685325428
1770454259684,127,-1,0.1016666576220081,-0.9291312885131954,-0.6890766546233487
1770454259688,128,0,0.5962801352272522,-0.0831375275501737,-0.1890980399328333
1770454259692,128,0,0.9652658167787882,0.0847929705591779,0.185049252705334
1770454259696,128,0,1.2171338169865349,-0.1287395188607603,0.4425913579791471
1770454259700,128,0,1.452500173762791,0.3576431517399612,0.6849051749836899
1770454259704,129,1,1.7705967959783773,0.9032469850619989,1.0103446580196145
1770454259708,129,1,2.1963173635274473,1.1320449805275925,1.441937286506132
1770454259712,130,2,2.6789696085479098,1.8729421643379247,1.92851509612865
1770454259716,130,2,3.135564325939043,2.080974616854218,2.3889127906419807
1770454259720,130,2,3.4933908214380462,2.192245866916158,2.7525932886208455
1770454259724,131,3,3.720646212851781,3.0458742328828805,2.9877665640705175
1770454259728,131,3,3.8495821612118712,3.0417161376494697,3.124631725790727
1770454259732,131,3,3.970617371079058,2.9332174673391265,3.2520188834141535
1770454259736,131,3,4.169524847997508,3.0781872544434004,3.456155469909642
1770454259740,131,3,4.439010633212718,3.167804738412294,3.731056852395288
1770454259744,132,4,4.652660597080562,4.113747356004502,3.950681875033044
1770454259748,132,4,4.645723150109937,3.979312355064878,3.949840482305531
1770454259752,131,3,4.33546270909994,3.002378986988633,3.645749421555398
1770454259756,131,3,3.770517355065872,3.034884355127201,3.0875027144015874
1770454259760,130,2,3.074714029046936,2.199445454271647,2.3990561666309524
1770454259764,129,1,2.3484524041986155,1.11174319627114,1.68031737327432
1770454259768,129,1,1.612459474174622,0.9960015483365244,0.9513366686568668
1770454259772,128,0,0.8283265054024513,0.0173594335071027,0.1733716092001351
1770454259776,127,-1,-0.0376473715689222,-1.0083621151841216,-0.6869669749343266
1770454259780,126,-2,-0.9723943412934112,-1.68962848441534,-1.6158133364689604
1770454259784,125,-3,-1.9291488582813645,-3.0663181502835024,-2.5657813873217723
1770454259788,124,-4,-2.8674419773137414,-3.716617369835343,-3.4965264915152003
1770454259792,124,-4,-3.7678295934615695,-4.327502814295567,-4.389257443614687
1770454259796,122,-6,-4.606789979570592,-5.60212625405737,-5.220872161496941
1770454259800,122,-6,-5.328901136643703,-6.114163122690314,-5.935825324500007
1770454259804,121,-7,-5.857709442156154,-6.628929197254537,-6.457456532540726
1770454259808,121,-7,-6.143633143988415,-7.111538913389026,-6.736325675080307
1770454259812,121,-7,-6.2085856856386155,-6.952094671080335,-6.794630757748998
1770454259816,121,-7,-6.1474788862351,-6.9115643283931965,-6.727197345514698
1770454259820,121,-7,-6.0801713016527215,-6.864938476909148,-6.6532683557255545
1770454259824,121,-7,-6.085408515678579,-6.798989177107976,-6.650932032926487
1770454259828,121,-7,-6.161148076010056,-6.981567559069497,-6.718192901726582
1770454259832,121,-7,-6.235429381834223,-7.023571081617351,-6.78399429356854
1770454259836,121,-7,-6.21862475331144,-6.846098295711437,-6.759637406777739
1770454259840,121,-7,-6.065323625958989,-6.923939911266545,-6.599685632663831
1770454259844,121,-7,-5.808331525113165,-6.71519883749386,-6.336082835221136
1770454259848,122,-6,-5.537630250571594,-6.056360976529156,-6.058166547415688
1770454259852,122,-6,-5.331442378386778,-5.928996161876676,-5.844223152984682
1770454259856,122,-6,-5.193188361764557,-5.918842383914008,-5.697895886183171
1770454259860,122,-6,-5.055259460494715,-5.867435684018307,-5.551602791040758
1770454259864,122,-6,-4.850038329841904,-5.729485936431028,-5.338037120988017
1770454259868,123,-5,-4.579420482705723,-5.05868940196418,-5.059855312509009
1770454259872,123,-5,-4.318141706877556,-4.866628467384345,-4.792055989505047
1770454259876,123,-5,-4.156328252461208,-4.999685613269719,-4.623771086892697
1770454259880,123,-5,-4.136917738583442,-4.7640268095372456,-4.596591671061765
1770454259884,123,-5,-4.228733505325113,-4.8255868451535076,-4.6792426940731815
1770454259888,123,-5,-4.339089917626454,-4.965513364104941,-4.78030507153628
1770454259892,123,-5,-4.3568491271754,-4.892263295092874,-4.789756814971762
1770454259896,123,-5,-4.213233148869081,-5.010666906408778,-4.6386999077795785
1770454259900,123,-5,-3.9289820118167302,-4.69936693542234,-4.347141680691266
1770454259904,124,-4,-3.606316747266848,-3.9219078466599457,-4.017059991693753
1770454259908,124,-4,-3.360576985474555,-3.824046158073988,-3.7639264450739303
1770454259912,124,-4,-3.246284195610718,-4.017461088469927,-3.641966982377325
1770454259916,124,-4,-3.2405596828438457,-3.877898071940587,-3.6277503604031898
1770454259920,124,-4,-3.28491727470006,-3.818594074782467,-3.662920701993015
1770454259924,124,-4,-3.3322471852527453,-3.8153691296947168,-3.701249470497821
1770454259928,124,-4,-3.3610253337568707,-3.877292547157391,-3.7218544276146055
1770454259932,124,-4,-3.36636091548467,-3.966082171049035,-3.719660826409065
1770454259936,124,-4,-3.3527471693389677,-3.894193284696835,-3.698638318058798
1770454259940,124,-4,-3.3335353251874773,-3.82223029165848,-3.671868095086956
1770454259944,124,-4,-3.327300557487495,-3.791915371063867,-3.657756590749796
1770454259948,124,-4,-3.347993705439106,-3.874329662225849,-3.669875131092997
1770454259952,124,-4,-3.3950875475846205,-3.950728630348548,-3.707568296667775
1770454259956,124,-4,-3.4476629245857993,-3.88866263541695,-3.7507757247001727
1770454259960,124,-4,-3.4644944683112664,-3.843119520389792,-3.7596194225153594
1770454259964,124,-4,-3.400095464666006,-3.7461764371478408,-3.688695246698986
1770454259968,124,-4,-3.2434761553583265,-3.9025476095157976,-3.5251719370779786
1770454259972,124,-4,-3.0520662874310656,-3.8907481671101074,-3.324767650319325
1770454259976,125,-3,-2.9260368463982185,-2.947165813980829,-3.1884759164599497
1770454259980,125,-3,-2.916879102724718,-2.775536187800638,-3.1702425770456704
1770454259984,124,-4,-2.961649189303607,-3.8128039881071913,-3.2079741954997294
1770454259988,124,-4,-2.938252935430949,-3.797474163635891,-3.177925053310451
1770454259992,125,-3,-2.798114663600455,-2.98794389153138,-3.029828392481784
1770454259996,125,-3,-2.6224634107719753,-2.8341902186076258,-2.845083366344179
1770454260000,125,-3,-2.5281037855452126,-2.8764075152975845,-2.741619167003293
1770454260004,125,-3,-2.52180289838611,-2.7062853811488923,-2.726666381675693
1770454260008,125,-3,-2.459983283289853,-2.871881503937339,-2.6563271306678713
1770454260012,125,-3,-2.161971213794335,-2.9234786281533505,-2.34978140847302
1770454260016,126,-2,-1.5745435265827687,-1.8515594739577983,-1.7543147275439872
1770454260020,127,-1,-0.8363601170533814,-0.8827141986029614,-1.0090344146681494
1770454260024,127,-1,-0.1838444195753719,-0.6375194367075261,-0.3497819658257961
1770454260028,128,0,0.2193632996743741,0.0243653927898082,0.0611225132697879
1770454260032,128,0,0.3915410885052559,0.2420379533220387,0.2426375703492211
1770454260036,128,0,0.5038743332757709,-0.0668011543132387,0.3652104214985625
1770454260040,128,0,0.7446256056642768,0.4091172869869466,0.6155849463568555
1770454260044,129,1,1.1810149092513411,1.042056759182092,1.0599904781851852
1770454260048,129,1,1.7154231942094458,1.3986265501982458,1.6011014717521084
1770454260052,130,2,2.1558080255216985,1.8639757234959544,2.047985962382457
1770454260056,130,2,2.3402477145015386,2.308774572975402,2.2395926604883862
1770454260060,130,2,2.226895024040384,2.0802527980491297,2.134323536077101
1770454260064,129,1,1.892120510055834,1.3334321557281852,1.808480549299668
1770454260068,129,1,1.4523686413487753,1.2014953115257776,1.3781428606005337
1770454260072,129,1,0.9871263842244712,0.982864584832922,0.921992827939371
1770454260076,128,0,0.5269339866639147,0.2966793847239617,0.4698514595465908
1770454260080,128,0,0.0922409306823617,0.0169842839004836,0.0423109897580904
1770454260084,127,-1,-0.2816935083804015,-0.5018569122666526,-0.3245095475257472
1770454260088,127,-1,-0.567322448496711,-1.014027322159241,-0.602498157612265
1770454260092,127,-1,-0.7828748741332716,-0.7507110793942002,-0.810142835415379
1770454260096,127,-1,-0.9946371446125636,-0.9640302386770624,-1.0141617831398442
1770454260100,126,-2,-1.2741344804177253,-1.728859156411999,-1.2859490358924055
1770454260104,126,-2,-1.6458981846409195,-1.6892218210913563,-1.6496787695393282
1770454260108,126,-2,-2.0639078122496275,-1.8780484660165515,-2.059389433913805
1770454260112,125,-3,-2.433250987434252,-2.8136726130849374,-2.4204821982987976
1770454260116,125,-3,-2.6689964467043925,-2.937749699548227,-2.6482471747032825
1770454260120,125,-3,-2.753072925423608,-2.694534134828168,-2.7248719891431046
1770454260124,125,-3,-2.7407721582346904,-2.7379813732163187,-2.705797046121358
1770454260128,125,-3,-2.712670212151185,-2.792822041364482,-2.6710735886734276
1770454260132,125,-3,-2.7192367367176216,-2.9015736997345423,-2.6702416002919556
1770454260136,125,-3,-2.759685717215152,-2.8339591733320413,-2.7023777612819004
1770454260140,125,-3,-2.7937321588722943,-2.776266220066852,-2.728171018204976
1770454260144,125,-3,-2.7676491196143083,-2.6519407430089252,-2.694634327549913
1770454260148,125,-3,-2.6481783137419397,-2.8374102402577943,-2.567965535285719
1770454260152,125,-3,-2.453790818532,-2.880263175101338,-2.3658976044350415
1770454260156,126,-2,-2.251452939383353,-1.806396808766783,-2.156064395207109
1770454260160,126,-2,-2.1055017996025964,-1.822484425421257,-2.0041017138955897
1770454260164,125,-3,-2.0261995550529877,-2.5543540861616947,-1.919874685276589
1770454260168,126,-2,-1.9768990680736644,-1.9428037901495856,-1.864301975632352
1770454260172,126,-2,-1.9255673303149683,-1.75294837697198,-1.803255806568248
1770454260176,126,-2,-1.872997013530868,-1.936033993815335,-1.738225086792832
1770454260180,126,-2,-1.8320805613112736,-1.6551693466107442,-1.685968748880575
1770454260184,126,-2,-1.799479138691085,-1.7078381933568043,-1.648013057227357
1770454260188,126,-2,-1.760667923036539,-1.7822253573777602,-1.611657063713417
1770454260192,126,-2,-1.704848548739585,-1.8940941892686771,-1.5617387912073095
1770454260196,126,-2,-1.5670494119441971,-1.8044209881349385,-1.424237786940031
1770454260200,127,-1,-1.0417268838048896,-0.7354964360667764,-0.8863429250702801
1770454260204,129,1,0.6400391043085736,1.374950405251481,0.8199329573614205
1770454260208,133,5,4.7049970293919285,5.168243632109337,4.911695844205477
1770454260212,140,12,12.35376414621292,12.15124701153974,12.577372270429596
1770454260216,151,23,23.871428268122056,23.186338298257105,24.095286334766257
1770454260220,165,37,37.8502672749696,37.28588383489582,38.06045045004774
1770454260224,179,51,51.19523764760376,51.405670764321975,51.38806695074291
1770454260228,189,61,60.187817886584,61.11487152713112,60.37137813461176
1770454260232,191,63,62.14731289867375,63.1900243608772,62.33691758053613
1770454260236,185,57,56.71315403493922,57.109354694452826,56.923701842821345
1770454260240,173,45,45.93378840875137,45.339741138507165,46.17272431511435
1770454260244,160,32,33.12185128111878,32.42168031149576,33.38569134009056
1770454260248,149,21,21.244929394657618,21.106415957470283,21.521039585446196
1770454260252,140,12,11.847007299435363,12.314282855530235,12.12032311139384
1770454260256,134,6,5.0022224418753325,5.948181081756019,5.26371224286849
1770454260260,128,0,0.0356350213844498,0.5750143453593703,0.2873216761746753
1770454260264,124,-4,-3.683009806685485,-3.8626268715044194,-3.430233808668893
1770454260268,121,-7,-6.401151330974246,-6.561618538738031,-6.135666462777747
1770454260272,120,-8,-8.130342137312752,-8.010636909077746,-7.8477268326574015
1770454260276,119,-9,-8.945688736425423,-8.72027295339798,-8.650355138838528
1770454260280,119,-9,-9.1187240869464,-8.708560466577303,-8.818796681413845
1770454260284,119,-9,-9.017980697843884,-8.617671256459488,-8.718545535793725
1770454260288,119,-9,-8.924969789879277,-8.752566318867594,-8.62521224092353
1770454260292,119,-9,-8.936067036684582,-8.84426815601505,-8.631611073798826
1770454260296,119,-9,-9.00006639234945,-8.839046129518783,-8.6874264011371
1770454260300,119,-9,-9.021324229310052,-8.592072484660179,-8.700329034769851
1770454260304,119,-9,-8.937626310685301,-8.705355440061311,-8.610387207952009
1770454260308,119,-9,-8.738488876555259,-8.670258023847726,-8.40697940085673
1770454260312,120,-8,-8.44297852807847,-7.887963663675121,-8.107853525313775
1770454260316,120,-8,-8.071780640959497,-7.805255933479878,-7.732765692795618
1770454260320,120,-8,-7.640550093124702,-7.57459835385214,-7.29713058879792
1770454260324,121,-7,-7.177457763162679,-6.74643183038834,-6.8291848748958195
1770454260328,121,-7,-6.737197880439897,-6.576528140282733,-6.383814197183013
1770454260332,122,-6,-6.381146777980134,-6.018214390177341,-6.022679080455689
1770454260336,122,-6,-6.130525232692114,-5.59216434455018,-5.767214161050488
1770454260340,122,-6,-5.936381133262706,-5.839032779233943,-5.5684621244220205
1770454260344,122,-6,-5.70243638050853,-5.40562537600603,-5.3300234625489304
1770454260348,123,-5,-5.348550805380863,-4.955492372429129,-4.971682028392593
1770454260352,123,-5,-4.864519226511222,-4.5976971466500025,-4.483178801634841
1770454260356,124,-4,-4.313676541070748,-3.9859509901815633,-3.927889586273953
1770454260360,124,-4,-3.786621468230186,-3.455346595095637,-3.3967654598043384
1770454260364,125,-3,-3.3415418280465836,-2.733367912154169,-2.9483297696878408
1770454260368,125,-3,-2.9792346242806995,-2.6792146130309975,-2.582920824915793
1770454260372,125,-3,-2.6726227557568736,-2.78630685354323,-2.2724031390430612
1770454260376,126,-2,-2.41174260304808,-1.8568931092123775,-2.0065148415775793
1770454260380,126,-2,-2.202642405351643,-1.4737147015010268,-1.7922671043178424
1770454260384,126,-2,-2.0197217552935953,-1.800907324098985,-1.60504887420261
1770454260388,126,-2,-1.782505315582647,-1.502621133125131,-1.3643694390300998
1770454260392,127,-1,-1.4045813203240414,-1.037373882495324,-0.983310144645702
1770454260396,127,-1,-0.8730316468043517,-0.5195201890108865,-0.4487343128391199
1770454260400,128,0,-0.2779317200512829,0.1717529874069183,0.1493446113553269
1770454260404,128,0,0.2407515578425136,0.5883010861814144,0.6712073968116392
1770454260408,129,1,0.5901175052840135,1.1113624261637989,1.0242034869022665
1770454260412,129,1,0.79165356472879,1.3549133557586983,1.2298110014023254
1770454260416,129,1,0.964723210322666,1.1111140734421556,1.4071583825089786
1770454260420,129,1,1.235091840305096,1.560571137989041,1.6815715889069165
1770454260424,130,2,1.6411206004933565,2.2238852387662487,2.09081004199957
1770454260428,130,2,2.1134534957005124,2.4765089250662697,2.565210306985043
1770454260432,131,3,2.537977752564958,3.015798197344555,2.9911977188079453
1770454260436,131,3,2.8429947540384606,3.448600488591862,3.2983093239799164
1770454260440,131,3,3.0424932049545483,3.2680169371018835,3.501468997320316
1770454260444,131,3,3.2146994841138867,3.49797188489703,3.678513222506343
1770454260448,132,4,3.4473465256628884,4.258025090665427,3.91563576813713
1770454260452,132,4,3.789793961511258,4.198133450045944,4.2610022574194835
1770454260456,132,4,4.224470337445972,4.337071809060968,4.6972775776855045
1770454260460,133,5,4.658329927436225,5.35418642532004,5.132477176836221
1770454260464,133,5,4.946513582944618,5.4616897443720145,5.422461898058331
1770454260468,133,5,4.949949886130913,5.276809781811838,5.428283548576139
1770454260472,133,5,4.596140130085833,5.216651517974598,5.077322125671444
1770454260476,132,4,3.9052879492855306,4.319517991382602,4.38958610426801
1770454260480,131,3,2.970753901916887,3.393322377777637,3.4581844195347395
1770454260484,130,2,1.9118286243750855,2.4482484698109266,2.4021800869921552
1770454260488,129,1,0.8280838293002777,1.2829054971497462,1.3209959099861823
1770454260492,128,0,-0.2228425233359416,0.2565084145191273,0.2721433446047315
1770454260496,127,-1,-1.220162419391995,-0.73145896177091,-0.7236799385216146
1770454260500,126,-2,-2.1604550751580582,-1.51496483628308,-1.662833106698803
1770454260504,125,-3,-3.042687587323898,-2.6405442272810147,-2.543604126764365
1770454260508,124,-4,-3.8651378149294553,-3.613670184825521,-3.363689366431502
1770454260512,124,-4,-4.62159192008037,-3.8231675211028744,-4.117128613806395
1770454260516,123,-5,-5.286455400273952,-4.647600728028452,-4.779179972747889
1770454260520,122,-6,-5.807474483830619,-5.564863751149599,-5.298115349126842
1770454260524,122,-6,-6.131731918860839,-5.5889220962907,-5.620930220788694
1770454260528,122,-6,-6.251969266402384,-5.641619046588736,-5.740062380542182
1770454260532,122,-6,-6.22906261505521,-5.790048481563513,-5.716051889716619
1770454260536,122,-6,-6.165591040298411,-5.6509202630209465,-5.651147611686468
1770454260540,122,-6,-6.146177918467358,-5.547540942256341,-5.629944800547012
1770454260544,122,-6,-6.18404255278392,-5.59812484071675,-5.665972704497239
1770454260548,122,-6,-6.213339362801612,-5.611151221660647,-5.693495776124106
1770454260552,122,-6,-6.14017102499453,-5.817122616298941,-5.618341901641236
1770454260556,122,-6,-5.915976255230986,-5.591557914822081,-5.3920034782767265
1770454260560,123,-5,-5.569504520033607,-4.592740279700287,-5.043981276593102
1770454260564,123,-5,-5.173403024886079,-4.538330459757479,-4.64739719562427
1770454260568,123,-5,-4.791867521107224,-4.653763823552341,-4.265753529163902
1770454260572,124,-4,-4.464770687612685,-3.772600141574754,-3.937840979843009
1770454260576,124,-4,-4.2233847781639176,-3.5977974291242494,-3.694744411795269
1770454260580,124,-4,-4.09637399711656,-3.6024166124606407,-3.5657783412185116
1770454260584,124,-4,-4.093584379322632,-3.4567949942121556,-3.561401541842995
1770454260588,124,-4,-4.18975215988856,-3.787673558961119,-3.656595667810467
1770454260592,124,-4,-4.327464685892021,-3.5672889121178564,-3.793865951748241
1770454260596,124,-4,-4.4407590485925725,-3.8293432346170913,-3.9067068907160336
1770454260600,123,-5,-4.487448181553821,-4.326903172506336,-3.952238889594187
1770454260604,124,-4,-4.465402598803851,-3.7083622343721903,-3.9284444904411986
1770454260608,124,-4,-4.392023635009821,-3.5508550927334763,-3.8537684004301327
1770454260612,124,-4,-4.266610167452214,-3.753614443739212,-3.728127432964901
1770454260616,124,-4,-4.067193026768375,-3.670064450449666,-3.5288513691879224
1770454260620,124,-4,-3.794214685952776,-3.4151315326114324,-3.2554047446757854
1770454260624,125,-3,-3.5042187510521807,-2.657900117631092,-2.964382616229326
1770454260628,125,-3,-3.2810083604138836,-2.5321606330550104,-2.7402512326033506
1770454260632,125,-3,-3.170568718067409,-2.80702721633699,-2.629133405652179
1770454260636,125,-3,-3.1502151631880304,-2.566026676409666,-2.6080571583621324
1770454260640,125,-3,-3.1588330550606907,-2.516620199059028,-2.6160056727024084
1770454260644,125,-3,-3.1528910454947363,-2.5503660711000995,-2.6097727620598192
1770454260648,125,-3,-3.141793353596008,-2.5868102397359376,-2.598607836371665
1770454260652,125,-3,-3.179962727764882,-2.7822897199636385,-2.636580844187221
1770454260656,125,-3,-3.316960419187758,-2.533490441481027,-2.773459948932883
1770454260660,125,-3,-3.536350838659008,-2.5637846854196313,-2.993087863809033
1770454260664,124,-4,-3.740777661401227,-3.47499095043063,-3.1974055570263675
1770454260668,124,-4,-3.812576922857494,-3.6311043823377496,-3.2677939487623004
1770454260672,125,-3,-3.6967988872988657,-2.75706494046739,-3.1499600275342026
1770454260676,125,-3,-3.4230523902102723,-2.4934041481211007,-2.8754994414692017
1770454260680,125,-3,-3.0624026032768272,-2.6433411877522843,-2.516281832850929
1770454260684,125,-3,-2.692928593271793,-2.311456447234569,-2.1490045129973323
1770454260688,126,-2,-2.40720248569115,-1.8444485358588525,-1.864525453014523
1770454260692,126,-2,-2.31016863167842,-1.4914776410741155,-1.767448848565596
1770454260696,126,-2,-2.4633250737069883,-1.7508585033197277,-1.919786865550475
1770454260700,125,-3,-2.813968043495265,-2.3838105340770435,-2.2691671521417924
1770454260704,125,-3,-3.18355002546979,-2.5044270227258307,-2.637438543688238
1770454260708,125,-3,-3.3384844851580597,-2.717532560328523,-2.7919149503927776
1770454260712,125,-3,-3.102128733986527,-2.5181963854839085,-2.5565088531860547
1770454260716,126,-2,-2.445641713948345,-1.7810211301579042,-1.901594469947984
1770454260720,126,-2,-1.5074204298338063,-1.2519685082453311,-0.9642662484795508
1770454260724,128,0,-0.5197356658211367,0.3085805297670605,0.0232570201586417
1770454260728,129,1,0.3219622370104362,1.5325749342851172,0.8644318325793399
1770454260732,129,1,0.9493746701440228,1.199183435416594,1.4907003226711448
1770454260736,129,1,1.3911246908051915,1.553904902386499,1.931790753579365
1770454260740,130,2,1.6643364063248796,2.421254216694614,2.205395578815721
1770454260744,130,2,1.7215706819119492,2.6447724354561597,2.2630427779343063
1770454260748,130,2,1.514376110989349,2.223836876382588,2.05520485747041
1770454260752,129,1,1.0876722637988947,1.5137880336237413,1.6272229012696031
1770454260756,129,1,0.587402668726577,1.255764217719503,1.1261944744211865
1770454260760,128,0,0.1686700196934958,0.7492939348941597,0.7074800059407585
1770454260764,128,0,-0.1077118755547887,0.3123026200005812,0.4309821996414538
1770454260768,128,0,-0.3016792687808889,0.6013049743084133,0.2357858660695665
1770454260772,128,0,-0.5298067633582881,0.141451869543165,0.0053977360825908
1770454260776,127,-1,-0.8718510209300838,-0.3709543400347617,-0.3387206670020005
1770454260780,127,-1,-1.3228126758417762,-0.5698722361465016,-0.790330444322126
1770454260784,126,-2,-1.813596147939543,-1.4169558847782455,-1.2803844529408452
1770454260788,126,-2,-2.263791447233315,-1.574049041838142,-1.7299165816535884
1770454260792,126,-2,-2.6198697260554766,-1.730571825411714,-2.0868389322562897
1770454260796,125,-3,-2.866759282661812,-2.436889750035706,-2.336046843440494
1770454260800,125,-3,-3.027500439406575,-2.508160535569057,-2.4992705001791338
1770454260804,125,-3,-3.153890730083482,-2.4769666367622323,-2.6272684287976853
1770454260808,125,-3,-3.29630575836262,-2.4535061216355736,-2.7704668010072395
1770454260812,125,-3,-3.4634808747962795,-2.891342767565549,-2.938101662303422
1770454260816,124,-4,-3.6101077473728416,-3.1869480275447586,-3.0851628271341944
1770454260820,125,-3,-3.669808524606437,-2.82364245444574,-3.145558552568334
1770454260824,124,-4,-3.605993350073567,-3.0798933360811684,-3.0831223430188195
1770454260828,125,-3,-3.4407037294204055,-2.8755401235493503,-2.919990109791172
1770454260832,125,-3,-3.245455563053994,-2.4241183339420624,-2.727091017405258
1770454260836,125,-3,-3.104010574280983,-2.6295584292926284,-2.587367155525126
1770454260840,125,-3,-3.0684722264455195,-2.419127438852998,-2.5527726844681333
1770454260844,125,-3,-3.1295576252658086,-2.3919384311839345,-2.6148477369523517
1770454260848,125,-3,-3.2158302603134845,-2.640794111156901,-2.702987452293591
1770454260852,125,-3,-3.2279825920260627,-2.529282498537829,-2.7173665792181936
1770454260856,125,-3,-3.0963945155388584,-2.6044372125670483,-2.586613083691641
1770454260860,125,-3,-2.8263605113405035,-2.3599353493629307,-2.315106506936732
1770454260864,126,-2,-2.4945380814645124,-1.490700383370121,-1.981333109487101
1770454260868,126,-2,-2.2009677147244116,-1.4748167946086284,-1.6891472037089197
1770454260872,126,-2,-2.022619703910208,-1.7139581284454173,-1.518143174486926
1770454260876,126,-2,-1.9911785601140248,-1.3630171853737576,-1.4985603842461463
1770454260880,126,-2,-2.046234578049164,-1.6413318620530473,-1.56420820838551
1770454260884,126,-2,-1.9034920189256288,-1.1567504985719348,-1.4235887754941636
1770454260888,128,0,-0.8844508157883868,0.2058713716005971,-0.3946064373758511
1770454260892,130,2,2.1078949017754125,2.6259188872909927,2.615598447820762
1770454260896,137,9,8.267656026485014,9.336545695693134,8.790017400880238
1770454260900,146,18,18.202630541969597,18.64754388133047,18.72518843471486
1770454260904,158,30,31.1786730377398,30.60216427397448,31.683828775057933
1770454260908,173,45,44.80724847209738,45.46273252893096,45.28514127381737
1770454260912,184,56,55.60105829093048,56.40493951504869,56.05544819249136
1770454260916,189,61,60.340109969703335,61.50401740382665,60.78577601279912
1770454260920,187,59,57.58172626662986,59.50570498875421,58.036005750070096
1770454260924,176,48,48.39827528936854,48.66498236326842,48.87233747425783
1770454260928,163,35,35.82470060451417,35.46620635626057,36.31873832310371
1770454260932,151,23,23.32840964065232,23.42609732827735,23.83204403304838
1770454260936,141,13,13.261607990124851,13.536598478184754,13.759178659433044
1770454260940,135,7,6.203327061440842,7.541113160309307,6.682234396939911
1770454260944,130,2,1.405471972576687,2.6455972616936356,1.8632743251150523
1770454260948,126,-2,-2.193755711828513,-1.5136809085210357,-1.7484132220392237
1770454260952,123,-5,-5.172922359833352,-4.573664562729927,-4.726717214580558
1770454260956,120,-8,-7.486626757324894,-7.483988179496455,-7.030745838246837
1770454260960,119,-9,-8.855850570534201,-8.394103046029155,-8.391055436273978
1770454260964,119,-9,-9.232204600177434,-8.387436008071536,-8.76644906528117
1770454260968,119,-9,-8.956651096783263,-8.485745831247623,-8.49817332083742
1770454260972,120,-8,-8.558052891612261,-7.560455612962224,-8.109875860150439
1770454260976,120,-8,-8.41694520275079,-7.528077500407139,-7.976168028592205
1770454260980,119,-9,-8.575373989645133,-8.307443785616119,-8.136295652682374
1770454260984,119,-9,-8.81238966775583,-8.463532133705973,-8.370725410421597
1770454260988,119,-9,-8.875575524698496,-8.380948087110031,-8.431312752023757
1770454260992,120,-8,-8.656375330885833,-7.665659093337411,-8.21340274481813
1770454260996,120,-8,-8.199358478902688,-7.384273137304484,-7.761925747998514
1770454261000,120,-8,-7.609726388011257,-7.458531215767259,-7.178877514169163
1770454261004,121,-7,-6.9785621314970605,-6.266841551773453,-6.5519977669420815
1770454261008,122,-6,-6.3664423270414705,-5.577101473146848,-5.941424367971153
1770454261012,122,-6,-5.811868023255896,-5.463889516107159,-5.387636324696439
1770454261016,123,-5,-5.335752941652951,-4.538386467813085,-4.913331713025362
1770454261020,123,-5,-4.943660266570131,-4.326858930111859,-4.52420561360346
1770454261024,123,-5,-4.631064404811495,-4.334126633323576,-4.2149169328820815
1770454261028,124,-4,-4.38502411097631,-3.5453055476608943,-3.972057460533271
1770454261032,124,-4,-4.177128682336125,-3.4243632587357227,-3.7672478800227
1770454261036,124,-4,-3.960091905547507,-3.622674399222058,-3.553035787903878
1770454261040,124,-4,-3.683392006044918,-3.147256013445805,-3.278575337605746
1770454261044,125,-3,-3.3170494614915795,-2.578529874451165,-2.914186277389095
1770454261048,125,-3,-2.858252442373299,-2.2091039937781733,-2.457948640162085
1770454261052,126,-2,-2.3216014036835624,-1.8052536453542536,-1.9248941320311168
1770454261056,126,-2,-1.736800197035032,-1.1784427066764838,-1.3441165385463352
1770454261060,127,-1,-1.1582954448500955,-0.5943635605070586,-0.7690569310709838
1770454261064,127,-1,-0.661825932714651,-0.1234177700117276,-0.2750836545877612
1770454261068,128,0,-0.3098614398766731,0.3857958471592758,0.0747671859792379
1770454261072,128,0,-0.1059619714891646,0.5605884457374419,0.276116995868186
1770454261076,128,0,0.0170804641207769,0.5517316190025783,0.396003157794096
1770454261080,128,0,0.1528136558833583,0.6002365150033,0.5284942448693953
1770454261084,128,0,0.3539199195206476,0.7948640788804344,0.7266489967349241
1770454261088,129,1,0.6057482636897217,1.3910273142377982,0.9755968825617664
1770454261092,129,1,0.864375968040765,1.6619831110980123,1.2312033971216612
1770454261096,129,1,1.1128365158481937,1.4040423069453736,1.476762557384224
1770454261100,129,1,1.375109875751002,1.7982333625236038,1.736318184683137
1770454261104,130,2,1.6834005976197453,2.6039783748896985,2.0414642138046215
1770454261108,130,2,2.039704057503394,2.574948565142311,2.3938900118050013
1770454261112,130,2,2.4025512827172752,2.557863934928436,2.7529475413403905
1770454261116,131,3,2.7082639107171467,3.4530418001556136,3.055878588929917
1770454261120,131,3,2.924200018093115,3.842069075559944,3.269784221956032
1770454261124,131,3,3.098625648150644,3.4892318204692474,3.4419902307500196
1770454261128,131,3,3.3464849070667344,3.786717172105945,3.687020260401632
1770454261132,132,4,3.758513818982192,4.313560233246313,4.095809689865298
1770454261136,132,4,4.306587351949244,4.743844271527407,4.640431692580394
1770454261140,133,5,4.834059947494422,5.563215227254702,5.164253970031712
1770454261144,133,5,5.144575199544434,5.7656286418467655,5.470984765493385
1770454261148,133,5,5.118275245881657,5.558912510925712,5.44100834124399
1770454261152,133,5,4.767204802100786,5.524364729900003,5.086770102079372
1770454261156,132,4,4.196123242339572,4.581915208686452,4.513434861508509
1770454261160,131,3,3.511307131601251,3.711510425455115,3.82714254731656
1770454261164,131,3,2.759147670991704,3.656592130588366,3.073163530006508
1770454261168,130,2,1.9409868743776544,2.6853671696189614,2.251546777909301
1770454261172,129,1,1.0663861085276354,1.4041345860902172,1.3719882545419222
1770454261176,128,0,0.16849794036467,0.7449576667466556,0.4693783051729381
1770454261180,127,-1,-0.7343116286291185,-0.470791022732848,-0.4364587851313331
1770454261184,126,-2,-1.6655222969114662,-1.1252553973445396,-1.3694498398345845
1770454261188,126,-2,-2.6514425528179633,-1.500528032215093,-2.357470899237926
1770454261192,124,-4,-3.65305217631102,-3.41742214627863,-3.3621494498046665
1770454261196,123,-5,-4.555565203060023,-4.380227059398894,-4.268015973934247
1770454261200,123,-5,-5.2387146588110935,-4.377884441250511,-4.954208819729619
1770454261204,122,-6,-5.658321700875715,-5.17070190681444,-5.376755305335653
1770454261208,122,-6,-5.866637872008651,-5.436638788425692,-5.5881869014075605
1770454261212,122,-6,-5.966367634561101,-5.454999933916328,-5.691170049282079
1770454261216,122,-6,-6.040776437596021,-5.328930593911536,-5.768976116970148
1770454261220,122,-6,-6.109381360306741,-5.441160136518429,-5.841069445368652
1770454261224,121,-7,-6.14140980698643,-6.061304360379052,-5.876215957511915
1770454261228,122,-6,-6.111858536673407,-5.551870296957891,-5.849064707243628
1770454261232,122,-6,-6.038284031522784,-5.270573623696877,-5.777663097206052
1770454261236,122,-6,-5.9565425502863505,-5.551573350794678,-5.698725390114792
1770454261240,122,-6,-5.868951001864083,-5.17230871617299,-5.614662390892138
1770454261244,122,-6,-5.733160888133706,-5.331239456396681,-5.482312188816928
1770454261248,122,-6,-5.510473190862385,-5.262101848504114,-5.262338883261885
1770454261252,123,-5,-5.221418460530505,-4.502660146061569,-4.975697286289766
1770454261256,123,-5,-4.94686186749719,-4.355050971474579,-4.704219683768861
1770454261260,123,-5,-4.772407249532573,-4.310760282881802,-4.533720431496723
1770454261264,123,-5,-4.730913274109327,-4.216239088477828,-4.496115418200684
1770454261268,123,-5,-4.79025007225101,-4.328945800307803,-4.558178983864039
1770454261272,123,-5,-4.882178966944112,-4.42135481200659,-4.651626718493185
1770454261276,123,-5,-4.936755339202504,-4.423325344676982,-4.70764085818196
1770454261280,123,-5,-4.899770603858464,-4.222158376706545,-4.673244021431761
1770454261284,123,-5,-4.741596592282166,-4.299573516889573,-4.5189670289045605
1770454261288,123,-5,-4.472998055619932,-4.210345037640145,-4.254629260987767
1770454261292,124,-4,-4.157464327091703,-3.525952995219131,-3.942708770926317
1770454261296,124,-4,-3.891373065997734,-3.299081768225972,-3.6792880593651014
1770454261300,124,-4,-3.749956719201845,-3.3349330790961016,-3.539902215810604
1770454261304,124,-4,-3.73907819459434,-3.176044661048679,-3.530942021135606
1770454261308,124,-4,-3.7949855533842536,-3.300311034284535,-3.589219169484194
1770454261312,124,-4,-3.834469182737662,-3.434625559189188,-3.631848923219878
1770454261316,124,-4,-3.8172102801791032,-3.3479638818597737,-3.6182709883794257
1770454261320,124,-4,-3.771364669444796,-3.295053715933421,-3.575910693081406
1770454261324,124,-4,-3.759798048109076,-3.184687232342855,-3.566985578985853
1770454261328,124,-4,-3.8124050767045023,-3.2702572015086564,-3.6214286877374704
1770454261332,124,-4,-3.882117102109194,-3.4595053932110083,-3.692956987499796
1770454261336,124,-4,-3.867685272969984,-3.2839429608164026,-3.681168353668202
1770454261340,124,-4,-3.693267105518805,-3.366264780355892,-3.5102650917625073
1770454261344,124,-4,-3.3835321343160345,-3.0866097803208423,-3.2041093541997037
1770454261348,125,-3,-3.0654168598258575,-2.333503552988085,-2.8888833751660914
1770454261352,125,-3,-2.8808987289146133,-2.406841540518905,-2.706627951185879
1770454261356,125,-3,-2.8762750365524625,-2.278861660387936,-2.7042320820387564
1770454261360,125,-3,-2.9670929752240607,-2.4052578830746834,-2.7975051881135378
1770454261364,124,-4,-3.018036523286954,-2.9933261540782183,-2.8508502947118903
1770454261368,125,-3,-2.9691867741748617,-2.432423736144207,-2.8042537522652826
1770454261372,125,-3,-2.889008048969172,-2.2628002129848652,-2.726780021792012
1770454261376,125,-3,-2.9009647886703993,-2.4161015139020217,-2.7424367448469056
1770454261380,125,-3,-3.055194518649067,-2.253961354195045,-2.9006782135738725
1770454261384,124,-4,-3.2694156235283978,-3.1232908360852347,-3.1175945696689555
1770454261388,124,-4,-3.3876698125564624,-3.3070345301667956,-3.236565002760792
1770454261392,125,-3,-3.2869627671749555,-2.332277738549262,-3.1360564902077304
1770454261396,125,-3,-2.9335951752425458,-2.347117929377382,-2.7845050191247074
1770454261400,125,-3,-2.370486798987108,-2.2983795912871217,-2.225350741526129
1770454261404,126,-2,-1.6851528375244362,-1.054870369204868,-1.544775241910303
1770454261408,127,-1,-0.9892974493751554,-0.3924540493786614,-0.852833932767974
1770454261412,127,-1,-0.3978936539067466,-0.1917187334734038,-0.2637442756041496
1770454261416,128,0,0.0058847836260274,0.5205857624337358,0.1389003716639101
1770454261420,128,0,0.2109217460787853,0.8465389253925053,0.3427879006843334
1770454261424,128,0,0.2953086306494914,0.8298340653746219,0.4251331435051541
1770454261428,128,0,0.3893200231736782,0.6996656390931979,0.5165100465263706
1770454261432,128,0,0.5904066463347,0.7879132627496628,0.7151880660430496
1770454261436,129,1,0.893785822213687,1.5223104503093503,1.0163826080232086
1770454261440,129,1,1.202722881348281,1.899614204136302,1.322586188243418
1770454261444,129,1,1.4053508228881513,1.7685280868919095,1.5217486743031332
1770454261448,129,1,1.440537899105761,1.7654738793116842,1.5536429285169555
1770454261452,129,1,1.3030006661465394,1.7788663380763956,1.4138857452967266
1770454261456,129,1,1.0116622450093675,1.4924566762737106,1.1212643993713023
1770454261460,128,0,0.5907635622733161,1.031883381442697,0.6991100194641473
1770454261464,128,0,0.0778413784885985,0.5662775597898126,0.1842060235507435
1770454261468,127,-1,-0.4657997978097434,0.048202630851311,-0.3621595017389447
1770454261472,127,-1,-0.969036047709528,-0.5262620894831498,-0.8682542049091102
1770454261476,126,-2,-1.3874949494230266,-1.1702868378132527,-1.289170998934532
1770454261480,126,-2,-1.7289260870780143,-1.2509663862018203,-1.632809156718135
1770454261484,126,-2,-2.0357074087563545,-1.2039495474706765,-1.942001643028884
1770454261488,125,-3,-2.33794407199267,-2.0748333077162764,-2.2467222221399066
1770454261492,125,-3,-2.624786775020035,-2.4971881620032317,-2.5355735138882443
1770454261496,125,-3,-2.855632313127981,-2.060753921782548,-2.7680204319317743
1770454261500,125,-3,-2.988757967704239,-2.442916308846058,-2.9030116657488527
1770454261504,124,-4,-3.0049018263269467,-2.917406282539578,-2.9214992551665615
1770454261508,125,-3,-2.922088158464951,-2.388980747842048,-2.841069578741404
1770454261512,125,-3,-2.7933424861046223,-2.162587293575867,-2.714497431526296
1770454261516,125,-3,-2.679651923960452,-2.348971089786328,-2.603029054601334
1770454261520,125,-3,-2.6168322231337924,-2.1748850319712427,-2.5427411165297964
1770454261524,125,-3,-2.6051021306410993,-2.115395125455948,-2.533663124962526
1770454261528,125,-3,-2.6252463541385773,-2.236724470441649,-2.555972551630731
1770454261532,125,-3,-2.660152833955136,-2.2479031393930473,-2.592067597068514
1770454261536,125,-3,-2.699581359115639,-2.27593734940765,-2.632139105602362
1770454261540,125,-3,-2.7243161482545335,-2.206180325204365,-2.658413871313098
1770454261544,125,-3,-2.691396890247305,-2.066988840010369,-2.6290096868917443
1770454261548,125,-3,-2.5515896597185894,-2.288483592571903,-2.493751949354113
1770454261552,125,-3,-2.298515733925865,-2.159826320402,-2.243609446554393
1770454261556,126,-2,-1.9983893905151624,-1.3589558394478425,-1.9429016935562744
1770454261560,126,-2,-1.7515323305896515,-1.0861065706270203,-1.693003810058542
1770454261564,126,-2,-1.6129236748978273,-1.1734580330218212,-1.5527074716865334
1770454261568,126,-2,-1.5584888191275996,-1.1750868417907814,-1.5020958099913388
1770454261572,126,-2,-1.534483306456597,-1.2530994014130366,-1.4886824103676628
1770454261576,126,-2,-1.5114004797800735,-1.258838993623077,-1.4791281808264376
1770454261580,126,-2,-1.414383332945011,-1.1357027797330228,-1.3907491007719508
1770454261584,127,-1,-0.8967205397794564,-0.12724413488418,-0.8699677426752861
1770454261588,129,1,0.8872937145422259,1.8182013407023931,0.9290895047548277
1770454261592,133,5,5.221309399113872,5.7442131188874415,5.281869760313068
1770454261596,141,13,13.277832889400448,13.784285472484193,13.348784879838645
1770454261600,152,24,25.219280498423437,24.86711817662591,25.28388827094241
1770454261604,166,38,39.47260945781063,38.86909966281843,39.51479200406355
1770454261608,181,53,52.79823610486845,53.885490238684305,52.81154144702669
1770454261612,190,62,61.38214186474244,62.61155515555538,61.37405912032294
1770454261616,190,62,62.49165898993567,62.95391172165333,62.48050486654667
1770454261620,184,56,55.77427411405567,56.64787466470126,55.7791405355606
1770454261624,171,43,43.43155647782402,44.08813321819571,43.461309916878264
1770454261628,156,28,29.15624275612114,28.704696398352706,29.20551875247442
1770454261632,143,15,16.439058070059872,15.815879105456109,16.493107351290462
1770454261636,135,7,7.2052015612473275,7.8677908018203295,7.248413577465038
1770454261640,130,2,1.492589837460501,2.720594805804154,1.515469256969042
1770454261644,126,-2,-1.8375206881852764,-0.9025535767736772,-1.8346802630246375
1770454261648,124,-4,-4.030202855708278,-3.354559449551439,-4.037813660582874
1770454261652,121,-7,-5.763813404003384,-6.0935090853558345,-5.768496257702578
1770454261656,120,-8,-7.14284473485408,-7.227490436048288,-7.135773447125814
1770454261660,120,-8,-8.067883269098749,-7.1541599187564175,-8.050106802094964
1770454261664,119,-9,-8.537136257550818,-7.988797534163366,-8.517363988056578
1770454261668,119,-9,-8.685252811699215,-8.272484475153325,-8.67227637273125
1770454261672,119,-9,-8.666969041600375,-8.148944721937767,-8.663573683791274
1770454261676,119,-9,-8.56871497012077,-8.1885933400026,-8.571357246432402
1770454261680,119,-9,-8.41738652254082,-8.149041730399125,-8.420253480850931
1770454261684,119,-9,-8.231461476818346,-7.95798285178141,-8.23105244981487
1770454261688,120,-8,-8.033094078867073,-7.304445293233599,-8.030316716165713
1770454261692,120,-8,-7.809927970857275,-7.084797149573849,-7.808537887725452
1770454261696,120,-8,-7.498204317832458,-7.276682270920589,-7.501028730752704
1770454261700,120,-8,-7.045479486420695,-7.008031331793912,-7.052055464190183
1770454261704,121,-7,-6.500026055679847,-6.076512604882445,-6.507921550832341
1770454261708,122,-6,-6.009400393986343,-5.173604893835125,-6.017245711927597
1770454261712,122,-6,-5.700079222935285,-5.185314588077494,-5.708587693889699
1770454261716,122,-6,-5.554534847812277,-5.200911630359336,-5.564776980098706
1770454261720,122,-6,-5.418076790479954,-5.028822442490581,-5.429699885420891
1770454261724,122,-6,-5.132402399556011,-5.053996919901845,-5.144128083610191
1770454261728,123,-5,-4.662934523754271,-4.1616017187548815,-4.6745606342658625
1770454261732,124,-4,-4.101961392619362,-3.169743981668397,-4.115106503096194
1770454261736,124,-4,-3.56487446292374,-3.239212511277708,-3.581204168379272
1770454261740,124,-4,-3.099598267969711,-2.9258930943250716,-3.1186306415520733
1770454261744,125,-3,-2.689297169313903,-2.188530416285963,-2.708681117254705
1770454261748,125,-3,-2.3106028183776557,-1.9538236300880665,-2.328680476525814
1770454261752,126,-2,-1.963845863320403,-1.4042030859602477,-1.981450293940573
1770454261756,126,-2,-1.6540424225013242,-0.951053351210658,-1.673453057301229
1770454261760,126,-2,-1.3711603057360362,-1.224081877461472,-1.393506876627132
1770454261764,126,-2,-1.10686065638916,-0.8677011922983606,-1.1310077271819925
1770454261768,127,-1,-0.8790268001170483,-0.2289338276833906,-0.9030689872109796
1770454261772,127,-1,-0.7140491252471353,-0.1624267204937827,-0.7373903335311465
1770454261776,127,-1,-0.5964014605137478,-0.0949831070950186,-0.6200364816759915
1770454261780,127,-1,-0.4513846369748194,-0.1564921608638924,-0.4765207755181481
1770454261784,127,-1,-0.1957193805121723,0.1654454101134623,-0.2225722040599561
1770454261788,128,0,0.1900419542018661,0.6907760816295533,0.1622399472921336
1770454261792,128,0,0.6429727422797276,0.9854376211342104,0.6151444439875575
1770454261796,129,1,1.075742667502979,1.7652561791891248,1.0481799380860144
1770454261800,129,1,1.4566919877254247,1.9824495948487204,1.4289011884846117
1770454261804,129,1,1.8323074912285624,2.071723199230441,1.8035367885025235
1770454261808,130,2,2.2653190958049176,2.7538677720585225,2.2352517818223525
1770454261812,130,2,2.7467133987110612,3.009708674908232,2.7156997114988757
1770454261816,131,3,3.1733720137524144,3.6953198869685937,3.1420417932034703
1770454261820,131,3,3.425607375109132,4.138528515729903,3.3942982839634275
1770454261824,131,3,3.480931903799868,3.862516440606496,3.449552749162121
1770454261828,131,3,3.455730457269531,4.022781454644164,3.424199092924643
1770454261832,131,3,3.5240691799187,3.7510218983410297,3.492702507037124
1770454261836,131,3,3.7760559504625455,3.956559025550322,3.745205179131935
1770454261840,132,4,4.140204397634847,4.949601908016249,4.10945385540142
1770454261844,132,4,4.437834011243285,4.994696252285341,4.4060045284647185
1770454261848,132,4,4.512438364665156,4.980585767891587,4.478807950220105
1770454261852,132,4,4.313018197130978,4.74853685046093,4.278385938083231
1770454261856,131,3,3.873460401029387,4.0234170905393505,3.839572519306914
1770454261860,131,3,3.241034089430956,3.8690557868306703,3.2088968255555095
1770454261864,130,2,2.440942176856544,3.11783855964656,2.409999371501931
1770454261868,129,1,1.4984773690718285,1.8583863730492332,1.4674855785346532
1770454261872,128,0,0.4691363360075689,0.9063613264324936,0.4374196010738238
1770454261876,127,-1,-0.568313845565541,-0.1310859316975943,-0.6006362052871619
1770454261880,126,-2,-1.5472430709085856,-0.9547515985747146,-1.579707122794337
1770454261884,125,-3,-2.4404524769258487,-2.0289962378801265,-2.4724617690397084
1770454261888,124,-4,-3.2561935557011292,-2.988025730920958,-3.287177946857501
1770454261892,124,-4,-4.004367024786972,-3.209749463056413,-4.03427439545652
1770454261896,123,-5,-4.658904624374761,-4.023474199954058,-4.6883505650326525
1770454261900,122,-6,-5.15773058933748,-5.019774957585388,-5.187290277911871
1770454261904,122,-6,-5.454701320921698,-4.971151088515361,-5.48424238614778
1770454261908,122,-6,-5.576587661950819,-4.985764837870751,-5.605568474625447
1770454261912,122,-6,-5.618956025297817,-5.246762986801138,-5.647158579098508
1770454261916,122,-6,-5.674795025377461,-4.907199421771398,-5.702416719106059
1770454261920,122,-6,-5.762898015731712,-5.180517254880038,-5.789929427433222
1770454261924,121,-7,-5.82661708365285,-5.744164695253357,-5.852519603780246
1770454261928,122,-6,-5.8025192368785685,-5.222677273635746,-5.826893491053784
1770454261932,122,-6,-5.688328335792274,-4.9816664280196195,-5.711703856422048
1770454261936,122,-6,-5.547931808872629,-5.143365401069438,-5.571340075863161
1770454261940,122,-6,-5.460995254325264,-4.944866916184708,-5.484699411647686
1770454261944,122,-6,-5.468220328146321,-4.937471192353587,-5.491277162310907
1770454261948,122,-6,-5.547636636980724,-5.046430039981904,-5.568834340006557
1770454261952,122,-6,-5.626204506153264,-5.105081335250608,-5.645174870130792
1770454261956,122,-6,-5.617153610064253,-5.02422548977473,-5.63443759604332
1770454261960,122,-6,-5.4680280859677985,-5.02614889134669,-5.484289141940376
1770454261964,122,-6,-5.195504125239999,-4.84748270650047,-5.211029104211568
1770454261968,123,-5,-4.880664672729254,-4.124653027773821,-4.895599924823417
1770454261972,123,-5,-4.621545541646589,-3.99357704969602,-4.636084112123354
1770454261976,123,-5,-4.477934316447664,-4.129831944077462,-4.491890410680011
1770454261980,123,-5,-4.450946514613852,-3.8892993452953584,-4.463406241297771
1770454261984,123,-5,-4.501695606501032,-3.974760219461804,-4.511523678004231
1770454261988,123,-5,-4.578420263858763,-3.996915326737526,-4.585238732481219
1770454261992,123,-5,-4.630353955038588,-4.05799986663733,-4.635001872751637
1770454261996,123,-5,-4.615770040470612,-4.10122655288755,-4.619736257130983
1770454262000,123,-5,-4.519474468317006,-3.829602504557247,-4.523647543746425
1770454262004,123,-5,-4.375062237727565,-4.092209890629968,-4.378878261074433
1770454262008,123,-5,-4.2629889628848785,-3.8072208095419993,-4.264955421705886
1770454262012,124,-4,-4.260418385448325,-3.2553988656456534,-4.259538061983481
1770454262016,123,-5,-4.3676625929617305,-3.8748276671598263,-4.364105837137135
1770454262020,123,-5,-4.483051411299721,-4.023739579498455,-4.477467476021063
1770454262024,123,-5,-4.470004529521776,-3.9175737780030775,-4.462678843638344
1770454262028,123,-5,-4.267778380216198,-3.928527305425983,-4.25872043705121
1770454262032,124,-4,-3.9450131733069247,-3.1490348948774103,-3.9344789235568114
1770454262036,124,-4,-3.64682005176078,-2.905882383152044,-3.63521061848466
1770454262040,124,-4,-3.4862058189201743,-3.026163651570404,-3.473382921147869
1770454262044,124,-4,-3.474872794907344,-2.865297670648699,-3.4599484453657
1770454262048,124,-4,-3.540307340160587,-3.0013963115094655,-3.522377733510476
1770454262052,124,-4,-3.5968540020472624,-3.0354072129688023,-3.5758540597825488
1770454262056,124,-4,-3.605284433834196,-2.980085815202717,-3.581999954924286
1770454262060,124,-4,-3.5815351040441694,-2.9564904809977985,-3.5568191472098216
1770454262064,124,-4,-3.5627505054311515,-2.8996555560027044,-3.536747081763624
1770454262068,124,-4,-3.56810514822128,-2.9840005510733367,-3.5401588046306944
1770454262072,124,-4,-3.5865294735062947,-3.0072381352112316,-3.5558281508321854
1770454262076,124,-4,-3.5942511851201773,-2.9846020273598315,-3.5606158993789063
1770454262080,124,-4,-3.5803735876272618,-2.9366254893464467,-3.5444170278739624
1770454262084,124,-4,-3.558143707057686,-2.902762656827182,-3.52057999032485
1770454262088,124,-4,-3.5557906493923355,-2.982419957814299,-3.516614614348919
1770454262092,124,-4,-3.593576490457959,-2.972676681164099,-3.552071165441644
1770454262096,124,-4,-3.657356217123779,-2.992485991126508,-3.612910967974172
1770454262100,124,-4,-3.683692181349204,-2.91470369379501,-3.6363393281732463
1770454262104,124,-4,-3.5762422775320735,-2.9060813936205188,-3.5262553056391854
1770454262108,124,-4,-3.256903775845626,-2.9808027067791194,-3.204274148380593
1770454262112,125,-3,-2.71719673419789,-1.9405155201965767,-2.661924501415871
1770454262116,126,-2,-2.02252517970577,-0.989001609799312,-1.965081667390581
1770454262120,126,-2,-1.2672028062371434,-0.915319413061558,-1.208090112787506
1770454262124,127,-1,-0.5290680511576684,0.1278076496867319,-0.4680210736345561
1770454262128,128,0,0.1398746560399151,0.9647764954744612,0.2037599813042478
1770454262132,128,0,0.7003735805070599,1.1562429087790906,0.7676800480708019
1770454262136,129,1,1.120500189279355,1.9395430767131343,1.1909062613960966
1770454262140,129,1,1.3838572611769622,2.1787277626438404,1.4565922874083603
1770454262144,129,1,1.4947374744418982,2.042830228984967,1.569510012792294
1770454262148,129,1,1.468660093979978,2.0498498458840864,1.545929421572197
1770454262152,129,1,1.3202777603821807,2.10439170173692,1.4005841914523092
1770454262156,129,1,1.0667472584502289,2.011164418784328,1.1500993018304395
1770454262160,128,0,0.7395561353844833,1.1541877471223416,0.8256167565346431
1770454262164,128,0,0.3817883566415856,1.0426707456492246,0.4703234252443635
1770454262168,128,0,0.0287948939239828,1.0875106514655546,0.119785446593269
1770454262172,127,-1,-0.3073812424942768,0.0625161632952011,-0.2137695160111055
1770454262176,127,-1,-0.6363065925104752,0.1042430876101059,-0.5397665522554513
1770454262180,127,-1,-0.9731248091887226,0.0937499793949169,-0.8734474774871783
1770454262184,126,-2,-1.3204654190557812,-0.9251434248822228,-1.217832904216942
1770454262188,126,-2,-1.6634987571180964,-0.8949392004143039,-1.5584587780061012
1770454262192,126,-2,-1.983170936378134,-0.9760034617188292,-1.8761323496990332
1770454262196,125,-3,-2.275551956772913,-1.7869578010792109,-2.1661741870299984
1770454262200,125,-3,-2.557497802839918,-2.0081977156962116,-2.4448887742254124
1770454262204,125,-3,-2.843500523935158,-1.8153206673238225,-2.727296362378079
1770454262208,125,-3,-3.105013400856606,-1.9960908094512555,-2.9857679005763424
1770454262212,124,-4,-3.2619767242550184,-2.8597565719203626,-3.1401080531810517
1770454262216,124,-4,-3.2414923399156823,-2.8529774672571406,-3.116620839554254
1770454262220,125,-3,-3.055303409593954,-1.9367571914085873,-2.927311052756067
1770454262224,125,-3,-2.8075690182832274,-1.8627157993807857,-2.677523154673276
1770454262228,125,-3,-2.6209548101227407,-1.9613412437257205,-2.489933116553909
1770454262232,125,-3,-2.559365499343304,-1.845199555896396,-2.4266363594551796
1770454262236,125,-3,-2.6104006378657227,-1.8665524488938872,-2.473681832945716
1770454262240,125,-3,-2.7131823018454964,-1.877140482493108,-2.5709794846741447
1770454262244,125,-3,-2.788469572886984,-1.9355108018533864,-2.6418791351267146
1770454262248,125,-3,-2.7612310106001514,-1.856909548739118,-2.6131728846266356
1770454262252,125,-3,-2.5919266382311363,-1.940032669000253,-2.4444386928346713
1770454262256,125,-3,-2.310925238652577,-1.7349239379033132,-2.163040460015404
1770454262260,126,-2,-2.015876989709629,-0.9930684965227824,-1.864006432004688
1770454262264,126,-2,-1.808291301136866,-0.8104860896390049,-1.6488697119961837
1770454262268,126,-2,-1.7140658406464886,-0.9592534300706888,-1.5467064348034998
1770454262272,126,-2,-1.6697483213285196,-0.8359371823523882,-1.4988335111654494
1770454262276,126,-2,-1.5988169115664168,-0.7857178770681676,-1.4317519861744494
1770454262280,126,-2,-1.4968845310882402,-0.9607181539134722,-1.338983293466316
1770454262284,126,-2,-1.394254988185398,-0.7853450590569369,-1.2434703374336908
1770454262288,127,-1,-1.1331228919491212,-0.0065844060952718,-0.9792769856684186
1770454262292,128,0,-0.0731474070818443,1.2578301039174622,0.0966292009661081
1770454262296,131,3,2.9894920734386483,4.142361934148312,3.1823046649112405
1770454262300,137,9,9.422585610207472,10.117619178816897,9.634006820319392
1770454262304,147,19,19.907677368746477,20.200256594048938,20.12291468208732
1770454262308,161,33,33.5792120431112,33.97343938227943,33.78115780966152
1770454262312,175,47,47.78150824310999,48.38143318301023,47.96083223034616
1770454262316,187,59,58.81577120067236,59.95600275545977,58.976369265151575
1770454262320,192,64,63.44834298763625,65.35991785562837,63.6047699150238
1770454262324,189,61,60.39128742501025,61.87781760805982,60.560617816454226
1770454262328,178,50,50.874307872711626,51.29630706873272,51.06771499827862
1770454262332,165,37,37.949087008495866,38.0930790275176,38.166969681929736
1770454262336,152,24,24.97664631527751,25.256160480776284,25.2088077570803
1770454262340,142,14,14.239267546399496,15.184006518069207,14.470230020071542
1770454262344,135,7,6.422616966238406,8.032805365076504,6.640076385766752
1770454262348,129,1,1.0352058505247257,2.230750471947045,1.236892233267613
1770454262352,125,-3,-2.7614900333694834,-1.8981977681908488,-2.567392250807825
1770454262356,122,-6,-5.536955932794328,-4.687795651745262,-5.338247969523686
1770454262360,120,-8,-7.469376668879381,-6.893988624483846,-7.25810807117238
1770454262364,119,-9,-8.576093309714087,-7.840585743392653,-8.352619000068625
1770454262368,119,-9,-8.9710644010474,-7.881953564510748,-8.741916194771703
1770454262372,119,-9,-8.927464823812445,-7.791411325763021,-8.699703866251374
1770454262376,119,-9,-8.755451396483256,-7.753495460252482,-8.53188170030846
1770454262380,119,-9,-8.654480004246357,-7.8403368074067235,-8.432720403072222
1770454262384,119,-9,-8.669804983674146,-7.848042284251771,-8.445198019058315
1770454262388,119,-9,-8.751467892020864,-7.869316590912973,-8.521117069271083
1770454262392,119,-9,-8.82916144989115,-7.796153827636258,-8.593855414961887
1770454262396,119,-9,-8.842007109756619,-7.704514600051961,-8.60478515393278
1770454262400,119,-9,-8.737353913113784,-7.909584265819194,-8.500414195949308
1770454262404,119,-9,-8.480567074596188,-7.703230578212992,-8.243557818864367
1770454262408,120,-8,-8.078052569527951,-7.058613457475032,-7.8391245104364895
1770454262412,120,-8,-7.578102811116943,-6.530358463289414,-7.33614279283555
1770454262416,121,-7,-7.037124798214328,-6.005875442132464,-6.792664420891698
1770454262420,121,-7,-6.487853780061092,-5.538555195098606,-6.2420702648436945
1770454262424,122,-6,-5.947792682819895,-5.094231111300189,-5.701195317426144
1770454262428,122,-6,-5.453427287440606,-4.629510720963096,-5.2057640436900074
1770454262432,123,-5,-5.066203950697219,-3.9538834695361142,-4.817238774476219
1770454262436,123,-5,-4.825043573017726,-3.5611165167858543,-4.574735235604477
1770454262440,123,-5,-4.688117738871265,-3.946347800303283,-4.435971402602123
1770454262444,123,-5,-4.528468690504791,-3.699168096873525,-4.2734955646831985
1770454262448,124,-4,-4.194564100902394,-2.9716413281095373,-3.936452218444391
1770454262452,124,-4,-3.589116880981244,-2.6439828723155676,-3.3290686752393146
1770454262456,125,-3,-2.7207673548689435,-1.7858447563884086,-2.4606500673204215
1770454262460,126,-2,-1.712902224518287,-0.7536099406362667,-1.4536453921161785
1770454262464,127,-1,-0.7647718765996749,0.1696907482074992,-0.5057768030195143
1770454262468,128,0,-0.0684678333895345,1.1249256396888063,0.1916835006009887
1770454262472,128,0,0.2835197797563829,1.3165294812161157,0.5460705502558768
1770454262476,128,0,0.3408690178985847,1.2436779188372935,0.6063089677460933
1770454262480,128,0,0.253885700572499,1.2696074728316111,0.5217452545176091
1770454262484,128,0,0.1758295731264767,1.134097036027003,0.4448428896708835
1770454262488,128,0,0.1779342424576248,1.1879765774426148,0.4467724875871158
1770454262492,128,0,0.2310084092214031,1.276215816047922,0.4992812742774615
1770454262496,128,0,0.2569565222602675,1.2989671905950704,0.5255669770782797
1770454262500,128,0,0.2085180174766615,1.2546943023592645,0.4788146389044936
1770454262504,128,0,0.121654812159533,1.1339799014811638,0.394070217721603
1770454262508,128,0,0.1045493233507649,1.2230115338736167,0.3781968335151275
1770454262512,128,0,0.2672247550658764,1.247471229878994,0.5409946367916594
1770454262516,128,0,0.6392084932142115,1.363999835803006,0.9130086984370432
1770454262520,129,1,1.1445198203220637,2.2122696019499974,1.4190728489994635
1770454262524,130,2,1.6683621673188895,3.175415270038005,1.944080253936237
1770454262528,130,2,2.1612239105754933,3.214831763194874,2.437903168834447
1770454262532,130,2,2.672523412169731,3.249031817041704,2.9499357296087525
1770454262536,131,3,3.2719903336088154,4.415640536659028,3.5500314213710276
1770454262540,132,4,3.939348588082223,5.153827927705857,4.217626303784581
1770454262544,132,4,4.535712250242103,5.264345345041923,4.81359168412582
1770454262548,133,5,4.886618938721923,6.144076741568917,5.163843611030719
1770454262552,133,5,4.907383850864237,6.31991975268448,5.184588736015333
1770454262556,132,4,4.6671734896866734,5.393820230049497,4.945786855304916
1770454262560,132,4,4.336358437172079,5.150681055619738,4.617567765366536
1770454262564,132,4,4.06014010326065,5.338908656761947,4.3434558886425
1770454262568,132,4,3.8596484257733654,5.027395896438509,4.142804705161371
1770454262572,131,3,3.6204584937396422,4.522545204044908,3.9012935046885366
1770454262576,131,3,3.1524868664503236,4.157322910684333,3.4308158399798914
1770454262580,130,2,2.2803867518603447,3.4350251930998814,2.5578150586871855
1770454262584,129,1,0.9332259552511424,2.053948620959628,1.2115120914448334
1770454262588,127,-1,-0.8023629270774233,0.3235314808006291,-0.5224091407420245
1770454262592,125,-3,-2.7020024703297487,-1.7219119022386673,-2.420467804021937
1770454262596,123,-5,-4.493423938912748,-3.6209712303312847,-4.210961791567273
1770454262600,122,-6,-5.960334109726617,-4.724720551739513,-5.678035940556496
1770454262604,121,-7,-6.997701323684668,-5.809239433414699,-6.716663870542099
1770454262608,120,-8,-7.603937250207963,-6.75657857910039,-7.32443937355468
1770454262612,120,-8,-7.840948160227303,-6.640316788300758,-7.562191543742031
1770454262616,120,-8,-7.794813561952013,-6.674023976016376,-7.515792204303127
1770454262620,120,-8,-7.549920235888971,-6.6717453709792345,-7.270549504273865
1770454262624,121,-7,-7.179370061990541,-5.830297752413687,-6.900555150556789
1770454262628,121,-7,-6.75161399674885,-5.728051271512904,-6.474106342197892
1770454262632,121,-7,-6.343352014637086,-5.633618063995394,-6.066772809795507
1770454262636,122,-6,-6.034887730805556,-4.682321967569348,-5.758215490491774
1770454262640,122,-6,-5.872387174483917,-4.630012512378551,-5.59527624703343
1770454262644,122,-6,-5.824248947364741,-4.882779847613651,-5.547427771719321
1770454262648,122,-6,-5.78764321966844,-4.614217066047179,-5.511980021854193
1770454262652,122,-6,-5.661359329596444,-4.765698688165566,-5.3869092384166235
1770454262656,122,-6,-5.426327606661789,-4.511195870102851,-5.152535452971378
1770454262660,123,-5,-5.15446206863896,-3.78706119874819,-4.881137894422508
1770454262664,123,-5,-4.932299637554765,-3.7241300248639817,-4.659960908811137
1770454262668,123,-5,-4.774938565008659,-3.7131517126811113,-4.503990426155933
1770454262672,123,-5,-4.6193653861404655,-3.697334581663621,-4.34935199152631
1770454262676,123,-5,-4.401023206227769,-3.5230042483021564,-4.131218122442523
1770454262680,124,-4,-4.127831250674568,-2.798332370221526,-3.8584354452451537
1770454262684,124,-4,-3.875821155151188,-2.6513007777323403,-3.6079640769359274
1770454262688,124,-4,-3.721410820432325,-2.7890466403841225,-3.4557990842910726
1770454262692,124,-4,-3.684188017046566,-2.591812937492687,-3.420212079152282
1770454262696,124,-4,-3.724499173835128,-2.6275570372360173,-3.460947590520563
1770454262700,124,-4,-3.779857185589952,-2.684708907233893,-3.5162510841142844
1770454262704,124,-4,-3.8033445048424728,-2.712350074779344,-3.5403790289192267
1770454262708,124,-4,-3.783355770092737,-2.7322624424272313,-3.52223269962501
1770454262712,124,-4,-3.7416476968639096,-2.607166257154004,-3.4831135728813445
1770454262716,124,-4,-3.714844959893105,-2.628756926061492,-3.4586676549380595
1770454262720,124,-4,-3.729389146252432,-2.6559214046721498,-3.4745648258351416
1770454262724,124,-4,-3.7814031042403378,-2.7054138573728297,-3.5270007325412496
1770454262728,124,-4,-3.829989303047436,-2.7341902914146297,-3.576012069709994
1770454262732,124,-4,-3.810051074321645,-2.565575094503203,-3.557430557337381
1770454262736,124,-4,-3.667325161051778,-2.6939469159619804,-3.416958435126228
1770454262740,124,-4,-3.4021326950738,-2.545514105146455,-3.154083385236713
1770454262744,125,-3,-3.086000119468925,-1.8042619502296124,-2.839792207009
1770454262748,125,-3,-2.8237618758014147,-1.601678589906169,-2.5791815449215307
1770454262752,125,-3,-2.684431897518544,-1.6866027245926538,-2.441722102852548
1770454262756,125,-3,-2.6614526563090606,-1.574384910128229,-2.42085656336995
1770454262760,125,-3,-2.695355469766516,-1.6373904780096935,-2.4567266372267205
1770454262764,125,-3,-2.730736787640206,-1.701055615327577,-2.4935916843121313
1770454262768,125,-3,-2.7523874328936255,-1.6560228886482815,-2.516353921432896
1770454262772,125,-3,-2.7718326444924557,-1.636275801633729,-2.537229031189595
1770454262776,125,-3,-2.784590833516137,-1.60839307010735,-2.5525002816801177
1770454262780,125,-3,-2.748385918731703,-1.5890707108981943,-2.519741595067477
1770454262784,125,-3,-2.614237058504314,-1.7340873543840147,-2.388676658884597
1770454262788,125,-3,-2.382725446674028,-1.569988130151649,-2.1587929012258673
1770454262792,126,-2,-2.1157318342214104,-0.7437177818742328,-1.892542864619654
1770454262796,126,-2,-1.8737428167693368,-0.4492925427660799,-1.652052565558117
1770454262800,126,-2,-1.6430883788953086,-0.7823227302197426,-1.4243120939124905
1770454262804,126,-2,-1.3458544917979287,-0.466390426048759,-1.1304432069168393
1770454262808,127,-1,-0.9328683329387136,0.1433492247654016,-0.7201900251547813
1770454262812,127,-1,-0.4566026486144321,0.5873004025814167,-0.2461506766250236
1770454262816,128,0,-0.0379272414613072,1.221122627681186,0.1700447058713644
1770454262820,128,0,0.243120510374909,1.5587528408616265,0.4483275469245203
1770454262824,128,0,0.4216903198654855,1.2355960786572888,0.6246180087808927
1770454262828,128,0,0.6157542674857694,1.4230035265916574,0.8170996256575052
1770454262832,129,1,0.9231779763954124,2.3685608575587658,1.1226362081395227
1770454262836,129,1,1.3405757560682956,2.412150067955914,1.5369098015148392
1770454262840,129,1,1.75731987859968,2.424648442360319,1.9497150562992696
1770454262844,130,2,2.01582484662155,3.3736545964246063,2.20455359583929
1770454262848,130,2,1.9998495860014904,3.2923094817939287,2.185597159038847
1770454262852,129,1,1.6986695765409232,2.538118511656132,1.881850015639562
1770454262856,129,1,1.2007913351228954,2.221478852923211,1.3815583504237063
1770454262860,128,0,0.6243104357352869,1.683812642926465,0.8026678970906496
1770454262864,128,0,0.0488591582448414,1.0822665389898358,0.2245731434549733
1770454262868,127,-1,-0.4948984981082611,0.650474234148649,-0.3222411392547414
1770454262872,127,-1,-0.986313843549064,0.1646093124093243,-0.8170029887778839
1770454262876,126,-2,-1.3808737706969196,-0.3811399133075179,-1.214877069104891
1770454262880,126,-2,-1.6228694038771836,-0.6725430916682091,-1.4600004762647305
1770454262884,126,-2,-1.6938561542613495,-0.5942746317223092,-1.5341059877499486
1770454262888,126,-2,-1.6485448035668055,-0.5795165195757727,-1.4921614030120014
1770454262892,126,-2,-1.6004309555232297,-0.6704725204326345,-1.447702650922059
1770454262896,126,-2,-1.66230678524871,-0.4517865325938528,-1.5133186851476477
1770454262900,126,-2,-1.883901028605714,-0.6495365836523053,-1.7383937225508022
1770454262904,125,-3,-2.233355779178641,-1.5591767480721894,-2.090840455918422
1770454262908,125,-3,-2.632581783970372,-1.6146153415834794,-2.492869830301528
1770454262912,125,-3,-3.00861434745747,-1.615098771638276,-2.8721767397913296
1770454262916,124,-4,-3.3188726701076976,-2.4788606939567472,-3.1862728233751993
1770454262920,124,-4,-3.547026066235078,-2.6227618980001575,-3.418140526730202
1770454262924,124,-4,-3.6881056061304194,-2.5404208764251557,-3.562481982199835
1770454262928,124,-4,-3.732805778588795,-2.6555652668379213,-3.610654980911219
1770454262932,124,-4,-3.661809267664962,-2.5086843449198333,-3.543861035938639
1770454262936,124,-4,-3.4675287594483515,-2.613909358857398,-3.353782168914151
1770454262940,124,-4,-3.19303821511163,-2.425062376043152,-3.0825210416269817
1770454262944,125,-3,-2.9372464973864267,-1.7653418161844696,-2.829599640448153
1770454262948,125,-3,-2.7942128739546144,-1.3761295922205792,-2.6908306635778083
1770454262952,125,-3,-2.77625780653082,-1.7970053772865868,-2.678800685178601
1770454262956,124,-4,-2.808888399204301,-2.2868933786307957,-2.7167237522522147
1770454262960,125,-3,-2.807852730400059,-1.7499876812364246,-2.717857836077726
1770454262964,125,-3,-2.7487625758394523,-1.4304052085658938,-2.6580655066867385
1770454262968,125,-3,-2.657762036973591,-1.6642069733054468,-2.5667102957394987
1770454262972,125,-3,-2.5590901899320087,-1.5232449189595318,-2.471986706951961
1770454262976,125,-3,-2.457930315532965,-1.4898157798900349,-2.3810442166011927
1770454262980,125,-3,-2.36146291389809,-1.6159295066045467,-2.2990987856330505
1770454262984,125,-3,-2.2500685579026687,-1.4614011114538965,-2.200622821686193
1770454262988,126,-2,-1.9225865274119125,-0.6955839971813327,-1.8774958618127648
1770454262992,127,-1,-0.7750009525777455,0.6216103073218024,-0.7225601925443527
1770454262996,130,2,2.270288397400975,3.3086151050972576,2.3374843556851976
1770454263000,136,8,8.4528040951426,9.64789126300244,8.531589044904303
1770454263004,146,18,18.461464181286388,19.27221295689359,18.538354882138265
1770454263008,158,30,31.64139384259248,31.61258998090197,31.700245554920688
1770454263012,173,45,45.66372047102065,46.35758813668171,45.69542889137245
1770454263016,185,57,57.078688041270226,58.56434990294386,57.08611290272959
1770454263020,191,63,62.664470167858,64.3701962077522,62.66018430170848
1770454263024,189,61,60.888361697870224,62.54839204453365,60.88776583694531
1770454263028,180,52,52.600302227832074,53.291477429792714,52.61419056836796
1770454263032,167,39,40.51788415708984,40.740070532648275,40.54766615873673
1770454263036,155,27,27.84641984957836,28.175412450937166,27.883857443194273
1770454263040,144,16,16.910319349415303,17.837128232077625,16.942033259470236
1770454263044,137,9,8.56001681606299,10.131672519918784,8.574710750244407
1770454263048,130,2,2.497203098257631,3.722072643998136,2.491554489768446
1770454263052,126,-2,-1.9512396614952792,-0.6369212475506014,-1.9716103075974067
1770454263056,122,-6,-5.241440865171123,-4.511464193297588,-5.2663088177826936
1770454263060,119,-9,-7.514954284608875,-7.396114955917208,-7.536154986614706
1770454263064,119,-9,-8.844731050870418,-7.682010792469619,-8.860917713548622
1770454263068,118,-10,-9.45432311468214,-8.351361707400393,-9.47080340404231
1770454263072,118,-10,-9.689354066224931,-8.636432340056212,-9.713235528775796
1770454263076,118,-10,-9.825319857666598,-8.428729636159096,-9.85975147802007
1770454263080,117,-11,-9.941766331694769,-9.547081667863406,-9.983974308734124
1770454263084,117,-11,-9.977163132164929,-9.463845582456806,-10.021883456663192
1770454263088,118,-10,-9.871547188545854,-8.544009780546295,-9.916427298841128
1770454263092,118,-10,-9.63975320270015,-8.443905584304048,-9.687197037049636
1770454263096,118,-10,-9.33887583943108,-8.57483277333424,-9.392809499608012
1770454263100,118,-10,-9.01598840775089,-8.438387852085718,-9.0777725567054
1770454263104,119,-9,-8.699019931353247,-7.530890671627826,-8.766846170015809
1770454263108,119,-9,-8.40527112560506,-7.446810178285381,-8.476568459161768
1770454263112,119,-9,-8.128411124204877,-7.531417781017189,-8.202089102490218
1770454263116,120,-8,-7.81651204685321,-6.446887330683933,-7.893331268183203
1770454263120,120,-8,-7.381509451971246,-6.600858848086964,-7.463001953937266
1770454263124,120,-8,-6.754755056053878,-6.3296503309066185,-6.841955670347358
1770454263128,122,-6,-5.952515219718701,-4.621278613466412,-6.045470215210897
1770454263132,122,-6,-5.090041235834509,-4.326584481678275,-5.188099744723956
1770454263136,123,-5,-4.319570911322013,-3.647599988936344,-4.421972875905432
1770454263140,124,-4,-3.734394656167518,-2.3854440790803295,-3.840799071592475
1770454263144,124,-4,-3.3128458207382643,-2.5608373754469267,-3.423395841229639
1770454263148,124,-4,-2.949191444318766,-2.3290815194090166,-3.0640521048408957
1770454263152,125,-3,-2.549448855977098,-1.6076269460638335,-2.668548152666189
1770454263156,125,-3,-2.108773997107831,-1.3482623668186118,-2.2321873264653864
1770454263160,126,-2,-1.6999465064227297,-0.683079556553652,-1.8281995653219132
1770454263164,126,-2,-1.3896148778365571,-0.2527177879079512,-1.523154561301126
1770454263168,126,-2,-1.1697464527918922,-0.5978960962530294,-1.3081922841387357
1770454263172,126,-2,-0.9680151595649052,-0.3327377780190893,-1.1104475130248088
1770454263176,127,-1,-0.7125229407091288,0.4259612588937026,-0.8586237027612804
1770454263180,127,-1,-0.3783909340597621,0.481608857284318,-0.5287734190998852
1770454263184,127,-1,0.0174835925099329,0.6890209012734305,-0.1377188162358131
1770454263188,128,0,0.4493938207637706,1.3895259809975675,0.2897080182038379
1770454263192,128,0,0.9090961937590164,1.806843494547194,0.7455953880721851
1770454263196,129,1,1.409276793430796,2.1967523199690966,1.2419616229740522
1770454263200,129,1,1.9617148620861768,2.797862386938159,1.789819163709341
1770454263204,130,2,2.542975539559289,3.3340261825609794,2.36582209069382
1770454263208,130,2,3.0783280605846595,3.802373762424311,2.8961148386407745
1770454263212,131,3,3.4708139260695585,4.415668500734264,3.2844951602244117
1770454263216,131,3,3.666995908553368,4.576084352004051,3.477411081117121
1770454263220,131,3,3.710379477201924,4.454810956023622,3.5175349769900093
1770454263224,131,3,3.72938598620115,4.659959492189287,3.5326351288703384
1770454263228,131,3,3.853215358565404,4.536622157879192,3.652120206708093
1770454263232,131,3,4.112787002890819,4.679633352540186,3.9075533823732256
1770454263236,132,4,4.409753633255538,5.345481182338469,4.200594464055849
1770454263240,132,4,4.5886082081782185,5.672781484953228,4.37504883536783
1770454263244,132,4,4.551224012555595,5.475130330103229,4.332698787338303
1770454263248,131,3,4.30546706740529,4.731629624326018,4.082499539408584
1770454263252,131,3,3.909176683582042,4.518822292142172,3.683166349228202
1770454263256,131,3,3.386438272412719,4.499512666235271,3.1580625070696797
1770454263260,130,2,2.712093527044529,3.55019775829132,2.4805346973499884
1770454263264,129,1,1.865804310127386,2.59439650729564,1.6298126429271529
1770454263268,128,0,0.8790937106842804,1.6674552832094638,0.6383417282167368
1770454263272,127,-1,-0.1756097124292277,0.5596838455952088,-0.4204534460816668
1770454263276,126,-2,-1.231817480965948,-0.4904317669588671,-1.4799667338987623
1770454263280,125,-3,-2.2583402485644237,-1.484995750082362,-2.5095235401986016
1770454263284,124,-4,-3.2452286100417576,-2.308728746087856,-3.499586203238971
1770454263288,123,-5,-4.167048260420963,-3.440718353608347,-4.424721528115937
1770454263292,122,-6,-4.965361964952625,-4.291035692902182,-5.226375903174167
1770454263296,122,-6,-5.57125321571614,-4.651617612341079,-5.835703107965693
1770454263300,121,-7,-5.950211211154889,-5.29506669024172,-6.21828007331689
1770454263304,121,-7,-6.1319262283818,-5.477943812973161,-6.403636472444112
1770454263308,121,-7,-6.19729938914189,-5.255535949288618,-6.472412533562204
1770454263312,121,-7,-6.226037803079557,-5.443807937698252,-6.5042405289370855
1770454263316,121,-7,-6.243099550501863,-5.5268399996317035,-6.524161927093724
1770454263320,121,-7,-6.209900433610488,-5.356720239968335,-6.493636201515666
1770454263324,121,-7,-6.070918565601094,-5.448689248152682,-6.357163921766129
1770454263328,121,-7,-5.816825172977994,-5.209301232537651,-6.105663430264346
1770454263332,122,-6,-5.508366312130157,-4.51651837021683,-5.8003365167039425
1770454263336,122,-6,-5.240516143999627,-4.419023044744065,-5.536243970673706
1770454263340,122,-6,-5.082514970739107,-4.463781950159895,-5.381923961315349
1770454263344,122,-6,-5.046154948530698,-4.31558399682058,-5.348281661374984
1770454263348,122,-6,-5.0961538629279906,-4.324560155149836,-5.399987891269647
1770454263352,122,-6,-5.176270431020344,-4.385208099579648,-5.481678385720442
1770454263356,122,-6,-5.2273483180486435,-4.536647649299144,-5.535038167356523
1770454263360,122,-6,-5.198233702216983,-4.338790912659364,-5.508887300948833
1770454263364,122,-6,-5.058976628766265,-4.400783072232326,-5.372551411504768
1770454263368,122,-6,-4.813338531721405,-4.254120728069314,-5.129252784803203
1770454263372,123,-5,-4.497076012540559,-3.390735582400006,-4.814935246532327
1770454263376,123,-5,-4.159043895033577,-3.575364077929262,-4.478971910720915
1770454263380,123,-5,-3.8427413256954046,-3.2329269400105782,-4.165027853490746
1770454263384,124,-4,-3.5851020051177915,-2.5274808488318055,-3.9097779941990862
1770454263388,123,-5,-3.4251627166020273,-3.0865839961237493,-3.7520366229163975
1770454263392,124,-4,-3.400468718575494,-2.5528893760402176,-3.729428856464349
1770454263396,124,-4,-3.523009539972317,-2.3944700328962494,-3.8539968543651857
1770454263400,123,-5,-3.754974146337431,-3.403501622350837,-4.087599542261929
1770454263404,123,-5,-4.012568271913553,-3.3381518396260805,-4.346221177033357
1770454263408,123,-5,-4.197446796271512,-3.2503452193097813,-4.532076898609925
1770454263412,123,-5,-4.230865043329846,-3.390775380273913,-4.567145901250867
1770454263416,123,-5,-4.080043065389784,-3.5127813198751237,-4.418393684840609
1770454263420,123,-5,-3.7786971627643617,-3.2980632306041024,-4.118729890109508
1770454263424,124,-4,-3.423714097077595,-2.405306620467772,-3.765083018467398
1770454263428,124,-4,-3.130153031107408,-2.183426819164983,-3.473275608474625
1770454263432,124,-4,-2.9746372690720015,-2.4259455637231087,-3.3199407228554736
1770454263436,124,-4,-2.978995018881699,-2.476776114761016,-3.3259593026973997
1770454263440,124,-4,-3.1337624596641023,-2.3067983220202355,-3.4813656808932025
1770454263444,124,-4,-3.4119676579592024,-2.403610913234453,-3.759724741470043
1770454263448,123,-5,-3.754162523855269,-3.1391473366125497,-4.102204991679867
1770454263452,123,-5,-4.061942642111745,-3.4690545614783845,-4.410506134358737
1770454263456,123,-5,-4.230417736700238,-3.412285263221399,-4.579855380326624
1770454263460,123,-5,-4.200038078893198,-3.3586499516568646,-4.550964280154475
1770454263464,123,-5,-3.989563298852707,-3.3486768501648276,-4.342288251296715
1770454263468,123,-5,-3.690126640517096,-3.143481874523659,-4.044102005668151
1770454263472,124,-4,-3.4174129491871725,-2.479025595654434,-3.771783377946756
1770454263476,124,-4,-3.2382485828376546,-2.3627440511255,-3.5928037445062015
1770454263480,124,-4,-3.1201712265288224,-2.423974826591222,-3.475193879642827
1770454263484,124,-4,-2.955435581906375,-2.249742910043647,-3.310708070884714
1770454263488,124,-4,-2.649480422900169,-2.223087935700577,-3.004228502150162
1770454263492,125,-3,-2.1929728170384992,-1.392245040799161,-2.547157095916945
1770454263496,126,-2,-1.6485675698013171,-0.4133708030981722,-2.0035013112002575
1770454263500,126,-2,-1.079834712178233,-0.3893161464138261,-1.4366493378729637
1770454263504,126,-2,-0.5139235324623856,-0.2422510116190585,-0.8717937894304297
1770454263508,127,-1,0.027901213109152,0.7678310672996262,-0.3290467316885911
1770454263512,128,0,0.4962477319126477,1.6374358050929438,0.1408517408658292
1770454263516,128,0,0.8350725430544554,1.5839068866416337,0.4798516326745131
1770454263520,128,0,1.025134437088571,1.6078742430972313,0.6687290895630003
1770454263524,128,0,1.0844776772929168,1.8048939109777993,0.7273558281802762
1770454263528,128,0,1.0294680999883503,1.6894069919177586,0.6732810948200993
1770454263532,128,0,0.8552527718493059,1.7808267643208862,0.5008586071479925
1770454263536,128,0,0.5612204830584608,1.4220925165653502,0.2078186455162041
1770454263540,127,-1,0.1815797183169358,0.8167889827481949,-0.1722577801233693
1770454263544,127,-1,-0.2278455009049946,0.5868259305760968,-0.5825702894781101
1770454263548,126,-2,-0.6393663443687034,-0.07979146046731,-0.9940230592300072
1770454263552,126,-2,-1.0799303193686682,-0.4200287522969753,-1.4332726276106538
1770454263556,126,-2,-1.5906469727710433,-0.3708425272571107,-1.9424013172666237
1770454263560,125,-3,-2.1523380781524724,-1.3455752617634742,-2.5030754193749134
1770454263564,124,-4,-2.662867874339326,-2.2778512138060116,-3.01290251291525
1770454263568,124,-4,-3.005503091353899,-2.178575278863025,-3.3545675309242795
1770454263572,124,-4,-3.145692178620224,-2.3145707912901647,-3.4937210140734396
1770454263576,124,-4,-3.1604570866576367,-2.4632956581465044,-3.508026895515618
1770454263580,124,-4,-3.175908722539901,-2.1782875774765107,-3.5235227144525876
1770454263584,124,-4,-3.2740820463278975,-2.529849138085802,-3.621253213237269
1770454263588,123,-5,-3.445544140337722,-2.8171393957583826,-3.7909659006101935
1770454263592,124,-4,-3.612811091542612,-2.76922610026268,-3.9555871267911433
1770454263596,123,-5,-3.691651421043915,-2.880967853218339,-4.032207628250006
1770454263600,124,-4,-3.6428577590337783,-2.8068820202175258,-3.9824535341935183
1770454263604,123,-5,-3.490379835514287,-2.8606964325449447,-3.829832343466381
1770454263608,124,-4,-3.304137472897968,-2.483248838101019,-3.643186796421789
1770454263612,124,-4,-3.157384684016115,-2.125104766902891,-3.495064873027251
1770454263616,124,-4,-3.0839359166581435,-2.4245940170723497,-3.4192703805588054
1770454263620,124,-4,-3.067424705903478,-2.334691416975607,-3.4000614043358355
1770454263624,124,-4,-3.069255531545301,-2.2206394954074766,-3.399943117048098
1770454263628,124,-4,-3.066150805557196,-2.2364609327820557,-3.396440452220628
1770454263632,124,-4,-3.0650693932126005,-2.2460160231178796,-3.3958585051459305
1770454263636,124,-4,-3.088763001185656,-2.3624814187332612,-3.418805175874448
1770454263640,124,-4,-3.14464752811556,-2.305816885528365,-3.4708409211765536
1770454263644,124,-4,-3.19661319775291,-2.2931922588896674,-3.516346026956176
1770454263648,124,-4,-3.1670692908989544,-2.141090259851044,-3.480804289588992
1770454263652,124,-4,-2.99059978374423,-2.3213108660158577,-3.3026191888105267
1770454263656,124,-4,-2.6920591294427787,-2.2746913389995873,-3.0086882753017834
1770454263660,125,-3,-2.3965345822040085,-1.3404557841169624,-2.722332278052777
1770454263664,125,-3,-2.1847584553075547,-1.2940113120601795,-2.518104075745734
1770454263668,125,-3,-1.825661596807328,-1.1013340334804989,-2.156879666100851
1770454263672,127,-1,-0.5614003757968802,0.6280385640942799,-0.8768327171258918
1770454263676,130,2,2.834009551382028,3.8307353100850214,2.542760540784378
1770454263680,137,9,9.597800719766292,10.55973048195278,9.326042698745251
1770454263684,147,19,20.212139723603546,20.84817627075083,19.942899469717453
1770454263688,160,32,33.6763141780565,33.74279849300187,33.390487576601835
1770454263692,174,46,47.3173664298682,47.828520915811794,47.00599501232078
1770454263696,185,57,57.49274354022848,58.62257141316021,57.162398086611056
1770454263700,189,61,61.04822844670797,62.7717117120738,60.71629447827463
1770454263704,185,57,56.81895727213637,58.60255347110881,56.50328010698184
1770454263708,173,45,46.25850168760445,46.96069265749581,45.9686131831681
1770454263712,159,31,32.72725316332257,32.62078138883291,32.46125169419823
1770454263716,146,18,19.834036523713863,19.879758612766597,19.580753163370957
1770454263720,137,9,9.862209321186398,10.59189407629425,9.60663227137974
1770454263724,131,3,3.201116426164016,4.818220435940478,2.931362303079701
1770454263728,127,-1,-1.0687453046723334,0.7882964609973322,-1.355237318763863
1770454263732,123,-5,-4.0831917679385406,-3.253360890202861,-4.377998731241783
1770454263736,120,-8,-6.4352578379915,-6.209321352900236,-6.724354677731055
1770454263740,119,-9,-8.126416073493537,-7.339575151690909,-8.39974169464582
1770454263744,118,-10,-8.984387902816824,-8.19419953129343,-9.242225660142534
1770454263748,118,-10,-9.05310958408767,-8.194266917067528,-9.3043010525453
1770454263752,119,-9,-8.659869237780603,-7.259542087156441,-8.914104403442716
1770454263756,119,-9,-8.213379355086186,-7.201496839728421,-8.474172630209376
1770454263760,119,-9,-7.975253241249355,-7.349675203300068,-8.23855521505284
1770454263764,119,-9,-7.985693861128334,-7.141290179851605,-8.244262181401044
1770454263768,119,-9,-8.138440304998795,-7.24131840593491,-8.387895708416952
1770454263772,119,-9,-8.288325751018885,-7.206250728413205,-8.529973506145952
1770454263776,119,-9,-8.313442384248088,-7.219114447483446,-8.55209666116708
1770454263780,119,-9,-8.144769531375367,-7.377689605078199,-8.384215346275226
1770454263784,119,-9,-7.795749503211614,-7.004173332640277,-8.036084428720155
1770454263788,120,-8,-7.372092819762427,-6.458240113275744,-7.610762232065275
1770454263792,120,-8,-7.016534887421426,-5.878939652722484,-7.251160650892474
1770454263796,121,-7,-6.800912547462286,-5.628072198082626,-7.0308697224954235
1770454263800,120,-8,-6.653788612892524,-5.889643420070646,-6.879636303845574
1770454263804,121,-7,-6.401670242540299,-5.5142446231814795,-6.623957775433798
1770454263808,121,-7,-5.901302863034105,-4.918441747701349,-6.120280452447244
1770454263812,122,-6,-5.154325796543577,-4.384727649200467,-5.3704892468957794
1770454263816,123,-5,-4.31046831245841,-3.160897596329661,-4.524828265106968
1770454263820,124,-4,-3.5628815896398836,-2.262734758008187,-3.7761741739108983
1770454263824,124,-4,-3.0287895241026512,-2.23262817597464,-3.240280767605066
1770454263828,124,-4,-2.7078673839301435,-2.0657167914631884,-2.915515134535561
1770454263832,125,-3,-2.5228161210412754,-1.3511149034127918,-2.725193420361976
1770454263836,125,-3,-2.3758162288863796,-1.066832658898216,-2.5735525956471
1770454263840,125,-3,-2.179225072176578,-1.4314691126318786,-2.3740621428817894
1770454263844,125,-3,-1.8764745407868164,-0.9818450620890502,-2.0693277114041884
1770454263848,126,-2,-1.465361935305692,-0.3359627041835635,-1.6559055797655988
1770454263852,126,-2,-0.9989804955464978,-0.0752297836722534,-1.186735909443432
1770454263856,127,-1,-0.5491536839365677,0.7031367779992949,-0.7341364480483759
1770454263860,127,-1,-0.1614460259255296,0.7775383502589386,-0.343670491652093
1770454263864,127,-1,0.1606803636102158,0.8580339380980588,-0.0183412927518157
1770454263868,128,0,0.4430449810991297,1.8099657352111849,0.2677281209552218
1770454263872,128,0,0.7260686226240198,1.7942938176913716,0.5545160947483134
1770454263876,128,0,1.0566936235808666,1.8626471375645617,0.8886728101934096
1770454263880,129,1,1.473448490641109,2.617952107931795,1.3087176587930325
1770454263884,129,1,1.983439465424413,3.056462851614935,1.821648667560088
1770454263888,130,2,2.54813939023446,3.586116582020922,2.38879914793537
1770454263892,130,2,3.08923063785332,4.065185245536905,2.932074229631123
1770454263896,131,3,3.5138891021306344,4.582738205006773,3.359173072293963
1770454263900,131,3,3.75410971352593,4.9248635923053925,3.602465447413641
1770454263904,131,3,3.8056844334749176,4.775018111869799,3.657708276500674
1770454263908,131,3,3.742820334021944,4.8320194656358195,3.598777670919971
1770454263912,131,3,3.691577826164432,4.8995149672504725,3.551435139607105
1770454263916,131,3,3.768646644754624,4.684711440592768,3.6322559890524806
1770454263920,131,3,4.016934916366937,4.927339262950252,3.883910339973784
1770454263924,132,4,4.379348360326938,5.7092924655970405,4.248778340326182
1770454263928,132,4,4.728184370184144,5.963686937698492,4.599065946077234
1770454263932,132,4,4.922001576784209,5.742915070094595,4.7943688986265744
1770454263936,132,4,4.848879789613246,5.873434498657872,4.724130713520001
1770454263940,132,4,4.449734538679813,5.75448907799899,4.329435459484326
1770454263944,131,3,3.736739502090684,4.87760679938366,3.6212624768132047
1770454263948,130,2,2.7975493388340373,3.831833872280141,2.685978610526917
1770454263952,129,1,1.7602045175809735,2.857755928459634,1.6512595058646806
1770454263956,128,0,0.7267361190826469,1.803072274786346,0.6196741532745277
1770454263960,127,-1,-0.2761976677181934,0.8136372990024998,-0.3812352867850248
1770454263964,126,-2,-1.286505053118309,-0.1398537845497198,-1.3887708945378638
1770454263968,125,-3,-2.33938088578724,-1.1635344075584366,-2.4382030300159085
1770454263972,124,-4,-3.3956875194536593,-2.115261300579544,-3.490937583155305
1770454263976,123,-5,-4.329950142698077,-3.2280673036186203,-4.421830088767257
1770454263980,122,-6,-4.999239868950425,-4.128224423720257,-5.0878259933458585
1770454263984,122,-6,-5.341633122479457,-4.188415957767211,-5.426946534544722
1770454263988,122,-6,-5.418608505702192,-4.098652173364283,-5.501031442502847
1770454263992,122,-6,-5.3654251350449575,-4.168440241409305,-5.4456097912833155
1770454263996,122,-6,-5.300157499010208,-4.162186965418534,-5.378386918846421
1770454264000,122,-6,-5.271376154068778,-4.182331769498415,-5.347235530913644
1770454264004,122,-6,-5.272974613091014,-4.128585036036714,-5.345712375582575
1770454264008,122,-6,-5.289448233928023,-4.133859501600146,-5.358503734572066
1770454264012,122,-6,-5.320264339622127,-4.135565480492253,-5.385510292892316
1770454264016,122,-6,-5.366092425600051,-4.1563407213169,-5.427904899744575
1770454264020,122,-6,-5.400924322695588,-4.207853388588512,-5.460123016856759
1770454264024,122,-6,-5.368755526299806,-4.061330516850185,-5.426102127371988
1770454264028,122,-6,-5.22175088409432,-4.213876327306181,-5.277181455535378
1770454264032,122,-6,-4.971657863623128,-4.023201280197862,-5.024247509574822
1770454264036,123,-5,-4.69714496181029,-3.2572242271459944,-4.746176800407609
1770454264040,123,-5,-4.481929715193227,-3.1075105532142726,-4.5277607194561265
1770454264044,123,-5,-4.337018566417068,-3.12814109277603,-4.380467198766109
1770454264048,123,-5,-4.1931141735176976,-3.164444971231101,-4.234238045184932
1770454264052,123,-5,-3.97878046467246,-3.0297409318121695,-4.01689056748699
1770454264056,124,-4,-3.701703285831518,-2.2675698574449497,-3.736584195950192
1770454264060,124,-4,-3.4465138830640014,-2.051690188909777,-3.478947113437055
1770454264064,124,-4,-3.297778226292802,-2.1950715822743936,-3.3285260030611385
1770454264068,124,-4,-3.272282315488198,-2.0712457135815963,-3.301001526334904
1770454264072,124,-4,-3.3192710429269816,-2.1241180160487123,-3.344870946045282
1770454264076,124,-4,-3.370865689594362,-2.164519616721416,-3.3927852694705116
1770454264080,124,-4,-3.388586552576398,-2.119955381586515,-3.407414479338088
1770454264084,124,-4,-3.374260432823391,-2.129826053342007,-3.3911065137646426
1770454264088,124,-4,-3.351684582735351,-2.109761441126559,-3.367079845161388
1770454264092,124,-4,-3.3428728785367148,-2.095669891335722,-3.3562960149237364
1770454264096,124,-4,-3.355414641210483,-2.1682923701619505,-3.365870218500369
1770454264100,124,-4,-3.3814591126514646,-2.1099296631905418,-3.388567017417526
1770454264104,124,-4,-3.4016398988119234,-2.103861895206889,-3.4061367225462833
1770454264108,124,-4,-3.392641976071501,-2.1562966046901915,-3.395619861007883
1770454264112,124,-4,-3.341796550409166,-2.0087425974638125,-3.343360780147405
1770454264116,124,-4,-3.2620161104939145,-2.2779542396793744,-3.261020637632265
1770454264120,124,-4,-3.18529864687075,-1.9553689094857625,-3.180757837774303
1770454264124,125,-3,-3.1258971621347063,-1.2516618159137614,-3.1183244491345623
1770454264128,124,-4,-3.0501500888290085,-2.0061479316588735,-3.0409188746124145
1770454264132,124,-4,-2.904784500699923,-2.1364558246309224,-2.8944648978057708
1770454264136,125,-3,-2.688297922655042,-1.163148528907795,-2.6763301545302913
1770454264140,125,-3,-2.479129680312541,-1.031570098011419,-2.4648561974070473
1770454264144,125,-3,-2.373111189296207,-1.168732016711013,-2.3563646506872713
1770454264148,125,-3,-2.3887427340772347,-1.0715323390660556,-2.369566947542376
1770454264152,125,-3,-2.434721785216208,-1.0682271552793423,-2.413157120095603
1770454264156,125,-3,-2.3704185547284125,-1.243632054490443,-2.346601415192054
1770454264160,125,-3,-2.1084662997812345,-0.9019359805538268,-2.0826416427435133
1770454264164,126,-2,-1.6766147075512214,-0.3006981591262937,-1.6490478768358343
1770454264168,126,-2,-1.1889825583675178,0.0897622088265869,-1.1599453378220894
1770454264172,127,-1,-0.7516191224457989,0.770862302710903,-0.7212933804829744
1770454264176,127,-1,-0.3846833106778007,0.8943868023372268,-0.3528545036513761
1770454264180,127,-1,-0.0283148203399346,1.0248369150021062,0.0057403812281518
1770454264184,128,0,0.3797714682723532,1.7353230546485832,0.416733010007704
1770454264188,128,0,0.8335608430673191,2.132216746363663,0.8732328614800795
1770454264192,129,1,1.2590701675119056,2.6714975891913513,1.300298945174846
1770454264196,129,1,1.5727929265610765,3.0389179898847063,1.6144738599187674
1770454264200,129,1,1.7315638122434192,2.883201127655703,1.773727020769294
1770454264204,129,1,1.731141802978358,2.877092252381529,1.77483160614463
1770454264208,129,1,1.5765273426816255,3.0513228531003675,1.6225921982253315
1770454264212,129,1,1.2732020703959352,2.68919084292747,1.3215123921002632
1770454264216,128,0,0.8484281572083083,2.0973307360279994,0.8984149541213742
1770454264220,128,0,0.3657651088948926,1.783441948203517,0.417319847259226
1770454264224,127,-1,-0.0955070697421431,1.032740466973801,-0.0421233929733975
1770454264228,127,-1,-0.4806443343092776,0.8875129215628549,-0.425639469131996
1770454264232,127,-1,-0.7848526496649122,0.8672346982269314,-0.7290457589403542
1770454264236,126,-2,-1.0506304762966194,-0.0728742302123827,-0.994507822011788
1770454264240,126,-2,-1.3458775211689924,-0.035583285078841,-1.2889392234328985
1770454264244,126,-2,-1.728651003238435,-0.1258843408591381,-1.6700438775427222
1770454264248,125,-3,-2.205120984590956,-0.953493960169296,-2.144593353095249
1770454264252,125,-3,-2.7091988390901567,-1.275538275794724,-2.6470884365327385
1770454264256,124,-4,-3.133634457055661,-1.9242372856869232,-3.070195344303981
1770454264260,124,-4,-3.3977893126438725,-2.1778523114796653,-3.332970088494224
1770454264264,124,-4,-3.495920985639314,-1.955605381890756,-3.4297710629155542
1770454264268,124,-4,-3.4865789726992293,-2.1184222914371365,-3.419516408436053
1770454264272,124,-4,-3.441337546774126,-2.1044972858954827,-3.373878369237548
1770454264276,124,-4,-3.4037033894277555,-2.0726169942428756,-3.3360642845250843
1770454264280,124,-4,-3.386106608441029,-2.0524977147084074,-3.318055651955294
1770454264284,124,-4,-3.3901475205227265,-2.0241550567142217,-3.321009707520711
1770454264288,124,-4,-3.4192962474851543,-2.078120466161394,-3.3481482286575828
