timestamp_ms,ecg_u8_raw,ecg_counts_raw_int,ecg_counts_filt_monitor,ecg_counts_filt_diagnostic,ecg_counts_filt_st
1770448143124,122,-6,-6.24111350956797,-6.30379135581763,-6.4307286163759665
1770448143128,121,-7,-6.923972682865033,-7.228219826479669,-7.112443240654478
1770448143132,121,-7,-7.226995568435629,-7.354997754697799,-7.4165048638941
1770448143136,121,-7,-7.259756301876334,-7.373829264661598,-7.451956084216346
1770448143140,121,-7,-7.17183119929112,-7.456662207305441,-7.366552973729169
1770448143144,121,-7,-7.093411424412439,-7.313365717658969,-7.288846656587328
1770448143148,121,-7,-7.096442389420859,-7.267236648483306,-7.290590938370661
1770448143152,121,-7,-7.17691277374401,-7.323315594720159,-7.3691247128206285
1770448143156,121,-7,-7.262244135543029,-7.453364741690202,-7.453604841011875
1770448143160,121,-7,-7.252562110427832,-7.406932976445035,-7.444839193941346
1770448143164,121,-7,-7.087428397754762,-7.400653913957251,-7.281573001970097
1770448143168,121,-7,-6.7977754047704,-7.19392675659773,-6.99338013095924
1770448143172,122,-6,-6.494376077735092,-6.434013246635156,-6.690452445737981
1770448143176,122,-6,-6.287864690870351,-6.356914998449251,-6.48389308621485
1770448143180,122,-6,-6.202290978296111,-6.568268617088002,-6.398457900531501
1770448143184,122,-6,-6.160463052355653,-6.246011942888257,-6.357146089466375
1770448143188,122,-6,-6.056176102865773,-6.394154634947323,-6.2534337045841175
1770448143192,122,-6,-5.847466723004742,-6.2520630631491025,-6.045075970978281
1770448143196,123,-5,-5.585748294892907,-5.552461201978845,-5.78370146368372
1770448143200,123,-5,-5.355838378626046,-5.443417255069626,-5.5545919557377905
1770448143204,123,-5,-5.188496563755981,-5.360329657451519,-5.388476686356003
1770448143208,123,-5,-5.035337715805665,-5.354722128262262,-5.23631582829814
1770448143212,123,-5,-4.829876359402,-5.2748418144408875,-5.0312014387783455
1770448143216,124,-4,-4.566497039924091,-4.595040932458053,-4.767970746017506
1770448143220,124,-4,-4.3143989038799715,-4.403701958916171,-4.516570264776057
1770448143224,124,-4,-4.157680523326418,-4.455190870994188,-4.361166524486802
1770448143228,124,-4,-4.125602649741281,-4.273103881483016,-4.330415014048608
1770448143232,124,-4,-4.175087403746764,-4.3934337982788945,-4.380756943699583
1770448143236,124,-4,-4.23158758268872,-4.5116183714019975,-4.437705844440054
1770448143240,124,-4,-4.2471468280761275,-4.5005568200685895,-4.45367105635501
1770448143244,124,-4,-4.227352264450765,-4.411816069324206,-4.434584772783331
1770448143248,124,-4,-4.2090884318838295,-4.318611997209492,-4.417478982082904
1770448143252,124,-4,-4.215302179807507,-4.401992029053689,-4.42513568797167
1770448143256,124,-4,-4.23304890596204,-4.515783823660264,-4.444226386936067
1770448143260,124,-4,-4.234523573093233,-4.5387012097120865,-4.446729442912802
1770448143264,124,-4,-4.213938212571348,-4.400690152776563,-4.427057472831972
1770448143268,124,-4,-4.1976046012540795,-4.351694342498979,-4.411840642333222
1770448143272,124,-4,-4.21620586708813,-4.41033452417426,-4.431726433478522
1770448143276,124,-4,-4.268399965725973,-4.518526530353618,-4.485058402113676
1770448143280,124,-4,-4.3104869722731,-4.594045746455864,-4.528059346105388
1770448143284,124,-4,-4.280380727049698,-4.351052013671984,-4.498919569691128
1770448143288,124,-4,-4.138370972052386,-4.445507025799653,-4.3581351335189495
1770448143292,124,-4,-3.897674339078826,-4.335404321799154,-4.1189160960744395
1770448143296,125,-3,-3.620507720293899,-3.620338411646821,-3.843563555759805
1770448143300,125,-3,-3.3760660657977164,-3.53810271443848,-3.601305165718961
1770448143304,125,-3,-3.193227088528919,-3.425665250463125,-3.420423478720134
1770448143308,125,-3,-3.0521969233725295,-3.3997187868490557,-3.2802510578391884
1770448143312,125,-3,-2.917613604191096,-3.4225727771575776,-3.145632258007604
1770448143316,126,-2,-2.7700562169596457,-2.5387492448786317,-2.9986624562344883
1770448143320,126,-2,-2.609702171012088,-2.682884436962818,-2.8405248556841314
1770448143324,125,-3,-2.4558559835888985,-3.2744423318867413,-2.689721243525049
1770448143328,126,-2,-2.3599308243810926,-2.6099286074306978,-2.5964053751494647
1770448143332,126,-2,-2.3964370388486187,-2.222951461791691,-2.6350718639819544
1770448143336,126,-2,-2.604407702202257,-2.778422764637647,-2.845182725778627
1770448143340,125,-3,-2.9278063692601486,-3.472254374009287,-3.1700714505684964
1770448143344,125,-3,-3.223208211987501,-3.4955867142684025,-3.465501621712907
1770448143348,125,-3,-3.3290993477847217,-3.4605335808814233,-3.570903757341237
1770448143352,125,-3,-3.1363029347545983,-3.349281609147764,-3.3793537547938293
1770448143356,126,-2,-2.627983579756828,-2.729192632815834,-2.874966740800286
1770448143360,126,-2,-1.8976246206617593,-2.4929542794661756,-2.149656171199819
1770448143364,127,-1,-1.137368126879673,-1.5596769307183762,-1.393265550668174
1770448143368,128,0,-0.5641277880946474,-0.3910169400642209,-0.8219802918967262
1770448143372,128,0,-0.2939574185618849,-0.4789503617764946,-0.5526594711221555
1770448143376,128,0,-0.2553426785818349,-0.5991451778529453,-0.514576213247671
1770448143380,128,0,-0.2320996698808222,-0.6669701652324787,-0.4918948684726263
1770448143384,128,0,-0.0165206229669072,-0.4130948450841586,-0.2776204695597675
1770448143388,129,1,0.4475741966559097,0.4166541051104532,0.1834211007262817
1770448143392,129,1,1.0344588653735995,0.7224097300375568,0.7655152099590748
1770448143396,130,2,1.520847258235433,1.137192747194618,1.2469149799328356
1770448143400,130,2,1.7133749848174922,1.6137242324334198,1.435990616481672
1770448143404,130,2,1.544076507766976,1.2124886764601412,1.265121139163464
1770448143408,129,1,1.091646995702445,0.7896826593793647,0.8119166362274338
1770448143412,129,1,0.5253425801803076,0.3308408605599754,0.244327242691752
1770448143416,128,0,0.0076986408649972,-0.5247198457770524,-0.2757162964716971
1770448143420,128,0,-0.3828413648025921,-0.6891643024907206,-0.6696998144112021
1770448143424,128,0,-0.662771970255913,-0.6145244215095669,-0.9536793614217114
1770448143428,127,-1,-0.8947147526840533,-1.3117938339083346,-1.1896020312864266
1770448143432,127,-1,-1.1305722709136985,-1.6882548831367352,-1.4288798992082468
1770448143436,127,-1,-1.3870260380760098,-1.4382944174544678,-1.6883989553369192
1770448143440,127,-1,-1.651789107409505,-1.874102439638628,-1.9563168543026856
1770448143444,126,-2,-1.9029915106266475,-2.44278109126127,-2.2105414722138232
1770448143448,126,-2,-2.128359537564371,-2.4928243808416832,-2.4383368512823265
1770448143452,126,-2,-2.326525347196048,-2.5870445179635766,-2.6389225049185376
1770448143456,126,-2,-2.484153253796313,-2.4778795214511136,-2.800281244268712
1770448143460,126,-2,-2.5625525105634717,-2.9509709228822887,-2.883823728795836
1770448143464,125,-3,-2.5328638869410076,-3.34094968827046,-2.8590308341104276
1770448143468,126,-2,-2.4323197916238537,-2.652758285889538,-2.761756970985118
1770448143472,126,-2,-2.361451426484895,-2.4651992170339607,-2.693206485148597
1770448143476,126,-2,-2.399894422389746,-2.559887095069357,-2.734749766032101
1770448143480,126,-2,-2.526747785389834,-2.9845606309028745,-2.8661283989348667
1770448143484,125,-3,-2.6411278855340035,-3.255021407640045,-2.9855570735236454
1770448143488,126,-2,-2.6677003978266316,-2.8662419264473873,-3.0165883075707134
1770448143492,125,-3,-2.635919142582492,-3.195237061914463,-2.988527717797532
1770448143496,126,-2,-2.6484882757005206,-2.8851525804609803,-3.0048064170071984
1770448143500,126,-2,-2.768185098852618,-2.6791606429960284,-3.1287906755005515
1770448143504,125,-3,-2.937488820491865,-3.5813927371835224,-3.302633291540509
1770448143508,125,-3,-3.0182677643778315,-3.641758711513235,-3.387548719600679
1770448143512,125,-3,-2.9168026995013125,-3.34409654816988,-3.2901760865262473
1770448143516,126,-2,-2.6679502811031153,-2.8567876885766603,-3.046606060139211
1770448143520,126,-2,-2.3981181918730616,-2.615962496635,-2.7833376700527577
1770448143524,126,-2,-2.215090355360127,-2.7918220366227375,-2.605988973290611
1770448143528,126,-2,-2.1344829655587083,-2.403528523912028,-2.5277589477908213
1770448143532,126,-2,-2.0967391154827766,-2.6416841045764468,-2.489815891926959
1770448143536,126,-2,-2.038509617446106,-2.5664729883706983,-2.433492571793616
1770448143540,127,-1,-1.9473880116683264,-1.89844137043745,-2.3513925427954008
1770448143544,126,-2,-1.8547766046959584,-2.5929643719408433,-2.2748975964982563
1770448143548,126,-2,-1.7548216932851255,-2.6102731041150333,-2.191343425414621
1770448143552,127,-1,-1.4518029282503482,-1.485740475218989,-1.89576857163888
1770448143556,128,0,-0.3820348413440135,-0.7138900643448585,-0.8200813553922834
1770448143560,131,3,2.4433286427414096,2.223312185251967,2.0197970837776085
1770448143564,137,9,8.175744119974128,8.2641070920245,7.763582182695778
1770448143568,145,17,17.485834136731757,16.47626958482121,17.07077862237474
1770448143572,157,29,29.792305621537594,28.42222751094001,29.35717763582922
1770448143576,171,43,42.8874893557681,42.374213139371314,42.42240793449927
1770448143580,182,54,53.420735269530795,53.10286141987604,52.928669296483974
1770448143584,187,59,58.21286152403292,58.33212918808369,57.70740864325696
1770448143588,185,57,55.75463304407037,56.32142066013939,55.25211492946332
1770448143592,175,47,46.98215086818507,46.504662915277635,46.4933698756175
1770448143596,162,34,34.79591402716298,33.292025947488916,34.32179629916183
1770448143600,150,22,22.59690171529744,21.169705366890213,22.128771707075117
1770448143604,141,13,12.767719169252269,12.293440413029588,12.291459502149063
1770448143608,135,7,5.998496536250188,6.334858770492448,5.501734988946273
1770448143612,130,2,1.672748020297596,1.4964699449979069,1.1519164733226006
1770448143616,127,-1,-1.2112220164164933,-1.7481004078098037,-1.749298712670922
1770448143620,125,-3,-3.317532021655704,-3.80907158850031,-3.86144449247346
1770448143624,123,-5,-4.825283447445143,-5.791532998595756,-5.367347561007217
1770448143628,122,-6,-5.7211317823137975,-6.594228328690566,-6.261361689837624
1770448143632,122,-6,-6.128878488501781,-6.593740813566152,-6.672698654881687
1770448143636,122,-6,-6.36579149835744,-6.687467089670088,-6.918903159953389
1770448143640,122,-6,-6.723801957877647,-6.891686165097152,-7.2884260349681345
1770448143644,121,-7,-7.229681322030779,-7.765660022433552,-7.804046904667807
1770448143648,120,-8,-7.636779881849995,-8.642124804184341,-8.217439666166609
1770448143652,120,-8,-7.66369057067355,-8.569172402074303,-8.248860615022867
1770448143656,121,-7,-7.256957692390931,-7.722598296650705,-7.848277976523476
1770448143660,122,-6,-6.643883484945783,-6.889213547637358,-7.244843417532649
1770448143664,122,-6,-6.150284009025113,-6.786943656802358,-6.762666088087808
1770448143668,122,-6,-5.960944052887148,-6.687845437765998,-6.58299757896974
1770448143672,122,-6,-6.013362295313844,-6.511222058701985,-6.6416082957709115
1770448143676,122,-6,-6.075668218332278,-6.851731315658043,-6.7082422691194274
1770448143680,122,-6,-5.92260953133296,-6.723504854597427,-6.560827657858987
1770448143684,123,-5,-5.479116467036616,-6.036066309893382,-6.12621420922601
1770448143688,123,-5,-4.845813021847145,-5.424066710157053,-5.50427199355445
1770448143692,124,-4,-4.211218477743262,-4.84224582976217,-4.880892142639953
1770448143696,124,-4,-3.7266854313329514,-4.5130334070867875,-4.405246801839251
1770448143700,125,-3,-3.424580244378642,-4.102315835278043,-4.109855838072702
1770448143704,125,-3,-3.21576749920457,-3.691727782062032,-3.907583151313327
1770448143708,125,-3,-2.958892570504833,-3.7779673301749273,-3.6586170389904553
1770448143712,125,-3,-2.5623242001672315,-3.56113941710023,-3.2711626377940997
1770448143716,126,-2,-2.0513323033889233,-2.7423563990895605,-2.7697061361172475
1770448143720,127,-1,-1.5415971579093823,-1.9851256584052597,-2.2698111372172898
1770448143724,127,-1,-1.1362394049266031,-1.7412237783977556,-1.8746471740365784
1770448143728,127,-1,-0.8424399054655975,-1.8561840337897808,-1.5906211949910072
1770448143732,127,-1,-0.583372538976378,-1.4341642374981252,-1.339919814950147
1770448143736,128,0,-0.2774047258555869,-0.94872714607688,-1.041217565433559
1770448143740,128,0,0.1049679430901526,-0.7672090777913692,-0.6667468878527256
1770448143744,129,1,0.5509241887967213,0.0091523041921907,-0.2307845427755032
1770448143748,129,1,1.0436520801683191,0.3530461390898725,0.250370104616234
1770448143752,129,1,1.5696078364671535,0.3365756426395526,0.7652529335548661
1770448143756,130,2,2.092382416342921,1.2417586879844476,1.2788066699043548
1770448143760,131,3,2.5490474044920024,2.0338521966439966,1.727256858186481
1770448143764,131,3,2.899014035067485,2.1803783076209715,2.068226195611601
1770448143768,131,3,3.174326176622686,2.150994948781599,2.3332372530663923
1770448143772,131,3,3.462120727106893,2.507296404099364,2.6104551007979997
1770448143776,132,4,3.827635811152312,3.031023021157033,2.966105806610597
1770448143780,132,4,4.2568301228396646,3.2456018275187137,3.385897515585256
1770448143784,133,5,4.675852604698326,3.9315705187509824,3.794927802268245
1770448143788,133,5,5.023275560750195,4.393597729990222,4.131325727903605
1770448143792,133,5,5.298252585050605,4.195566243764031,4.395156963354083
1770448143796,133,5,5.536526404034528,4.344627449759037,4.623386850533006
1770448143800,134,6,5.749352643752061,4.87927990884861,4.827079553758216
1770448143804,134,6,5.9015204903630005,5.320616428369127,4.969508763583973
1770448143808,134,6,5.948029843298072,4.942105822066334,5.004850268328355
1770448143812,133,5,5.872121157699505,4.637464429955585,4.917283206191283
1770448143816,134,6,5.676743658991493,4.8476945895190715,4.711118757503012
1770448143820,133,5,5.3520120013788866,4.3610365607149415,4.376559419417545
1770448143824,133,5,4.867016433457454,3.8436552203025176,3.881610230245938
1770448143828,132,4,4.193505183434576,3.3581457124942578,3.1971323329823584
1770448143832,131,3,3.3293308049348163,2.2401066176558935,2.3211747941774568
1770448143836,130,2,2.296593217196644,1.124951643661307,1.2767610322676224
1770448143840,129,1,1.1247165295584085,0.1638335423117406,0.0939988800709494
1770448143844,128,0,-0.1531490295146631,-1.0725223837472622,-1.1940467273246271
1770448143848,126,-2,-1.4826762226658654,-2.650344569002136,-2.533726971182356
1770448143852,125,-3,-2.773177330679733,-3.87035999713678,-3.835135693050861
1770448143856,124,-4,-3.910929122111291,-4.752256253517889,-4.984758912694505
1770448143860,123,-5,-4.804156033148466,-5.997646896581302,-5.889983695171492
1770448143864,122,-6,-5.433792926948672,-6.925787123849991,-6.530628564700322
1770448143868,122,-6,-5.86362643797662,-6.787541808684158,-6.970679507725085
1770448143872,122,-6,-6.184415055229926,-6.8218067628618675,-7.302413957202492
1770448143876,121,-7,-6.43852176983677,-7.782103218880948,-7.568943875608422
1770448143880,121,-7,-6.609953551242246,-8.049166473186705,-7.753103329976305
1770448143884,121,-7,-6.69164356740072,-7.822703190745644,-7.84635340931362
1770448143888,121,-7,-6.738741402726313,-7.975187048077405,-7.90402252626369
1770448143892,121,-7,-6.829031356349984,-7.619556255830252,-8.005186394577104
1770448143896,121,-7,-6.970739730239912,-8.047122581826073,-8.158491511019621
1770448143900,120,-8,-7.069790674439902,-8.806178661194426,-8.26903644893705
1770448143904,121,-7,-7.00284909162005,-8.058663384031922,-8.213053470665553
1770448143908,121,-7,-6.725013833867817,-7.801388924641788,-7.946538133667348
1770448143912,121,-7,-6.312355616940186,-7.77761545723509,-7.546542302812101
1770448143916,122,-6,-5.9130267391588385,-6.960624223342609,-7.160759717371443
1770448143920,122,-6,-5.6559268361825055,-6.884122621706224,-6.916496291864274
1770448143924,122,-6,-5.580455308359072,-7.032768975113696,-6.852103165967489
1770448143928,122,-6,-5.622066140590759,-6.827913424864331,-6.903638529681545
1770448143932,122,-6,-5.652674169194395,-6.790665449822535,-6.944596635604362
1770448143936,122,-6,-5.553829313652157,-6.979681696281721,-6.8574492303080765
1770448143940,122,-6,-5.289241342557096,-6.8703210548846405,-6.605598101381486
1770448143944,123,-5,-4.932308463338339,-6.096766270657698,-6.261802643903158
1770448143948,123,-5,-4.619286626459543,-5.754687131121691,-5.961983929036744
1770448143952,123,-5,-4.4568635588409595,-5.916634315966243,-5.812362759169369
1770448143956,123,-5,-4.457931729516032,-5.873084957019898,-5.825096443926883
1770448143960,123,-5,-4.549457297045683,-5.997555590078054,-5.9270719857458145
1770448143964,123,-5,-4.626986683740378,-6.020910646574238,-6.0149844651881095
1770448143968,123,-5,-4.604947251540855,-5.803346692749388,-6.00462248851128
1770448143972,123,-5,-4.443532922110246,-5.9436829633211525,-5.856268033556422
1770448143976,123,-5,-4.161524667668744,-5.826131852395302,-5.587551198459342
1770448143980,124,-4,-3.8337999196430017,-5.115175346098856,-5.272438541737661
1770448143984,124,-4,-3.558725060463902,-4.898986676835831,-5.009491851736516
1770448143988,124,-4,-3.404400952937195,-4.956911527678863,-4.867398337026654
1770448143992,124,-4,-3.3740572022047832,-4.8121781292413255,-4.849368738082391
1770448143996,124,-4,-3.418071298354461,-4.979931631226633,-4.905231278405872
1770448144000,124,-4,-3.47533897006413,-5.01967869669337,-4.973672259614342
1770448144004,124,-4,-3.5041146984631437,-4.9705934144817485,-5.013599762348089
1770448144008,124,-4,-3.483236150495826,-4.956851047428617,-5.004843108267481
1770448144012,124,-4,-3.401944353743076,-4.772008513179371,-4.936856113536135
1770448144016,124,-4,-3.2671383080178114,-5.114220395510213,-4.815628377123327
1770448144020,124,-4,-3.1237467840234916,-4.870129489371817,-4.685060671083473
1770448144024,125,-3,-3.0479932759619657,-4.172066157074231,-4.621230363404952
1770448144028,124,-4,-3.094832566129529,-4.750798029965772,-4.67952942492685
1770448144032,124,-4,-3.243038483681821,-5.012164479553775,-4.839053249451279
1770448144036,124,-4,-3.3971464501217423,-4.89712863852161,-5.00467300061797
1770448144040,124,-4,-3.450336660437044,-5.1407197048468305,-5.070107537284354
1770448144044,124,-4,-3.3589196237971373,-4.899230401857648,-4.9917727240899765
1770448144048,124,-4,-3.176475627193226,-5.044668359947813,-4.822546714752162
1770448144052,124,-4,-3.022179044179631,-4.742026213117078,-4.680925093930127
1770448144056,125,-3,-2.9948205579329588,-4.1882398407864825,-4.665789242770421
1770448144060,124,-4,-3.090614110974228,-4.917012308464373,-4.773616166999557
1770448144064,124,-4,-3.198937168074236,-5.102146091189998,-4.893499186557451
1770448144068,124,-4,-3.188922641609665,-4.893775056347027,-4.894425851315277
1770448144072,124,-4,-3.0086149323498956,-4.872227248864916,-4.725427563550677
1770448144076,125,-3,-2.7062604857429844,-4.140240589970974,-4.43610640896339
1770448144080,125,-3,-2.369771126390795,-3.937508855362787,-4.114097685424914
1770448144084,125,-3,-2.061024750263903,-4.170714031753648,-3.819035573214101
1770448144088,125,-3,-1.8023477559307532,-3.7679306601707103,-3.5715267644977073
1770448144092,126,-2,-1.5915240200397451,-3.0922603020524497,-3.3704719928473192
1770448144096,126,-2,-1.3990497114858411,-2.8954599893508117,-3.1890727421571503
1770448144100,126,-2,-1.162274658463285,-3.246198702466867,-2.9656405120174685
1770448144104,126,-2,-0.822250018769523,-2.8650895218078016,-2.6394907833256855
1770448144108,127,-1,-0.3857281477251815,-2.0957056011960367,-2.215349719835711
1770448144112,127,-1,0.0647654872241467,-1.7960565194856488,-1.7757684368520228
1770448144116,128,0,0.4424827432709857,-1.207110199610033,-1.409146516295214
1770448144120,128,0,0.7387519257993298,-0.9650940404771744,-1.125247325324502
1770448144124,128,0,1.0204276840177366,-1.1790749210897469,-0.8565786190039453
1770448144128,128,0,1.3353681350403463,-0.7892411500903586,-0.5540053061907333
1770448144132,129,1,1.626378622651251,-0.1446403858796667,-0.2745403516421587
1770448144136,129,1,1.754778715228935,0.1378860078734584,-0.1578080355700998
1770448144140,129,1,1.617431069926285,-0.3405852670093815,-0.3075259945254751
1770448144144,128,0,1.2391139237370126,-0.8417760728784848,-0.6983831236611749
1770448144148,128,0,0.7517779595123832,-1.1276463320811612,-1.197602149549884
1770448144152,127,-1,0.2888730874791041,-1.877438555666931,-1.6716205089059804
1770448144156,127,-1,-0.1036285986305154,-2.078997169719452,-2.075134748075952
1770448144160,127,-1,-0.4667649548417458,-2.2189679610384005,-2.449994202203774
1770448144164,126,-2,-0.8538988001903423,-2.9085716615312305,-2.849797437626707
1770448144168,126,-2,-1.2622431407764343,-3.178269980194681,-3.2711104352656615
1770448144172,125,-3,-1.6369340242623462,-3.768084490700065,-3.658019552777049
1770448144176,125,-3,-1.93518413987715,-4.281726000756149,-3.9673405029281663
1770448144180,125,-3,-2.1740540323179105,-3.9730964822739456,-4.2169184130228645
1770448144184,125,-3,-2.406134865717882,-4.215241967700421,-4.460439651355365
1770448144188,124,-4,-2.6529429641432865,-4.896822865009843,-4.719501967578182
1770448144192,124,-4,-2.874935375793563,-5.053448504982348,-4.953666332140775
1770448144196,124,-4,-3.0100898763107944,-5.060336645302259,-5.100316376025728
1770448144200,124,-4,-3.0347885865357016,-5.159482022815944,-5.136177761514321
1770448144204,124,-4,-2.9855314319962103,-5.101001493623178,-5.098358996284863
1770448144208,124,-4,-2.9279217451249986,-4.995012012146761,-5.052553363967802
1770448144212,124,-4,-2.9067013424878163,-5.019520648791622,-5.043103343383357
1770448144216,124,-4,-2.9196926341723937,-5.092887636827832,-5.067477896753799
1770448144220,124,-4,-2.9332499344345773,-5.158369488565455,-5.092110898168436
1770448144224,124,-4,-2.920546582238363,-5.117341907766856,-5.090596352658504
1770448144228,124,-4,-2.886662806947931,-5.005724994688823,-5.0682682276715125
1770448144232,124,-4,-2.8608639786659715,-5.038348221272241,-5.054073527789896
1770448144236,124,-4,-2.867901068846225,-5.097785353965018,-5.072207235229216
1770448144240,124,-4,-2.9039881497380415,-5.163752621058296,-5.118978641105117
1770448144244,124,-4,-2.9320335636935915,-5.149850899878591,-5.158241261750191
1770448144248,124,-4,-2.896478473335682,-4.976823553375238,-5.134973495305905
1770448144252,124,-4,-2.7537778955158636,-5.119984209939023,-5.0043955993423115
1770448144256,124,-4,-2.506236780465229,-5.0128658732367395,-4.766589607587871
1770448144260,125,-3,-2.211151998428695,-4.287214500187272,-4.478419396380136
1770448144264,125,-3,-1.9466146259737829,-4.035187925550867,-4.220983944331916
1770448144268,125,-3,-1.7613240931187542,-4.121736772947097,-4.0475384109992
1770448144272,125,-3,-1.658574158611681,-4.006122124874002,-3.9633005595718904
1770448144276,125,-3,-1.6105252007107551,-4.140073798384005,-3.93695813841422
1770448144280,125,-3,-1.5207761714314108,-4.200242785327775,-3.8646912798950135
1770448144284,126,-2,-1.0669640778388674,-3.1126834465689184,-3.417809851231584
1770448144288,128,0,0.4966691280312427,-1.0945548800530276,-1.8501558811690169
1770448144292,131,3,4.328197293831997,1.9767335433392357,1.9896991581171777
1770448144296,138,10,11.552204747140536,8.822121107622698,9.21580860109862
1770448144300,149,21,22.45526670516583,19.862321424899356,20.106191706867765
1770448144304,162,34,35.7781450169875,32.77320102300277,33.400786979179514
1770448144308,175,47,48.673678779094,46.04452967129389,46.26099270984388
1770448144312,185,57,57.588915399392526,55.76525207462965,55.14708220426835
1770448144316,187,59,59.75497747935864,57.994880712398235,57.29997648275355
1770448144320,182,54,54.49804907244253,52.61206720865053,52.04676379041216
1770448144324,170,42,43.58092875740047,40.98478216293024,41.14262634284329
1770448144328,156,28,30.331191413332427,26.821551746037244,27.90362195995435
1770448144332,144,16,18.074305816283083,14.986254237251638,15.645441465060255
1770448144336,136,8,8.81085804710398,6.809649716700052,6.365318348583522
1770448144340,130,2,2.831081656756016,0.7793278505048031,0.3585148273826635
1770448144344,126,-2,-0.7328166704787229,-3.169422662663525,-3.232300200569294
1770448144348,124,-4,-2.986401720408323,-5.08055770088197,-5.5036183715680504
1770448144352,122,-6,-4.623077652471631,-7.144760913264724,-7.14652388788352
1770448144356,120,-8,-5.827752356020134,-9.087492889759016,-8.350421842240964
1770448144360,120,-8,-6.573704049788929,-9.346203803340709,-9.096065286626745
1770448144364,120,-8,-6.92787917723212,-9.0419736105201,-9.456209220360815
1770448144368,120,-8,-7.099559098320715,-9.261596447678803,-9.640869374299598
1770448144372,119,-9,-7.278729786537294,-9.96509755192326,-9.835612309486008
1770448144376,119,-9,-7.495233845581808,-10.324836891945534,-10.064699806338972
1770448144380,119,-9,-7.641011429585986,-10.1094850370709,-10.218060806462312
1770448144384,119,-9,-7.600297191406858,-10.294183076708846,-10.182469019574247
1770448144388,119,-9,-7.350603091802818,-10.046682013182204,-9.939430781805534
1770448144392,120,-8,-6.963839449723597,-9.165902024789643,-9.562645392772897
1770448144396,120,-8,-6.541373603714237,-9.210597540177792,-9.151961831598356
1770448144400,120,-8,-6.158500366163805,-9.183132860520807,-8.779804077061492
1770448144404,121,-7,-5.851828756318292,-8.298907335399273,-8.481425804696439
1770448144408,121,-7,-5.624176168004683,-8.003297076025522,-8.260610438032085
1770448144412,121,-7,-5.442828686251303,-8.28411196156806,-8.086324690802936
1770448144416,121,-7,-5.244850149936415,-8.079133917699274,-7.896504533615436
1770448144420,122,-6,-4.963591217948912,-7.367379915987064,-7.624403826503944
1770448144424,122,-6,-4.562512076854079,-7.120655781303784,-7.232647765385484
1770448144428,122,-6,-4.056544344067258,-7.18366887552605,-6.735074163666453
1770448144432,123,-5,-3.5075885454404285,-6.162998254483699,-6.193431092844381
1770448144436,124,-4,-2.985254182405814,-5.173338625418878,-5.67854812426477
1770448144440,124,-4,-2.51536306640942,-5.370787613694933,-5.2172246551259365
1770448144444,124,-4,-2.0721476270589667,-5.0554819211243025,-4.782913156835395
1770448144448,125,-3,-1.6310153735531854,-4.333742851277146,-4.349523799643853
1770448144452,125,-3,-1.2169853281298164,-3.9898983538335737,-3.942003272414792
1770448144456,126,-2,-0.8796882330373179,-3.4007682825217653,-3.611464141777581
1770448144460,126,-2,-0.6186092410458981,-3.153151494599784,-3.3583638365663866
1770448144464,126,-2,-0.3533064327462674,-3.289213600138035,-3.1013326230253813
1770448144468,126,-2,0.0127244525215211,-3.128041138098641,-2.742365357445182
1770448144472,127,-1,0.4999159333429079,-2.2142667848251456,-2.2612581815226527
1770448144476,128,0,1.037864914225048,-1.2046142949582432,-1.730188521443599
1770448144480,128,0,1.5410904744356435,-1.3594712771733437,-1.2353125846192137
1770448144484,128,0,1.9817658453089064,-1.1076770332583008,-0.8028554235565017
1770448144488,129,1,2.385869083286707,-0.3270481679136665,-0.4050916648982341
1770448144492,129,1,2.783999857358831,-0.0618860648871492,-0.0118332449859629
1770448144496,130,2,3.1861178563099295,0.6468570525034705,0.3849954403166753
1770448144500,130,2,3.5897735022793062,0.758864026227112,0.7819182490596956
1770448144504,130,2,3.9827460347120938,0.7713741286337321,1.167262352845328
1770448144508,131,3,4.328997834189131,1.743321983224932,1.5059102767507018
1770448144512,131,3,4.570516091931575,1.8629387691845545,1.740354653171707
1770448144516,131,3,4.663086734142148,1.6734354599737349,1.826853624630134
1770448144520,131,3,4.618912827005543,1.7685280359492632,1.7779949105284127
1770448144524,131,3,4.520676841257566,1.686851492648504,1.6758860127726831
1770448144528,131,3,4.495286912560241,1.8417820740899575,1.6459649002506476
1770448144532,131,3,4.650659394358658,1.7037965879355528,1.7952651137261784
1770448144536,131,3,4.99455441199475,1.8427140394095605,2.1321521623312183
1770448144540,132,4,5.387750717304006,2.5808878807904634,2.5185705525317266
1770448144544,132,4,5.590258720339197,2.8495006555330664,2.714979189755224
1770448144548,132,4,5.393562079440066,2.6512534769275695,2.5126929623441088
1770448144552,131,3,4.745293569323494,1.8603672930822543,1.8594515979998831
1770448144556,130,2,3.767150751023089,0.6788658277334422,0.877388390835826
1770448144560,129,1,2.658884690983122,-0.283500344817005,-0.2338769645968819
1770448144564,128,0,1.575701264815778,-1.2838607682730876,-1.3202753310166435
1770448144568,127,-1,0.5708705209095275,-2.269745975333778,-2.32983528880775
1770448144572,126,-2,-0.3799040634982704,-3.208857205725156,-3.2870173351701792
1770448144576,125,-3,-1.324104200994087,-4.298431703441933,-4.237989578225007
1770448144580,124,-4,-2.299936608876905,-5.303026554356966,-5.21921476686744
1770448144584,123,-5,-3.329105641526863,-6.293583121754982,-6.251738497498608
1770448144588,122,-6,-4.405202756485739,-7.29157042869722,-7.330116065069028
1770448144592,121,-7,-5.467886944568049,-8.193532805011035,-8.39554922931103
1770448144596,120,-8,-6.396255409706843,-9.348332634118456,-9.327707377005826
1770448144600,119,-9,-7.057628943432117,-10.256444504206703,-9.993240460802268
1770448144604,119,-9,-7.391329498239307,-10.367668189713717,-10.330787332718884
1770448144608,119,-9,-7.454908521099046,-10.245465115193566,-10.398128534505975
1770448144612,119,-9,-7.386088914549177,-10.246376657104314,-10.33347743091137
1770448144616,119,-9,-7.314828752942033,-10.32534185496097,-10.266471068599948
1770448144620,119,-9,-7.3009350693041295,-10.293100508338943,-10.25599367254128
1770448144624,119,-9,-7.333605541145565,-10.354038988363218,-10.290894290635087
1770448144628,119,-9,-7.368476134030099,-10.305881828547374,-10.327496262589287
1770448144632,119,-9,-7.361762943585363,-10.157507985301995,-10.322945430238809
1770448144636,119,-9,-7.286848075194488,-10.487088920021458,-10.250919009049603
1770448144640,119,-9,-7.139967032124343,-10.089134530804811,-10.107339151430049
1770448144644,120,-8,-6.939880212722831,-9.641844716083018,-9.91050024906222
1770448144648,119,-9,-6.721875516463088,-10.001872369477566,-9.695269874163303
1770448144652,120,-8,-6.5282507315943334,-9.49419397057994,-9.503736779208404
1770448144656,120,-8,-6.39494879122819,-9.16504314866896,-9.372080968142734
1770448144660,120,-8,-6.334707855604322,-9.42286517826901,-9.313552737297217
1770448144664,120,-8,-6.328395201816999,-9.35170458774063,-9.309319017046649
1770448144668,120,-8,-6.33618362592257,-9.297718730648414,-9.319401359348134
1770448144672,120,-8,-6.321150356694902,-9.224616661252648,-9.306391643972322
1770448144676,120,-8,-6.265544233812978,-9.448038371320964,-9.252119308562875
1770448144680,120,-8,-6.166655356378831,-9.146887391059089,-9.15404729169267
1770448144684,121,-7,-6.016431221532195,-8.682037299205545,-9.00483233511898
1770448144688,120,-8,-5.789229756125626,-8.95329095693296,-8.77921857930176
1770448144692,121,-7,-5.4631987004364415,-8.622588873682925,-8.454939392266052
1770448144696,121,-7,-5.062742579831755,-8.032639827985772,-8.055851398827723
1770448144700,122,-6,-4.671738835516463,-7.600680312681667,-7.665852581453406
1770448144704,122,-6,-4.389718851178969,-7.25984759862678,-7.384753580058793
1770448144708,122,-6,-4.26619515959861,-7.362493441600284,-7.26202183577645
1770448144712,122,-6,-4.272571832345195,-7.292802991464202,-7.26884217789552
1770448144716,122,-6,-4.331688629839745,-7.299911263406399,-7.3281341626057666
1770448144720,122,-6,-4.3739839032944685,-7.439889817264601,-7.3706493859217455
1770448144724,122,-6,-4.375643001770777,-7.361648428804234,-7.372688529254087
1770448144728,122,-6,-4.356336633737431,-7.343154197246163,-7.353756119074302
1770448144732,122,-6,-4.346292934140267,-7.291484597432597,-7.343939318730207
1770448144736,122,-6,-4.35381086122633,-7.334473925742357,-7.351601882623065
1770448144740,122,-6,-4.3614888808397945,-7.429230885081039,-7.359460119542871
1770448144744,122,-6,-4.351999334836284,-7.380590408464787,-7.350140171628701
1770448144748,122,-6,-4.334514398793901,-7.359095505659948,-7.332591191980818
1770448144752,122,-6,-4.340547233034589,-7.284700935331283,-7.33811998145114
1770448144756,122,-6,-4.387912227050299,-7.354078163771111,-7.384574798220275
1770448144760,122,-6,-4.445715854356818,-7.44879731711672,-7.441357070591153
1770448144764,122,-6,-4.438731837488444,-7.353689921251109,-7.4335296074132975
1770448144768,122,-6,-4.298753930413714,-7.442581243255498,-7.292927974511195
1770448144772,122,-6,-4.026174775426367,-7.182264593136799,-7.019882886311673
1770448144776,123,-5,-3.705797107374585,-6.497646304542918,-6.6992373856930625
1770448144780,123,-5,-3.454374273669553,-6.315819934345614,-6.447619058003738
1770448144784,123,-5,-3.340590221836329,-6.497859554383411,-6.333132194244803
1770448144788,123,-5,-3.343900836111273,-6.3572187068056785,-6.3346902912797765
1770448144792,123,-5,-3.378568175367834,-6.227436685095551,-6.3668286976317905
1770448144796,123,-5,-3.354033899835948,-6.5454310918882745,-6.3400104303678875
1770448144800,123,-5,-3.2261374657187565,-6.19612941064165,-6.210910375212945
1770448144804,124,-4,-3.0129013507484195,-5.723859345536439,-5.997369916246274
1770448144808,123,-5,-2.776323945447673,-6.080312540689278,-5.760329210638806
1770448144812,124,-4,-2.586856068259688,-5.5812562202527385,-5.5694203634123065
1770448144816,124,-4,-2.48516658718526,-5.169060573593461,-5.465582806960461
1770448144820,124,-4,-2.455410552431062,-5.607074910436746,-5.433738835645492
1770448144824,124,-4,-2.4309711186751857,-5.342058624171421,-5.407362492745167
1770448144828,124,-4,-2.337982530140974,-5.444149339490899,-5.312057130109306
1770448144832,124,-4,-2.1423525785827375,-5.310876006130793,-5.113735141032248
1770448144836,125,-3,-1.855610420858945,-4.357066189209077,-4.824779277628963
1770448144840,125,-3,-1.5011750268110422,-4.533845275746039,-4.469098165111863
1770448144844,125,-3,-1.0905288491036718,-4.349511127976033,-4.057405418292792
1770448144848,126,-2,-0.6389031844927495,-3.521086271569663,-3.603835486722907
1770448144852,126,-2,-0.1873048798753176,-3.228316152759205,-3.1493512447799596
1770448144856,127,-1,0.2143595788914458,-2.4588130314866232,-2.7446708684014944
1770448144860,127,-1,0.5507753670502185,-2.441651158600645,-2.4055743836154946
1770448144864,127,-1,0.8577405934240727,-2.4701584972627764,-2.096103206534168
1770448144868,128,0,1.1894734667174074,-1.4161024490360044,-1.7618896687302985
1770448144872,128,0,1.5676706319651816,-1.372336479212588,-1.3812083121821888
1770448144876,128,0,1.952516076052332,-1.3088028751813154,-0.9936660661158224
1770448144880,129,1,2.2534856969957984,-0.6042192937170681,-0.6897997812200076
1770448144884,129,1,2.3774986485504916,-0.341561063716143,-0.563314049588358
1770448144888,129,1,2.2854500612387136,-0.5563826661247011,-0.6536568393874045
1770448144892,128,0,2.0082026093866534,-1.2791511282213734,-0.929062784119678
1770448144896,128,0,1.607584970555573,-1.3790378476187275,-1.326387727853194
1770448144900,128,0,1.1326911705390568,-1.582039060576592,-1.7965106827864128
1770448144904,127,-1,0.6243672475829365,-2.344408142189665,-2.300080564650156
1770448144908,127,-1,0.149278744236788,-2.620948735109333,-2.771957602486082
1770448144912,126,-2,-0.2031048108754471,-3.1954441055527507,-3.1227658784296515
1770448144916,126,-2,-0.3860256909445061,-3.5112368904858475,-3.3043993972533605
1770448144920,126,-2,-0.4654584145785521,-3.4335166450922556,-3.3814160087815317
1770448144924,126,-2,-0.6064681781912169,-3.5238917878805487,-3.518758032251473
1770448144928,126,-2,-0.9558077974589598,-3.4722015362075975,-3.864186749422553
1770448144932,125,-3,-1.5117367781424862,-4.343840469073298,-4.416639722933985
1770448144936,124,-4,-2.10724109725471,-5.41568198878618,-5.0086952864809415
1770448144940,124,-4,-2.534200849283074,-5.5026179394821835,-5.431704446926581
1770448144944,124,-4,-2.6974725387605663,-5.505732301669838,-5.590953288665951
1770448144948,124,-4,-2.66270184542994,-5.4859150219477675,-5.55297786128518
1770448144952,124,-4,-2.573341291024156,-5.3552260210967155,-5.461334667620499
1770448144956,124,-4,-2.530923088538427,-5.425488633523464,-5.416684794237469
1770448144960,124,-4,-2.543678608028638,-5.508819601310456,-5.426385373241318
1770448144964,124,-4,-2.566594179751257,-5.522346086726629,-5.445362536543434
1770448144968,124,-4,-2.5727756255180667,-5.484761748723709,-5.447337105048807
1770448144972,124,-4,-2.5813584002344805,-5.371300318919815,-5.45202121385067
1770448144976,124,-4,-2.6212660370948595,-5.422108420817061,-5.4883931614388874
1770448144980,124,-4,-2.6762191115996896,-5.545123935786756,-5.539820866827662
1770448144984,124,-4,-2.6741402617958876,-5.4870785197290255,-5.533954444069256
1770448144988,124,-4,-2.540343064105966,-5.561101447322043,-5.396353344060246
1770448144992,124,-4,-2.2695572424900385,-5.284307787558231,-5.122490282193395
1770448144996,125,-3,-1.947153594291884,-4.543344547228546,-4.798148393150103
1770448145000,125,-3,-1.6941282881952813,-4.432862094764369,-4.543253810695392
1770448145004,125,-3,-1.5835353217248933,-4.621168430171079,-4.428536084983138
1770448145008,125,-3,-1.5991271187990888,-4.456788311550767,-4.43658774577255
1770448145012,125,-3,-1.6598750820495176,-4.3858705249995396,-4.488713540751901
1770448145016,125,-3,-1.6810693748151335,-4.483066620330755,-4.505050614028012
1770448145020,125,-3,-1.6303967418454204,-4.477124444551462,-4.456500253965403
1770448145024,125,-3,-1.5380870418072865,-4.625038575451402,-4.371330490941125
1770448145028,125,-3,-1.4129063882271624,-4.45326133001182,-4.251573211366626
1770448145032,126,-2,-1.047817646441202,-3.4194698963010888,-3.882904399118967
1770448145036,127,-1,0.1907178790874,-2.4507474082725524,-2.6291665127015027
1770448145040,130,2,3.381823600827538,0.468212218204854,0.5838513301167128
1770448145044,137,9,9.69459505080852,7.427980846105296,6.9148585266293665
1770448145048,146,18,19.688485640078923,16.46672117114218,16.91401996455757
1770448145052,158,30,32.59438025596852,28.66238163823077,29.810325844061147
1770448145056,173,45,46.0744808620134,43.46031215193535,43.27248457095127
1770448145060,184,56,56.81327262779854,54.52866038072399,53.99570151963908
1770448145064,189,61,61.80443814809766,59.31832739991899,58.98286431464725
1770448145068,187,59,59.67856921741373,57.531420224284986,56.86788847229943
1770448145072,178,50,51.29910548407992,48.52834135374715,48.51025263872137
1770448145076,165,37,39.27496937469495,35.595509329389685,36.50974012845493
1770448145080,153,25,26.707193415122155,23.386860223929546,23.957625899896815
1770448145084,143,15,15.92838041632283,13.493677466922232,13.181199974868468
1770448145088,135,7,7.900172210972552,5.358994395955673,5.144286354501269
1770448145092,129,1,2.4166379400073827,-0.3011450053847249,-0.350937628464125
1770448145096,126,-2,-1.2444205146929077,-3.5988859466652103,-4.018268623933804
1770448145100,123,-5,-3.73177908851123,-6.451540339747704,-6.502830312146596
1770448145104,121,-7,-5.398938360862955,-8.670183134099078,-8.160119600423334
1770448145108,120,-8,-6.41781207642577,-9.514217205991605,-9.167367422807304
1770448145112,120,-8,-6.968498450105602,-9.417075449149625,-9.709943052520108
1770448145116,120,-8,-7.280482633585488,-9.545743638894384,-10.019348261707046
1770448145120,119,-9,-7.527147454877521,-10.47506079462784,-10.266581085975597
1770448145124,119,-9,-7.738078071566668,-10.720053946092715,-10.476967624110406
1770448145128,119,-9,-7.8372441366731005,-10.422556056605986,-10.572376781482255
1770448145132,119,-9,-7.757556336374481,-10.58530896661449,-10.487118325979194
1770448145136,119,-9,-7.517937992392938,-10.340164001744688,-10.24284465190434
1770448145140,120,-8,-7.208571622178513,-9.727774927729248,-9.930995494547831
1770448145144,120,-8,-6.918384787460428,-9.474392982934946,-9.639373314546091
1770448145148,120,-8,-6.678268633813333,-9.678093637378296,-9.396746456945673
1770448145152,120,-8,-6.461827460481435,-9.381291948192974,-9.175952435887378
1770448145156,121,-7,-6.2210472930016945,-8.508125700159987,-8.930381155566348
1770448145160,121,-7,-5.914504113247903,-8.630192829071872,-8.620320340204138
1770448145164,121,-7,-5.523028103810241,-8.528119042314497,-8.226518582991488
1770448145168,122,-6,-5.065627930949772,-7.697303648281965,-7.766623491218565
1770448145172,122,-6,-4.5996349646521075,-7.342427146714693,-7.297363418319633
1770448145176,123,-5,-4.184187751537276,-6.592734943621347,-6.878495330714476
1770448145180,123,-5,-3.834071027297969,-6.524347166877505,-6.5253129031128445
1770448145184,123,-5,-3.516204364103466,-6.677333548766101,-6.204435047355507
1770448145188,124,-4,-3.1931809089151577,-5.557210278113078,-5.878122524488254
1770448145192,124,-4,-2.8610589447193724,-5.4993825745922145,-5.54267746399416
1770448145196,124,-4,-2.5410668871219437,-5.4758951104859275,-5.2196632915203605
1770448145200,125,-3,-2.2422149614439606,-4.586282067094987,-4.917958036291535
1770448145204,125,-3,-1.9386742974955613,-4.716091235946204,-4.611323869309631
1770448145208,125,-3,-1.5845564421158798,-4.46169867170129,-4.253770175477937
1770448145212,126,-2,-1.1511787896910513,-3.6858407410071594,-3.817078983831707
1770448145216,126,-2,-0.6519178455727839,-3.2454938480815705,-3.3151546512471577
1770448145220,127,-1,-0.135300360198739,-2.848257375364595,-2.7963525446521467
1770448145224,127,-1,0.343084458867718,-2.472117095801963,-2.3154998514399248
1770448145228,128,0,0.7507820858616361,-1.713485217835264,-1.904606273689255
1770448145232,128,0,1.0981977377620669,-1.4961067347210502,-1.5535274951821174
1770448145236,128,0,1.4346648802998123,-1.3836803788615937,-1.21342798681001
1770448145240,129,1,1.8147296663457575,-0.7801949733358797,-0.830131206548369
1770448145244,129,1,2.255663430894799,-0.4951703762739714,-0.3866400778822738
1770448145248,130,2,2.721881820522589,0.2250723345392058,0.0814848658916749
1770448145252,130,2,3.1482632489240348,0.5866044355178592,0.5097773574289262
1770448145256,130,2,3.481077510084655,0.5147842256434896,0.8453579835472227
1770448145260,131,3,3.710570741861983,1.2938179452667018,1.078518440400526
1770448145264,131,3,3.882871913279323,1.4641374065274573,1.2545282175949235
1770448145268,131,3,4.082372140181161,1.156338389140391,1.457075253828715
1770448145272,131,3,4.382817955463972,1.734523632711701,1.7600257226624536
1770448145276,132,4,4.795488562114081,2.2738283717762946,2.175126974598119
1770448145280,132,4,5.258916320356059,2.587421679443018,2.641123727602259
1770448145284,133,5,5.680308720097428,3.131102574160013,3.065187701623181
1770448145288,133,5,5.9898924723864555,3.4444468657662153,3.377510012733794
1770448145292,133,5,6.161049527143124,3.475039784637235,3.551477193784511
1770448145296,133,5,6.185594019077603,3.4580889205645464,3.5787931310130183
1770448145300,133,5,6.037315207474603,3.468835515715931,3.433011468305658
1770448145304,133,5,5.6663098211635115,3.1698420616524334,3.064247963809925
1770448145308,132,4,5.031842581149638,2.421552916875671,2.4323255954614913
1770448145312,131,3,4.141404775999062,1.4664167610863197,1.545268486361448
1770448145316,130,2,3.0615176342035055,0.4364225168657718,0.4691821362235895
1770448145320,129,1,1.8929647092134112,-0.4664538229859714,-0.6963187568729143
1770448145324,128,0,0.7235356528589987,-1.977439820790075,-1.8640062076848969
1770448145328,126,-2,-0.4177735972066205,-3.3795341761878084,-3.004145274752764
1770448145332,126,-2,-1.568666127869264,-3.822861753928073,-4.153233818594633
1770448145336,124,-4,-2.7801804058326907,-5.225747324281373,-5.361701734216738
1770448145340,123,-5,-4.035184850224851,-6.849257819440941,-6.612671896022305
1770448145344,122,-6,-5.213583310151249,-7.593268456160288,-7.786978005724343
1770448145348,121,-7,-6.146167722355832,-8.777509583939457,-8.716515589889703
1770448145352,120,-8,-6.723624265873553,-9.491063627616477,-9.292352198032445
1770448145356,120,-8,-6.980044061717953,-9.484284657963691,-9.547768823798538
1770448145360,120,-8,-7.082071563038132,-9.692750738528895,-9.648126554662149
1770448145364,120,-8,-7.218937202796833,-9.661206724452658,-9.78211665105944
1770448145368,120,-8,-7.468327014401039,-9.833955102208911,-10.02797734195273
1770448145372,119,-9,-7.745061701934722,-10.38217375128367,-10.301351915517335
1770448145376,119,-9,-7.882406960776664,-10.654260009891496,-10.435751460680748
1770448145380,119,-9,-7.782994638714313,-10.492201150489665,-10.333614728271778
1770448145384,120,-8,-7.507782462106784,-9.890914665788491,-10.055905907456072
1770448145388,120,-8,-7.223635446950247,-9.621231677417455,-9.769755357769604
1770448145392,120,-8,-7.061016733685441,-9.617037523210271,-9.6055831368236
1770448145396,120,-8,-7.013883813749739,-9.435179619181412,-9.55663971402464
1770448145400,120,-8,-6.967506763540707,-9.713542411322477,-9.507287790689109
1770448145404,120,-8,-6.816684463466526,-9.689214527890949,-9.35228675411364
1770448145408,121,-7,-6.554669504250516,-8.836147437607192,-9.086196106878496
1770448145412,121,-7,-6.252144396156757,-8.422397176753478,-8.781156177136072
1770448145416,121,-7,-5.968371727119743,-8.640927147859202,-8.496284658637613
1770448145420,121,-7,-5.7047748695892,-8.513640898989813,-8.231404347046603
1770448145424,122,-6,-5.444009145666525,-7.911438657272413,-7.968112629053715
1770448145428,122,-6,-5.2086386391632775,-7.63652288231735,-7.729502311492573
1770448145432,122,-6,-5.0611675577433815,-7.621676501499566,-7.579075152001812
1770448145436,122,-6,-5.046238431162449,-7.473062742013213,-7.5616011721609455
1770448145440,122,-6,-5.137006978753027,-7.657774571750908,-7.649668231722668
1770448145444,122,-6,-5.2364568613670315,-7.838783441738666,-7.746001436415432
1770448145448,122,-6,-5.233486880247909,-7.669354525485639,-7.73990416649002
1770448145452,122,-6,-5.072601241774292,-7.657999087683381,-7.576411948852405
1770448145456,122,-6,-4.788538129456972,-7.388019462581293,-7.290350834506124
1770448145460,123,-5,-4.481880067787146,-6.795196589154655,-6.9819146483879235
1770448145464,123,-5,-4.2530685265437675,-6.70398472119932,-6.750998586829933
1770448145468,123,-5,-4.142912752136461,-6.821414389030713,-6.638094957704677
1770448145472,123,-5,-4.119956106552488,-6.544819902753379,-6.611884373322757
1770448145476,123,-5,-4.115820678655174,-6.45531875188328,-6.604357931206812
1770448145480,123,-5,-4.077894683795328,-6.813947677710141,-6.563167628167459
1770448145484,123,-5,-4.002596847175622,-6.614384375554796,-6.485049478173129
1770448145488,124,-4,-3.9259042424920874,-6.026359401302311,-6.406411487747717
1770448145492,123,-5,-3.8828877764167298,-6.261354514824112,-6.362080186042253
1770448145496,123,-5,-3.881547426028929,-6.816045721285308,-6.358799211720681
1770448145500,123,-5,-3.9149135821791408,-6.421768729000254,-6.388734469404327
1770448145504,124,-4,-3.9778341830738526,-6.042400673976879,-6.447567647970082
1770448145508,123,-5,-4.0537119874756256,-6.631952665033394,-6.520211234410167
1770448145512,123,-5,-4.097026711966044,-6.624013666606817,-6.561409066790941
1770448145516,123,-5,-4.055879543908597,-6.508207340676694,-6.518255796343704
1770448145520,123,-5,-3.9206182156138616,-6.702033344829254,-6.38042874688632
1770448145524,124,-4,-3.739668532512654,-5.819088368045427,-6.196718148531982
1770448145528,124,-4,-3.57956297120022,-5.837749752865299,-6.034046281308354
1770448145532,123,-5,-3.473190699460847,-6.450961716012397,-5.924945356119545
1770448145536,124,-4,-3.4080545382061223,-5.67302606444773,-5.856614465482532
1770448145540,124,-4,-3.3528577386384257,-5.567546822548725,-5.798292738886806
1770448145544,124,-4,-3.287992809768629,-5.971498260427628,-5.730979867161302
1770448145548,124,-4,-3.2215904951325154,-5.687574948031314,-5.662522552880893
1770448145552,124,-4,-3.186576079094672,-5.610910437279772,-5.6251191925417565
1770448145556,124,-4,-3.2133759393723627,-5.54197767096009,-5.64897492979239
1770448145560,124,-4,-3.291574194004439,-5.679116218879902,-5.7239923225232605
1770448145564,124,-4,-3.3576938961900433,-5.931948395377087,-5.786983883145465
1770448145568,124,-4,-3.3307058412051953,-5.675558915808012,-5.756958581572572
1770448145572,124,-4,-3.170784211513312,-5.685657706658883,-5.594121782332882
1770448145576,124,-4,-2.9113640691223424,-5.444177744412192,-5.332168207407737
1770448145580,125,-3,-2.635265275293264,-4.8018728666047314,-5.054183629622666
1770448145584,125,-3,-2.4137721077180836,-4.8388451985800955,-4.831097320154507
1770448145588,125,-3,-2.260699554480947,-4.756091471718595,-4.675616632928287
1770448145592,125,-3,-2.1362497174335444,-4.64187172439712,-4.547175891805171
1770448145596,125,-3,-1.982968717891088,-4.482002541497074,-4.389143857406489
1770448145600,126,-2,-1.7520119714191922,-3.784679385278251,-4.154561525036574
1770448145604,126,-2,-1.4111697118642197,-3.873754576770162,-3.8120710772920914
1770448145608,126,-2,-0.9603295632010777,-3.718314500971963,-3.3603652403791133
1770448145612,127,-1,-0.455580709383474,-2.71687027093814,-2.8537622165840633
1770448145616,127,-1,0.000859459368713,-2.3845909254262203,-2.394090596830351
1770448145620,128,0,0.327583470055405,-1.9432409984490853,-2.0637431949554808
1770448145624,128,0,0.5368816343137093,-1.6674783633588042,-1.8512374981985695
1770448145628,128,0,0.7349110296236099,-1.999803728542097,-1.6502007617865544
1770448145632,128,0,1.0353578703947983,-1.4049179286320743,-1.3464530655032134
1770448145636,129,1,1.4607203398598965,-0.7273596919507597,-0.917733394097138
1770448145640,129,1,1.9175712000620424,-0.6200721561755542,-0.4582828838931698
1770448145644,130,2,2.2591307074628744,0.0419048899978109,-0.1152249860247647
1770448145648,130,2,2.3723883348023356,0.2131691827952782,-0.0007895369406796
1770448145652,129,1,2.2197247284509243,-0.570648558353404,-0.1512733214717623
1770448145656,129,1,1.8230287541792392,-0.6429818910526648,-0.5443029739433776
1770448145660,129,1,1.2362274842634542,-0.64905805099766,-1.1268431892931765
1770448145664,128,0,0.5434839849544533,-1.9841725665870256,-1.815908623459917
1770448145668,127,-1,-0.1363275136604684,-2.7449770393047195,-2.492897779559876
1770448145672,127,-1,-0.67635616988148,-2.639521507450005,-3.0304822608897384
1770448145676,126,-2,-0.9965206792216912,-3.6019101130914932,-3.348141234464099
1770448145680,126,-2,-1.107088368882608,-3.671013623927016,-3.4560937856687333
1770448145684,127,-1,-1.106381561581795,-2.985706426295726,-3.4529044742657655
1770448145688,126,-2,-1.1293595644475816,-3.744432890913001,-3.4737393953938396
1770448145692,126,-2,-1.279521474171201,-3.6777111406331775,-3.621943908500717
1770448145696,126,-2,-1.5872499491979724,-3.5594206472632326,-3.927354015631152
1770448145700,125,-3,-2.0130603483179557,-4.749384249280009,-4.3499134128943755
1770448145704,125,-3,-2.479466655963841,-4.8770254038856,-4.812197075182698
1770448145708,125,-3,-2.8990533999057075,-4.893771095171462,-5.227732137297499
1770448145712,124,-4,-3.1849373770955745,-5.533801218645095,-5.510595150463653
1770448145716,124,-4,-3.2655788668601096,-5.7225898912859385,-5.589183284181189
1770448145720,124,-4,-3.123402584932738,-5.590389236089011,-5.44515262355378
1770448145724,125,-3,-2.8284946860574496,-5.042788841378462,-5.148219239545062
1770448145728,125,-3,-2.518892741919872,-4.737107220459956,-4.83658047497528
1770448145732,125,-3,-2.3268659870122623,-4.711973257403624,-4.642385111239266
1770448145736,125,-3,-2.305667519158515,-4.56465874373474,-4.618258161453165
1770448145740,125,-3,-2.4090981920938255,-4.746071452129532,-4.717671851329507
1770448145744,125,-3,-2.5300886413165973,-4.9139259458469216,-4.834262126772592
1770448145748,125,-3,-2.5655022741286917,-4.84908500070993,-4.8662384656731295
1770448145752,125,-3,-2.468802687143874,-4.6422111287855685,-4.767754480704266
1770448145756,125,-3,-2.2706681264643747,-4.628474887256503,-4.568759691916281
1770448145760,125,-3,-2.062884899070122,-4.70173674128852,-4.359736593143417
1770448145764,126,-2,-1.944283074130467,-3.9682004389038137,-4.238936332065046
1770448145768,126,-2,-1.9473636159950212,-3.7917247770997218,-4.23877057255001
1770448145772,125,-3,-2.0034962348938374,-4.734480769649284,-4.290051244535666
1770448145776,125,-3,-1.9953427024130144,-4.53655183462557,-4.275341616263004
1770448145780,126,-2,-1.8595561011943784,-3.807496818523301,-4.133666753158629
1770448145784,126,-2,-1.6420463979957567,-3.8840492182479784,-3.915039376884012
1770448145788,126,-2,-1.45445503612241,-3.847043766649768,-3.732895285903001
1770448145792,126,-2,-1.3593305253267531,-3.734422351747454,-3.646096535962325
1770448145796,126,-2,-1.2281275061574386,-3.522142650945761,-3.518284279567142
1770448145800,127,-1,-0.6053147591812689,-2.862114006921086,-2.8874506233631902
1770448145804,129,1,1.3541528603321575,-0.8167874864494822,-0.9091294013994666
1770448145808,134,6,5.750067897041234,4.092420200466787,3.507765839021215
1770448145812,141,13,13.4990890141837,11.302328885068576,11.268525208811624
1770448145816,151,23,24.65994729065951,21.456467521025896,22.425766207548467
1770448145820,165,37,37.86568617526693,35.110786585662815,35.61553278087008
1770448145824,178,50,50.35214309027028,48.25153913244395,48.083334339386184
1770448145828,187,59,58.82886907451509,56.961372892845006,56.54924638379682
1770448145832,189,61,60.87162926137982,59.435124272042906,58.59507192567755
1770448145836,184,56,56.05731999296708,54.24042769791292,53.79673139920789
1770448145840,173,45,46.12803387570206,43.28076132080968,43.88933853311877
1770448145844,161,33,34.068279836097275,31.109331837637285,31.84810962519401
1770448145848,150,22,22.683168653504406,20.09698431716702,20.471060088087608
1770448145852,141,13,13.54687377102234,11.379211134939784,11.3308139998441
1770448145856,135,7,6.849069221626199,5.258973940665459,4.6216074452674185
1770448145860,130,2,2.000257833388676,0.2646689014944092,-0.2380143207901954
1770448145864,126,-2,-1.6065475762430612,-3.9060345631239426,-3.8479908858548426
1770448145868,123,-5,-4.2262560626499095,-6.9016467449644265,-6.46113486374989
1770448145872,121,-7,-5.886880259170169,-8.600529422290041,-8.1094928525944
1770448145876,121,-7,-6.695185921208761,-8.810237395137557,-8.907217505893538
1770448145880,121,-7,-6.958588981990287,-8.639561572384157,-9.167012922947926
1770448145884,121,-7,-7.043104442078661,-9.064241642465738,-9.254085569331522
1770448145888,120,-8,-7.170066252224588,-9.715256705730669,-9.384172586800958
1770448145892,120,-8,-7.362821940202,-9.819918924916808,-9.575760413148853
1770448145896,120,-8,-7.54917487997342,-9.605923806194902,-9.756565921637398
1770448145900,120,-8,-7.675469783948682,-9.829652807171309,-9.876418110449508
1770448145904,120,-8,-7.730495849927102,-9.928757616559247,-9.927131576893595
1770448145908,120,-8,-7.703689686614979,-9.788558672967078,-9.898528782449224
1770448145912,120,-8,-7.558268614723399,-9.844410328947742,-9.7524254220826
1770448145916,120,-8,-7.259429309771446,-9.510143863782954,-9.452530133250184
1770448145920,121,-7,-6.828628644516647,-9.012211012364736,-9.019536189742448
1770448145924,121,-7,-6.362100492708563,-8.689205700654526,-8.549730601948276
1770448145928,122,-6,-5.97792028374109,-8.072318523211099,-8.161926819870443
1770448145932,122,-6,-5.7220121776364765,-7.568555208449734,-7.902863813110178
1770448145936,122,-6,-5.51656732427689,-7.779808080962916,-7.694739859679824
1770448145940,122,-6,-5.213252775043651,-7.804626427566513,-7.388511209983007
1770448145944,123,-5,-4.715633128953714,-6.825335110121262,-6.887547376822305
1770448145948,124,-4,-4.058323889034515,-6.029717271767879,-6.2272934092030985
1770448145952,124,-4,-3.372205678320334,-5.533569865625706,-5.539309112850477
1770448145956,125,-3,-2.7804046873358654,-4.903373091139555,-4.946131926349404
1770448145960,125,-3,-2.32395240569787,-4.6424670444957945,-4.487503378149491
1770448145964,126,-2,-1.965662129691096,-4.03123178050955,-4.125608965996288
1770448145968,126,-2,-1.644180678654227,-3.812202425166346,-3.799662216853104
1770448145972,126,-2,-1.321885676846391,-3.757218090405507,-3.473299317979107
1770448145976,127,-1,-0.9932830120188544,-2.709067638216002,-3.142031768762706
1770448145980,127,-1,-0.6634695337902932,-2.8149476736780183,-2.8108350233041213
1770448145984,127,-1,-0.3323216273334959,-2.9267185869996366,-2.4783245282744826
1770448145988,128,0,-0.0008230400444015,-1.8465978997259016,-2.1442249855108177
1770448145992,128,0,0.3235605673755601,-1.8096687157537723,-1.8158341452421192
1770448145996,128,0,0.6443896406232623,-1.5990573248608428,-1.4904630930917435
1770448146000,129,1,0.9987303406251584,-0.9848325060943888,-1.132205366906956
1770448146004,129,1,1.4494602524308338,-0.7450147067373767,-0.6788558368244604
1770448146008,130,2,2.038391428947573,-0.0402518211599474,-0.0882231441845891
1770448146012,130,2,2.730872266896969,0.3764960106078163,0.6062454364385277
1770448146016,131,3,3.4048638122024126,1.207334673242463,1.2833351884461264
1770448146020,132,4,3.9160732422215654,2.194663511818923,1.7983337781807838
1770448146024,132,4,4.201963142520902,2.065080160163453,2.087739517702722
1770448146028,132,4,4.332072482441658,2.135539290108572,2.2208773345198742
1770448146032,132,4,4.448092248671363,2.2070132723480937,2.3400463982704705
1770448146036,132,4,4.6447245764007885,2.3437503311538324,2.540304903064424
1770448146040,133,5,4.903715836063689,3.074082380392551,2.802965059226494
1770448146044,133,5,5.136383700383494,3.1593670569510417,3.0387959648982545
1770448146048,133,5,5.278911942067216,3.0478440312706585,3.184059589805743
1770448146052,133,5,5.340939164837321,3.274014359207842,3.2489002253787875
1770448146056,133,5,5.3674826617834075,3.2687054368709507,3.2786851730324944
1770448146060,133,5,5.3614295323032035,3.128950730600028,3.2763324125947233
1770448146064,133,5,5.245606397044487,3.1224175958467915,3.1644253815909575
1770448146068,133,5,4.9047037201567605,3.0519523224259952,2.827169179084408
1770448146072,132,4,4.273764974689906,2.286863200197856,2.1992750957656044
1770448146076,131,3,3.39104448200925,1.208614591340817,1.3193718249587236
1770448146080,130,2,2.3616018900634588,0.2071335871987085,0.2933751087449221
1770448146084,129,1,1.267145055565849,-0.9816977539428732,-0.7967192708714257
1770448146088,128,0,0.1149068042792968,-1.829610435775286,-1.9445074021357391
1770448146092,127,-1,-1.1240189814466004,-2.8523296871674098,-3.179950769781737
1770448146096,125,-3,-2.4348739729239446,-4.656888046282134,-4.488241755561242
1770448146100,124,-4,-3.728550917473147,-5.952974725025118,-5.779106187446521
1770448146104,123,-5,-4.889978124083411,-6.809208832557829,-6.9365107819528085
1770448146108,122,-6,-5.84871755203343,-8.027255130429399,-7.890257374802734
1770448146112,121,-7,-6.600884470912906,-8.636500711605994,-8.637593276677126
1770448146116,121,-7,-7.171862835482446,-8.900241764855062,-9.20482516381127
1770448146120,120,-8,-7.570997675870221,-9.720243710783642,-9.60115597455507
1770448146124,120,-8,-7.792029363389807,-10.043921643781244,-9.8193166816215
1770448146128,120,-8,-7.855252330886597,-9.81211538411146,-9.87879810672668
1770448146132,120,-8,-7.83312740974256,-9.83099180405631,-9.85216308269074
1770448146136,120,-8,-7.817340876634613,-9.751945761068372,-9.831733960584996
1770448146140,120,-8,-7.853234355430064,-9.834424833924604,-9.863322674342664
1770448146144,120,-8,-7.905610545075078,-9.999416315740554,-9.911790963151812
1770448146148,120,-8,-7.890758656674707,-9.80137878572252,-9.893132154622151
1770448146152,120,-8,-7.75003249968331,-9.897986038719296,-9.748225712828631
1770448146156,120,-8,-7.50352190344948,-9.656603232382295,-9.497019793143108
1770448146160,121,-7,-7.235142449458979,-8.953919486118714,-9.224050682059891
1770448146164,121,-7,-7.019009733727233,-8.901430950183439,-9.004221711950418
1770448146168,121,-7,-6.857445810494782,-8.879525548916657,-8.839587251052142
1770448146172,121,-7,-6.695321400838562,-8.85797181755951,-8.673651927624736
1770448146176,121,-7,-6.493123182430295,-8.675097802698392,-8.46605743430807
1770448146180,122,-6,-6.272053539287697,-7.970944635080969,-8.238935477853271
1770448146184,122,-6,-6.078470999415083,-7.874264391947991,-8.040395425302204
1770448146188,122,-6,-5.916167324674812,-7.918461813048479,-7.874737399256953
1770448146192,122,-6,-5.73628171967076,-7.829236580832961,-7.691839191919204
1770448146196,122,-6,-5.501358732572596,-7.704885102029159,-7.452803051980145
1770448146200,123,-5,-5.244445850885992,-6.9763186871410605,-7.190605877793398
1770448146204,123,-5,-5.046628397546426,-6.832443809519133,-6.987343677029736
1770448146208,123,-5,-4.9522021496971265,-7.008899841925847,-6.888043346677445
1770448146212,123,-5,-4.9129191802323335,-6.70259915597937,-6.84429167799975
1770448146216,123,-5,-4.822541900920629,-6.887915046170525,-6.749326485356774
1770448146220,123,-5,-4.611441491433478,-6.781653608751901,-6.5333955551769
1770448146224,124,-4,-4.31267781475195,-6.025387255742407,-6.22994550419148
1770448146228,124,-4,-4.038158382742376,-5.830634364094003,-5.951146746513502
1770448146232,124,-4,-3.888683215083783,-5.866842644335932,-5.797388075092706
1770448146236,124,-4,-3.880461487919911,-5.771969258083946,-5.784203047086558
1770448146240,124,-4,-3.9465546603412296,-5.88366274946832,-5.844632268419921
1770448146244,124,-4,-3.999903860575343,-5.948025518991445,-5.8923995804010465
1770448146248,124,-4,-3.99923209335734,-5.87848453759376,-5.886956331421178
1770448146252,124,-4,-3.968448587720146,-5.8484807830025325,-5.85207982812585
1770448146256,124,-4,-3.961895175664929,-5.7958981043723,-5.8412651994767835
1770448146260,124,-4,-4.0072396595207165,-5.876802948407416,-5.881501917458902
1770448146264,124,-4,-4.070795223050299,-5.963809332199851,-5.939243229367383
1770448146268,124,-4,-4.072286069980585,-5.839046992523179,-5.934921730343003
1770448146272,124,-4,-3.9415074743245784,-5.921321198887594,-5.798871266744871
1770448146276,124,-4,-3.6772581946074463,-5.716130347266394,-5.529957281867871
1770448146280,125,-3,-3.360129993920024,-4.989298189000998,-5.208569182187613
1770448146284,125,-3,-3.1026964147480287,-4.83800919783282,-4.946854794116712
1770448146288,125,-3,-2.9760366036953476,-4.964930470680188,-4.815229558287875
1770448146292,125,-3,-2.972925281080845,-4.81031889690899,-4.806123122700211
1770448146296,125,-3,-3.029376999305191,-4.835516421387053,-4.856159955387255
1770448146300,125,-3,-3.0759046226249596,-4.903101585966094,-4.897004975905792
1770448146304,125,-3,-3.079222268506538,-4.893061555625485,-4.895859511692251
1770448146308,125,-3,-3.054405274107164,-4.929586617192963,-4.867091554323581
1770448146312,125,-3,-3.0451516421898,-4.838190150545818,-4.853270251938478
1770448146316,125,-3,-3.08208733889818,-4.835202381827621,-4.884587631808586
1770448146320,125,-3,-3.1442036310686015,-4.923537052341759,-4.94051754694031
1770448146324,125,-3,-3.156595503416073,-4.849077132165279,-4.946826865690438
1770448146328,125,-3,-3.0388081202772073,-4.991713398664535,-4.823342378848974
1770448146332,125,-3,-2.773935146099506,-4.765222212520804,-4.553315755401123
1770448146336,126,-2,-2.4381403809653706,-3.943887104933954,-4.21323904356355
1770448146340,126,-2,-2.1573983276900774,-3.815762204604087,-3.928945524900533
1770448146344,126,-2,-2.026178610595804,-3.957970232908768,-3.7936635102807577
1770448146348,126,-2,-2.054107066769376,-3.8739072125879743,-3.8156351877039874
1770448146352,126,-2,-2.1674845889007894,-3.90684967402208,-3.9213841772350273
1770448146356,126,-2,-2.244731109769187,-3.81094442531664,-3.991263576465374
1770448146360,126,-2,-2.16507107005275,-3.9659210852840223,-3.9062271148276086
1770448146364,126,-2,-1.8661815106024424,-3.786927875734377,-3.603846285899557
1770448146368,127,-1,-1.390576593099941,-3.059739457599254,-3.1250926141551165
1770448146372,127,-1,-0.8768806661902526,-2.7125381896483765,-2.607222718787971
1770448146376,128,0,-0.4768073900501117,-2.0563522459509285,-2.201696822273043
1770448146380,128,0,-0.2464191194328227,-1.68518921225944,-1.965035564746128
1770448146384,128,0,-0.1012343209928396,-2.107295219114298,-1.8131967804427191
1770448146388,128,0,0.1172605891849483,-1.7059736024848815,-1.588137630839377
1770448146392,129,1,0.5130686972194818,-1.0943756832511051,-1.1867077270562554
1770448146396,129,1,1.0494175711206242,-0.7029851335511967,-0.6463691648499656
1770448146400,130,2,1.5662317975433562,0.0042699116014226,-0.1266594027501453
1770448146404,130,2,1.8754929065253612,0.1411662656334762,0.1861013895506573
1770448146408,130,2,1.86298829028762,0.1194985473062324,0.1789958131623406
1770448146412,130,2,1.5407399133605757,-0.0251351925435683,-0.1364235993685194
1770448146416,129,1,1.03306436383183,-0.6980166362571958,-0.6375544897905989
1770448146420,129,1,0.5086626944637567,-1.086583326730686,-1.1567620608961726
1770448146424,128,0,0.0919589921788508,-1.6791425480568645,-1.569043916323388
1770448146428,128,0,-0.1954441183184743,-2.133768655537206,-1.8517163339369715
1770448146432,128,0,-0.4183957544419663,-1.7396618719335897,-2.0696797534984697
1770448146436,128,0,-0.6464470109478497,-2.0138054211127425,-2.2933567217251913
1770448146440,127,-1,-0.8848512719950219,-2.787404665164771,-2.5279544119209736
1770448146444,127,-1,-1.091118401076958,-2.9257238830109853,-2.729749410517507
1770448146448,127,-1,-1.2515588588742426,-2.9654062694061167,-2.8844343886412576
1770448146452,127,-1,-1.416651771992027,-2.8473528051432044,-3.043572550593206
1770448146456,127,-1,-1.6462303669779343,-2.9818990344557874,-3.2684032638038705
1770448146460,126,-2,-1.9314516063209932,-3.7617754797418135,-3.5499634037632006
1770448146464,126,-2,-2.1897764466867864,-3.992402802281623,-3.804356264083024
1770448146468,126,-2,-2.3391293170036613,-3.884827409983322,-3.948731822515239
1770448146472,126,-2,-2.368004589084671,-3.954442278475803,-3.972170496985693
1770448146476,126,-2,-2.333373340059811,-3.871486004586196,-3.9326290030325057
1770448146480,126,-2,-2.3016139069289787,-3.862825956267907,-3.896799584240218
1770448146484,126,-2,-2.297609550349911,-3.9108451891755314,-3.889202519132388
1770448146488,126,-2,-2.3048360474034872,-3.960568100400779,-3.892826200265678
1770448146492,126,-2,-2.3038667687660466,-3.9160721224763426,-3.887889267977111
1770448146496,126,-2,-2.303237646106669,-3.8804331274767576,-3.8826603442323817
1770448146500,126,-2,-2.3295401658926687,-3.879118140848683,-3.9036906059606618
1770448146504,126,-2,-2.386664770671204,-3.869665752862996,-3.955410467368581
1770448146508,126,-2,-2.4278665321561785,-4.040615018439415,-3.9921299283938554
1770448146512,126,-2,-2.3785907655030787,-3.839533644964763,-3.940006485004298
1770448146516,126,-2,-2.203628457243834,-3.9413485047088614,-3.763312377121074
1770448146520,126,-2,-1.961037439137153,-3.855314691955408,-3.518544109573944
1770448146524,127,-1,-1.7772162747775122,-2.827452100320497,-3.33057960036433
1770448146528,127,-1,-1.743015657111575,-3.182130105360189,-3.2897121359246837
1770448146532,126,-2,-1.8218300425863805,-3.627727193201211,-3.3603363226909333
1770448146536,127,-1,-1.870105265582937,-3.221372996981448,-3.4017890490543747
1770448146540,126,-2,-1.7677123692172363,-3.5324308245461498,-3.2976160447871035
1770448146544,127,-1,-1.541029919835693,-3.1621206310516974,-3.075584634976609
1770448146548,127,-1,-1.342412040275831,-2.8713316900755803,-2.8845366966535644
1770448146552,127,-1,-1.2380874405492373,-2.910286642020122,-2.7833327541810986
1770448146556,128,0,-0.901108134435466,-2.0059784388058164,-2.4386219082884395
1770448146560,129,1,0.5687262833366717,-0.6656919979832852,-0.9499401843121302
1770448146564,133,5,4.4644307414432465,2.8857766953642088,2.9682673899290357
1770448146568,140,12,11.86551497650772,10.161526785607336,10.383959769277828
1770448146572,151,23,22.83442398957069,21.00038552956244,21.35118427102149
1770448146576,164,36,35.87442833244305,34.1097211531421,34.374219531620156
1770448146580,176,48,48.08190187767859,46.24092823595123,46.559925473781306
1770448146584,185,57,56.10427207602291,54.90196364297358,54.5688629713064
1770448146588,187,59,57.538761831054586,57.17642690571458,56.00595065561789
1770448146592,181,53,52.04727045545734,50.86813452116429,50.53212082561218
1770448146596,169,41,41.51403859496112,39.27312207057248,40.023867274570065
1770448146600,157,29,29.114203833737765,27.066777526091737,27.64558126306672
1770448146604,146,18,17.852652427248728,16.088370785653275,16.39294188210175
1770448146608,138,10,9.430995736110884,8.061301679691967,7.964854685575917
1770448146612,133,5,3.988586626424461,2.9543477074835036,2.5066720382944307
1770448146616,129,1,0.6476495660468444,-0.760742248932055,-0.8484085411008246
1770448146620,127,-1,-1.645957487596891,-2.968478733052925,-3.1460471161833343
1770448146624,125,-3,-3.522424773829397,-4.851294389344121,-5.015400886882572
1770448146628,123,-5,-5.077204195835677,-7.037757781651123,-6.557376153400599
1770448146632,122,-6,-6.1426014767206185,-7.927915054561954,-7.611648673395696
1770448146636,122,-6,-6.627989257226674,-7.879664877179714,-8.092591847213253
1770448146640,122,-6,-6.662801239649184,-7.878298103600351,-8.129983169040566
1770448146644,122,-6,-6.505659470243189,-7.917516236619125,-7.978374421243299
1770448146648,122,-6,-6.375715854075763,-8.005735223980352,-7.851477827052958
1770448146652,122,-6,-6.362691161971538,-7.941775944430964,-7.836349348584329
1770448146656,122,-6,-6.442086104333618,-7.880744853869008,-7.910360388175551
1770448146660,122,-6,-6.531257171439769,-7.8903801970823455,-7.994987175042506
1770448146664,122,-6,-6.53808213975266,-7.88511245081664,-8.000520644102174
1770448146668,122,-6,-6.403409444907004,-8.071004666173943,-7.866909494201291
1770448146672,122,-6,-6.138070118301172,-7.845154379869653,-7.602719512135913
1770448146676,123,-5,-5.822066008770877,-7.019302032727235,-7.286905979306722
1770448146680,123,-5,-5.545915674351672,-6.722666579435079,-7.010271436426542
1770448146684,123,-5,-5.338629265256893,-7.07703721755143,-6.801987684627737
1770448146688,123,-5,-5.150782287482819,-6.870974789736226,-6.6125422909359575
1770448146692,124,-4,-4.9001069939721535,-6.053189105622668,-6.3603247484700995
1770448146696,124,-4,-4.527732027852862,-5.83240221659481,-5.987545285932474
1770448146700,124,-4,-4.028753468688151,-5.875586979179811,-5.489433867927101
1770448146704,125,-3,-3.456502198743014,-4.962490718964414,-4.918416475617382
1770448146708,126,-2,-2.8991289849490087,-3.9507546807271794,-4.361791924499354
1770448146712,126,-2,-2.4307706024863647,-4.023980110416437,-3.8933825447498007
1770448146716,126,-2,-2.0693769960536876,-3.8317466542223872,-3.5312770022219904
1770448146720,127,-1,-1.774823120648865,-2.894324860892442,-3.23603617667821
1770448146724,127,-1,-1.4835594785552677,-2.9382407731703712,-2.945011611005194
1770448146728,127,-1,-1.1527377813764217,-2.980524636117884,-2.615569546843238
1770448146732,128,0,-0.7880916481576874,-2.0027578504548105,-2.2526976924586775
1770448146736,128,0,-0.4351555607621828,-1.8538811493731,-1.9009697034127353
1770448146740,128,0,-0.1331294850803916,-1.871314948157714,-1.5992684791706273
1770448146744,129,1,0.1355957384431843,-0.965862574025464,-1.3304728007634363
1770448146748,129,1,0.4536624777311639,-0.9465582456832448,-1.012636985846537
1770448146752,129,1,0.9144812623759816,-1.0700543654984886,-0.5526864610926947
1770448146756,130,2,1.5399077310983285,0.2467512543734593,0.0711427223271585
1770448146760,131,3,2.2418092664353675,0.997703543317435,0.7707183898403009
1770448146764,131,3,2.867645119543603,1.1841892856208682,1.393945035711461
1770448146768,132,4,3.294313352665583,1.9014758298839527,1.8185654787688104
1770448146772,132,4,3.499841967505737,2.047777235727577,2.023041831850655
1770448146776,132,4,3.570401863633976,2.1512783176123915,2.093168468378183
1770448146780,132,4,3.644058808826036,2.076964753468439,2.166307793988692
1770448146784,132,4,3.827279788870822,2.1135334457416515,2.348336616761083
1770448146788,133,5,4.138615173462621,2.98153305657807,2.657374253480506
1770448146792,133,5,4.514752942923272,2.932746832630522,3.030080540234638
1770448146796,133,5,4.862888138650598,3.2902271274985484,3.3744105171672114
1770448146800,134,6,5.111383015669775,3.918784052137852,3.6199888319060887
1770448146804,133,5,5.228534006582585,3.284802385787894,3.735765746203027
1770448146808,134,6,5.2179559847517245,3.7998377071669287,3.724553084720952
1770448146812,134,6,5.111781022860304,4.105127066321687,3.616923766384828
1770448146816,133,5,4.958600976182787,3.1239775006234183,3.4608716608124204
1770448146820,133,5,4.787523302527304,3.067147294136619,3.286295501343557
1770448146824,133,5,4.564954485930743,3.1762705219871226,3.0603581354299836
1770448146828,133,5,4.196831621500912,2.8448423540539673,2.688827787216744
1770448146832,132,4,3.591569252725426,2.1203212098828126,2.0799457881671275
1770448146836,131,3,2.7289735150566106,1.0499782827215358,1.2141583547482084
1770448146840,130,2,1.6760584821713391,0.1753150296470114,0.159099095555109
1770448146844,129,1,0.549897750893874,-0.9408040338425632,-0.9686975279654936
1770448146848,128,0,-0.5329940372251349,-2.063192911559974,-2.054031469563193
1770448146852,127,-1,-1.4943475722829258,-2.925808695073574,-3.019270291252675
1770448146856,126,-2,-2.3164339476362623,-3.963346348744583,-3.84602152527533
1770448146860,125,-3,-3.0453536317922323,-4.751276615202228,-4.5793547514096
1770448146864,125,-3,-3.7619284311746792,-5.0762457485968815,-5.299810690341145
1770448146868,124,-4,-4.5242939062806276,-5.8776272409641965,-6.065819023606804
1770448146872,123,-5,-5.322268416031204,-7.15504115210692,-6.86724907829663
1770448146876,122,-6,-6.083062272145829,-7.706160652354748,-7.631181871763137
1770448146880,122,-6,-6.7183752275639055,-8.02778511712293,-8.269620755991603
1770448146884,121,-7,-7.168536367838549,-8.804774579420013,-8.723480490348859
1770448146888,121,-7,-7.418415138766511,-9.122262381279146,-8.977861362456736
1770448146892,121,-7,-7.489967573110745,-8.951934308762612,-9.054469824206446
1770448146896,121,-7,-7.423342206069901,-8.859624187402375,-8.992901388273575
1770448146900,121,-7,-7.259210389762394,-8.942806756806018,-8.83313076353922
1770448146904,121,-7,-7.032795009918739,-8.821151337504954,-8.610156901261393
1770448146908,122,-6,-6.773400334097448,-8.173978115712746,-8.354152993191702
1770448146912,122,-6,-6.497393844608315,-7.838354892538211,-8.082703739496147
1770448146916,122,-6,-6.20606367085812,-8.027969886975674,-7.797098883655416
1770448146920,122,-6,-5.907053507510526,-7.741898139453205,-7.5036914283745135
1770448146924,123,-5,-5.638969015702974,-7.044999827990884,-7.2401643985768755
1770448146928,123,-5,-5.455117786922385,-6.9433791246419405,-7.060292613310117
1770448146932,123,-5,-5.368630398586555,-7.061498476813872,-6.978230103825422
1770448146936,123,-5,-5.319424764104372,-6.817848100739829,-6.934190278135565
1770448146940,123,-5,-5.210080050522652,-6.946213099606329,-6.830146420991419
1770448146944,123,-5,-4.985865559590315,-6.859591504888229,-6.610766157079145
1770448146948,124,-4,-4.6846554240986915,-6.106539460385779,-6.314172520896298
1770448146952,124,-4,-4.407755621836717,-5.90956855022549,-6.042536965098413
1770448146956,124,-4,-4.239731321836154,-5.9580290337314015,-5.880837332399204
1770448146960,124,-4,-4.193611198579745,-5.827481244965053,-5.84143971811585
1770448146964,124,-4,-4.224762558633557,-5.973650394533701,-5.878483316363774
1770448146968,124,-4,-4.283411459916474,-6.0057498941565814,-5.941512897605694
1770448146972,124,-4,-4.343350927074845,-5.9738483590531795,-6.004959055651163
1770448146976,124,-4,-4.3809554795114725,-5.931767638980524,-6.046819138932182
1770448146980,124,-4,-4.343003231613899,-5.816294498398974,-6.015014904258737
1770448146984,124,-4,-4.1654179300229695,-6.042068027666936,-5.844911531303081
1770448146988,124,-4,-3.8500078890742504,-5.887099508184546,-5.536702223631999
1770448146992,125,-3,-3.5197612076974147,-5.124961081974986,-5.212595618980491
1770448146996,125,-3,-3.3644597678641235,-4.745044814817129,-5.063012236024045
1770448147000,125,-3,-3.496454001906728,-5.036854302786658,-5.200912138517265
1770448147004,124,-4,-3.846776518762155,-5.810584356522369,-5.556855219145142
1770448147008,124,-4,-4.20410143531449,-6.136897123362272,-5.918982201717384
1770448147012,124,-4,-4.360173455066839,-5.860790662720305,-6.0797306279105285
1770448147016,124,-4,-4.2363618345352485,-5.997288792021719,-5.961782492983593
1770448147020,124,-4,-3.906736185862442,-5.797123808033469,-5.6396169883624845
1770448147024,125,-3,-3.527563911914945,-5.035468095156016,-5.26867048823872
1770448147028,125,-3,-3.238248421136433,-4.950315409312074,-4.98711329414178
1770448147032,125,-3,-3.0986531867920486,-5.014844484877699,-4.853994214542282
1770448147036,125,-3,-3.089842414686406,-4.858730262415204,-4.850409872105956
1770448147040,125,-3,-3.1541444255062614,-4.918786079470294,-4.919587877650381
1770448147044,125,-3,-3.229409116902654,-4.9366612205245834,-5.000524403731173
1770448147048,125,-3,-3.259581053743033,-5.036841927490161,-5.037602381087109
1770448147052,125,-3,-3.199925432191479,-4.945468245909948,-4.9854554274280005
1770448147056,125,-3,-3.0356980281909705,-4.893035386059982,-4.828390220694672
1770448147060,125,-3,-2.801956644867887,-4.911829377143903,-4.601348911722895
1770448147064,126,-2,-2.573617279682483,-3.932920590653775,-4.380000456112696
1770448147068,126,-2,-2.42185591670083,-4.047008052473858,-4.235821020013484
1770448147072,125,-3,-2.3749970303171963,-4.945124875106352,-4.19631382725312
1770448147076,126,-2,-2.413942103285489,-3.865733659295345,-4.241622962785425
1770448147080,126,-2,-2.486066635972316,-3.957726324117638,-4.319526882340137
1770448147084,125,-3,-2.5163725767630227,-4.895905262723177,-4.3559601728788095
1770448147088,126,-2,-2.426944241903333,-4.056350492223325,-4.273493477788936
1770448147092,126,-2,-2.1724874751052177,-3.971753238724153,-4.026824167410364
1770448147096,126,-2,-1.7684667432918624,-3.8015051793347383,-3.631079197178557
1770448147100,127,-1,-1.2867019524536796,-3.0371033444740188,-3.157424632046056
1770448147104,127,-1,-0.8172669648916113,-2.8251241014912685,-2.6953322720751074
1770448147108,128,0,-0.415845433916217,-2.1095789800333327,-2.3004374198683344
1770448147112,128,0,-0.0691010183945746,-1.945262537043656,-1.9598998272831043
1770448147116,128,0,0.2915726914161016,-1.7939077827697538,-1.6057447213325282
1770448147120,129,1,0.7293923633860611,-1.0733288703071937,-1.175190084711657
1770448147124,129,1,1.2370347163013813,-0.7659662897546586,-0.6756079187899835
1770448147128,130,2,1.717635956124595,-0.1879237080182809,-0.2034630828696846
1770448147132,130,2,2.028768694794345,0.1422384721850824,0.0994124912992013
1770448147136,130,2,2.061136763924491,0.1350749200393242,0.1240776354516648
1770448147140,130,2,1.7998827142049538,-0.0437052760982252,-0.1443660113572935
1770448147144,129,1,1.3277703464325938,-0.736808748998341,-0.6233934160651486
1770448147148,129,1,0.7710193036561772,-1.295562329359354,-1.1870574717915527
1770448147152,128,0,0.231459287270894,-1.6665281577277276,-1.7338078074318304
1770448147156,128,0,-0.2459757558320825,-2.1117276289160563,-2.218885098892778
1770448147160,127,-1,-0.6592227935733599,-2.7658042602923065,-2.6402030730020423
1770448147164,127,-1,-1.016713247434193,-3.009969377529036,-3.0060661681136827
1770448147168,127,-1,-1.3197073777656574,-3.070922697939438,-3.317483614843538
1770448147172,126,-2,-1.5710019563788389,-3.811122444066039,-3.576777943669541
1770448147176,126,-2,-1.7945005307876132,-4.05444388408848,-3.807605465746665
1770448147180,126,-2,-2.0326577360739018,-3.727021590990416,-4.052969909155282
1770448147184,126,-2,-2.308563213131116,-4.13610310485023,-4.336710039503707
1770448147188,125,-3,-2.5910596899362375,-4.886881920315264,-4.627467194460228
1770448147192,125,-3,-2.812339183529171,-5.0195460175237745,-4.856582806342281
1770448147196,125,-3,-2.925616062499074,-4.844498786366401,-4.977198098136845
1770448147200,125,-3,-2.9399095386127385,-4.911384150055226,-4.999222483782756
1770448147204,125,-3,-2.9019963358674876,-4.986832777832933,-4.969922262109106
1770448147208,125,-3,-2.8576393014519654,-4.995418101403338,-4.934404725706033
1770448147212,125,-3,-2.831652754169711,-4.951424243470626,-4.916581036462426
1770448147216,125,-3,-2.8293554808573624,-4.877675626085626,-4.921726680230096
1770448147220,125,-3,-2.8419841126481113,-4.90050031837073,-4.941766622281553
1770448147224,125,-3,-2.8512382637076996,-4.97643336193854,-4.958883729509463
1770448147228,125,-3,-2.8401816091563843,-5.0174479085019055,-4.955996696068828
1770448147232,125,-3,-2.8085747914569374,-4.927009104107206,-4.932561472063995
1770448147236,125,-3,-2.7775482146355035,-4.89674119747644,-4.9098038641765545
1770448147240,125,-3,-2.774156775568948,-4.887787384532115,-4.915165981166085
1770448147244,125,-3,-2.8056829414316864,-4.965606067909196,-4.9559543373647585
1770448147248,125,-3,-2.8438429868824366,-5.05737767832933,-5.00302215950156
1770448147252,125,-3,-2.8317755279208954,-4.859346056945081,-4.99800831333631
1770448147256,125,-3,-2.7124263768108294,-4.986374923163439,-4.883064509006855
1770448147260,125,-3,-2.464654048470477,-4.779796021045964,-4.638745595682252
1770448147264,126,-2,-2.1263427657621694,-4.06303305646943,-4.307261299584453
1770448147268,126,-2,-1.7889620074867687,-3.986049427917764,-3.9838800169844646
1770448147272,126,-2,-1.559110078779549,-3.895383797268574,-3.773970864301373
1770448147276,126,-2,-1.474828543829236,-3.990243733011919,-3.7082923214564327
1770448147280,126,-2,-1.351502804210143,-3.7364736291528624,-3.5936129871582345
1770448147284,128,0,-0.5862433756953558,-2.1266814076779754,-2.823942768680247
1770448147288,130,2,1.9130592387855392,0.0970616335708527,-0.312651864696801
1770448147292,135,7,7.432993320838108,5.025282350118925,5.215765362600422
1770448147296,144,16,16.727687444278704,14.090138945305974,14.505257851117037
1770448147300,156,28,29.17865593996172,26.2100502492593,26.934088250653755
1770448147304,170,42,42.4371331871405,39.91444932232712,40.159566920445585
1770448147308,181,53,52.9985792837406,51.08366126624495,50.6897523871469
1770448147312,186,58,57.6031496517255,55.98891157858522,55.27697447056401
1770448147316,183,55,54.75741952147671,53.09472370595149,52.432488807710016
1770448147320,173,45,45.48393368506423,43.179416736800235,43.173435659197814
1770448147324,160,32,32.81557169814058,29.90926921957864,30.52070173097782
1770448147328,147,19,20.31846810095847,17.17996251799273,18.02876809879798
1770448147332,138,10,10.526029761243096,7.868867040436113,8.225626401074596
1770448147336,132,4,4.169584867106021,2.3259717053101205,1.845515368598172
1770448147340,129,1,0.5004347244746921,-1.1124653888288316,-1.850980140376716
1770448147344,126,-2,-1.7344282796517652,-3.7470663718289288,-4.106227907551247
1770448147348,124,-4,-3.4251877940109345,-6.215279979058651,-5.804600464247052
1770448147352,122,-6,-4.8305637658089235,-7.723658947180219,-7.207517519550983
1770448147356,122,-6,-5.844183719037005,-8.083659019803989,-8.217431127587428
1770448147360,121,-7,-6.38864570093279,-8.700960537014817,-8.764685316084549
1770448147364,121,-7,-6.595822642044229,-9.13825034555116,-8.982335865941602
1770448147368,121,-7,-6.715587068563039,-8.842550932678687,-9.115875710912558
1770448147372,121,-7,-6.9140421603118405,-9.08754717877234,-9.326463604398668
1770448147376,120,-8,-7.161795041680058,-9.739787935503395,-9.582639566443738
1770448147380,120,-8,-7.302572671037342,-10.010221182915744,-9.729051593725542
1770448147384,120,-8,-7.224092969652677,-9.843676473788378,-9.655848922343155
1770448147388,121,-7,-6.962695147687892,-9.122178354299546,-9.401517293180415
1770448147392,121,-7,-6.650245196625031,-8.810825544677842,-9.098178812042669
1770448147396,121,-7,-6.376646342619456,-9.02734843142245,-8.833991581961296
1770448147400,121,-7,-6.1138444842191815,-8.690345555482224,-8.579139878709514
1770448147404,122,-6,-5.76309967258315,-8.19373366217938,-8.235064018883286
1770448147408,122,-6,-5.262996352622039,-7.743298926498626,-7.741933990228398
1770448147412,123,-5,-4.659266070527137,-7.199846232846331,-7.146325422042144
1770448147416,123,-5,-4.087412839344709,-6.636754082366751,-6.583047277918328
1770448147420,124,-4,-3.6847115271859945,-6.0501657155958615,-6.188391662515254
1770448147424,124,-4,-3.4926403075093635,-5.886645622305576,-6.003745544276885
1770448147428,124,-4,-3.422741602554656,-5.97642996405564,-5.941098305316028
1770448147432,124,-4,-3.3192971002050355,-6.050881608609361,-5.8448320242399685
1770448147436,124,-4,-3.072324178714008,-5.686624835884823,-5.604745009390813
1770448147440,125,-3,-2.6843087499715717,-5.080628195404685,-5.223490020547688
1770448147444,125,-3,-2.2347624356307625,-4.780981049493252,-4.781272386028037
1770448147448,126,-2,-1.7857464738511886,-4.130414682059902,-4.34054213691873
1770448147452,126,-2,-1.3285008689550004,-3.866338815196208,-3.8918327357614584
1770448147456,126,-2,-0.8246938145513549,-3.8818542454302536,-3.395575443042902
1770448147460,127,-1,-0.2885589307884135,-2.879768667466888,-2.8658003798328666
1770448147464,128,0,0.1955610412194485,-1.9705781303318803,-2.3880369587473806
1770448147468,128,0,0.5513869314503713,-1.9381914847755897,-2.0394581207908784
1770448147472,128,0,0.79699430525095,-2.061680208004095,-1.80132273357293
1770448147476,128,0,1.040141490437875,-1.672644681565912,-1.5648271152587463
1770448147480,129,1,1.390480383840662,-1.1152263681383086,-1.220612965331051
1770448147484,129,1,1.8787251976864283,-0.6930115858876444,-0.7391470434453749
1770448147488,130,2,2.445242161668232,-0.2275932930093671,-0.1803787914275512
1770448147492,130,2,2.9889318228353696,0.2401576716465587,0.3555188655854056
1770448147496,131,3,3.4337027384135657,1.0246373825337556,0.7933981808917974
1770448147500,131,3,3.772477488464204,1.163870754183515,1.1262118283458251
1770448147504,131,3,4.062686126736724,1.074924372501917,1.4107140462518295
1770448147508,132,4,4.376695406221647,1.9739987026749333,1.718587741561752
1770448147512,132,4,4.744836444477697,2.0877623961856946,2.08001710501126
1770448147516,132,4,5.133065563983305,2.124297957302197,2.461344227421612
1770448147520,133,5,5.469276786462862,3.1065646080104443,2.790830442190839
1770448147524,133,5,5.697521843772993,3.1192628581005892,3.012594974151091
1770448147528,133,5,5.815330837243987,2.9399590138886005,3.1242654534629244
1770448147532,133,5,5.858753568368286,3.149244682184172,3.162051834892008
1770448147536,133,5,5.850619631017926,3.0141368682118115,3.148480974697556
1770448147540,133,5,5.767112284207319,3.261468686959628,3.0590273502866867
1770448147544,133,5,5.55300896612074,2.950317043980199,2.838292814974414
1770448147548,132,4,5.16056657260628,2.1295811121446,2.439272398397259
1770448147552,132,4,4.5732796428190605,1.966131085148112,1.846179065618755
1770448147556,131,3,3.8069962629553142,1.1758965771697518,1.074706479822105
1770448147560,130,2,2.9006257337448327,0.1069953136500321,0.163189982348352
1770448147564,129,1,1.9002257718236304,-0.8625155611193878,-0.8425170865971019
1770448147568,128,0,0.8396424293377018,-2.0815291946500256,-1.908547202034356
1770448147572,127,-1,-0.2659433418897858,-2.774489767827881,-3.0199134501300033
1770448147576,126,-2,-1.4045274535833745,-4.1446298515576885,-4.164656080392724
1770448147580,124,-4,-2.5480534736236713,-5.518846473314046,-5.314049012009959
1770448147584,124,-4,-3.651980449108243,-6.254990854698462,-6.422685353266434
1770448147588,122,-6,-4.6684601224270414,-7.659844625711161,-7.442880576916079
1770448147592,122,-6,-5.551488513191234,-8.20235198432383,-8.33000961986847
1770448147596,121,-7,-6.253385134432616,-8.727815268943349,-9.037469960745234
1770448147600,120,-8,-6.737852903385062,-9.909292898127267,-9.52825560511217
1770448147604,120,-8,-7.0177091972375925,-9.888178069357195,-9.81342833555314
1770448147608,120,-8,-7.175246468791473,-9.957470981236408,-9.974800868778342
1770448147612,120,-8,-7.316300915527004,-9.985105007669873,-10.119707429369155
1770448147616,120,-8,-7.482825288970845,-9.858037119321349,-10.291406594260952
1770448147620,119,-9,-7.618208127956968,-10.855704656661658,-10.43234650664052
1770448147624,119,-9,-7.635452767548578,-10.87424658729658,-10.453582507519084
1770448147628,120,-8,-7.515085701177051,-9.989169918346663,-10.335626249229648
1770448147632,120,-8,-7.318481511054134,-9.953484236589324,-10.1420665596613
1770448147636,120,-8,-7.109755495451761,-9.861651011340395,-9.938558108462171
1770448147640,120,-8,-6.894083407561602,-9.876486071670657,-9.729120676500768
1770448147644,120,-8,-6.648011602084704,-9.82611349679384,-9.487945654631368
1770448147648,121,-7,-6.389645354521281,-9.053792749448892,-9.232364322504408
1770448147652,121,-7,-6.186576695728612,-8.857614127213917,-9.031359198829255
1770448147656,121,-7,-6.083780456679454,-8.972453884515476,-8.931604784517912
1770448147660,121,-7,-6.037416453783695,-8.736623859520828,-8.889488792966075
1770448147664,121,-7,-5.938811496239727,-8.991707167181962,-8.795208809064778
1770448147668,121,-7,-5.714125895199462,-8.871589229720879,-8.573956463064686
1770448147672,122,-6,-5.400346995704914,-8.024908844172673,-8.262995285024555
1770448147676,122,-6,-5.118193961044085,-7.803644786854813,-7.9839943278859105
1770448147680,122,-6,-4.968406015970885,-7.88450195425081,-7.837938348299414
1770448147684,122,-6,-4.954547913304848,-7.866446423214986,-7.827642920125461
1770448147688,122,-6,-4.999870737709962,-7.983368986839907,-7.875687270315848
1770448147692,122,-6,-5.027182560719136,-7.915389193642028,-7.905130153881049
1770448147696,122,-6,-5.01912222014567,-7.874988082751823,-7.899394657793305
1770448147700,122,-6,-5.010279213952485,-7.833563973759403,-7.893489064436882
1770448147704,122,-6,-5.031415060388447,-7.885995155270307,-7.917908905096097
1770448147708,122,-6,-5.063582917290578,-8.010134792774156,-7.953105457572335
1770448147712,122,-6,-5.043428252069049,-7.833843243272339,-7.93522367124175
1770448147716,122,-6,-4.9136500535257905,-7.972447498795555,-7.806890949292537
1770448147720,122,-6,-4.673281073902797,-7.710717868744318,-7.567806546967702
1770448147724,123,-5,-4.381102886662853,-7.005456964351941,-7.277916182496668
1770448147728,123,-5,-4.109646228826922,-6.925258102540939,-7.010137794458784
1770448147732,123,-5,-3.899850217368924,-6.856744024883788,-6.8040130568736465
1770448147736,123,-5,-3.7621926428539534,-6.990823572494239,-6.668047973745142
1770448147740,123,-5,-3.704261752647932,-6.635297726076788,-6.609810978297778
1770448147744,124,-4,-3.728245804567844,-6.118415475333509,-6.6337965410431945
1770448147748,123,-5,-3.797139137686463,-6.797935753453301,-6.704875806468053
1770448147752,123,-5,-3.835890237110635,-6.961635411942979,-6.747135752922957
1770448147756,123,-5,-3.7977244484751767,-6.899498539813582,-6.71149001194018
1770448147760,123,-5,-3.723710207277826,-6.687084011828749,-6.638229981921378
1770448147764,124,-4,-3.707326354990915,-6.104104472091284,-6.622193027945067
1770448147768,123,-5,-3.786458333686639,-6.765960044625693,-6.702529816900504
1770448147772,123,-5,-3.8830994691079215,-7.020009985084225,-6.800750783591465
1770448147776,123,-5,-3.864989387312428,-6.806364700433481,-6.783422015964514
1770448147780,123,-5,-3.667686895805258,-6.792412987226787,-6.586164667591672
1770448147784,124,-4,-3.3532601608846133,-5.995213196170084,-6.2723676121658105
1770448147788,124,-4,-3.05612019188013,-5.835125584495298,-5.9772143510049425
1770448147792,124,-4,-2.8808218782833057,-5.9890235058699215,-5.804330689638695
1770448147796,124,-4,-2.846578833972462,-5.781342238118945,-5.771293920580588
1770448147800,124,-4,-2.9058073432366607,-5.870057728091051,-5.830004410204435
1770448147804,124,-4,-2.9916769107898613,-5.871958874912387,-5.914693455785411
1770448147808,124,-4,-3.0459726238243494,-5.955616880806429,-5.968564948898052
1770448147812,124,-4,-3.0224942561089336,-5.865898444388115,-5.945855595994141
1770448147816,124,-4,-2.889767988500301,-5.880489859704723,-5.814433723630618
1770448147820,124,-4,-2.644148868905499,-5.803089799907313,-5.569818122389432
1770448147824,125,-3,-2.317243181552408,-4.901387618681246,-5.243287008618424
1770448147828,125,-3,-1.9606056754129104,-4.922122236531763,-4.886426158332857
1770448147832,125,-3,-1.6161009872991436,-4.895300922937157,-4.541280918043331
1770448147836,126,-2,-1.2936237533973711,-3.827913947592244,-4.218242497493458
1770448147840,126,-2,-0.9685430845272802,-3.8929434045964464,-3.893208936114633
1770448147844,126,-2,-0.6026631164498388,-3.7702245724077295,-3.527781705820397
1770448147848,127,-1,-0.1807664661462231,-3.049184964459106,-3.10590537491084
1770448147852,127,-1,0.2685914630571848,-2.760535766977575,-2.655733208209982
1770448147856,128,0,0.6962903098108959,-1.949290570385004,-2.2268743695317665
1770448147860,128,0,1.079178104288574,-1.7917143102342292,-1.8431327690883368
1770448147864,128,0,1.4338397529757336,-1.8407659694752496,-1.4880779246370253
1770448147868,129,1,1.7755724665987214,-0.983406969935026,-1.1462307261379965
1770448147872,129,1,2.065353164740796,-0.7921861516765176,-0.8563741703678986
1770448147876,129,1,2.2036518228765667,-0.9467002616104554,-0.7177467161194695
1770448147880,129,1,2.086692072552353,-0.7576408384994759,-0.8339462735801484
1770448147884,129,1,1.6875547115588625,-0.9008245408679788,-1.2319316572379249
1770448147888,128,0,1.0969617172270911,-1.881340170918364,-1.8209487644806843
1770448147892,127,-1,0.4793325420211451,-2.9035371302806707,-2.436595167072269
1770448147896,127,-1,-0.0268730336470457,-2.8206361643049416,-2.9411012409734383
1770448147900,127,-1,-0.3788632665157454,-2.889289499461441,-3.2925636210048888
1770448147904,126,-2,-0.6210323303148684,-3.745549889818501,-3.5349760570878273
1770448147908,126,-2,-0.8306411121593491,-4.031885208799901,-3.7440505850022023
1770448147912,126,-2,-1.066677718909978,-3.7345881887346626,-3.97817027625658
1770448147916,126,-2,-1.3376733026059056,-4.003385612200056,-4.246970338342779
1770448147920,125,-3,-1.5999515091057253,-4.697789618614417,-4.507795267876257
1770448147924,125,-3,-1.8018466945758755,-4.908430923839623,-4.708568569810345
1770448147928,125,-3,-1.9451159583731343,-4.886723469414031,-4.8502732893754725
1770448147932,125,-3,-2.0944447651236073,-4.828410949286786,-4.9978292985244135
1770448147936,125,-3,-2.3127655553243156,-4.963243148487431,-5.21482910416071
1770448147940,124,-4,-2.590222954800347,-5.671640798789419,-5.4911678156697885
1770448147944,124,-4,-2.847143194638382,-5.974804170453192,-5.746261798699824
1770448147948,124,-4,-3.0055024452924277,-5.775935284280882,-5.901980341886279
1770448147952,124,-4,-3.049056083946678,-5.9396806293356175,-5.94313088089787
1770448147956,124,-4,-3.0165228599038136,-5.86895874027828,-5.909297061958021
1770448147960,124,-4,-2.950964843915079,-5.697329503134046,-5.8430312140118605
1770448147964,124,-4,-2.8644772011167836,-6.026908501615315,-5.755069491596242
1770448147968,124,-4,-2.7443840931606553,-5.620749942920741,-5.632072520349968
1770448147972,125,-3,-2.579819384048546,-5.1760615801882714,-5.46393196651367
1770448147976,124,-4,-2.379537192655066,-5.551828670799391,-5.260867453608518
1770448147980,125,-3,-2.1739034539082827,-5.049924688355791,-5.054235043966242
1770448147984,125,-3,-2.006085165737437,-4.646724110836183,-4.8868616166841985
1770448147988,125,-3,-1.9157340729749357,-4.992581934214163,-4.796448200562793
1770448147992,125,-3,-1.9200179847371064,-4.821952503663989,-4.797605417574882
1770448147996,125,-3,-1.9972345407139964,-4.840435150501599,-4.867856172982798
1770448148000,125,-3,-2.078438246999962,-4.835832294398891,-4.940985000714192
1770448148004,125,-3,-2.0644869785468716,-4.744748446656897,-4.922812451184931
1770448148008,125,-3,-1.8847517305199968,-5.008508965803701,-4.746090793471757
1770448148012,125,-3,-1.5622873872729564,-4.672858703221451,-4.432361161968734
1770448148016,126,-2,-1.185315902350422,-4.094460447244812,-4.063382567397798
1770448148020,126,-2,-0.7086841194251416,-3.472780702833382,-3.586224344997296
1770448148024,128,0,0.3384383675688145,-2.1749989423709835,-2.526290874812644
1770448148028,130,2,2.9888268945482244,0.4874771956398183,0.14542547268013
1770448148032,136,8,8.552440172830265,5.80637985928157,5.7288295020378985
1770448148036,144,16,17.87728082597099,14.459972921794405,15.061392396811677
1770448148040,157,29,30.49436524117431,26.9982460797082,27.669788732175817
1770448148044,171,43,44.22430213978609,41.35345339645883,41.37961167741427
1770448148048,183,55,55.676664696264424,52.99672859669545,52.81220773784674
1770448148052,189,61,61.555311705644485,59.22926907863198,58.68311986680006
1770448148056,188,60,60.12497142331876,58.06665000586055,57.26191310405365
1770448148060,179,51,52.00474560648819,49.29722685411889,49.163578929452314
1770448148064,166,38,39.80827423676774,36.129967391085366,36.99180044602887
1770448148068,153,25,26.85266208253848,23.180696939437535,24.053170945614035
1770448148072,143,15,15.729709151907358,13.15769007258776,12.93338520607264
1770448148076,135,7,7.541614895543881,5.126298697622209,4.7360802461265115
1770448148080,129,1,2.0624133451168447,-0.6892070870392728,-0.756640115403024
1770448148084,126,-2,-1.5339984169358545,-3.9171416554239658,-4.361591471981896
1770448148088,123,-5,-3.9776846294471246,-6.747535093098792,-6.8041478523458245
1770448148092,121,-7,-5.629152360167929,-8.943118038777843,-8.44635826051497
1770448148096,120,-8,-6.618030769178575,-9.721480079573782,-9.42318112704998
1770448148100,120,-8,-7.09603146917425,-9.864102611567908,-9.891906995566108
1770448148104,120,-8,-7.315541552683105,-9.70205701616466,-10.10790000283342
1770448148108,120,-8,-7.497876741908046,-9.991753242735877,-10.291374068969487
1770448148112,119,-9,-7.688309188645234,-10.67420322818492,-10.48337372111346
1770448148116,119,-9,-7.781813427926089,-10.987280486884975,-10.574968105431829
1770448148120,119,-9,-7.689529318633221,-10.589663060549809,-10.477017145487403
1770448148124,120,-8,-7.457718237399885,-9.94137801627332,-10.23896662957444
1770448148128,120,-8,-7.219195512486191,-9.783279712697963,-9.996743221088993
1770448148132,120,-8,-7.051694744495005,-9.815833362721552,-9.828073175553149
1770448148136,120,-8,-6.907469146692797,-9.912839588814991,-9.682657027802549
1770448148140,120,-8,-6.679686315252713,-9.581500166484428,-9.451589362837804
1770448148144,121,-7,-6.318924288835856,-9.000944149140425,-9.085787725953573
1770448148148,121,-7,-5.875362755165643,-8.658986206544546,-8.63737990906296
1770448148152,122,-6,-5.43646017548937,-7.950732274717062,-8.195250253287185
1770448148156,122,-6,-5.039103884631038,-7.780082071844277,-7.795952444537958
1770448148160,122,-6,-4.650524215596683,-7.681562265580296,-7.405192631695835
1770448148164,123,-5,-4.230262882633342,-6.9377943988563215,-6.981410780444536
1770448148168,123,-5,-3.7969320720235737,-6.637160162270483,-6.543587122013879
1770448148172,124,-4,-3.4213276236361514,-6.035671271483197,-6.163825033371539
1770448148176,124,-4,-3.1512479572008174,-5.607058270662856,-5.890660460945201
1770448148180,124,-4,-2.9502148501106844,-5.932858303808402,-5.686976421901029
1770448148184,124,-4,-2.7177967490614394,-5.60812750807214,-5.451173177669332
1770448148188,125,-3,-2.3704100065842124,-5.000743594970846,-5.099413373546401
1770448148192,125,-3,-1.9003379699674348,-4.618558017390793,-4.624884807455688
1770448148196,126,-2,-1.3628708892863708,-4.038907397924879,-4.083852861208319
1770448148200,126,-2,-0.81867639433859,-3.479737664748229,-3.537051089315917
1770448148204,127,-1,-0.2929675441916848,-3.0698783169056014,-3.008869081405636
1770448148208,127,-1,0.217349420006039,-2.5169670086975193,-2.4952217187772643
1770448148212,128,0,0.7096992438799608,-2.0745614810286472,-1.9983674818469193
1770448148216,128,0,1.1607741145560728,-1.6054080293680708,-1.5423766856509942
1770448148220,129,1,1.551895573253181,-0.8496752577294688,-1.147158178572849
1770448148224,129,1,1.904743264671937,-0.7762334942640225,-0.7913804733587253
1770448148228,129,1,2.275352460193913,-0.697098425467559,-0.4179449714841419
1770448148232,130,2,2.6989951812741726,0.0181825913137485,0.0096260291409668
1770448148236,130,2,3.1449707738845816,0.415319029457879,0.4603570291229393
1770448148240,131,3,3.539819551250619,1.0409846139201524,0.8593090168913045
1770448148244,131,3,3.839025158931678,1.425560706643067,1.1612996778069875
1770448148248,131,3,4.066125106881751,1.0490836419643743,1.391069662851932
1770448148252,131,3,4.276863199413187,1.3266088461629968,1.6058865510175735
1770448148256,132,4,4.500139638872254,2.10031491835355,1.8344237062409627
1770448148260,132,4,4.731083628959539,2.360338223728369,2.0702584340799426
1770448148264,132,4,4.970990376515072,2.1428060422337394,2.3139602272617164
1770448148268,132,4,5.242983643004957,2.3153005557760893,2.5893197273651567
1770448148272,133,5,5.554422183459757,3.0948341049500905,2.9043515135445204
1770448148276,133,5,5.853569268914526,3.320944284274067,3.207240681054804
1770448148280,133,5,6.030817188531319,3.1685320130300236,3.388270705942261
1770448148284,133,5,5.964040720197223,3.3425403288117144,3.3254931285191502
1770448148288,133,5,5.577838119116606,3.1300724365537125,2.9434479174668633
1770448148292,132,4,4.883159276365277,2.2711639404488104,2.2528039962818127
1770448148296,131,3,3.968639216407469,1.1825118309722265,1.3423405252290772
1770448148300,130,2,2.9437064049408512,0.2819553686652312,0.3220177241343833
1770448148304,129,1,1.8784372184681528,-0.6989953940864226,-0.7380744517495765
1770448148308,128,0,0.7921006975808502,-1.8843448633879736,-1.8195991975238053
1770448148312,127,-1,-0.3082438948187675,-2.6363393668842976,-2.916441150375408
1770448148316,126,-2,-1.3925126566074997,-3.960243665831856,-3.9981250664859775
1770448148320,124,-4,-2.4227180540356557,-5.515632567060491,-5.025081995317677
1770448148324,124,-4,-3.3968697898999825,-5.9124942995476655,-5.994396884713575
1770448148328,123,-5,-4.3512256671725105,-6.6549280755487565,-6.9432045065231485
1770448148332,122,-6,-5.297670811463328,-7.842293226555987,-7.884817785142612
1770448148336,121,-7,-6.165888214871425,-8.765674854063342,-8.74905736061265
1770448148340,120,-8,-6.829720985667797,-9.664687636010846,-9.408763938897351
1770448148344,120,-8,-7.202519928358677,-9.797266919103816,-9.776783512383734
1770448148348,120,-8,-7.307429956492365,-9.70537682083603,-9.87690320258589
1770448148352,120,-8,-7.258451725545943,-9.823386294435084,-9.82388101204739
1770448148356,120,-8,-7.180139278157418,-9.730743490784135,-9.74210744419721
1770448148360,120,-8,-7.141391824364868,-9.720357531775983,-9.699647608668045
1770448148364,120,-8,-7.147357870108287,-9.7264164887657,-9.701046705769798
1770448148368,120,-8,-7.174850591613395,-9.7545292572187,-9.723182469760877
1770448148372,120,-8,-7.207755768687862,-9.773006606581744,-9.750532092773511
1770448148376,120,-8,-7.241816773809217,-9.740619519982124,-9.77961190211317
1770448148380,120,-8,-7.263404717103124,-9.733542435551628,-9.797216148019004
1770448148384,120,-8,-7.235145077301906,-9.675342942393458,-9.76547270022797
1770448148388,120,-8,-7.1157722029530195,-9.821710855166298,-9.64191537230997
1770448148392,120,-8,-6.90009072743515,-9.655454556141311,-9.42078043202896
1770448148396,121,-7,-6.630255563340896,-8.873012700740624,-9.145211202382596
1770448148400,121,-7,-6.35596112823937,-8.565049514245459,-8.866314379748028
1770448148404,121,-7,-6.08954428382309,-8.859421196808412,-8.596351580165642
1770448148408,121,-7,-5.816064593267496,-8.60837194334831,-8.31894835783017
1770448148412,122,-6,-5.5442040717958445,-7.859309418258074,-8.041976878376992
1770448148416,122,-6,-5.324724787055507,-7.65907837296024,-7.816867879360908
1770448148420,122,-6,-5.20779947384357,-7.748695779768143,-7.694745966331962
1770448148424,122,-6,-5.191936811017738,-7.690397524670071,-7.674260563959688
1770448148428,122,-6,-5.22389413396365,-7.742205943281176,-7.701816451163557
1770448148432,122,-6,-5.24648602719395,-7.740973157032222,-7.720019716172092
1770448148436,122,-6,-5.244183117006484,-7.726500272370195,-7.713215478913504
1770448148440,122,-6,-5.245229134756123,-7.696826331668775,-7.709365352951555
1770448148444,122,-6,-5.2801709955013045,-7.699641470991393,-7.738851404343992
1770448148448,122,-6,-5.333387541994716,-7.760705197866013,-7.786400445274819
1770448148452,122,-6,-5.333380892374988,-7.675680667459272,-7.781146913881462
1770448148456,122,-6,-5.2010479915534145,-7.80183348053973,-7.644260533548626
1770448148460,122,-6,-4.924181667654347,-7.581075401934819,-7.36326399998476
1770448148464,123,-5,-4.590520737826429,-6.81889878480399,-7.025450159842973
1770448148468,123,-5,-4.336688899928712,-6.631109378440025,-6.767049779967893
1770448148472,123,-5,-4.247111160549796,-6.781900544280157,-6.672191612499826
1770448148476,123,-5,-4.287635836708475,-6.699497487943927,-6.706809045897465
1770448148480,123,-5,-4.328840104758356,-6.63825565672682,-6.742079498677902
1770448148484,123,-5,-4.240440718117739,-6.791551805722245,-6.6483291140534
1770448148488,123,-5,-3.986756256760194,-6.601477298353002,-6.390001095113235
1770448148492,124,-4,-3.651805105105685,-5.836969352975537,-6.050871545049855
1770448148496,124,-4,-3.3733311898037357,-5.591793869173916,-5.768274229231365
1770448148500,124,-4,-3.2406737760310276,-5.755495894130887,-5.63096844021913
1770448148504,124,-4,-3.242651591456236,-5.658958403730155,-5.627384674772368
1770448148508,124,-4,-3.2998829442871767,-5.716957738586945,-5.678525462142579
1770448148512,124,-4,-3.338252717710199,-5.7285790994349615,-5.71123067294079
1770448148516,124,-4,-3.3371691205277223,-5.643744506043328,-5.705419305221289
1770448148520,124,-4,-3.3239442050512475,-5.722334695547514,-5.687895823444561
1770448148524,124,-4,-3.332722455674126,-5.659200525099362,-5.691905152069117
1770448148528,124,-4,-3.365542509910905,-5.716212884661939,-5.719234976738431
1770448148532,124,-4,-3.3842632564964252,-5.730265337548147,-5.732306107782238
1770448148536,124,-4,-3.340151679606474,-5.580030625525839,-5.682944630571563
1770448148540,124,-4,-3.2221291489314057,-5.823114406601189,-5.560048474754314
1770448148544,124,-4,-3.0836016490522216,-5.493574961647335,-5.4167886139623285
1770448148548,125,-3,-3.014296384066633,-4.923225675004485,-5.3428594645112
1770448148552,124,-4,-3.071425860033194,-5.473929402897253,-5.395317045254653
1770448148556,124,-4,-3.2308784404687527,-5.824780971267101,-5.5496054227524585
1770448148560,124,-4,-3.4006823530822547,-5.578375852571984,-5.713660771337588
1770448148564,124,-4,-3.475640950775423,-5.690605879837532,-5.7828134060778
1770448148568,124,-4,-3.3856717196602464,-5.784888597627785,-5.687387798603856
1770448148572,124,-4,-3.115554236946738,-5.493367429892809,-5.412042693876085
1770448148576,125,-3,-2.6976134971469556,-4.899871276610034,-4.98907185872026
1770448148580,125,-3,-2.186032975436744,-4.370347965458407,-4.473058332896116
1770448148584,126,-2,-1.6316154617778609,-4.000018022942535,-3.9148847045373056
1770448148588,126,-2,-1.077042346471362,-3.384090208361714,-3.3563343093218525
1770448148592,127,-1,-0.5667058184652127,-2.9152679863199165,-2.840622417335716
1770448148596,127,-1,-0.1402780869311257,-2.463533034685045,-2.4073822449840607
1770448148600,128,0,0.202721583604128,-1.743096497895845,-2.0575481764745005
1770448148604,128,0,0.5297722829157507,-1.7017123720434162,-1.7251019679780877
1770448148608,128,0,0.9380734020648656,-1.569747759607946,-1.3128257795880498
1770448148612,129,1,1.4556484469846898,-0.8170401332208286,-0.791454940991319
1770448148616,129,1,1.9676491569949317,-0.4435291701783392,-0.2750343453783541
1770448148620,130,2,2.2603816159178147,0.1742939119918229,0.0223001307031047
1770448148624,130,2,2.171332781260544,0.4464474947410322,-0.0624626538574881
1770448148628,129,1,1.7182199538303045,-0.7339456776661133,-0.5107858563362306
1770448148632,128,0,1.0870777898787607,-1.6517886481606192,-1.1354374939434022
1770448148636,128,0,0.4971690516031664,-1.5456992274747514,-1.71783110459551
1770448148640,128,0,0.0741414007138043,-1.7699032926437184,-2.134750313446415
1770448148644,127,-1,-0.1780669791803957,-2.5123807828431985,-2.3835927361643963
1770448148648,127,-1,-0.3333666422085075,-2.830263336548269,-2.536921655743792
1770448148652,127,-1,-0.4905350227131144,-2.5036829201967836,-2.6911228974731323
1770448148656,127,-1,-0.7296657630391556,-2.6986898648597277,-2.9250741851536723
1770448148660,126,-2,-1.076594094607065,-3.6009281185247852,-3.265085510777965
1770448148664,126,-2,-1.4897776911438811,-3.6337796180377504,-3.671214618399606
1770448148668,126,-2,-1.8816522431538896,-3.732745855115646,-4.057634005858992
1770448148672,125,-3,-2.1680539135460144,-4.566485280004867,-4.340646967037984
1770448148676,125,-3,-2.32644246053545,-4.638407468830941,-4.496348503043733
1770448148680,125,-3,-2.425195810996974,-4.622908337771403,-4.591296624575312
1770448148684,125,-3,-2.5818395324804,-4.601671588696378,-4.742565323042772
1770448148688,125,-3,-2.861355876628843,-4.743867008111723,-5.01616243244057
1770448148692,124,-4,-3.1998889660599956,-5.5612195941401374,-5.34936448823988
1770448148696,124,-4,-3.4364125964108116,-5.619485774687016,-5.581370153043849
1770448148700,124,-4,-3.4376308656706116,-5.624399172712253,-5.578378764680459
1770448148704,124,-4,-3.2081531145225126,-5.576451919742562,-5.344547703580892
1770448148708,125,-3,-2.8855842064980557,-4.7483927658000304,-5.017566110189509
1770448148712,125,-3,-2.622911486642524,-4.5554691573370985,-4.750717117770897
1770448148716,125,-3,-2.465572634960618,-4.60854601819058,-4.58924094616671
1770448148720,125,-3,-2.337388194554368,-4.622919637376546,-4.456360139902225
1770448148724,125,-3,-2.14220355879168,-4.548173950211783,-4.25597709388532
1770448148728,126,-2,-1.872050004018488,-3.7748793593694865,-3.9812106544484296
1770448148732,126,-2,-1.6140313096349472,-3.4939233966165393,-3.7198742039631782
1770448148736,126,-2,-1.4624993755439184,-3.6771446112151582,-3.5651309462567107
1770448148740,126,-2,-1.4367113410225236,-3.526214124874277,-3.5340172271523107
1770448148744,126,-2,-1.4809761796859109,-3.6214579253739183,-3.57041978614682
1770448148748,126,-2,-1.5319371995293012,-3.721480968667241,-3.613877688416976
1770448148752,126,-2,-1.581529547610782,-3.465491947124902,-3.660502666479699
1770448148756,126,-2,-1.6785911123459702,-3.7723672515787574,-3.7605172540088
1770448148760,125,-3,-1.852741981580162,-4.320229119546943,-3.9399358210316207
1770448148764,126,-2,-1.9711982207962773,-3.9098958354458206,-4.059352806609453
1770448148768,126,-2,-1.5724327415539814,-3.3291421259484264,-3.652220273564538
1770448148772,128,0,0.2133979537998045,-1.908288891599279,-1.8490985283807992
1770448148776,132,4,4.505058012338804,2.74229435873945,2.4624121326421475
1770448148780,140,12,12.199414167996078,10.176896695719329,10.170183213838923
1770448148784,150,22,23.32411937008601,20.58228845365729,21.29568274401607
1770448148788,164,36,36.55975398906365,34.27733376545129,34.520133821954104
1770448148792,177,49,49.3150351545183,47.393346205367806,47.25961810895515
1770448148796,186,58,58.49778130052229,56.57573007229133,56.43188037493152
1770448148800,190,62,61.70304876399969,60.190034931710194,59.63880343088255
1770448148804,186,58,58.22103250178437,56.68634468231449,56.17080183659517
1770448148808,177,49,49.30099698245636,47.04131351483572,47.271482285497
1770448148812,164,36,37.514227377161056,34.75586392421076,35.50411284356741
1770448148816,153,25,25.59700357390847,23.18717112721179,23.598178649155493
1770448148820,143,15,15.4473533187696,13.659355165067748,13.44889152312523
1770448148824,136,8,7.768967432704288,6.2638715762466015,5.762727202347166
1770448148828,130,2,2.3623558151963735,0.4465437083522863,0.3473101652094987
1770448148832,126,-2,-1.323494138149985,-3.5687275656911384,-3.3416215293614355
1770448148836,124,-4,-3.7822565872829457,-5.567721276804974,-5.795827276892398
1770448148840,122,-6,-5.33756836076017,-7.465732566601222,-7.341954400818517
1770448148844,121,-7,-6.2307873445199125,-8.70303218622427,-8.225853017811964
1770448148848,121,-7,-6.718708697397971,-8.455471995913703,-8.707382274337759
1770448148852,121,-7,-7.055923937141831,-8.76457870424307,-9.041912811190372
1770448148856,120,-8,-7.390204357040689,-9.27809577701974,-9.375774596962328
1770448148860,120,-8,-7.706211899305065,-9.78763831784878,-9.690818737903433
1770448148864,119,-9,-7.9004398808009615,-10.343151347506897,-9.88150681564044
1770448148868,120,-8,-7.916709907229145,-9.78787250746409,-9.8923016188106
1770448148872,120,-8,-7.802274057181496,-9.446244927232623,-9.772988344121766
1770448148876,120,-8,-7.642325220724517,-9.53675135669834,-9.610300945720454
1770448148880,120,-8,-7.468794371872661,-9.555165526767148,-9.435237177633113
1770448148884,120,-8,-7.249368746787648,-9.512717756758434,-9.21365834838648
1770448148888,121,-7,-6.951552517232287,-8.657773981021496,-8.9125036618564
1770448148892,121,-7,-6.5959477066451795,-8.500923519178972,-8.553083749442525
1770448148896,121,-7,-6.243657318017007,-8.513252300691505,-8.197179028893405
1770448148900,122,-6,-5.937791949546715,-7.510244968690177,-7.888055293222854
1770448148904,122,-6,-5.655656970932654,-7.583009024336805,-7.602966618207507
1770448148908,122,-6,-5.316547503746243,-7.5580850623199805,-7.261037901111385
1770448148912,123,-5,-4.846414568875656,-6.580203926052748,-6.78791487387025
1770448148916,123,-5,-4.247685195605459,-6.411902881242462,-6.185945045784949
1770448148920,124,-4,-3.6084047076881385,-5.597778145934393,-5.543624858102783
1770448148924,125,-3,-3.035937721770734,-4.45952571104342,-4.968815815296326
1770448148928,125,-3,-2.5744450138409016,-4.706194789170803,-4.505306028643291
1770448148932,125,-3,-2.1850041691984137,-4.377470553040309,-4.113043449521705
1770448148936,126,-2,-1.8015679894748289,-3.6135509095203626,-3.7255378976309945
1770448148940,126,-2,-1.3952745461267628,-3.3760271841730165,-3.3150025158784047
1770448148944,127,-1,-0.9827221899646033,-2.6452127122467775,-2.8994651212382454
1770448148948,127,-1,-0.5897167795558647,-2.5320499454812215,-2.5048594320240167
1770448148952,127,-1,-0.2259071884907477,-2.508876071536996,-2.1396673524793357
1770448148956,128,0,0.10858501781727,-1.486170667732261,-1.802904357753204
1770448148960,128,0,0.4118674865393235,-1.4610162201147303,-1.4962493701242938
1770448148964,128,0,0.6888990783152926,-1.5617444094363733,-1.2152424079375184
1770448148968,129,1,0.970874351883782,-0.5789245258779938,-0.929494107898897
1770448148972,129,1,1.3190690802093443,-0.4592178316526083,-0.5783761785033268
1770448148976,129,1,1.7947195527238589,-0.5214239833996128,-0.1006508694724712
1770448148980,130,2,2.405609571767506,0.6196900779265455,0.5120316816970583
1770448148984,131,3,3.075110464729014,1.3440588988583135,1.1835930446615088
1770448148988,131,3,3.674291394192916,1.5677444173178143,1.78530671358704
1770448148992,132,4,4.102700287649348,2.3777516621427437,2.2166333732016064
1770448148996,132,4,4.355941977725344,2.6863007146639606,2.47301516531912
1770448149000,132,4,4.523879568863604,2.403667693804908,2.644243588839867
1770448149004,132,4,4.7174185425701225,2.6110034120537393,2.841021046625022
1770448149008,133,5,4.985099850483241,3.288672651077317,3.111357896069164
1770448149012,133,5,5.289798193858445,3.7015106328018663,3.417923471662871
1770448149016,133,5,5.5522274704672645,3.368306683743821,3.682204047801556
1770448149020,133,5,5.708640137101624,3.7379181561695014,3.841365373544407
1770448149024,134,6,5.739457783961381,4.3156200382858545,3.875583729480932
1770448149028,133,5,5.662092459871717,3.5607141075146354,3.801243089175584
1770448149032,133,5,5.49542168197752,3.5005255004636213,3.636869282222147
1770448149036,133,5,5.2168173949598575,3.5421758821509313,3.360453900176514
1770448149040,132,4,4.752476255305741,2.620329689366811,2.898717598448638
1770448149044,132,4,4.024933950843042,2.4217608684703844,2.1739658702833373
1770448149048,131,3,3.023616750601993,1.4952661157236369,1.1752885895253549
1770448149052,129,1,1.827808631426295,-0.4290207974862436,-0.0177505400814341
1770448149056,128,0,0.5516634058249452,-1.5039835516398807,-1.2907184268577698
1770448149060,127,-1,-0.733664554334462,-2.30813064901749,-2.573090672555754
1770448149064,126,-2,-2.019968744506558,-3.65115933737785,-3.8574346625176528
1770448149068,124,-4,-3.3151101599749335,-5.374058725810386,-5.151080118753191
1770448149072,123,-5,-4.5899663334583165,-6.575114855243799,-6.4235214312672095
1770448149076,122,-6,-5.7637287333381755,-7.317244141142977,-7.593523992772696
1770448149080,121,-7,-6.724824147008768,-8.49194722279204,-8.550437541170293
1770448149084,120,-8,-7.375296556138382,-9.442126252072176,-9.197358982302536
1770448149088,120,-8,-7.685855841569807,-9.542973441737091,-9.505457457894275
1770448149092,120,-8,-7.726894546232102,-9.413087401853245,-9.545171087670123
1770448149096,120,-8,-7.641542025873235,-9.436262355148838,-9.459124183091982
1770448149100,120,-8,-7.573145565943975,-9.387346140979458,-9.38931768966959
1770448149104,120,-8,-7.596835377667462,-9.485223834730826,-9.40951118854353
1770448149108,120,-8,-7.691506689621763,-9.524850295110111,-9.498771229552062
1770448149112,120,-8,-7.756036511668803,-9.361908987909397,-9.558000432906168
1770448149116,120,-8,-7.66226731036934,-9.525760739311895,-9.461148595657829
1770448149120,120,-8,-7.334725115012315,-9.22702992821431,-9.132830287978848
1770448149124,121,-7,-6.823463223016122,-8.654255674060938,-8.621111873842324
1770448149128,121,-7,-6.309801554301599,-8.325477758494696,-8.10538291262754
1770448149132,122,-6,-6.008679056212561,-7.525128450014284,-7.800604724187572
1770448149136,122,-6,-6.017610470286913,-7.392664644896968,-7.805707687120972
1770448149140,121,-7,-6.236841570810249,-8.270432164304943,-8.021694096817889
1770448149144,121,-7,-6.446422224906511,-8.681188968824614,-8.228121776217392
1770448149148,121,-7,-6.479165478412804,-8.175640992194673,-8.257411320697695
1770448149152,122,-6,-6.329333085661766,-7.756918769082138,-8.104283460593694
1770448149156,121,-7,-6.108408917222609,-8.039754414256082,-7.88068234658399
1770448149160,122,-6,-5.914907614089601,-7.67727858408455,-7.684928455296222
1770448149164,122,-6,-5.749884015991248,-7.214225757585106,-7.517619114519646
1770448149168,122,-6,-5.544571339399719,-7.643296968892367,-7.309649261482734
1770448149172,122,-6,-5.259338404607419,-7.284141375028712,-7.02120666903226
1770448149176,123,-5,-4.950423573921504,-6.432561713685056,-6.708638965951692
1770448149180,123,-5,-4.73138851385841,-6.33774496640255,-6.485876742518185
1770448149184,123,-5,-4.663463832850947,-6.45211625308777,-6.414467374513663
1770448149188,123,-5,-4.686526309859817,-6.476902336817924,-6.434450277635802
1770448149192,123,-5,-4.663961530752286,-6.359545286234985,-6.409209856969179
1770448149196,123,-5,-4.505513539126205,-6.382046519960336,-6.248130537191373
1770448149200,123,-5,-4.259502734538604,-6.324151469582755,-5.999047244539972
1770448149204,124,-4,-4.084583760143979,-5.471897548760598,-5.820709811798747
1770448149208,124,-4,-4.1115878818834535,-5.428401668537903,-5.844528133799559
1770448149212,123,-5,-4.316230280610683,-6.398788040373361,-6.0462421231173415
1770448149216,123,-5,-4.528980658226725,-6.3191751414327255,-6.255563690161409
1770448149220,123,-5,-4.578364256770495,-6.346462404670487,-6.3006619621408735
1770448149224,123,-5,-4.429888035649637,-6.4637479070726584,-6.147952244153465
1770448149228,124,-4,-4.192045855826205,-5.3681731095086285,-5.907175185623501
1770448149232,124,-4,-3.9993628446864,-5.484184499737147,-5.712691871620885
1770448149236,123,-5,-3.8999168380120905,-6.17793181088782,-5.610880847682219
1770448149240,124,-4,-3.849523143957685,-5.488075728638906,-5.556411990689083
1770448149244,124,-4,-3.788437183339848,-5.3013620490056725,-5.490481998789801
1770448149248,124,-4,-3.704907160236755,-5.502930783724408,-5.403082602842204
1770448149252,124,-4,-3.635639188588829,-5.323940871185368,-5.3312496417533115
1770448149256,124,-4,-3.624524806283753,-5.315789611227032,-5.317652197451566
1770448149260,124,-4,-3.679273037560915,-5.340811534556861,-5.368902925175835
1770448149264,124,-4,-3.7518867141526,-5.424081655164603,-5.437114425091076
1770448149268,124,-4,-3.756653071186397,-5.362938631149927,-5.437387675032635
1770448149272,124,-4,-3.62236685856435,-5.423844740001042,-5.2990982641056465
