timestamp_ms,ecg_u8_raw,ecg_counts_raw_int,ecg_counts_filt_monitor,ecg_counts_filt_diagnostic,ecg_counts_filt_st
1769247158552,123,-5,-3.582571202234141,-5.830354050835505,-5.651116018445245
1769247158556,124,-4,-2.939042331744057,-4.801420299456183,-5.010962439498768
1769247158560,124,-4,-2.409445052348583,-4.6858120856731045,-4.48710980223473
1769247158564,124,-4,-2.1770307093022314,-4.760287123396992,-4.260599101878322
1769247158568,124,-4,-2.221177421624325,-4.741854178054421,-4.307881180046023
1769247158572,124,-4,-2.396558166951781,-4.839468358387991,-4.483181222422006
1769247158576,124,-4,-2.5349400084211235,-4.6703409457953615,-4.620533000456622
1769247158580,124,-4,-2.485538664965724,-4.718055851238365,-4.571620890802457
1769247158584,124,-4,-2.122149705590097,-4.652443067391182,-4.210954397447889
1769247158588,125,-3,-1.3812437665673318,-3.753149069753583,-3.4743002955829505
1769247158592,126,-2,-0.3321587873156819,-2.759872239509881,-2.4300710228794236
1769247158596,127,-1,0.7867393066951318,-1.614082414727651,-1.3158094550032078
1769247158600,128,0,1.6262648509175477,-0.6864566472830804,-0.4798466343415881
1769247158604,128,0,1.8737010346014604,-0.5967616363747736,-0.234500057446632
1769247158608,128,0,1.4153548366582065,-0.7340241468565645,-0.6940184568047696
1769247158612,127,-1,0.411425234521658,-1.6982694486848788,-1.6990145660844702
1769247158616,125,-3,-0.7836892395537793,-3.548982439418933,-2.895163154622793
1769247158620,124,-4,-1.8171354287643913,-4.655958310635915,-3.929541175359457
1769247158624,124,-4,-2.505639941516528,-4.530610072213927,-4.619850597408636
1769247158628,124,-4,-2.8508777781146875,-4.716425695138826,-4.968830137576017
1769247158632,123,-5,-2.929894904028002,-5.6340427839148735,-5.0525274690502275
1769247158636,123,-5,-2.799066220610162,-5.4668850722720315,-4.92479298831945
1769247158640,124,-4,-2.4878887189741805,-4.688763473446756,-4.614223372902115
1769247158644,124,-4,-2.033792282460776,-4.355104394746446,-4.160213843851492
1769247158648,125,-3,-1.4900793156200656,-3.863800307919088,-3.6183933736696288
1769247158652,125,-3,-0.9077482785314716,-3.3278932187952135,-3.0396013172809866
1769247158656,126,-2,-0.3249730236003307,-2.7135657831872058,-2.4596708532816356
1769247158660,126,-2,0.2323255433837254,-2.3110109431614743,-1.902908758579344
1769247158664,127,-1,0.7622687843475537,-1.6592484407467252,-1.3723647610230678
1769247158668,128,0,1.3112446716386232,-0.4758378101401512,-0.8242246544193694
1769247158672,128,0,1.9647349014652984,-0.5790675274638244,-0.1736981962512529
1769247158676,128,0,2.770074109268906,-0.4075415406546283,0.6285165338230136
1769247158680,130,2,3.649262569025845,1.5433785773930009,1.5062351176554278
1769247158684,131,3,4.415378657152714,2.517844905331895,2.2720818281933397
1769247158688,131,3,4.906854318578915,2.4827218944421285,2.763150649640301
1769247158692,131,3,5.105398394654539,2.562197397771713,2.960886423570677
1769247158696,131,3,5.111948946652137,2.526785767421156,2.966576355726803
1769247158700,131,3,5.013157800164183,2.745147125432724,2.866648121237945
1769247158704,131,3,4.778323652491133,2.365050767459322,2.630066847807768
1769247158708,130,2,4.281019081991621,1.7863044063122886,2.1309849324599224
1769247158712,130,2,3.4224935794075053,1.337917738728304,1.2717390002661175
1769247158716,128,0,2.25525993896332,-0.1457175525098799,0.105152092295107
1769247158720,127,-1,1.0052988890949268,-1.477080435745577,-1.1436129331039782
1769247158724,126,-2,-0.0374528282335447,-2.3458701516132434,-2.185659887678572
1769247158728,125,-3,-0.6905623982429865,-3.3378947560626835,-2.8389431708325668
1769247158732,125,-3,-0.9858413407393368,-3.4950432238964377,-3.135164491576968
1769247158736,125,-3,-1.1238008354772884,-3.1341294193897733,-3.2747436368537266
1769247158740,125,-3,-1.3072494203595348,-3.468341398959188,-3.4600899442717665
1769247158744,124,-4,-1.5904198218054977,-4.204856973365501,-3.744156550310303
1769247158748,124,-4,-1.8635801618972248,-4.392487479109654,-4.015847927090556
1769247158752,124,-4,-1.962011014326337,-4.350754818705736,-4.110710733775293
1769247158756,124,-4,-1.7835462134151423,-4.118693701754797,-3.928769153816192
1769247158760,125,-3,-1.3274598857515922,-3.462938773192885,-3.4714893229551844
1769247158764,125,-3,-0.6729827797212027,-3.009807884961067,-2.8181869811662237
1769247158768,126,-2,0.0347367642299847,-2.587364938638744,-2.1121253256845045
1769247158772,126,-2,0.5767260897795261,-1.9531836704601857,-1.5706650600976777
1769247158776,127,-1,0.6885947039380887,-1.4935872379619402,-1.45841463039302
1769247158780,126,-2,0.167729769744257,-1.925190145255622,-1.9788878009488868
1769247158784,125,-3,-0.994616414533588,-3.477504128446004,-3.1402313627712486
1769247158788,123,-5,-2.565616567999174,-5.010542541704764,-4.707580944061959
1769247158792,122,-6,-4.157431407311581,-6.412957237259266,-6.292386940860831
1769247158796,120,-8,-5.3918904665044955,-7.949126897681169,-7.519478055987178
1769247158800,120,-8,-6.042039087050371,-8.323636698500948,-8.167370005886962
1769247158804,120,-8,-6.087324061651674,-7.995311822809708,-8.21853351347445
1769247158808,120,-8,-5.680934568824403,-8.366248601566856,-7.822356938927634
1769247158812,120,-8,-5.045577693522359,-7.975261410595597,-7.19243523544787
1769247158816,122,-6,-4.294456566577521,-6.263189349997857,-6.434872151561569
1769247158820,123,-5,-3.217091708835805,-4.915321703631053,-5.340301165472909
1769247158824,125,-3,-1.2069102747623657,-3.272365362272402,-3.310622701334592
1769247158828,128,0,2.4423401792100554,0.0048863271121692,0.3507626616379955
1769247158832,133,5,7.878022595748588,4.769012350813565,5.785898291833719
1769247158836,139,11,14.072104519157143,11.08160783081748,11.967470155985753
1769247158840,145,17,18.816917760784666,16.892600820652696,16.693783483761788
1769247158844,146,18,19.57829995090496,17.986949927073507,17.440386365030907
1769247158848,141,13,14.825271257566031,12.887218958406756,12.68655641176604
1769247158852,131,3,5.038070125770738,2.8786263944464805,2.917457951291129
1769247158856,118,-10,-7.2554605725433055,-9.85731034218973,-9.344706432636324
1769247158860,107,-21,-18.47371121722086,-21.13105676700681,-20.533192803207545
1769247158864,100,-28,-25.475394974651184,-27.708712800766644,-27.52160143642076
1769247158868,99,-29,-26.79984181790605,-29.37191721625384,-28.853825108577553
1769247158872,102,-26,-23.09055990895741,-25.656062418607068,-25.16495447453552
1769247158876,110,-18,-16.569574599438628,-18.296183219244675,-18.66240122782931
1769247158880,116,-12,-9.886078540382822,-11.559575282918154,-11.984121115324516
1769247158884,121,-7,-4.954997970789964,-7.156616174511917,-7.042479707386239
1769247158888,123,-5,-2.3643439646124724,-4.871883090542145,-4.431184591898457
1769247158892,124,-4,-1.5537868923858662,-4.0100857622332695,-3.5997308102790613
1769247158896,124,-4,-1.499403873075549,-3.941954697160176,-3.532450378103805
1769247158900,124,-4,-1.4068297108915966,-3.674667989165906,-3.4371113938041677
1769247158904,125,-3,-1.0298024713395844,-2.984400924279325,-3.063128973830516
1769247158908,125,-3,-0.5446488346601299,-2.829650243448421,-2.5802251100515545
1769247158912,126,-2,-0.1916561184628922,-2.0519875592402377,-2.2246487671283357
1769247158916,126,-2,0.0079441706585707,-1.7461050598162986,-2.0175517712144866
1769247158920,125,-3,0.2610047579111916,-2.7944138964049428,-1.7542167762941112
1769247158924,126,-2,0.7796579749070371,-1.6838323591990112,-1.2252671860616031
1769247158928,128,0,1.5652184386850676,-0.011333915856273,-0.4320505774427672
1769247158932,128,0,2.4080590493830742,0.1994181722518559,0.4147404388190865
1769247158936,129,1,3.081417657981293,1.1252660266510135,1.0904226799014056
1769247158940,129,1,3.5250521809947024,1.4370098230399535,1.5388622279154474
1769247158944,129,1,3.8607508746023145,1.2250292907891491,1.8842777440756868
1769247158948,130,2,4.265063169435937,2.2245973475150813,2.301226837258824
1769247158952,131,3,4.838064716221909,3.0210480526456136,2.8847822712977704
1769247158956,131,3,5.560680791624329,3.453107227341749,3.612600931413412
1769247158960,132,4,6.319083071726664,4.188779572623215,4.372759870282405
1769247158964,132,4,6.938889421007992,4.654877125119033,4.996278208055434
1769247158968,133,5,7.232142737009841,4.877585613470599,5.298763000681417
1769247158972,133,5,7.095490194199122,5.4812193418760184,5.175187222279869
1769247158976,133,5,6.6257496072016835,5.115568729543129,4.717633975313021
1769247158980,131,3,6.125439007338731,3.5973987855486778,4.2258550359177915
1769247158984,131,3,5.919995131230094,3.4792674441464086,4.026519530542111
1769247158988,132,4,6.1042755338973365,4.049106146427251,4.217222413039485
1769247158992,132,4,6.4569314409418475,4.54565249132735,4.577817935498547
1769247158996,133,5,6.6304239925348725,5.052776663775704,4.760233204527697
1769247159000,133,5,5.178708665785935,7.225368958508558,6.732516949174418
1769247159004,133,5,5.3568840988918325,6.956834626400713,6.907135172614361
1769247159008,133,5,5.753061243485224,7.170140269056041,7.296521108338606
1769247159012,134,6,6.045479793547578,8.066749325511669,7.583901615472447
1769247159016,134,6,5.958778809577177,7.909043414766038,7.49682910956345
1769247159020,133,5,5.490447455893667,7.249409581885511,7.031522104963152
1769247159024,133,5,4.964761945214918,6.841858253941034,6.508563713535306
1769247159028,132,4,4.844462099685134,6.332598130532199,6.3879743335630925
1769247159032,133,5,5.413152556703832,6.850972390623562,6.953463513912738
1769247159036,134,6,6.562936762845868,8.183559466998606,8.098993471402318
1769247159040,136,8,7.86471769283265,9.938267778049948,9.396820533111176
1769247159044,137,9,8.87951853895823,11.161706145342151,10.408146531750372
1769247159048,137,9,9.460303771047432,10.958701766653576,10.986066208598247
1769247159052,137,9,9.79815506103932,11.240120079151264,11.3223796418211
1769247159056,138,10,10.199876802654034,11.775964783791188,11.724216908190645
1769247159060,138,10,10.8218621008306,12.370939697668192,12.34675573219366
1769247159064,140,12,11.595756419803465,13.703241609802417,13.119307878039807
1769247159068,140,12,12.37210779015028,14.413212693336895,13.890946070637886
1769247159072,141,13,13.097574276321836,14.764802897300507,14.609489274518296
1769247159076,141,13,13.832890775809682,15.243810063127905,15.338947144600011
1769247159080,142,14,14.611192508748369,15.922755964071934,16.11484543711041
1769247159084,143,15,15.322816865628862,17.103009682983934,16.826414541053126
1769247159088,144,16,15.785151593268434,18.06214261307288,17.287519550402077
1769247159092,144,16,15.93472572193618,18.033113317040876,17.432827748563042
1769247159096,143,15,15.914649432307437,17.045981341739182,17.407354434310694
1769247159100,143,15,15.932124714267108,17.031660503124485,17.42113031911407
1769247159104,144,16,16.024392026964037,18.0600229978997,17.511185467134123
1769247159108,144,16,15.979452981154264,18.03437557118864,17.462764731567844
1769247159112,143,15,15.48291228708697,17.124253061941424,16.96014886099198
1769247159116,142,14,14.332135398726122,15.888284703232122,15.80250181776175
1769247159120,140,12,12.533469395757464,14.208967137471465,13.99867867772774
1769247159124,138,10,10.249620715186657,11.833765613255284,11.711893523579672
1769247159128,135,7,7.691491556115265,9.284878549692229,9.151599983598878
1769247159132,133,5,5.051772748285366,6.880884631994876,6.508843624234775
1769247159136,130,2,2.503422576183046,4.1058698652250225,3.955953147985098
1769247159140,128,0,0.2180299210776048,1.9987993526700365,1.664918681013242
1769247159144,126,-2,-1.6520334132445995,-0.0092242616908317,-0.2110694372379935
1769247159148,124,-4,-3.034928120119119,-1.8258328764807703,-1.5996156564282296
1769247159152,124,-4,-3.989993904671688,-2.041110354583977,-2.560066445395578
1769247159156,123,-5,-4.686020498767139,-2.940115689546375,-3.2614622187083935
1769247159160,122,-6,-5.306931918746577,-4.0231186021836365,-3.8877850380465624
1769247159164,122,-6,-5.950833274501373,-3.964423053968262,-4.536993928399768
1769247159168,121,-7,-6.594577737534416,-4.903587893769356,-5.185692735538944
1769247159172,120,-8,-7.146707462427981,-5.941257022718356,-5.742248102091598
1769247159176,120,-8,-7.543356719652319,-6.045976980556589,-6.1433644053641965
1769247159180,120,-8,-7.800619484760524,-5.954006175593222,-6.406558862709319
1769247159184,120,-8,-7.977852910164465,-6.031548398340982,-6.59174681339868
1769247159188,119,-9,-8.104023427013018,-6.847707105078418,-6.726041584139519
1769247159192,119,-9,-8.150367573830573,-6.984872829658793,-6.778017217030842
1769247159196,120,-8,-8.05694001578431,-6.025038870163231,-6.687449582260721
1769247159200,120,-8,-7.761707248724136,-5.980426364873273,-6.394838315297056
1769247159204,120,-8,-7.221791691709182,-6.041108809375252,-5.859928368378951
1769247159208,121,-7,-6.461703893924915,-4.798281218074891,-5.107732182201692
1769247159212,122,-6,-5.639169648632342,-4.075654486773889,-4.294601995549346
1769247159216,122,-6,-5.0530114034722375,-3.9180788354815177,-3.717551826394561
1769247159220,123,-5,-5.0336162771367485,-3.1251764515551725,-3.705769756150187
1769247159224,122,-6,-5.751567631509477,-3.898484284797058,-4.429409934127899
1769247159228,120,-8,-7.069615593114621,-5.948625567130417,-5.751357670308353
1769247159232,119,-9,-8.558637328800417,-6.927245122955513,-7.243305193486588
1769247159236,118,-10,-9.687051334358058,-8.079932034774702,-8.375206896334689
1769247159240,117,-11,-10.070943988220684,-8.980437139655635,-8.76469887211234
1769247159244,118,-10,-9.63808405172459,-8.031639397474752,-8.340148176829661
1769247159248,119,-9,-8.621862566788028,-6.823071934171723,-7.33411396601756
1769247159252,120,-8,-7.4106200785670175,-6.055280014628999,-6.132908159533719
1769247159256,121,-7,-6.360205160447998,-4.9718718891315445,-5.0903124329566225
1769247159260,122,-6,-5.672010227477627,-4.1112293191920255,-4.407173312644921
1769247159264,122,-6,-5.368122137806076,-3.913658094097064,-4.106958426791303
1769247159268,122,-6,-5.338797181307155,-3.92631248442762,-4.081958311983085
1769247159272,122,-6,-5.423554053457246,-3.9748500681657113,-4.172801955991733
1769247159276,122,-6,-5.489767066350755,-4.049492885437825,-4.246540717967811
1769247159280,122,-6,-5.4793813844613295,-4.067406495328472,-4.243962809635398
1769247159284,122,-6,-5.411247479534242,-3.9534666567931382,-4.182944717229901
1769247159288,122,-6,-5.348782058647206,-3.881316022549693,-4.126881687659863
1769247159292,122,-6,-5.356782106442788,-4.036518422663597,-4.141507321417959
1769247159296,122,-6,-5.47030356498496,-3.9904556125934914,-4.262778429789848
1769247159300,122,-6,-5.686788975791056,-4.16498345819462,-4.487641206991335
1769247159304,121,-7,-5.9772430383918715,-4.844985698382478,-4.785127667830908
1769247159308,121,-7,-6.2962929476148055,-4.996268663271274,-5.108483759794169
1769247159312,121,-7,-6.5692793375739456,-4.925723191780711,-5.384443063633349
1769247159316,121,-7,-6.6703994257445585,-5.108828807256802,-5.49053202595109
1769247159320,121,-7,-6.452195708362359,-5.089586335484032,-5.28100753102887
1769247159324,121,-7,-5.860840805016371,-4.8805688556903455,-4.700072433567128
1769247159328,122,-6,-5.058170898677298,-4.025516400357214,-3.906112438514067
1769247159332,123,-5,-4.397265627688576,-2.8192137635233574,-3.2511376807505106
1769247159336,124,-4,-4.198546266507987,-2.3220951926933235,-3.0574797130038434
1769247159340,123,-5,-4.4893987671179065,-2.8069067700266936,-3.354166326892164
1769247159344,122,-6,-4.961614512553033,-4.249491694588164,-3.832141518506434
1769247159348,121,-7,-5.216611509966074,-4.616414504570852,-4.091648359759747
1769247159352,123,-5,-5.0772707874148395,-3.2495004995456056,-3.957019687173765
1769247159356,123,-5,-4.680411622684884,-2.900174108027985,-3.567721290810113
1769247159360,123,-5,-4.303516471776266,-3.2057491204900765,-3.201034683219502
1769247159364,123,-5,-4.131529571950972,-2.9123249710381103,-3.0383750377792684
1769247159368,123,-5,-4.164670899067725,-2.9243322921745105,-3.077047337024814
1769247159372,123,-5,-4.28402936210691,-3.0141098407910603,-3.19891038545475
1769247159376,123,-5,-4.367125144828373,-3.060732263000987,-3.284795907897132
1769247159380,123,-5,-4.360379781358956,-3.1119019908263974,-3.2837567283899967
1769247159384,123,-5,-4.28601598936093,-2.9664333725455156,-3.2180647589585325
1769247159388,123,-5,-4.2078580426484855,-2.9385777218234415,-3.1493642739121075
1769247159392,123,-5,-4.188461334795607,-2.985588786706421,-3.137521802756111
1769247159396,123,-5,-4.254298759684676,-3.088482925967144,-3.20780085505652
1769247159400,123,-5,-4.369896150175093,-3.0967762362600273,-3.3260288686238555
1769247159404,123,-5,-4.427442022573299,-2.9757443530657888,-3.387143002778192
1769247159408,123,-5,-4.278617286884913,-2.989290863517886,-3.244419085252556
1769247159412,123,-5,-3.825673450793844,-2.8996900921834325,-2.7991110369744012
1769247159416,124,-4,-3.1244464884283403,-2.217611753252895,-2.104985347014015
1769247159420,125,-3,-2.3970053784025516,-0.9182522255534924,-1.3834271981358506
1769247159424,126,-2,-1.905530263567063,-0.218029346892439,-0.897397982952779
1769247159428,125,-3,-1.7799333883752109,-0.73512153203387,-0.7771820326360301
1769247159432,125,-3,-1.95466618213796,-1.1893615025111612,-0.9566995237307095
1769247159436,125,-3,-2.2615057050694305,-0.931152471487566,-1.2676967913966282
1769247159440,125,-3,-2.572967934877915,-1.1810089949828435,-1.5836235986677982
1769247159444,124,-4,-2.8690754898271837,-2.0055200244986944,-1.885127229939791
1769247159448,124,-4,-3.1966767886567617,-1.9120098605703744,-2.21865872053986
1769247159452,124,-4,-3.578430698315032,-2.082488868055525,-2.6061615350912217
1769247159456,123,-5,-3.952365081685724,-3.0083717837191912,-2.9852473554189665
1769247159460,123,-5,-4.1933159405447125,-3.115781620922973,-3.230601561498712
1769247159464,123,-5,-4.197876712005602,-3.0874649679421946,-3.2389927222049124
1769247159468,123,-5,-3.9540986533956586,-2.8244268644161297,-2.9991116505112783
1769247159472,124,-4,-3.5327693342741147,-2.216699346431665,-2.582465001818018
1769247159476,124,-4,-3.016909840988709,-1.8488714407454008,-2.072143103082257
1769247159480,125,-3,-2.443915166445403,-1.298612238907964,-1.5047283586545128
1769247159484,125,-3,-1.8124743378808867,-0.9098227159656388,-0.8778841980925223
1769247159488,126,-2,-1.1334682554096598,-0.0114595333385023,-0.2021828956081564
1769247159492,127,-1,-0.4615178778989102,0.9253778890608472,0.4671298200742143
1769247159496,127,-1,0.1251765790996701,1.0561969984513784,1.0508095436253402
1769247159500,128,0,0.5689483634469004,1.7307780197457536,1.4902598149845272
1769247159504,128,0,0.8541880223913738,2.1151282155114224,1.769552904095487
1769247159508,128,0,0.9911652925238634,1.878500767140951,1.8999174900148517
1769247159512,128,0,0.9881073547001442,2.063603965439789,1.8917533602343977
1769247159516,128,0,0.8549206158325426,1.911531322059003,1.756685209847444
1769247159520,128,0,0.6562098397452711,1.8376319965499368,1.5586074007487745
1769247159524,128,0,0.5660022376373854,2.0680172875915113,1.468571225690029
1769247159528,128,0,0.8312502704786144,1.809219786561925,1.73082516189266
1769247159532,128,0,1.6053613748836368,2.217456943064512,2.4985663270510026
1769247159536,130,2,2.756052752032187,3.6751825639979225,3.6415348097701905
1769247159540,131,3,3.8397219251583943,5.125756445195602,4.718645443623963
1769247159544,132,4,4.331513957201519,5.7519607828581645,5.206825342695847
1769247159548,131,3,3.971471910094615,5.084005659044712,4.846520620512909
1769247159552,130,2,2.959444489694953,3.962323345872436,3.83604996658878
1769247159556,129,1,1.836425552549064,2.8554706254590294,2.7135205692027
1769247159560,128,0,1.1280690750493196,2.021875393973532,2.0026459846785363
1769247159564,128,0,0.999559302329037,1.787350141257269,1.8693572028025336
1769247159568,128,0,1.1655926619307335,2.1000976694921674,2.0305447091625246
1769247159572,129,1,1.1228315075051407,2.8723117305459187,1.98390096608015
1769247159576,128,0,0.5286973239211694,1.970618078551654,1.386289459929232
1769247159580,126,-2,-0.5760778705195628,-0.1317289017052862,0.2781098318773685
1769247159584,125,-3,-1.869072808596946,-1.0466997520135592,-1.0173293775712478
1769247159588,124,-4,-3.0406105436956667,-2.093179511253134,-2.1892511775005494
1769247159592,123,-5,-3.9846990696168496,-2.9489120074206707,-3.1318043905910127
1769247159596,123,-5,-4.72694717301272,-3.193871180547715,-3.872467291369758
1769247159600,122,-6,-5.213606132179349,-3.9883395856436,-4.360123983844394
1769247159604,122,-6,-5.2302315550066,-4.1940047290053055,-4.381473509915995
1769247159608,122,-6,-4.588357155159059,-3.971344192089591,-3.745970022216687
1769247159612,123,-5,-3.429183260096073,-3.0920324835126207,-2.590858701557501
1769247159616,125,-3,-2.3166111139120193,-1.035190246890362,-1.4782120726240044
1769247159620,126,-2,-1.9342852959760384,-0.1513810932812291,-1.094248860244762
1769247159624,125,-3,-2.579734852760774,-1.0608418295664417,-1.7407632709274776
1769247159628,123,-5,-3.9005220217214944,-3.1130955361044785,-3.066215370695934
1769247159632,121,-7,-5.142328764952786,-5.018877063764207,-4.312230759517248
1769247159636,121,-7,-5.703967509774036,-5.056809736778357,-4.872575687551759
1769247159640,122,-6,-5.495919510774316,-4.15261834357478,-4.657290114366366
1769247159644,123,-5,-4.8020974376428995,-3.022724297406177,-3.956083019197567
1769247159648,124,-4,-3.854165104876644,-2.1950864378909767,-3.0084043743328746
1769247159652,124,-4,-2.616613007576837,-1.9861973026530673,-1.781729010617818
1769247159656,125,-3,-1.032564945373078,-1.0793850772667917,-0.21391997538892
1769247159660,127,-1,0.5711943828196864,0.8353846231467256,1.3784620315758591
1769247159664,129,1,1.492811968254247,3.0662908166116916,2.301288244279694
1769247159668,130,2,1.2855009229830665,3.624340516099213,2.107585358841476
1769247159672,128,0,0.5061173860143255,2.2278613217510697,1.34671178440799
1769247159676,128,0,0.7468063384918295,1.6021880077900912,1.601137944235801
1769247159680,129,1,3.604309894628353,3.2134672214091307,4.4608542610528295
1769247159684,135,7,9.211200248301544,8.680700144239667,10.056663887572526
1769247159688,143,15,15.525973993444453,17.032925087517796,16.350269647574006
1769247159692,148,20,19.14229520181238,21.82513853537413,19.94353029275305
1769247159696,145,17,17.211252245615174,18.89188840680161,17.99919037179672
1769247159700,136,8,9.17153014849023,9.944592508466798,9.965016050122172
1769247159704,124,-4,-2.8679086802440645,-2.1764329074332247,-2.0510169657441004
1769247159708,111,-17,-15.239452285527593,-15.024795374066183,-14.393522285735973
1769247159712,102,-26,-24.488016437063703,-24.139648756637055,-23.62339168175851
1769247159716,99,-29,-28.71053307440126,-27.075827997493104,-27.847174560671466
1769247159720,100,-28,-27.86997112741109,-26.08366010872607,-27.025529179332736
1769247159724,104,-24,-23.24985744128787,-22.202785234201876,-22.429708778060657
1769247159728,110,-18,-16.648924806180634,-15.957958561787352,-15.844379662687974
1769247159732,117,-11,-9.787439898633927,-9.307696620736795,-8.983013529596272
1769247159736,123,-5,-3.992762651391135,-2.846325387631568,-3.1766582243096178
1769247159740,128,0,-0.0129292313597302,1.6067585123641557,0.8172788271167524
1769247159744,129,1,2.090569560305931,3.1009785415993236,2.929948134320525
1769247159748,130,2,2.855816791538562,3.729221380824468,3.697747388803412
1769247159752,130,2,3.0710128065221496,3.938356456525489,3.911043999328104
1769247159756,130,2,3.312901858346259,3.995990217055488,4.149278080954264
1769247159760,131,3,3.661564612191475,4.662495030323674,4.494333005007561
1769247159764,131,3,3.78038901265229,5.15559585756112,4.610788110212777
1769247159768,131,3,3.2871440301537653,4.536670895511478,4.1173349587078825
1769247159772,129,1,2.128108824588214,3.198462079175,2.960634225887321
1769247159776,128,0,0.6757574832714619,1.669030976225776,1.5125263694394064
1769247159780,126,-2,-0.5033041083590526,-0.0012151229078025,0.3379028284606453
1769247159784,126,-2,-1.0046424274383567,-0.1562941272388718,-0.160879723563262
1769247159788,127,-1,-0.7834775724974492,0.779263897173423,0.0600198606042807
1769247159792,127,-1,-0.073219674126052,1.0158908102862256,0.7685635705462618
1769247159796,128,0,0.8511239517714304,1.762590149299697,1.6924406378432684
1769247159800,129,1,1.8444944773927656,2.961422952047889,2.6877840148490035
1769247159804,130,2,2.8866030312326574,3.8120537775174057,3.7325807476999735
1769247159808,131,3,3.957934826538132,4.824939935726521,4.804718200586809
1769247159812,132,4,4.937035619998737,5.9574684143966765,5.782542630083725
1769247159816,133,5,5.622263232113049,6.792568917313592,6.467324962954532
1769247159820,133,5,5.872431846562524,6.945814284763095,6.720941477812241
1769247159824,133,5,5.757798789529892,6.78385777276232,6.612999194017486
1769247159828,133,5,5.587232686783368,6.852722950942228,6.447688972952784
1769247159832,133,5,5.747522067711267,6.917536411938302,6.607665189353311
1769247159836,133,5,6.423003265926122,6.820045252633411,7.278457496111789
1769247159840,134,6,7.394262692235292,7.919083727534606,8.246200538965514
1769247159844,136,8,8.13026649550485,9.790018242793124,8.983879260754854
1769247159848,136,8,8.187880109957163,9.829983220614416,9.04715393754423
1769247159852,135,7,7.622096987606381,8.929964426568887,8.48698090663887
1769247159856,134,6,7.012913765491198,7.79039399960848,7.881031184094162
1769247159860,133,5,7.017330676230479,6.923614107868994,7.886779957712128
1769247159864,135,7,7.811314468128494,8.783148190564852,8.681118682560381
1769247159868,137,9,8.927714385695147,10.837103280889991,9.796868325816115
1769247159872,137,9,9.644364822191022,10.926645537515023,10.51219380921988
1769247159876,137,9,9.571314277189348,10.769411456042244,10.43891278614188
1769247159880,136,8,8.927080299908718,9.904804877954016,9.797384491424094
1769247159884,135,7,8.303987179522629,8.761747253634958,9.179824239139524
1769247159888,135,7,8.17174263998214,8.882771423226828,9.053573798697515
1769247159892,136,8,8.557360737218474,9.897469576681294,9.442571563022328
1769247159896,137,9,9.13989807546142,10.781006689629145,10.02439166962915
1769247159900,137,9,9.611973565521131,10.876179175645271,10.4932766438436
1769247159904,137,9,9.942876684571171,10.712888693159046,10.82235564530725
1769247159908,137,9,10.32150060047042,10.970819022429929,11.203463146503983
1769247159912,138,10,10.894024137835425,11.784719912720153,11.78217082020168
1769247159916,139,11,11.592946446715905,12.926765977686744,12.487262513956736
1769247159920,140,12,12.219162915694223,13.678648047965034,13.116046302316764
1769247159924,140,12,12.658126315792227,13.877328898731797,13.553599702435834
1769247159928,140,12,12.983517567613104,13.802823225575407,13.876580294673548
1769247159932,140,12,13.34513204128736,13.93832671103638,14.238238706983454
1769247159936,141,13,13.783714470898328,14.807809603314327,14.680197072080697
1769247159940,142,14,14.193928890622654,15.730796849132783,15.095211087420784
1769247159944,142,14,14.48212268251859,15.845067723960812,15.387461664809932
1769247159948,142,14,14.733469520703352,15.764229489200847,15.641751387035512
1769247159952,142,14,15.175138179201024,16.034367200164063,16.085950907914377
1769247159956,143,15,15.93206709201967,16.655349225152158,16.844737085920517
1769247159960,144,16,16.79575397464182,17.90058826124663,17.708171921511838
1769247159964,145,17,17.23583638406771,18.641821202538107,18.145582095405995
1769247159968,144,16,16.676662141370404,17.9347695855064,17.584037673336358
1769247159972,142,14,14.840651343322753,15.899926010735062,15.750025895732014
1769247159976,139,11,11.92207144837374,12.70979633051163,12.838888163730587
1769247159980,136,8,8.498123869209017,9.8838131976099,9.423967911582896
1769247159984,133,5,5.250268024723877,6.59844140675132,6.181361865793337
1769247159988,129,1,2.6461494404314347,2.998827857330099,3.5768693914590552
1769247159992,128,0,0.7423764998726838,1.8450674558758908,1.669609206251215
1769247159996,127,-1,-0.7698403255400521,0.7225338376373687,0.1544151135568134
1769247160000,125,-3,-2.2860618930589993,-1.1159065094584937,-1.3620767182933893
1769247160004,124,-4,-3.9690172662360848,-2.4610387763039574,-3.0417114282065256
1769247160008,121,-7,-5.633497054545849,-4.910370779517404,-4.699410735434553
1769247160012,120,-8,-6.914733436235639,-6.302374243073973,-5.97263410745924
1769247160016,120,-8,-7.56035130994149,-6.101102849636916,-6.613452328120619
1769247160020,120,-8,-7.606991924692325,-6.334355576728958,-6.661881361009149
1769247160024,120,-8,-7.339732482228116,-6.245097998722622,-6.40107704281656
1769247160028,120,-8,-7.112884298185217,-6.114821658892288,-6.178460671620344
1769247160032,120,-8,-7.160572999543448,-6.1719268351145296,-6.222311270473058
1769247160036,120,-8,-7.46994627179749,-6.187803124622938,-6.5209136466506195
1769247160040,120,-8,-7.757292527266449,-6.324699741529551,-6.797986342031469
1769247160044,120,-8,-7.599072770359177,-6.206667003648849,-6.636593584336289
1769247160048,120,-8,-6.722353094859654,-6.196153142146993,-5.763514218322063
1769247160052,121,-7,-5.3012279017052535,-5.098624859442472,-4.347213229800379
1769247160056,124,-4,-3.9843761497030616,-2.277347370407959,-3.031892202449621
1769247160060,125,-3,-3.5211581943789456,-1.25293692663673,-2.566666961761972
1769247160064,123,-5,-4.225767326434739,-3.271880260538479,-3.267140169530667
1769247160068,121,-7,-5.732689589198808,-5.170342099944243,-4.768428041168134
1769247160072,120,-8,-7.262338859399963,-6.148024795032772,-6.291815018016736
1769247160076,119,-9,-8.161857242957751,-7.262977036628535,-7.186573799852607
1769247160080,119,-9,-8.280760071294173,-7.230291716304535,-7.304073168908676
1769247160084,120,-8,-7.932582724258585,-6.288896072047211,-6.957614706587318
1769247160088,120,-8,-7.545897662373445,-6.177801765072077,-6.573578134168359
1769247160092,120,-8,-7.324057123847987,-6.192420886596731,-6.352530379100322
1769247160096,120,-8,-7.174317689180711,-6.2467733367232325,-6.199812389812686
1769247160100,120,-8,-6.905464924972069,-6.245543149153318,-5.92448329214145
1769247160104,121,-7,-6.4608637681169565,-5.23737757451221,-5.472846472885272
1769247160108,122,-6,-5.9589856934851255,-4.271470178066538,-4.96729395282674
1769247160112,122,-6,-5.539092801499973,-4.118990097915904,-4.548609956790289
1769247160116,122,-6,-5.214473497562659,-4.375953305196297,-4.227354342273511
1769247160120,122,-6,-4.899430262185604,-4.095382536573567,-3.913050756928467
1769247160124,123,-5,-4.553352744842172,-3.3880984299035957,-3.5626991264410304
1769247160128,123,-5,-4.244958694407583,-3.125295544647175,-3.2472399415645463
1769247160132,124,-4,-4.044106501718563,-2.3075298042883268,-3.04105633248661
1769247160136,124,-4,-3.8717572801448705,-2.2129275187231814,-2.8673456826372083
1769247160140,123,-5,-3.5186266712988594,-3.2711128723325795,-2.514866103739802
1769247160144,124,-4,-2.8649662431322387,-2.1979147474926326,-1.8607262082096288
1769247160148,126,-2,-2.0801487213905565,-0.3303560326267871,-1.0738426502892349
1769247160152,126,-2,-1.5619999521296972,-0.1320302260358614,-0.5538301760149933
1769247160156,126,-2,-1.6417809179547098,-0.410335612806795,-0.6325340620087765
1769247160160,125,-3,-2.3246557584834515,-1.0886700539377911,-1.3134199711237082
1769247160164,124,-4,-3.2900917431815504,-2.3893281223226346,-2.2745010495453144
1769247160168,123,-5,-4.126396070127778,-3.1598294599126477,-3.105259566747507
1769247160172,123,-5,-4.5864215887527,-3.296351071957211,-3.5615602294483204
1769247160176,123,-5,-4.674408999443946,-3.298142464326739,-3.649357677601403
1769247160180,123,-5,-4.5457144435955765,-3.159131941705599,-3.5222964833803125
1769247160184,123,-5,-4.348408717027949,-3.380173843195914,-3.3247659677523806
1769247160188,123,-5,-4.136707750688574,-3.159971934654583,-3.1091897908459907
1769247160192,124,-4,-3.8820081365606094,-2.321000516276838,-2.8489869804696855
1769247160196,124,-4,-3.532646118859277,-2.3126968001862327,-2.4959104051882814
1769247160200,124,-4,-3.079150726559968,-2.1007728352389785,-2.0415328340440997
1769247160204,125,-3,-2.5983224443940625,-1.5111756675850008,-1.5607697213009186
1769247160208,125,-3,-2.237645828899241,-0.998402396729752,-1.1989583902848355
1769247160212,126,-2,-2.121412747552526,-0.5440116691765133,-1.0800099554038596
1769247160216,125,-3,-2.2387930466113373,-1.079568454298424,-1.1938907715398326
1769247160220,125,-3,-2.4218505537927992,-1.3412572706393222,-1.3732519747830971
1769247160224,125,-3,-2.4551860571694837,-1.3056657530489015,-1.4029432007364702
1769247160228,125,-3,-2.2351690361438736,-1.1998733538020063,-1.179918309606121
1769247160232,126,-2,-1.847767085736772,-0.386988736041354,-0.7909972365953857
1769247160236,126,-2,-1.507891161268918,-0.2151060287634447,-0.451203733590402
1769247160240,126,-2,-1.4196765474613884,-0.2338308920953344,-0.3633890013769503
1769247160244,126,-2,-1.66556814957497,-0.4304895977567196,-0.6080331741242657
1769247160248,125,-3,-2.1836837151931423,-1.1012580097132063,-1.1221857199647611
1769247160252,125,-3,-2.8141580987527535,-1.50890965558311,-1.7468117093102995
1769247160256,124,-4,-3.363087944999521,-2.089373791527442,-2.290268930490744
1769247160260,124,-4,-3.657825688460318,-2.3576182692807466,-2.581986905519074
1769247160264,124,-4,-3.600434682770528,-2.3569517722618434,-2.5243690814999633
1769247160268,124,-4,-3.220758795802364,-2.1505314499502917,-2.1456319225957587
1769247160272,125,-3,-2.693919170750126,-1.5477012249677191,-1.6186703768853878
1769247160276,125,-3,-2.2740651316410023,-0.9703281579837336,-1.1965591750083522
1769247160280,126,-2,-2.149376710062805,-0.5648327138157401,-1.0680313942867816
1769247160284,125,-3,-2.3092106101100223,-1.109638484318074,-1.2236253550994685
1769247160288,125,-3,-2.5374824334088837,-1.472046532667441,-1.4479868983986288
1769247160292,125,-3,-2.557512495182241,-1.230947772369451,-1.4646170016949172
1769247160296,125,-3,-2.2254750223332342,-1.270047168703762,-1.129869771725197
1769247160300,126,-2,-1.6246880153123326,-0.308369792849988,-0.5275237054203379
1769247160304,127,-1,-0.9936080139351344,0.6780695163200268,0.1037543723277845
1769247160308,127,-1,-0.5561911344226558,0.6321710324375094,0.5409390538223404
1769247160312,127,-1,-0.394717985339208,0.7092508997719686,0.7036906388068083
1769247160316,127,-1,-0.4470887548604536,0.7330467878795492,0.6554187414343667
1769247160320,127,-1,-0.5891010800315861,0.7086155606531538,0.5194799958402017
1769247160324,127,-1,-0.7083735430679616,0.6514319065007784,0.4056597459030054
1769247160328,127,-1,-0.7284728961130489,0.600310629585427,0.3881149730521328
1769247160332,127,-1,-0.6145495837476651,0.7661493296973109,0.5016173641050097
1769247160336,127,-1,-0.397867352661637,0.610149380009308,0.7170864859444949
1769247160340,127,-1,-0.1992149647043146,0.889328718091865,0.9163213339270898
1769247160344,128,0,-0.1895798457501762,1.3927669086415326,0.929226907660166
1769247160348,127,-1,-0.4704459738666704,0.8920126935433399,0.6531425171835633
1769247160352,127,-1,-0.9559015116953158,0.3898498240269413,0.1722097288990959
1769247160356,126,-2,-1.378522850617221,0.0331575285706018,-0.2469401316209766
1769247160360,126,-2,-1.4525964016713178,-0.5904853433400398,-0.318375025098506
1769247160364,126,-2,-1.0805227986198056,-0.1045089124235308,0.0555028475194039
1769247160368,128,0,-0.4264591823431138,1.35416781224901,0.7099564573472006
1769247160372,128,0,0.2125389543060563,1.8980512794223476,1.348347444854673
1769247160376,128,0,0.6229220109574505,1.5454046904257956,1.7594929440293865
1769247160380,128,0,0.7979867704181098,1.8281715830090857,1.938718742908972
1769247160384,129,1,0.9031285259216796,2.5242110792690275,2.050180889129659
1769247160388,129,1,1.1531580220669375,2.620590722976674,2.3051827214665286
1769247160392,129,1,1.6868945794451191,2.7168463105961074,2.840686050931856
1769247160396,130,2,2.4819779116030847,3.6217965071397886,3.635681264889876
1769247160400,131,3,3.347197835308555,4.822716343729427,4.501216790957978
1769247160404,132,4,4.017879458787663,5.4318961638576555,5.173339359244278
1769247160408,132,4,4.307239983591855,5.743861627713748,5.464706340697654
1769247160412,132,4,4.202701189125271,5.560901072669772,5.362520562508145
1769247160416,131,3,3.834983327681405,4.751000241977227,4.9979849802069864
1769247160420,131,3,3.3628327502841113,4.706945356749269,4.529872649080797
1769247160424,131,3,2.885130599114692,4.483047042373414,4.055980046296021
1769247160428,130,2,2.4409353507703546,3.7294686222632425,3.6141899412504257
1769247160432,130,2,2.051708733374207,3.5212118515904716,3.2260086905995977
1769247160436,129,1,1.7259768598767091,2.812306647752319,2.9010204636027352
1769247160440,129,1,1.416388948127478,2.580364502810149,2.5926127614355385
1769247160444,129,1,0.9967712947603428,2.6339938938343774,2.1744554673062124
1769247160448,128,0,0.3167419210324378,1.5262614810730166,1.495943889574726
1769247160452,127,-1,-0.6906857249331719,0.751127840110407,0.4906239342304599
1769247160456,126,-2,-1.9326213176659524,-0.4686038706034154,-0.7478696066668733
1769247160460,124,-4,-3.174252515076403,-2.148696979225744,-1.98507969404011
1769247160464,124,-4,-4.142921553041325,-2.665684021448609,-2.9500778574942665
1769247160468,123,-5,-4.654260731876196,-3.165953901879916,-3.460051183638721
1769247160472,123,-5,-4.693230305365459,-3.5775153539593516,-3.4995215042471393
1769247160476,123,-5,-4.414086297859194,-3.1462906814700737,-3.2205706421757427
1769247160480,124,-4,-4.056603705512302,-2.5087206801369497,-2.861323517200122
1769247160484,124,-4,-3.8144244039875255,-2.3326908047005457,-2.6159282161323656
1769247160488,124,-4,-3.733554507554056,-2.484707624756922,-2.532315796110886
1769247160492,124,-4,-3.7155855724188487,-2.303996238877664,-2.5132611762262433
1769247160496,124,-4,-3.624905320505826,-2.4004843307444497,-2.4221631169654687
1769247160500,124,-4,-3.411133962584459,-2.328118722122696,-2.206251168626184
1769247160504,125,-3,-3.1419687478509166,-1.4893704708891933,-1.9320110308709728
1769247160508,125,-3,-2.9215133569342715,-1.3560555855182506,-1.7055580976098157
1769247160512,125,-3,-2.7812163535714287,-1.4408671683645102,-1.5627529732262593
1769247160516,125,-3,-2.662526927279527,-1.269362468390231,-1.4482109944071044
1769247160520,125,-3,-2.510469135834465,-1.533653263638722,-1.3051232683962832
1769247160524,125,-3,-2.3535345582850327,-1.2473397700775464,-1.1548804506969352
1769247160528,126,-2,-2.2154950955786665,-0.6512703130430656,-1.0135313334705232
1769247160532,126,-2,-1.861268171228643,-0.1040803610865499,-0.6442279735180596
1769247160536,128,0,-0.6153658239295159,1.3279389593900648,0.621539894782196
1769247160540,130,2,2.4259862759900894,3.866325000954165,3.676036106991313
1769247160544,135,7,7.705911614754411,8.318346715090353,8.954454639648267
1769247160548,141,13,14.413697453610382,14.79391656007627,15.646931231963189
1769247160552,148,20,20.257456324868123,21.461471024926876,21.469870021988225
1769247160556,151,23,22.245941599047654,24.699077571644224,23.442515059265055
1769247160560,147,19,18.211591270375926,20.49338108011461,19.40520742469102
1769247160564,136,8,8.153837861530466,9.56140562587764,9.359740895474806
1769247160568,122,-6,-5.5142386055021095,-4.39737911544991,-4.28529649232952
1769247160572,108,-20,-19.017461946372684,-18.43448377644304,-17.764784477752247
1769247160576,98,-30,-28.908047589525022,-28.30266415762387,-27.64206303021601
1769247160580,95,-33,-33.38195492840068,-31.5418833292296,-32.119335838105286
1769247160584,96,-32,-32.58078718502961,-30.349169706272868,-31.33545644295554
1769247160588,100,-28,-27.977165731331084,-26.535581230102125,-26.75226138087988
1769247160592,106,-22,-21.45328018693388,-20.31639628119227,-20.239898601806253
1769247160596,113,-15,-14.635466603845565,-13.457497406973646,-13.41959780225998
1769247160600,119,-9,-8.641605066895254,-7.436112310892419,-7.413768036743995
1769247160604,124,-4,-4.078261813933989,-2.438102311534637,-2.838210552656304
1769247160608,127,-1,-1.103118624401355,0.4883333097008058,0.1429248133597265
1769247160612,128,0,0.4900749569614444,1.6692657935610031,1.735597663785223
1769247160616,129,1,1.1271350720667404,2.4920937124544467,2.369300210367063
1769247160620,129,1,1.260247697808584,2.630379967284891,2.49977250965504
1769247160624,129,1,1.2098979730956254,2.474672547249579,2.448851110016946
1769247160628,129,1,1.1221971226323046,2.5843745606492945,2.3621204682498256
1769247160632,129,1,1.0433570838270652,2.5397180915439286,2.2845476491541965
1769247160636,129,1,1.0287042662263763,2.5879072786583075,2.2705689971191942
1769247160640,129,1,1.180656677036746,2.5306749057727775,2.4226297748818917
1769247160644,129,1,1.577909583896555,2.549533659813237,2.8198754523479423
1769247160648,130,2,2.1717565372346415,3.5249054547182936,3.413433007285076
1769247160652,131,3,2.772912113671234,4.546418527003512,4.013365482423962
1769247160656,131,3,3.1673715757220124,4.578970472820377,4.406029075152163
1769247160660,131,3,3.2675602689677983,4.491343025047052,4.505691777812396
1769247160664,131,3,3.173325529397763,4.611275432599632,4.413575403730148
1769247160668,131,3,3.1071684032611255,4.411338977286136,4.350983356655174
1769247160672,131,3,3.2841515450831658,4.674099379156113,4.529900001961961
1769247160676,132,4,3.795387156296973,5.39985020395177,5.039504754500982
1769247160680,132,4,4.551675266922964,5.675119446509037,5.791749751253501
1769247160684,133,5,5.309442301482541,6.405826878349687,6.545939943626388
1769247160688,134,6,5.786791377710003,7.597798769306065,7.021961541205709
1769247160692,134,6,5.830430236155143,7.473526826661256,7.0663047286100635
1769247160696,133,5,5.52757975333602,6.5571352501959295,6.765197633222335
1769247160700,133,5,5.165705914530242,6.521335024670511,6.405229350550745
1769247160704,133,5,5.058481055980507,6.525501063749151,6.299112224511139
1769247160708,133,5,5.365088956540345,6.475180354284633,6.605042398633191
1769247160712,134,6,6.022977039248208,7.584428625887855,7.260211319818899
1769247160716,135,7,6.816900913062559,8.415440881309621,8.050394041463715
1769247160720,135,7,7.51391509970466,8.649492875492637,8.744483882176599
1769247160724,136,8,7.9703552902944494,9.370927236730388,9.200133946517331
1769247160728,136,8,8.164600912696116,9.610578986418066,9.395419754427389
1769247160732,136,8,8.170456984701003,9.440111895843096,9.402524135935677
1769247160736,136,8,8.106866119642026,9.525132288196083,9.33888207955073
1769247160740,136,8,8.087452310259703,9.544543714755331,9.317867433098025
1769247160744,136,8,8.181659547654336,9.420247973400937,9.409773232408195
1769247160748,136,8,8.399632817902415,9.590542884699737,9.62557649935446
1769247160752,137,9,8.711636954622175,10.395346657092595,9.935723847123242
1769247160756,137,9,9.090606491392924,10.597765142276096,10.313239950469152
1769247160760,137,9,9.539449386090054,10.41346449048453,10.761437400383814
1769247160764,138,10,10.079129075654336,11.54895578662417,11.30115722634
1769247160768,139,11,10.71940244589513,12.446357684265024,11.940940341952675
1769247160772,139,11,11.442752790826722,12.498400461947474,12.66214667182448
1769247160776,140,12,12.199952013125234,13.524583640945758,13.415956430322764
1769247160780,141,13,12.909232697472351,14.407981339976912,14.122219982544095
1769247160784,141,13,13.474913112377587,14.583881361928237,14.68646268160454
1769247160788,142,14,13.838007538986975,15.3414220124484,15.049388541627817
1769247160792,142,14,14.031426964668928,15.64283773032544,15.242503097976453
1769247160796,142,14,14.184338813225358,15.307515076619472,15.39390737451722
1769247160800,142,14,14.447147864950749,15.65612445719195,15.654187096649606
1769247160804,143,15,14.881300175754683,16.260807591895983,16.085756033175677
1769247160808,143,15,15.405289757779084,16.68887647073367,16.607782843724795
1769247160812,144,16,15.847770717867087,17.262338484796185,17.048767165660493
1769247160816,144,16,16.062066354810234,17.676065624271697,17.261450494653854
1769247160820,144,16,15.997353986748706,17.269554734320046,17.194775150864196
1769247160824,143,15,15.661191002245614,16.58851178999224,16.856522613650455
1769247160828,143,15,15.01759109219642,16.391223317392296,16.210747563188427
1769247160832,142,14,13.93679278770632,15.490944726055966,15.127361046727655
1769247160836,140,12,12.263419380181496,13.504487234799347,13.450980428638845
1769247160840,138,10,9.950647776836046,11.336466489658546,11.135437254281292
1769247160844,135,7,7.147247353201339,8.564844330800366,8.330180220174226
1769247160848,132,4,4.168206219782494,5.323337245101782,5.350246032568867
1769247160852,129,1,1.3696938488574064,2.613835157881745,2.551235448293265
1769247160856,127,-1,-0.9870438383914256,0.3353273753123287,0.1935141103283792
1769247160860,125,-3,-2.799356308649636,-1.5053484716673724,-1.621131329910325
1769247160864,124,-4,-4.093631571779856,-2.6090813672470787,-2.91935609904869
1769247160868,123,-5,-4.954629192922212,-3.5605408440444526,-3.784988413044031
1769247160872,122,-6,-5.483015701746187,-4.458286942936371,-4.316944589990919
1769247160876,122,-6,-5.795867898885869,-4.667192110729712,-4.631348514135303
1769247160880,122,-6,-6.0222319000361235,-4.468354794754412,-4.85820942278577
1769247160884,122,-6,-6.257585439670686,-4.7321027601829595,-5.094816027067762
1769247160888,121,-7,-6.5149977137630835,-5.414482334978677,-5.354889180235021
1769247160892,121,-7,-6.738072620166687,-5.640527094325329,-5.58122007993664
1769247160896,121,-7,-6.872575548855916,-5.498872220884963,-5.71872503650722
1769247160900,121,-7,-6.921528110427368,-5.641180813893867,-5.7703897960044435
1769247160904,121,-7,-6.928243138304612,-5.626354501009342,-5.779683808680597
1769247160908,121,-7,-6.912121152080021,-5.476708305382789,-5.765669926169215
1769247160912,121,-7,-6.828157845884747,-5.666534451646881,-5.68294581398732
1769247160916,121,-7,-6.594277863110893,-5.417107916035637,-5.449970493394251
1769247160920,122,-6,-6.166602834697715,-4.814252711862805,-5.024421965854641
1769247160924,122,-6,-5.601519095993842,-4.423047537293728,-4.463833560816406
1769247160928,123,-5,-5.055476411046918,-3.7324813294193855,-3.923699109831715
1769247160932,123,-5,-4.718032764474715,-3.4067777755003923,-3.5907191165845624
1769247160936,123,-5,-4.7105549268492215,-3.704351453904396,-3.584117824154725
1769247160940,123,-5,-4.998125508703519,-3.564204733515801,-3.870062994645844
1769247160944,123,-5,-5.3689110031541265,-3.673381647407594,-4.240206391153593
1769247160948,122,-6,-5.528927988143414,-4.529107657879035,-4.40282090400912
1769247160952,122,-6,-5.297601168188354,-4.587401096608096,-4.176390251747751
1769247160956,123,-5,-4.774548604417682,-3.576962110455385,-3.658346913683472
1769247160960,124,-4,-4.309157524069751,-2.690934976229704,-3.197203973102468
1769247160964,124,-4,-4.252272127446059,-2.586978780388981,-3.143866180586824
1769247160968,123,-5,-4.685936628076302,-3.60978809106149,-3.5797223026372027
1769247160972,122,-6,-5.364085372336119,-4.563178011629496,-4.257888187091181
1769247160976,122,-6,-5.8997703812780715,-4.590577327272497,-4.792438202142269
1769247160980,122,-6,-6.021655175134718,-4.743761165491709,-4.914753137711327
1769247160984,122,-6,-5.704719131327809,-4.489010772511032,-4.6015170005193395
1769247160988,123,-5,-5.124906043092644,-3.762110823549544,-4.027543133767631
1769247160992,123,-5,-4.519995740892387,-3.4054793844738582,-3.4278831544671884
1769247160996,124,-4,-4.064735768796811,-2.811394329554115,-2.9755327122942656
1769247161000,124,-4,-3.8192620160826634,-2.5314203431793807,-2.730960357144297
1769247161004,124,-4,-3.750165086050851,-2.709963937001214,-2.662274587916415
1769247161008,124,-4,-3.785776308661437,-2.565415477933332,-2.699125078225632
1769247161012,124,-4,-3.8593188006802968,-2.5998155261388205,-2.775176036369711
1769247161016,124,-4,-3.9170052570452145,-2.700706968614886,-2.836138373433001
1769247161020,124,-4,-3.907075883965215,-2.6016668433214383,-2.829099020225776
1769247161024,124,-4,-3.783041506213028,-2.70999436115245,-2.706634247856522
1769247161028,124,-4,-3.5304225111154577,-2.5158685754031413,-2.4546878725008137
1769247161032,125,-3,-3.1910892569233646,-1.7328521025993162,-2.1169266490387404
1769247161036,125,-3,-2.8596265065310655,-1.555650400253701,-1.7893064743630265
1769247161040,125,-3,-2.6576091830554875,-1.806412675290347,-1.5925430154777105
1769247161044,125,-3,-2.7010160615538585,-1.4826818129739672,-1.6400821299199353
1769247161048,125,-3,-3.053028803624824,-1.7780883740422286,-1.993342811650772
1769247161052,124,-4,-3.657542765382137,-2.4978085883793217,-2.5968080611894724
1769247161056,124,-4,-4.2986352106389045,-2.8078549500415493,-3.2367147301367867
1769247161060,123,-5,-4.65876335662929,-3.59947932258158,-3.597289392684564
1769247161064,123,-5,-4.488985449497714,-3.669347079055908,-3.429960310073186
1769247161068,124,-4,-3.792164359163322,-2.6277426818982947,-2.7371469073852266
1769247161072,125,-3,-2.868326593206739,-1.6583692671088357,-1.8183584086252749
1769247161076,126,-2,-2.1582863428095616,-0.6833973283769967,-1.1134557614419935
1769247161080,126,-2,-1.9850090943998784,-0.7480156382766927,-0.943552326694233
1769247161084,125,-3,-2.37536132068525,-1.5313789106767488,-1.3338729214680454
1769247161088,125,-3,-3.0707202773912785,-1.8078067428564648,-2.026346124522089
1769247161092,124,-4,-3.689873426360073,-2.4685550912202237,-2.6427674132460863
1769247161096,124,-4,-3.9270131944849034,-2.9427132612197613,-2.880509890706362
1769247161100,124,-4,-3.684644971676839,-2.44459421944123,-2.6427889086398633
1769247161104,125,-3,-3.0969013830018426,-1.904219731229282,-2.061439978820515
1769247161108,125,-3,-2.447236259421678,-1.420587287723567,-1.416551599824289
1769247161112,126,-2,-2.0200363015687737,-0.8948712793935493,-0.9908208971821376
1769247161116,126,-2,-1.951291616392869,-0.5616219578781434,-0.9212787456388049
1769247161120,126,-2,-2.1572360272989517,-0.7986668249658939,-1.1262840225702433
1769247161124,125,-3,-2.398321973035848,-1.6342236041593063,-1.3672993964905469
1769247161128,125,-3,-2.451090264099763,-1.635218609565296,-1.4207332173727667
1769247161132,126,-2,-2.2619587029903356,-0.785397816226034,-1.233139602410774
1769247161136,126,-2,-1.9621531312669416,-0.6153244587800263,-0.9362514622154892
1769247161140,126,-2,-1.7507433039946538,-0.8222574219164287,-0.7287581423630977
1769247161144,126,-2,-1.762328202384575,-0.5827698852000391,-0.7436852246324042
1769247161148,126,-2,-2.0151670139934925,-0.7515689737417754,-0.9977827242515548
1769247161152,125,-3,-2.4394967854238354,-1.6805285416581666,-1.4211949037923637
1769247161156,125,-3,-2.925841616654667,-1.743334958323525,-1.9059955548067409
1769247161160,125,-3,-3.347924628361446,-1.699834193146458,-2.3278831282230086
1769247161164,124,-4,-3.573014122710896,-2.731736097715105,-2.554747771236603
1769247161168,124,-4,-3.502672732646334,-2.6238225863504185,-2.4870501236401674
1769247161172,125,-3,-3.140169548012392,-1.844858768017796,-2.126754563743498
1769247161176,125,-3,-2.6171819411144357,-1.59315672897556,-1.6053298233500364
1769247161180,126,-2,-2.131284695408292,-0.8570814920397779,-1.1207808661353251
1769247161184,126,-2,-1.8324953881837345,-0.594964200673726,-0.823098531199256
1769247161188,126,-2,-1.7476104997519033,-0.7994739411594325,-0.738548731990474
1769247161192,126,-2,-1.7945678098500149,-0.7015999972108948,-0.7850062745769939
1769247161196,126,-2,-1.8612314621962345,-0.7498331270134687,-0.8512922658657706
1769247161200,126,-2,-1.8801875394221492,-0.7176578347372339,-0.8711645430148637
1769247161204,126,-2,-1.8527793025666,-0.7245596351563167,-0.8460184992406617
1769247161208,126,-2,-1.8242063051058104,-0.742230007129072,-0.8197678858991413
1769247161212,126,-2,-1.837712777007134,-0.7497099185877021,-0.8343094392315937
1769247161216,126,-2,-1.8935442046594295,-0.7697414789955346,-0.8898224206122567
1769247161220,126,-2,-1.9316063295344708,-0.6513095370443044,-0.9273136376317058
1769247161224,126,-2,-1.8536789830516784,-0.8547032607053922,-0.8495097472110672
1769247161228,126,-2,-1.5838800936973176,-0.6066969499100735,-0.5804583337379436
1769247161232,127,-1,-1.1312137794302648,0.0486151631093457,-0.1285788699192867
1769247161236,127,-1,-0.6015849753461588,0.4329952433346232,0.4003421457751146
1769247161240,128,0,-0.1411511788676618,1.134838205129705,0.8596795948561662
1769247161244,128,0,0.1470352555308169,1.3436006658347526,1.1461823840335486
1769247161248,128,0,0.2473331277469619,1.156957525459259,1.2449404711413097
1769247161252,128,0,0.2116580752775292,1.2435505686227502,1.2089958199789212
1769247161256,128,0,0.1140096106524144,1.2234863674136005,1.112647588784927
1769247161260,128,0,0.0324929214558253,1.3391864189006326,1.0329797900433366
1769247161264,128,0,0.061015344430837,1.1356158083331318,1.0622939457957417
1769247161268,128,0,0.3030737074205289,1.3111568318589428,1.3031274767487775
1769247161272,129,1,0.8160858764340442,2.0704240914580856,1.8134395686294904
1769247161276,129,1,1.5384310393882168,2.3517473656871024,2.53345475669535
1769247161280,130,2,2.2739830483716186,3.2421487434388596,3.2686352565501715
1769247161284,131,3,2.7835917176716403,4.188928132050397,3.779463357419183
1769247161288,131,3,2.9427386293891225,4.245395646326878,3.939503559022149
1769247161292,131,3,2.836495742010769,4.065151529621705,3.832814340696317
1769247161296,130,2,2.684013349191584,3.3600339629954967,3.679688080037938
1769247161300,130,2,2.6391376035763576,3.216414654614207,3.635320543166219
1769247161304,131,3,2.6552402146778693,4.206692914739671,3.652284243051776
1769247161308,131,3,2.550537336720138,4.215054157824023,3.5468709554751907
1769247161312,130,2,2.196604191236801,3.0151572342906405,3.1906453332822675
1769247161316,129,1,1.626494314139369,2.4373636532480303,2.6188991650778437
1769247161320,129,1,0.9705549953557152,2.0727920831502633,1.9635330393109909
1769247161324,128,0,0.3235680004294905,1.3757202648008149,1.3183263518704156
1769247161328,128,0,-0.3089439841797489,1.0153894388917657,0.6867734748438049
1769247161332,127,-1,-0.9561761216465404,0.1612039822564236,0.0389863542345717
1769247161336,126,-2,-1.603991714151979,-0.6947863806396528,-0.6100146371033219
1769247161340,126,-2,-2.178740280185965,-0.8764430643131285,-1.185514562733507
1769247161344,125,-3,-2.6028607072374284,-1.6116901172922165,-1.6096348774292075
1769247161348,125,-3,-2.8665160285092774,-2.0931953062677837,-1.8729058082356524
1769247161352,125,-3,-3.0469821532401538,-1.6937725407779167,-2.053286723037786
1769247161356,125,-3,-3.2512241497470153,-1.920219631128922,-2.2582078427446244
1769247161360,124,-4,-3.528771111054761,-2.649588983587305,-2.536951938478087
1769247161364,124,-4,-3.832218935681798,-2.843258441854911,-2.841407901194197
1769247161368,124,-4,-4.052093571668329,-2.912775995141739,-3.061521873101203
1769247161372,124,-4,-4.08515847133083,-2.8721045438831823,-3.0934728444902664
1769247161376,124,-4,-3.888304044485497,-2.7956039182222256,-2.893566013939529
1769247161380,124,-4,-3.501875081710892,-2.7770351767437,-2.503206089854012
1769247161384,125,-3,-3.0389353858886885,-1.7312645719059492,-2.0394927451441673
1769247161388,126,-2,-2.6424605680304727,-1.0583314325417117,-1.6495412986925997
1769247161392,125,-3,-2.4353940605137674,-1.7458089335182947,-1.4547746620330095
1769247161396,125,-3,-2.479205414941792,-1.9629580095056216,-1.508091576194849
1769247161400,125,-3,-2.6934192120224036,-1.6215921953027157,-1.7200075166643929
1769247161404,126,-2,-2.695591408035602,-0.9094306116876556,-1.70708842391268
1769247161408,127,-1,-1.692423959449135,0.1050628246113302,-0.6846800966684996
1769247161412,129,1,1.2949143473674345,2.078975990984104,2.3140678620217545
1769247161416,134,6,6.753005621293802,7.157537308855708,7.768433032277587
1769247161420,141,13,13.887221665948127,14.276477796069296,14.885060089160085
1769247161424,148,20,20.38652336697069,21.13525743266785,21.36127594889494
1769247161428,152,24,23.188490349986974,25.088320458520663,24.14532128118742
1769247161432,149,21,19.996992694110897,22.018946655979935,20.948983050740413
1769247161436,139,11,10.662817583773414,12.14266703558198,11.625180082434223
1769247161440,125,-3,-2.49921645817585,-1.7378766914870003,-1.5155758552559222
1769247161444,111,-17,-15.717172885867996,-15.90992584011424,-14.710847512311066
1769247161448,102,-26,-25.470385850761765,-24.776542075509433,-24.45119972361623
1769247161452,99,-29,-29.864814615114565,-28.129521015780274,-28.84974064174181
1769247161456,99,-29,-28.992791991593187,-27.689232090136887,-27.99667792478855
1769247161460,104,-24,-24.350703711692567,-22.94771637378941,-23.37743612369936
1769247161464,110,-18,-17.907982046478185,-16.76048093572832,-16.948820288172563
1769247161468,116,-12,-11.391832283147,-10.928855535549204,-10.432342709091388
1769247161472,122,-6,-5.976466080097559,-5.035621903129474,-5.006623448092529
1769247161476,126,-2,-2.244740964127623,-0.7707975278446081,-1.2643541515690453
1769247161480,128,0,-0.2454302816381273,1.034748812178439,0.7388589323759172
1769247161484,128,0,0.3940836175490194,1.2661545631458933,1.3763738019203084
1769247161488,128,0,0.2667343103305573,0.9958355075538612,1.2462212353644553
1769247161492,128,0,-0.0601229216063008,1.0388626679739077,0.9185533102745984
1769247161496,128,0,-0.2153745168403804,1.1681636441791512,0.7625792758018701
1769247161500,128,0,-0.0572646129734917,1.0193120697132936,0.917207308005592
1769247161504,128,0,0.3772872620893894,1.309045541205534,1.3461794691230595
1769247161508,129,1,0.9306934994400216,1.8702665012687651,1.8956939874283012
1769247161512,129,1,1.3884719715478298,2.1914982868476747,2.3537044038127415
1769247161516,130,2,1.5880135649019007,2.979492364456682,2.5557146665978574
1769247161520,130,2,1.5423956887673091,3.17582826912738,2.51083836964658
1769247161524,129,1,1.4602186321151034,2.139702701278179,2.426288463981933
1769247161528,129,1,1.5897032296225977,1.9709430727160953,2.5525432079310466
1769247161532,130,2,2.0003683296470096,3.1213744777114214,2.961465649390761
1769247161536,131,3,2.520996206633643,3.996713548089845,3.4813471210875595
1769247161540,131,3,2.9092557873362197,4.167854551356467,3.8678969162801766
1769247161544,131,3,3.0814970975765683,4.109014106215629,4.036991733606504
1769247161548,131,3,3.1719965418644014,3.93374381616988,4.124396634657765
1769247161552,131,3,3.3790106013580203,4.1808914451802766,4.329888241034777
1769247161556,132,4,3.768726183173908,4.871297084601765,4.719591531437512
1769247161560,132,4,4.230510933570959,5.347030514252862,5.181321604035859
1769247161564,133,5,4.611861717514861,5.8474447953779585,5.560799055957864
1769247161568,133,5,4.884696682166761,6.177694615133258,5.829477013013385
1769247161572,133,5,5.169211209321588,5.905802690551852,6.1091545681504345
1769247161576,133,5,5.587865170508858,6.102568734641838,6.524778178535941
1769247161580,134,6,6.105069255719047,7.174652415513633,7.041560101641432
1769247161584,135,7,6.538224720867419,7.908530718403578,7.474955094708411
1769247161588,135,7,6.746733985813095,8.16236722517059,7.681820215457575
1769247161592,135,7,6.797071325782517,7.814638280305646,7.7283888043897075
1769247161596,134,6,6.908526039136631,7.221573605220322,7.835913054036723
1769247161600,135,7,7.220293126720556,8.028253716213515,8.144879524425518
1769247161604,136,8,7.625954159330131,9.02081065561901,8.547955158714416
1769247161608,136,8,7.857675884244417,9.055530060095249,8.77606975082642
1769247161612,136,8,7.74160868286019,8.838981738766122,8.656101565442832
1769247161616,135,7,7.379579283505868,8.231133093672046,8.2917833487977
1769247161620,135,7,7.098977880785941,7.929829113897794,8.010864031127609
1769247161624,135,7,7.228590258393132,8.160816110423433,8.140044424048387
1769247161628,136,8,7.88719720437156,8.846671876623981,8.795658735069939
1769247161632,137,9,8.931200133722683,10.05483412524654,9.83382492690151
1769247161636,138,10,10.071709822457724,10.982453376427388,10.967765364029306
1769247161640,139,11,11.059442755129092,12.131412228920093,11.950726931401832
1769247161644,140,12,11.811628817951773,12.969828589586852,12.700881435934743
1769247161648,140,12,12.411940662437548,12.964694732945574,13.300741108592169
1769247161652,141,13,13.006933264787056,13.959718120471663,13.894554332588593
1769247161656,142,14,13.68775020834863,15.01619769333294,14.571819008348102
1769247161660,142,14,14.435174947828942,15.096174615982363,15.313747595204218
1769247161664,143,15,15.143199522292198,15.970962913143666,16.01627328421194
1769247161668,144,16,15.690610323484544,16.94330154708476,16.559538918500998
1769247161672,144,16,16.016830810526038,16.94884384578675,16.882669974495705
1769247161676,144,16,16.153277176594234,17.00373105107251,17.016090648174547
1769247161680,144,16,16.181867486909212,17.088862185249933,17.041266839040166
1769247161684,144,16,16.151650082966874,16.93926863443597,17.007349037647288
1769247161688,144,16,16.027719199046764,16.9714182386029,16.87945139996981
1769247161692,144,16,15.717446474289796,16.873071571299395,16.564786499079283
1769247161696,143,15,15.142689181169452,16.077750569093027,15.985340083049994
1769247161700,142,14,14.28410108930083,14.96866812433916,15.122225413273055
1769247161704,141,13,13.16140098029589,14.044424798120389,13.995340570515662
1769247161708,140,12,11.785407576728549,12.831940753339364,12.615191068039644
1769247161712,138,10,10.139687585629453,10.994659862218692,10.965111881890577
1769247161716,136,8,8.209398044165013,8.936948368712091,9.03038086217802
1769247161720,134,6,6.0308479631054706,7.074135094752281,6.847376515049769
1769247161724,132,4,3.720244560042597,4.916252943181577,4.5322858894567375
1769247161728,129,1,1.4484474762073276,1.9299895960691236,2.2561802430715474
1769247161732,127,-1,-0.6317567521580241,-0.1216627465551081,0.1718579020023949
1769247161736,126,-2,-2.4455557396261636,-0.9645661208876346,-1.646545279839243
1769247161740,124,-4,-3.989248535427161,-3.055973064599496,-3.195765565704421
1769247161744,122,-6,-5.279017850159982,-4.979295424559472,-4.491192885770008
1769247161748,122,-6,-6.317269864131154,-5.1957008565556295,-5.534181428372267
1769247161752,121,-7,-7.094774471022509,-6.033342163180664,-6.31565578671077
1769247161756,120,-8,-7.60713898308724,-7.062389694678487,-6.832246625793095
1769247161760,120,-8,-7.873534776190132,-6.991836642484382,-7.103749437837763
1769247161764,120,-8,-7.951501009780501,-7.059380353416741,-7.187550133337328
1769247161768,120,-8,-7.930813528624242,-7.167369367230799,-7.172885586055696
1769247161772,120,-8,-7.899231475656411,-7.05513944480579,-7.146968086538315
1769247161776,120,-8,-7.899033809611388,-7.098475969266031,-7.151736524319468
1769247161780,120,-8,-7.904718287282871,-6.948543308533675,-7.161631263082498
1769247161784,120,-8,-7.841943744008183,-7.151902268656035,-7.102620331194172
1769247161788,120,-8,-7.640849627282172,-7.10202023243542,-6.9057202679162195
1769247161792,121,-7,-7.288165536529828,-6.132069376840352,-6.5588072851945585
1769247161796,121,-7,-6.843071919749626,-6.058330992293609,-6.121289773887994
1769247161800,121,-7,-6.413360236167706,-5.999211839013535,-5.699531167937743
1769247161804,122,-6,-6.107569091319895,-5.137784364006025,-5.400081199205666
1769247161808,122,-6,-5.97389369563995,-5.148527446169821,-5.270388134025987
1769247161812,122,-6,-5.948491969744298,-5.116842587123019,-5.247571152941746
1769247161816,122,-6,-5.861690315716884,-5.067020191394369,-5.163730334774716
1769247161820,122,-6,-5.53077387851334,-5.061557330591198,-4.837722797542096
1769247161824,123,-5,-4.895172681376391,-4.040171440318304,-4.209580208640093
1769247161828,124,-4,-4.097792351803748,-3.354094048045028,-3.4212328198022663
1769247161832,124,-4,-3.442227212113258,-2.8522703313891578,-2.774038909057611
1769247161836,125,-3,-3.235812807341661,-2.422478508888589,-2.573550974724215
1769247161840,124,-4,-3.60373242366713,-2.683033421068082,-2.9451929233738063
1769247161844,124,-4,-4.391965839924037,-3.4869467401717236,-3.736721840278943
1769247161848,122,-6,-5.240394005470989,-4.9311645009383405,-4.589472820818379
1769247161852,122,-6,-5.794112320232218,-5.276909082886777,-5.148766140213501
1769247161856,122,-6,-5.903191727922394,-5.049173663312815,-5.264268317906055
1769247161860,122,-6,-5.660653594968959,-5.029388181935909,-5.028647933712968
1769247161864,123,-5,-5.26679404067919,-4.225627519424747,-4.641844997505774
1769247161868,123,-5,-4.8551682065833734,-4.173567156869552,-4.236864246672632
1769247161872,123,-5,-4.431169039077433,-4.107784595476452,-3.8186640362819064
1769247161876,124,-4,-3.953011441920393,-3.2117259272597436,-3.3456405971684053
1769247161880,124,-4,-3.450613276451548,-2.8934553334889017,-2.8484506579582036
1769247161884,125,-3,-3.0555083384243646,-2.409379459498277,-2.4592633888136057
1769247161888,125,-3,-2.9120102778122106,-1.9802506013278585,-2.3223546715654164
1769247161892,125,-3,-3.055183704728969,-2.378131416153302,-2.4720932265163493
1769247161896,124,-4,-3.371278461390802,-2.9321914292328217,-2.7939970121999793
1769247161900,124,-4,-3.678003382235814,-3.2046591918167255,-3.1058274574538305
1769247161904,124,-4,-3.8501149602522218,-3.147803937309731,-3.2832873835206167
1769247161908,124,-4,-3.8805679355790703,-3.2133056981873502,-3.320162285359612
1769247161912,124,-4,-3.8381964958596058,-3.2450583554097876,-3.2849504824295206
1769247161916,124,-4,-3.7775531359275223,-3.0120459022444925,-3.230965411064028
1769247161920,124,-4,-3.6850812112582,-3.2223418583120975,-3.143906781536697
1769247161924,124,-4,-3.498914174783952,-3.1112225935163336,-2.962621368888186
1769247161928,125,-3,-3.173495626187223,-2.2943950936665014,-2.6429706182341883
1769247161932,125,-3,-2.733880394369782,-2.1968343003126587,-2.2103508934477074
1769247161936,125,-3,-2.2849650999292934,-2.055246318640507,-1.768460781471258
1769247161940,126,-2,-1.9687368158740297,-1.2517223277670009,-1.4582219389295228
1769247161944,126,-2,-1.884870961536676,-1.061350783147999,-1.3797569808207235
1769247161948,126,-2,-2.025089594723547,-1.427152530077826,-1.5258101943100333
1769247161952,125,-3,-2.2861330916245697,-2.0303888308937097,-1.7931929384478056
1769247161956,125,-3,-2.5624112612252907,-2.3019825067390256,-2.0757276388459993
1769247161960,125,-3,-2.827368634055992,-1.993960728680026,-2.346761550802643
1769247161964,125,-3,-3.1174442256400177,-2.365333261677146,-2.642973030103314
1769247161968,124,-4,-3.4428818960971963,-3.147354603847398,-2.9743893783739237
1769247161972,124,-4,-3.727382825812249,-3.310731632832805,-3.2644172290453475
1769247161976,124,-4,-3.8377006826413744,-3.100799451397179,-3.3801839299532577
1769247161980,124,-4,-3.676804795202023,-3.1662240555686907,-3.225172022573328
1769247161984,124,-4,-3.270950805384012,-3.2754123717166426,-2.825563650291901
1769247161988,125,-3,-2.7831551392704705,-2.19828432104341,-2.344301419877212
1769247161992,126,-2,-2.424614301500963,-1.341636788785533,-1.992945532451707
1769247161996,125,-3,-2.319860633833516,-2.061539019085428,-1.8957390621371624
1769247162000,125,-3,-2.439438524556387,-2.2730168758377483,-2.021716713007056
1769247162004,125,-3,-2.6512046229619175,-2.158968877401705,-2.2376967646033292
1769247162008,125,-3,-2.8191353252030606,-2.374823324697215,-2.4087958439236936
1769247162012,125,-3,-2.8530289993088784,-2.1523355092853245,-2.4471846237545716
1769247162016,125,-3,-2.701130302762275,-2.3028407405495637,-2.302210896162814
1769247162020,125,-3,-2.3476000630015896,-2.0560623914423086,-1.9568485583974513
1769247162024,126,-2,-1.844989489646839,-1.3943670285888097,-1.4616245240042427
1769247162028,126,-2,-1.33663671683914,-1.1907224842081263,-0.9591638320339754
1769247162032,127,-1,-1.007915727141875,-0.3229974711030123,-0.635905255179048
1769247162036,127,-1,-0.9754030395422812,-0.1923379665474731,-0.6095555747486525
1769247162040,126,-2,-1.2038333890107369,-1.176428941919332,-0.8443442636353864
1769247162044,126,-2,-1.5304227892732432,-1.3271024957946558,-1.1760546971472607
1769247162048,126,-2,-1.7722758851986855,-1.26825016924994,-1.421619654806182
1769247162052,126,-2,-1.8180643838415849,-1.2753077672038096,-1.471330446709675
1769247162056,126,-2,-1.6476895457648104,-1.2499172869099795,-1.3067575262709756
1769247162060,126,-2,-1.3100634976161536,-1.1518881340536156,-0.9769714054449944
1769247162064,127,-1,-0.905656522856482,-0.4059004830387104,-0.5811849041161643
1769247162068,127,-1,-0.574107193964601,-0.1874974262146393,-0.2572960296048346
1769247162072,127,-1,-0.4581784002990738,-0.4152285266188156,-0.1468721355433264
1769247162076,127,-1,-0.6328131360876097,-0.0855135875355259,-0.325123229865112
1769247162080,127,-1,-1.0302466177056675,-0.3873305829884214,-0.7258811440356789
1769247162084,126,-2,-1.4290944413756848,-1.194912450331085,-1.12914536238062
1769247162088,126,-2,-1.5586914334035562,-1.4191121934307716,-1.264282240563751
1769247162092,126,-2,-1.2746803570220122,-1.2224084699240498,-0.9864109412653642
1769247162096,127,-1,-0.6691106679646399,-0.2625799551557929,-0.3877529181154757
1769247162100,128,0,-0.0109303193451195,0.7237440430156991,0.2624525276536306
1769247162104,128,0,0.437814930108992,0.6898871792290487,0.7033238267716949
1769247162108,128,0,0.5764706837963711,0.6274959369908832,0.8364346073380367
1769247162112,128,0,0.4857010037395772,0.7413373384806015,0.7431142891534689
1769247162116,128,0,0.3400262532974074,0.7150956628218311,0.5955967224046786
1769247162120,128,0,0.3027305131452182,0.7605248953963455,0.5540257325729521
1769247162124,128,0,0.454239836430842,0.5849325219748133,0.6979633529372674
1769247162128,128,0,0.7618467027010525,0.7331945711960317,0.9965682496130268
1769247162132,129,1,1.1037557872161996,1.575941010803243,1.3305201710191377
1769247162136,129,1,1.356242195302561,1.8916627705600273,1.577454534754645
1769247162140,129,1,1.4981865509764123,1.529776552008339,1.7162796783838083
1769247162144,129,1,1.6488109215771836,1.8081003808206704,1.8649621407542456
1769247162148,130,2,1.998639947043825,2.454744103960098,2.211725762686494
1769247162152,130,2,2.674814337034337,2.83016936244866,2.8818593046015626
1769247162156,131,3,3.6227233589727454,3.635663932752762,3.821125431680768
1769247162160,132,4,4.580672775756217,4.741349969742161,4.770214973938338
1769247162164,133,5,5.186863799307364,5.5886219078933195,5.369629129947924
1769247162168,133,5,5.177829066616566,5.603067228213817,5.356463562033678
1769247162172,132,4,4.551143279227603,4.677476478306542,4.727172448552027
1769247162176,131,3,3.565153426466823,3.748357701339249,3.738365760950946
1769247162180,130,2,2.5637634478297215,2.620004272187522,2.7326490716969225
1769247162184,129,1,1.7527563085166662,1.669782676060673,1.9154937051357896
1769247162188,129,1,1.0947819480263143,1.4920020236854024,1.2501834246512444
1769247162192,128,0,0.3962224935416648,0.7695383780886479,0.544271979157323
1769247162196,127,-1,-0.4942433209076591,-0.3752297833752912,-0.3524061212415061
1769247162200,126,-2,-1.539954617217822,-1.2721994728837729,-1.4026386581021923
1769247162204,125,-3,-2.533551752663954,-2.486964901089772,-2.3994693020224376
1769247162208,124,-4,-3.2484177848310156,-3.3838860494339364,-3.1175089654481947
1769247162212,124,-4,-3.5922695941278664,-3.365127594547105,-3.465909732821689
1769247162216,124,-4,-3.6437651600632015,-3.2714815449861625,-3.5239404788171833
1769247162220,124,-4,-3.564613089911374,-3.3842563896109614,-3.452270500283282
1769247162224,124,-4,-3.484126758168973,-3.4332041125161967,-3.3781291466501777
1769247162228,124,-4,-3.451571375895009,-3.462057475245035,-3.349739412080309
1769247162232,124,-4,-3.4627027883574515,-3.3294404524775487,-3.364281847177308
1769247162236,124,-4,-3.499805608919955,-3.2974363964165803,-3.4066299017942825
1769247162240,124,-4,-3.5409751769935336,-3.4127028640410386,-3.4554896774726913
1769247162244,124,-4,-3.549422428038726,-3.4069269546851904,-3.4711482064529213
1769247162248,124,-4,-3.4735230746457813,-3.5709516557310303,-3.397997149174578
1769247162252,124,-4,-3.2623092752810376,-3.2061864633424166,-3.1848783092773214
1769247162256,125,-3,-2.880290786000029,-2.4662811047180915,-2.802061643557038
1769247162260,125,-3,-2.3246637723350796,-2.237964941792292,-2.254292043046868
1769247162264,126,-2,-1.6667266472934474,-1.6429677635400353,-1.6143555494456918
1769247162268,126,-2,-1.0930047387354676,-1.361958006451769,-1.060436206576624
1769247162272,126,-2,-0.8386316878777995,-1.4564670393896393,-0.8151398674242091
1769247162276,127,-1,-0.925163070338966,-0.2269023433376394,-0.8943369006704411
1769247162280,128,0,-0.827912037723262,0.519255187989379,-0.7802881492441514
1769247162284,128,0,0.551118769980623,0.530408169857375,0.6106276306213728
1769247162288,131,3,4.290727728924733,3.469396085593723,4.346255708762329
1769247162292,137,9,10.434817178286306,9.627595196610962,10.470030927559014
1769247162296,144,16,17.305541069887273,16.746326914121344,17.313263633620505
1769247162300,150,22,21.88550667060936,22.475269703920315,21.870726388477827
1769247162304,150,22,21.28900770048441,22.601312193915778,21.264525287019467
1769247162308,143,15,14.453044782553787,15.227307744174627,14.43187945159728
1769247162312,130,2,2.87628821443627,2.874400220178515,2.866255029782123
1769247162316,116,-12,-10.156780492205986,-11.600959613053485,-10.154664906796176
1769247162320,104,-24,-21.32557664859258,-23.093000047568808,-21.317153721332772
1769247162324,100,-28,-28.747683871056157,-27.84001805617134,-28.744651068042888
1769247162328,97,-31,-32.24705069358432,-30.319801140385938,-32.26166404844596
1769247162332,95,-33,-32.55515133827315,-32.625965498607925,-32.591341904631115
1769247162336,96,-32,-30.387178663040014,-31.162161286958423,-30.436824727949936
1769247162340,101,-27,-26.15881417872678,-26.53685531990217,-26.209205641426937
1769247162344,107,-21,-20.3093957462642,-20.474531213865777,-20.35480676097231
1769247162348,114,-14,-13.667188880234413,-13.610020897010738,-13.712388858120406
1769247162352,120,-8,-7.412880749708633,-7.464646485308716,-7.466444873119953
1769247162356,125,-3,-2.6474078230762466,-2.3000251097945146,-2.7133162998586653
1769247162360,128,0,0.0977460249759514,0.475789896430269,0.0226745362040146
1769247162364,128,0,1.0453744290330382,0.5288917020091549,0.9679701616502424
1769247162368,128,0,0.9329282448477084,0.363339484986132,0.8580004222614948
1769247162372,128,0,0.5473974088023743,0.5389086117634339,0.4739909018007411
1769247162376,128,0,0.3692053742139694,0.6652986292275299,0.291462682706024
1769247162380,128,0,0.5075503141191022,0.4648057464113603,0.4195232937038733
1769247162384,128,0,0.8521962576334672,0.5321807767676827,0.7522626359325493
1769247162388,129,1,1.2564640513354854,1.3477240107736668,1.147577375842337
1769247162392,129,1,1.6373118602957877,1.505729020313775,1.5238974064508
1769247162396,129,1,1.9873448106608904,1.681461497704174,1.8723237056924464
1769247162400,130,2,2.343701705735621,2.3708413171926668,2.227474425342565
1769247162404,130,2,2.755226229642983,2.6619107433739035,2.636090316827463
1769247162408,131,3,3.260562003943103,3.1381430463749656,3.1357179037950065
1769247162412,131,3,3.864963047374395,3.7546354578185297,3.731900336524453
1769247162416,132,4,4.5107447356919295,4.315763550517895,4.368759086729075
1769247162420,132,4,5.068046976178056,4.76580654805985,4.918922701826932
1769247162424,133,5,5.385954648257815,5.193140350623212,5.23282971284552
1769247162428,133,5,5.404211658907151,5.632631246844262,5.249206862100211
1769247162432,133,5,5.249251836694632,5.198706109876335,5.091983629268846
1769247162436,132,4,5.204451861059017,4.842770939413097,5.042737749164051
1769247162440,133,5,5.526371146169303,5.192785601283401,5.35808974212279
1769247162444,133,5,6.230056397405296,5.754424525564824,6.054253403317382
1769247162448,135,7,7.0328050708003,7.05464689072705,6.8495411172668526
1769247162452,135,7,7.532622977288649,7.759848722733068,7.342548318129687
1769247162456,135,7,7.494071289260303,7.21776768571267,7.298411089523797
1769247162460,134,6,7.014468260826223,6.782148849925757,6.814893394040853
1769247162464,134,6,6.445364300484133,6.135835566244772,6.243167339643746
1769247162468,133,5,6.1474873348254055,5.655383183362678,5.942550968721691
1769247162472,134,6,6.27700861100078,6.159842621919456,6.067554863505455
1769247162476,134,6,6.748924612818778,6.757377574790899,6.532475974152417
1769247162480,135,7,7.364240676211088,7.214316659379763,7.139281120403455
1769247162484,135,7,7.965425696864977,7.6662099263405326,7.732525521484083
1769247162488,136,8,8.498454128182605,8.107142449754305,8.259835219740065
1769247162492,136,8,8.97468614519078,8.688379795345284,8.732515664378006
1769247162496,137,9,9.41527352479347,9.18971761023624,9.170141142014742
1769247162500,137,9,9.845107112298928,9.729072998083089,9.59592377565004
1769247162504,138,10,10.321604474612943,10.154582112762348,10.066836528263458
1769247162508,138,10,10.933926345738412,10.544451965788705,10.672898646537654
1769247162512,139,11,11.74280651428146,11.311397016577162,11.475837936700904
1769247162516,140,12,12.70801540019536,12.417066808499404,12.435470216376435
1769247162520,141,13,13.679651470391583,13.593335792969484,13.401230835348848
1769247162524,142,14,14.474670314823529,14.126579669362837,14.189852918070226
1769247162528,142,14,14.98194388233819,14.679069267190114,14.690937889218636
1769247162532,143,15,15.218882653961511,15.045331662920526,14.92284466575734
1769247162536,142,14,15.308846815496006,14.707816653610152,15.00904848349184
1769247162540,143,15,15.407019213847454,15.237557907920744,15.10377310947111
1769247162544,143,15,15.625187349633553,15.45518107446073,15.317537393186589
1769247162548,143,15,15.98779795392642,15.361457337490329,15.67418629294271
1769247162552,144,16,16.423532925039925,16.291047609997527,16.102793393366984
1769247162556,144,16,16.785644917693443,16.472872833024464,16.457677387399777
1769247162560,144,16,16.89392841741504,16.376948943036403,16.559795458513086
1769247162564,144,16,16.588443629173433,16.343144629436058,16.249710337673676
1769247162568,143,15,15.781660117318658,15.413503395221484,15.439207001994015
1769247162572,142,14,14.48987534040246,14.229630707021135,14.143207034270658
1769247162576,140,12,12.820094579786318,12.48828602250598,12.467960169237376
1769247162580,138,10,10.907164349029888,10.319863014897262,10.548853449942904
1769247162584,136,8,8.840542696238657,8.374949107230377,8.476375446423523
1769247162588,134,6,6.64491001582163,6.385110734918299,6.275523628190273
1769247162592,132,4,4.337138841218942,4.184440505620365,3.962744457793148
1769247162596,129,1,2.001963271885712,1.563545024441655,1.6224897029193586
1769247162600,127,-1,-0.1980179207273638,-0.8797485943194041,-0.5825049905119575
1769247162604,125,-3,-2.0955148200891696,-2.3702496176109857,-2.484932114688603
1769247162608,124,-4,-3.6078547951373015,-3.949570212292568,-4.0024001869287495
1769247162612,122,-6,-4.765462139284205,-5.469647951708774,-5.165504811619345
1769247162616,122,-6,-5.661896338981021,-5.821977354566837,-6.067653360148922
1769247162620,121,-7,-6.371044302384953,-6.565325029696899,-6.78233173309428
1769247162624,120,-8,-6.901061113265735,-7.669652126068281,-7.31721048544477
1769247162628,120,-8,-7.221878453301608,-7.722985811625908,-7.642183160149363
1769247162632,120,-8,-7.332119505362207,-7.662925086061706,-7.756704896300338
1769247162636,120,-8,-7.294839446336854,-7.724211392748508,-7.724817705459525
1769247162640,120,-8,-7.212306325614661,-7.650118882981754,-7.648651543585953
1769247162644,120,-8,-7.171491380650295,-7.661844079762059,-7.613858295500593
1769247162648,120,-8,-7.204222670211052,-7.715050985801352,-7.6511978314014835
1769247162652,120,-8,-7.277820438928683,-7.728867051560922,-7.728362519122073
1769247162656,120,-8,-7.3113539755249475,-7.664928545283625,-7.765758367311896
1769247162660,120,-8,-7.212730201239125,-7.779833419219723,-7.672074010978397
1769247162664,120,-8,-6.929038632697008,-7.526620660056583,-7.393874330703967
1769247162668,121,-7,-6.485130318779484,-6.908839094471569,-6.954986967935177
1769247162672,121,-7,-5.978435785977216,-6.526807570495676,-6.452624579635454
1769247162676,122,-6,-5.526493963668532,-5.9270196724814195,-6.005162825814377
1769247162680,122,-6,-5.207461313709456,-5.550416432928862,-5.6915380623551295
1769247162684,122,-6,-5.044527908886694,-5.771339023116646,-5.534513685454034
1769247162688,122,-6,-5.041115223300087,-5.738070894851358,-5.536213377008001
1769247162692,122,-6,-5.214018955259897,-5.640069395808532,-5.712788952519356
1769247162696,122,-6,-5.568961193289149,-5.95927059377825,-6.070743155391494
1769247162700,121,-7,-6.035690983649256,-6.427428788810877,-6.541074606263164
1769247162704,121,-7,-6.446637202073777,-7.051908190118649,-6.956558472178581
1769247162708,120,-8,-6.61392609135357,-7.380876067879567,-7.128690285160224
1769247162712,121,-7,-6.454765526352366,-7.088924156020722,-6.974176985630056
1769247162716,121,-7,-6.050246226881464,-6.520936337896364,-6.5743782200809555
1769247162720,122,-6,-5.576113999638461,-5.868388138267125,-6.105352272600713
1769247162724,122,-6,-5.165474474633755,-5.720152060959338,-5.6996236314569195
1769247162728,122,-6,-4.824725617033226,-5.634498415422636,-5.362579275810306
1769247162732,123,-5,-4.464103809990588,-5.000613056105589,-5.0044179137157485
1769247162736,123,-5,-3.9974409825394535,-4.49904615364648,-4.540202124663596
1769247162740,124,-4,-3.4236433980738785,-4.050026757907964,-3.970038002030027
1769247162744,124,-4,-2.840984526247674,-3.4600742419808643,-3.3922985022172476
1769247162748,125,-3,-2.3990602109760863,-3.0009733550485787,-2.9559083123685657
1769247162752,125,-3,-2.222306715422949,-2.638824404908562,-2.784534681616918
1769247162756,125,-3,-2.3496294069396457,-2.8823475670433134,-2.9162713097368074
1769247162760,124,-4,-2.7232113463491996,-3.735192967062261,-3.292671964937027
1769247162764,124,-4,-3.218644875765379,-3.7539779615651896,-3.7896835662457056
1769247162768,124,-4,-3.679006263143219,-3.7888043008200514,-4.251703596767288
1769247162772,123,-5,-3.9420585337228062,-4.846366499706184,-4.517473600337308
1769247162776,123,-5,-3.8872643854662017,-4.721505179755136,-4.4663932984193035
1769247162780,124,-4,-3.5031420189525786,-3.9166999385706633,-4.08666674556407
1769247162784,124,-4,-2.9212025298728697,-3.61378520842039,-3.5097606902362584
1769247162788,125,-3,-2.371221236440282,-2.94660456071049,-2.9650198637263636
1769247162792,125,-3,-2.075477097223848,-2.739882449385562,-2.673591771048533
1769247162796,125,-3,-2.1396905505588304,-2.8321574910627296,-2.7402901465056915
1769247162800,125,-3,-2.494288625812532,-2.8861561150152175,-3.0957534622915497
1769247162804,124,-4,-2.9186817455740988,-3.615827074611698,-3.520472352968567
1769247162808,124,-4,-3.1483647686243375,-4.0470450613455595,-3.751171652454502
1769247162812,124,-4,-3.0144005135797776,-3.586983116323947,-3.619934529950147
1769247162816,125,-3,-2.5323622045958705,-3.08719748310853,-3.1427309103835643
1769247162820,125,-3,-1.8877474504108025,-2.614501436348628,-2.504142354656018
1769247162824,126,-2,-1.3355193017357987,-1.9343601014885932,-1.9570030390144584
1769247162828,126,-2,-1.0761448157147395,-1.781531301788927,-1.6999512633852618
1769247162832,126,-2,-1.1666387505738358,-1.83933927304694,-1.790119495844782
1769247162836,126,-2,-1.5020129476246642,-1.9352873033868512,-2.12458887300834
1769247162840,125,-3,-1.8787644485072703,-2.7189432735506185,-2.502174116524231
1769247162844,125,-3,-2.1166763938959097,-2.941449359531573,-2.743471593945694
1769247162848,125,-3,-2.1707540744526113,-2.7266194282377723,-2.802415936275174
1769247162852,125,-3,-2.153092017770425,-2.990997771171755,-2.789115168791388
1769247162856,125,-3,-2.2382928345699273,-2.7703619566281277,-2.8766817355085217
1769247162860,125,-3,-2.5151259428029213,-2.930575257445031,-3.1538052427641396
1769247162864,124,-4,-2.898330926028276,-3.779896643840007,-3.536467692662819
1769247162868,124,-4,-3.1776670383018084,-3.883938526303388,-3.8161060820828703
1769247162872,124,-4,-3.1746910398875374,-3.915795760697375,-3.8153106824529326
1769247162876,124,-4,-2.885668498440795,-3.819247242834726,-3.5300600449228594
1769247162880,125,-3,-2.4928220459545765,-2.9587304769758984,-3.1411232765199895
1769247162884,125,-3,-2.2275216337647477,-2.739352190684712,-2.8782011910688765
1769247162888,125,-3,-2.1886259864696314,-3.0013973905785627,-2.8394339256190566
1769247162892,125,-3,-2.259707009920744,-2.808010509476385,-2.9091847602282344
1769247162896,125,-3,-2.1951276504602513,-2.9655028110611026,-2.8435556158479725
1769247162900,125,-3,-1.81558643742637,-2.858133543334439,-2.4647145609334453
1769247162904,126,-2,-1.1667754692767154,-1.819031511406646,-1.8187233167979913
1769247162908,127,-1,-0.5158293295214182,-1.0235613060672906,-1.1718502040299708
1769247162912,127,-1,-0.1824709805811419,-0.7471689777375788,-0.8420408513322736
1769247162916,127,-1,-0.3309121133491597,-1.1261506001875414,-0.9917786325112808
1769247162920,126,-2,-0.8703645340215747,-1.6897694477849194,-1.5299301397558924
1769247162924,126,-2,-1.5166690891269328,-2.0308669186815487,-2.1737255190669513
1769247162928,125,-3,-1.955019987516722,-2.8625224431772587,-2.6103030473480464
1769247162932,125,-3,-1.9966114904991097,-2.8880028926800385,-2.6520342849157705
1769247162936,126,-2,-1.6437762145347783,-2.082459174668916,-2.3013338808799952
1769247162940,126,-2,-1.043887168684623,-1.6857878528790176,-1.7046850010387993
1769247162944,127,-1,-0.3868381557647904,-1.1514984587807264,-1.050323362865215
1769247162948,127,-1,0.1752373410579513,-0.695843503998723,-0.4888727518827285
1769247162952,128,0,0.5562043048295651,-0.1589084434733308,-0.1064352509847708
1769247162956,128,0,0.7386236636761985,0.204767337290917,0.0779627118079226
1769247162960,128,0,0.7744168706718326,-0.0244182478891987,0.1145616754170112
1769247162964,128,0,0.7697803262547465,0.1459075964611788,0.1093565922749593
1769247162968,128,0,0.8370020276513443,0.0121640294411321,0.1758139900322325
1769247162972,128,0,1.0352969629483737,0.0372428150332304,0.3741845013517312
1769247162976,129,1,1.349455356753547,1.0476031796749024,0.6890768305120274
1769247162980,129,1,1.7241551867459657,1.0482440148989824,1.0643160724450795
1769247162984,129,1,2.113145741341316,1.073618607930478,1.4532769443775844
1769247162988,130,2,2.491127635282494,2.04531892422423,1.8309763775404784
1769247162992,130,2,2.8273609242586804,1.942242366496373,2.1671017157420613
1769247162996,130,2,3.0661053406990533,2.1491522781921253,2.406136255986966
1769247163000,131,3,3.148016640321306,2.885140130055505,2.488943808701173
1769247163004,130,2,3.0575184875460404,2.2378651046308486,2.4001977982462344
1769247163008,130,2,2.8473202445621477,1.8115069459619335,2.192317455492339
1769247163012,130,2,2.609526484440612,2.165281313425478,1.9561587329164436
1769247163016,130,2,2.4099050185927755,1.8735529639636148,1.7563887227726638
1769247163020,129,1,2.225205077045512,1.1517588737631417,1.5704365493819612
1769247163024,129,1,1.9242413948101336,0.9451258486512082,1.2690693541820548
1769247163028,129,1,1.3293788267740796,1.0414214405957052,0.6756058217810599
1769247163032,128,0,0.3479336905212866,-0.0716944748907573,-0.3034577247132806
1769247163036,126,-2,-0.9231572946079052,-1.9583041678951632,-1.5723440401194098
1769247163040,125,-3,-2.2274731624221973,-2.999827637783043,-2.874982768077756
1769247163044,124,-4,-3.305379637868634,-3.971563687075476,-3.951594456820495
1769247163048,123,-5,-4.045179499970992,-5.054718449064474,-4.690423154003181
1769247163052,123,-5,-4.504435167320425,-5.02350611926205,-5.148988256969709
1769247163056,123,-5,-4.7982581230420065,-5.018941029033555,-5.441935190710998
1769247163060,122,-6,-4.970007708953423,-5.979264553603639,-5.611821069076294
1769247163064,122,-6,-4.966902839681103,-6.020119644939268,-5.605802828792668
1769247163068,123,-5,-4.731384030131893,-5.058868239366545,-5.367715146386873
1769247163072,123,-5,-4.3087780140372764,-5.042287060640994,-4.944472759811145
1769247163076,123,-5,-3.871132666782594,-5.027446089628234,-4.507966047777014
1769247163080,124,-4,-3.633350521642204,-3.991177926298989,-4.271052225840426
1769247163084,124,-4,-3.712474752882637,-4.057593370203381,-4.348303551300091
1769247163088,123,-5,-4.029302374836966,-5.067903246424176,-4.659254518153477
1769247163092,123,-5,-4.3411320186386515,-5.056343502777574,-4.962707820105424
1769247163096,123,-5,-4.399084550606862,-5.044208026837111,-5.014564175561885
1769247163100,123,-5,-4.118351566147839,-4.991424145240445,-4.735378426797551
1769247163104,124,-4,-3.6375156365885046,-4.098961945380169,-4.264403201785571
1769247163108,124,-4,-3.2170560606304575,-4.061683371845291,-3.855123203274725
1769247163112,124,-4,-3.010974517080256,-4.112247470742065,-3.650700581471246
1769247163116,125,-3,-2.808887272011802,-2.9939031948794774,-3.4349131467860774
1769247163120,126,-2,-1.9097375256293871,-2.0921491980093707,-2.5120302952155225
1769247163124,128,0,0.67734040454667,-0.0117944196629846,0.095046856369925
1769247163128,133,5,5.624521997214064,4.807011034140404,5.046176280100752
1769247163132,139,11,12.501621363970033,10.99266126693433,11.90930571876183
1769247163136,146,18,19.360518959780222,17.874546901037533,18.745803825869675
1769247163140,151,23,23.20171380863112,23.01956892941908,22.56968780453725
1769247163144,150,22,21.32654873429868,21.808541709933632,20.691145384378373
1769247163148,141,13,12.874846844619446,12.933389197707182,12.250800965589082
1769247163152,127,-1,-0.4647636157649988,-1.222876575899162,-1.0677989228366556
1769247163156,111,-17,-15.129028095802218,-16.926890144019573,-15.709111577219046
1769247163160,99,-29,-27.344793088295916,-29.197073184306316,-27.908432408887315
1769247163164,93,-35,-34.70854886873704,-34.92980136826319,-35.26902172551931
1769247163168,92,-36,-36.76604481245546,-36.33161829972397,-37.33736312973184
1769247163172,93,-35,-34.50840247641419,-34.98708799987148,-35.0967970771391
1769247163176,98,-30,-29.440371568075115,-30.21284659196587,-30.040161781478005
1769247163180,104,-24,-22.933187182671738,-23.98779517545316,-23.53164979195268
1769247163184,111,-17,-16.07662794498916,-17.155750387458887,-16.663868844961577
1769247163188,118,-10,-9.773019942043916,-10.1328161113612,-10.3480891063011
1769247163192,123,-5,-4.750095162905339,-5.216427818264712,-5.318978913507641
1769247163196,126,-2,-1.4176015432089204,-2.0540578818553294,-1.9865406324136976
1769247163200,128,0,0.2717169450676753,-0.1982041506042857,-0.2988193010919011
1769247163204,128,0,0.7794530712276395,0.0146433961511196,0.2105124382795657
1769247163208,128,0,0.7416540376756906,-0.2944648152897511,0.1785380656582009
1769247163212,128,0,0.6840106262662227,-0.0818973628749957,0.1277757446039614
1769247163216,129,1,0.8718549974397156,0.7695767881080775,0.3190465130729023
1769247163220,129,1,1.3407921013970197,0.9280427206194272,0.786467665974222
1769247163224,129,1,1.9981023242606992,0.8575492006973344,1.4405295022633977
1769247163228,130,2,2.6810159350537166,1.8611223320228816,2.123073792139273
1769247163232,131,3,3.186804462306474,2.717921374499065,2.6327132348750655
1769247163236,131,3,3.3527631236453628,2.9378361648264817,2.804174124704764
1769247163240,131,3,3.172096447375205,2.694849109929255,2.6277086944994665
1769247163244,130,2,2.830336728168991,2.0732610012086923,2.288441743114364
1769247163248,130,2,2.5942808573089455,1.6236750503532118,2.054513885371944
1769247163252,130,2,2.635080314925793,1.916003228372681,2.0976068840445254
1769247163256,131,3,2.939884728733914,2.7300360445224707,2.404041908314107
1769247163260,131,3,3.375251343129582,2.8131680079188683,2.8401028444064087
1769247163264,131,3,3.8176455466410024,2.9863552659860764,3.283617541826649
1769247163268,132,4,4.227312881693719,3.619535805774758,3.6961305879329487
1769247163272,132,4,4.629643783128172,3.9412569657993304,4.102267603498664
1769247163276,133,5,5.055440162331594,4.627070645236129,4.530824296897162
1769247163280,133,5,5.494786258919669,4.894658084142709,4.971240431164458
1769247163284,133,5,5.883789983507227,4.889281846360854,5.361028743144874
1769247163288,134,6,6.131919860785,5.641373243409307,5.6110336996236425
1769247163292,134,6,6.18979379332917,5.960059968314722,5.6715573012292175
1769247163296,134,6,6.114298867133822,5.471436873216014,5.598435484265112
1769247163300,133,5,6.058923057401023,5.125864266456393,5.544982656755301
1769247163304,134,6,6.176261842408877,5.51717587393951,5.664329916629351
1769247163308,134,6,6.516876077350105,6.076157206471082,6.007193404948542
1769247163312,135,7,7.016965611242667,6.427828727807303,6.509407300499868
1769247163316,135,7,7.57346492883601,7.0114674549419185,7.067566888644642
1769247163320,136,8,8.124762108789405,7.533591037091408,7.61994562842883
1769247163324,136,8,8.666536986973277,8.057286217569994,8.162381549618374
1769247163328,137,9,9.202454938165138,8.539428962890062,8.699189063035897
1769247163332,137,9,9.689379051811464,8.8867159803983,9.188068318143165
1769247163336,138,10,10.043727796568607,9.579335338696886,9.545432105868668
1769247163340,138,10,10.219754854694187,9.865269957616537,9.724295674571344
1769247163344,138,10,10.288278664601457,9.747251798580544,9.794255934723232
1769247163348,138,10,10.418950049252029,9.757916045638572,9.925259983209529
1769247163352,138,10,10.753043150120597,9.700349839698385,10.260006369337754
1769247163356,139,11,11.278835960011412,10.666959229765792,10.78743280180093
1769247163360,140,12,11.842936277830557,11.818096555280642,11.353311710602837
1769247163364,140,12,12.299086934440004,11.682564308023696,11.810461661618609
1769247163368,140,12,12.6484022364508,11.859133463724172,12.160318405863883
1769247163372,141,13,13.033588427775804,12.50574135918155,12.5466218777565
1769247163376,141,13,13.60062651378777,12.85767551131594,13.115768149300203
1769247163380,142,14,14.363607333347304,13.593805354551058,13.881157589796835
1769247163384,143,15,15.19098551956358,14.857124809491914,14.71003126344636
1769247163388,144,16,15.911365037301271,15.698719758418386,15.430392976351316
1769247163392,144,16,16.42738893096887,15.553957254332907,15.945618384385874
1769247163396,144,16,16.730166508308855,15.854899103633546,16.248222474999015
1769247163400,145,17,16.82172340207906,16.472928285565715,16.340971763757203
1769247163404,144,16,16.648643723531755,16.034532999936506,16.170122882817317
1769247163408,144,16,16.121987672002007,15.4288503250681,15.645808452516526
1769247163412,143,15,15.19855235979345,14.819386289549737,14.723697996124866
1769247163416,142,14,13.937489326585377,13.54530608871916,13.462293674553605
1769247163420,140,12,12.464713016060404,11.707711372643356,11.988337190811489
1769247163424,138,10,10.85982090208223,9.854981109801034,10.383294048857309
1769247163428,137,9,9.073130809685068,8.469376403134754,8.598135592140157
1769247163432,135,7,6.981389821136551,6.87165266944638,6.507984162718013
1769247163436,133,5,4.553993941364984,4.317576425950754,4.0805087582100334
1769247163440,129,1,1.960319863844827,1.023923696111846,1.4857846162184625
1769247163444,127,-1,-0.5086964342953264,-1.5923096538930093,-0.983091651679403
1769247163448,125,-3,-2.629428272415775,-3.05002755766662,-3.1019883739669813
1769247163452,124,-4,-4.350321254298461,-4.6612380535480025,-4.8211871901131875
1769247163456,122,-6,-5.726375576558482,-6.202977457235318,-6.1973296920714285
1769247163460,121,-7,-6.787926150637983,-7.422662617552187,-7.260247917810101
1769247163464,120,-8,-7.494966926602187,-8.288209910029192,-7.968282795633509
1769247163468,120,-8,-7.808997143321252,-8.276570205356364,-8.282159187787567
1769247163472,120,-8,-7.788542186454509,-8.570338616475468,-8.26103913078596
1769247163476,120,-8,-7.602352268694539,-8.240518277752074,-8.074737496557939
1769247163480,121,-7,-7.440220240109762,-7.4577295982637315,-7.913392551319101
1769247163484,120,-8,-7.3978300246758,-8.304196671973784,-7.872010887155491
1769247163488,120,-8,-7.434783400900729,-8.263681175323729,-7.909302615861483
1769247163492,121,-7,-7.433191950090951,-7.669992567359136,-7.907260507690818
1769247163496,120,-8,-7.295465644293429,-8.103950671684263,-7.768863857173796
1769247163500,121,-7,-7.003512791545011,-7.681886502791222,-7.4765791222073
1769247163504,121,-7,-6.609272926582542,-7.072290283363051,-7.082750512434853
1769247163508,122,-6,-6.180655164715214,-6.573704954864599,-6.655545694902193
1769247163512,122,-6,-5.75858672458883,-6.378617850420776,-6.235537364183048
1769247163516,122,-6,-5.366195262065409,-6.404148111353268,-5.844882718484485
1769247163520,123,-5,-5.046346025062709,-5.463580502133679,-5.5258024803190775
1769247163524,123,-5,-4.860415784320103,-5.253580942499626,-5.339878644456006
1769247163528,123,-5,-4.827938814571626,-5.533371831004737,-5.307097274697822
1769247163532,123,-5,-4.86991215556915,-5.340484084501239,-5.348680892567996
1769247163536,123,-5,-4.829134395797319,-5.571552164927661,-5.307836345557039
1769247163540,123,-5,-4.5681614200936895,-5.250638467148814,-5.047917349422527
1769247163544,124,-4,-4.073537468324973,-4.557169548181209,-4.555832841483634
1769247163548,124,-4,-3.487401784403724,-4.238201546800498,-3.972830306650228
1769247163552,125,-3,-3.0373172994325452,-3.675652330402288,-3.524895576533725
1769247163556,125,-3,-2.901241596081363,-3.269357669391815,-3.3892162853346135
1769247163560,125,-3,-3.09275276660859,-3.5837670261103285,-3.5800433403923617
1769247163564,124,-4,-3.4522107921154617,-4.278372584231742,-3.939116489782619
1769247163568,124,-4,-3.760547339352677,-4.532647994013786,-4.248436676591461
1769247163572,124,-4,-3.891240355348859,-4.439302026007137,-4.381657326025973
1769247163576,124,-4,-3.878655362566104,-4.4960152044089465,-4.372243405543502
1769247163580,124,-4,-3.85197680861694,-4.430413028762381,-4.347904277734843
1769247163584,124,-4,-3.895551148101008,-4.430235977005372,-4.39215207593055
1769247163588,124,-4,-3.9523889587015746,-4.464708507856413,-4.448585380349213
1769247163592,124,-4,-3.8541941199156486,-4.5032074821103665,-4.350342975967725
1769247163596,124,-4,-3.464536612888409,-4.485445734838686,-3.96212219861392
1769247163600,125,-3,-2.8233267840203577,-3.458644680372542,-3.3240632182874976
1769247163604,126,-2,-2.163844968187578,-2.437538733614939,-2.6686897115618
1769247163608,126,-2,-1.7733418131891796,-2.5146706981255296,-2.281712539709431
1769247163612,126,-2,-1.801126976963984,-2.4613780086313968,-2.3110594279103136
1769247163616,126,-2,-2.1577573864465203,-2.5922481200015532,-2.667283252040592
1769247163620,125,-3,-2.5731129268983803,-3.3559247899476015,-3.08169505469255
1769247163624,125,-3,-2.769378382136927,-3.608022774306691,-3.278174591224767
1769247163628,125,-3,-2.631310727497495,-3.341119497663104,-3.142401816448962
1769247163632,126,-2,-2.259858335080029,-2.7044322257984006,-2.775108523415075
1769247163636,126,-2,-1.882891332538006,-2.3437012236524173,-2.402829987205437
1769247163640,126,-2,-1.7041787761643044,-2.6637440940870447,-2.227582115745296
1769247163644,126,-2,-1.8007353698614317,-2.3475016251329976,-2.3255476449806896
1769247163648,126,-2,-2.116193157664992,-2.5980063922257974,-2.6410960786670503
1769247163652,125,-3,-2.523876890526457,-3.562388021695817,-3.0490593398206665
1769247163656,125,-3,-2.9040966385554015,-3.39739396042181,-3.430834619643205
1769247163660,125,-3,-3.1888615117165044,-3.77115801557467,-3.7185831010699375
1769247163664,124,-4,-3.358780792716706,-4.164824080166444,-3.89221475228246
1769247163668,125,-3,-3.414228740838549,-3.904604376993646,-3.951001799615936
1769247163672,124,-4,-3.354307592186904,-4.2377840933879405,-3.893265258783724
1769247163676,125,-3,-3.1769608796352085,-3.76483904165564,-3.7170397551830736
1769247163680,125,-3,-2.8916985795086676,-3.453646375830647,-3.4327431637290067
1769247163684,125,-3,-2.5322828197699687,-3.4869651977232268,-3.075311489815727
1769247163688,126,-2,-2.1612812727832287,-2.668647561689625,-2.707998943988321
1769247163692,126,-2,-1.8617482455524528,-2.453945004377049,-2.413321262937056
1769247163696,126,-2,-1.7157461738817286,-2.6262781706880025,-2.2715700703938007
1769247163700,126,-2,-1.7713793784792375,-2.5933547869592344,-2.329236785884759
1769247163704,126,-2,-2.000196855014731,-2.4036375701878168,-2.5580638219832603
1769247163708,126,-2,-2.26652893056939,-2.793973957548414,-2.824237856916241
1769247163712,125,-3,-2.3587809570440705,-3.342940313862063,-2.9179106416786738
1769247163716,126,-2,-2.107310214654923,-2.782633975691529,-2.6698678623595047
1769247163720,126,-2,-1.5247061816138354,-2.4631489183644035,-2.0921115514098383
1769247163724,127,-1,-0.8481696471003395,-1.5702545952188278,-1.4209256267504582
1769247163728,128,0,-0.4226782173312222,-0.6779922005070649,-1.000162792620464
1769247163732,127,-1,-0.493995736682818,-1.4611080646278325,-1.0743677942814798
1769247163736,127,-1,-1.058467780141463,-1.7484691026072805,-1.6394580843900268
1769247163740,126,-2,-1.8707403956022188,-2.47653705768072,-2.4513477799788883
1769247163744,125,-3,-2.591612973401076,-3.6680314940082246,-3.173207477604421
1769247163748,125,-3,-2.9700874203012506,-3.537380215617312,-3.555502954761454
1769247163752,125,-3,-2.9482228211634416,-3.681353164251957,-3.53936762478079
1769247163756,125,-3,-2.6385781984523544,-3.528583943477128,-3.234782967732383
1769247163760,126,-2,-2.205064795837629,-2.751130671763754,-2.803896094908126
1769247163764,126,-2,-1.733816023578374,-2.4323933976541916,-2.333555681531642
1769247163768,127,-1,-1.187498178292654,-1.814351301676566,-1.7886312062044014
1769247163772,127,-1,-0.4847911053341791,-1.4084064852808376,-1.0891248544236036
1769247163776,128,0,0.3528722657552756,-0.8742430771930747,-0.2560070729687987
1769247163780,129,1,1.1246213895657238,0.5976337030035523,0.510982521800402
1769247163784,130,2,1.5433484830196025,1.1412476906264544,0.9254568346009728
1769247163788,129,1,1.4451598228586544,0.6023661123895205,0.8239148089606787
1769247163792,129,1,0.9393067732247702,0.142697032869703,0.3158349894377263
1769247163796,128,0,0.3670503517298495,-0.4828754085721672,-0.2578276065330992
1769247163800,128,0,0.1011463061656929,-0.8107016257129652,-0.5251838784072658
1769247163804,128,0,0.3383833438344135,-0.5064397833289416,-0.29029931007244
1769247163808,129,1,1.0253049260928342,0.2521110427299118,0.3929171316277848
1769247163812,130,2,1.9438655714721056,1.4449912027507974,1.306449285389006
1769247163816,131,3,2.862180671972431,2.183963636390942,2.219133844178301
1769247163820,131,3,3.6211256009398456,2.4671641786486473,2.973161492485474
1769247163824,132,4,4.113022729958228,3.176311618404821,3.4617682918332773
1769247163828,132,4,4.229423384765654,3.5549348919799053,3.576070743362021
1769247163832,132,4,3.877330546723922,3.0980646404715473,3.221794897062824
1769247163836,131,3,3.0638387154532705,2.506253715832067,2.4053825419324726
1769247163840,130,2,1.9499534612626808,1.0911339133201956,1.2883057296020224
1769247163844,128,0,0.7923876206593626,-0.4994757465858688,0.1277384130677117
1769247163848,128,0,-0.1952383065127271,-0.7650734414014276,-0.8632681769445176
1769247163852,127,-1,-0.9506893267392996,-1.6390641288436156,-1.6232937394804057
1769247163856,126,-2,-1.5629545501081443,-2.7539170294994735,-2.240900161637262
1769247163860,126,-2,-2.17760816780338,-2.72982499526373,-2.8602168519854256
1769247163864,125,-3,-2.8780660162308984,-3.6929900340438735,-3.5639466620864018
1769247163868,124,-4,-3.6151964258699376,-4.635582053714181,-4.303732862415415
1769247163872,124,-4,-4.229233932363147,-4.749246177654399,-4.920823659052153
1769247163876,123,-5,-4.555411245343191,-5.718538556818615,-5.250310656735581
1769247163880,123,-5,-4.543073482801429,-5.779019176829756,-5.240808177115534
1769247163884,124,-4,-4.294376558347443,-4.709182688425837,-4.994877135086925
1769247163888,124,-4,-3.9877786408139193,-4.630884528983552,-4.692573396667332
1769247163892,124,-4,-3.761093128742254,-4.789648787992372,-4.472444760898832
1769247163896,124,-4,-3.667015889395496,-4.697009948865759,-4.385725856874355
1769247163900,124,-4,-3.71873531686104,-4.877834558906452,-4.443041452122873
1769247163904,124,-4,-3.929955772634872,-4.6390924901347095,-4.656341826385178
1769247163908,124,-4,-4.2728422528773535,-4.719439616426634,-4.997826510243431
1769247163912,123,-5,-4.604647726119822,-5.7399883969738354,-5.327045900117532
1769247163916,123,-5,-4.68192487656124,-5.74752162018549,-5.405241059831138
1769247163920,124,-4,-4.3013366772564705,-4.93497930102574,-5.033821364919508
1769247163924,124,-4,-3.4700067822759197,-4.569964732269684,-4.219546186997567
1769247163928,125,-3,-2.4481148291914177,-3.8537682708334895,-3.2144191792382575
1769247163932,126,-2,-1.557591582570623,-2.57213004985945,-2.3295128808340047
1769247163936,128,0,-0.8035846795370856,-1.0099206080846712,-1.565998766751744
1769247163940,129,1,0.4245479882646821,0.3088185143011588,-0.3205022823138435
1769247163944,131,3,3.1922633931755815,2.114057720473832,2.4591102887914675
1769247163948,135,7,8.251519058455166,6.46771235782003,7.514748953533509
1769247163952,142,14,15.058973861753302,13.095203992475264,14.30194340595199
1769247163956,149,21,21.369425049721656,20.262130729420676,20.58285859724326
1769247163960,153,25,23.9678899513184,24.0281932226629,23.154489940689466
1769247163964,149,21,20.305234820442564,20.270861564382308,19.479306646662764
1769247163968,138,10,10.052731096513831,9.31928106985446,9.234213160448116
1769247163972,123,-5,-4.457966920944298,-5.8758585671133,-5.253887841618357
1769247163976,108,-20,-19.222217214390056,-20.771059370360415,-19.9945494836228
1769247163980,97,-31,-30.367605086662422,-31.939018326311935,-31.130941002942308
1769247163984,92,-36,-35.71921318479635,-36.780498228788744,-36.49480607165172
1769247163988,93,-35,-35.33667852162825,-35.533051968095606,-36.13916965519652
1769247163992,97,-31,-30.937236691105387,-32.1692023070913,-31.766839571695243
1769247163996,103,-25,-24.740552846903753,-25.444213488068236,-25.58570720225343
1769247164000,111,-17,-18.461696022484595,-18.40989170118285,-19.308132623934327
1769247164004,113,-15,-12.928051795193266,-15.304186291239104,-13.766630104342282
1769247164008,119,-9,-8.319447321788914,-10.042746562636374,-9.149461665311163
1769247164012,124,-4,-4.630309989865294,-4.720521687616221,-5.458705262029154
1769247164016,126,-2,-1.9166359245391953,-2.9205097038631784,-2.753101176887236
1769247164020,128,0,-0.225767395691359,-1.0162555009842595,-1.075416346585209
1769247164024,128,0,0.5633349486859909,-0.6479404335087371,-0.2962424058365573
1769247164028,128,0,0.7624425681857421,-0.8239746114340649,-0.0995001008310378
1769247164032,129,1,0.7535815643999824,0.1206607265453334,-0.1069361693506067
1769247164036,129,1,0.8506032280262588,0.1084707367324879,-0.0119292663014221
1769247164040,129,1,1.212264078286963,-0.0166580686889239,0.3416538937285984
1769247164044,129,1,1.7977491265547214,0.3154769760937994,0.91713501762426
1769247164048,130,2,2.3829532891304384,1.159776279469087,1.4955986362752187
1769247164052,131,3,2.6938960979511983,2.117410028960559,1.8034529289592032
1769247164056,131,3,2.62041691285009,2.047926014241318,1.7271246093227968
1769247164060,130,2,2.331065569114655,1.025726247676595,1.4331750681183568
1769247164064,129,1,2.1463281145137456,0.2482694030789427,1.243352567350939
1769247164068,130,2,2.2672293451239196,1.162062962859308,1.3600160970710662
1769247164072,131,3,2.6258489765486037,2.1098268556422775,1.7141943845754994
1769247164076,131,3,2.9975806409036743,1.9895164127953064,2.0796970263615653
1769247164080,131,3,3.235919197141796,2.102542943564378,2.310605579496333
1769247164084,131,3,3.3870093493732742,2.08555023411172,2.455264874404743
1769247164088,131,3,3.6003217968907206,2.304303000959386,2.6643585239932683
1769247164092,132,4,3.9597823123751263,2.905200805893674,3.0208886047161427
1769247164096,132,4,4.407283314792172,3.199216390902497,3.46470839236658
1769247164100,133,5,4.81566908219929,3.8546408052679,3.867160994771597
1769247164104,133,5,5.123804026772144,4.297235562516935,4.16740107581784
1769247164108,133,5,5.394698134779198,4.03185832845643,4.43072034039034
1769247164112,133,5,5.738979017992959,4.125735753724746,4.77023845793279
1769247164116,134,6,6.190409177066072,4.996396122690835,5.219577717628767
1769247164120,135,7,6.675707267458825,5.984008026568504,5.702217993941972
1769247164124,135,7,7.106994921037975,6.198383768610676,6.12730015856014
1769247164128,135,7,7.470211345512784,5.9901109859643045,6.481467936974713
1769247164132,135,7,7.791552368123954,6.20609635998186,6.794433771161779
1769247164136,136,8,8.034051466325614,6.814861137663569,7.031564844399054
1769247164140,136,8,8.08228888825677,7.216720959453425,7.0764975539524055
1769247164144,136,8,7.8692682228189215,6.885945117760636,6.8598324667863055
1769247164148,135,7,7.514772168161216,6.266250929971148,6.500252885588751
1769247164152,135,7,7.3076332854588415,5.881414084926808,6.287240670678189
1769247164156,135,7,7.518813186451243,6.08262174832558,6.492599494322121
1769247164160,136,8,8.204888086604994,6.994216891007735,7.1727993347940675
1769247164164,137,9,9.17563550699811,8.016511527555888,8.13700054618806
1769247164168,138,10,10.15112799840772,9.150688489050468,9.10530813189106
1769247164172,139,11,10.968910214483802,9.87594631454482,9.916404307464646
1769247164176,139,11,11.667755246934371,10.097441419760568,10.610355262239173
1769247164180,140,12,12.395239428151896,10.944275631518956,11.33454271479816
1769247164184,141,13,13.24467884133646,12.040481020722652,12.180200782734646
1769247164188,142,14,14.170785876850076,13.099342151296783,13.099995427917571
1769247164192,143,15,15.03312202517313,13.839410776796244,13.953856306423388
1769247164196,143,15,15.69654620991897,14.140348787614505,14.609220457261005
1769247164200,144,16,16.10055826480321,14.839897504453717,15.00757482383611
1769247164204,144,16,16.27285925475764,15.151488982894076,15.176013414794058
1769247164208,144,16,16.305474264946007,14.920567562861043,15.204431814029642
1769247164212,144,16,16.306475517382275,14.971928003988332,15.199717124038004
1769247164216,144,16,16.338341762746808,14.988149565961477,15.224997008277125
1769247164220,144,16,16.374751258487777,14.940401160953618,15.255166090527158
1769247164224,144,16,16.310926225227245,15.066018607457549,15.185675379334093
1769247164228,144,16,16.02369209172023,14.92047032330706,14.892546594506568
1769247164232,143,15,15.429976306127084,13.953445864264996,14.292131151391262
1769247164236,142,14,14.49345868940532,12.94501212375854,13.348624170609064
1769247164240,141,13,13.187615331254204,11.972349978713492,12.036591944379804
1769247164244,139,11,11.475199819769529,10.006453484374171,10.319234201930314
1769247164248,137,9,9.346303696017731,7.932601540135975,8.185801082083835
1769247164252,135,7,6.887245659932487,5.9015490594506215,5.721241141989427
1769247164256,132,4,4.302129280901226,2.947197060297053,3.129406838749527
1769247164260,129,1,1.8353368539888864,-0.0496376713323973,0.655959926592228
1769247164264,127,-1,-0.3566356227085165,-1.98536348107366,-1.5416284051322062
1769247164268,126,-2,-2.2599178260991737,-3.141107232685634,-3.4503137703066757
1769247164272,124,-4,-3.9237498829778454,-5.027720588105066,-5.120577273771211
1769247164276,122,-6,-5.337479516287102,-7.214178778194655,-6.541278187834026
1769247164280,121,-7,-6.402098467022181,-7.85974082551556,-7.611771308236496
1769247164284,121,-7,-7.017317521707496,-8.260791666823902,-8.23132779833626
1769247164288,120,-8,-7.183777617187751,-8.864379582491825,-8.402028901183197
1769247164292,121,-7,-7.0274364319196385,-8.359547665379806,-8.251595758203136
1769247164296,121,-7,-6.741615217382588,-7.926380502753739,-7.973665715711667
1769247164300,121,-7,-6.506680274217,-8.149769666897544,-7.747086610030533
1769247164304,121,-7,-6.444114568917455,-8.068964129787386,-7.691301883641949
1769247164308,121,-7,-6.60870265623902,-8.00404503939638,-7.860470516562457
1769247164312,121,-7,-6.983235524564066,-8.375157077713705,-8.238713441105432
1769247164316,120,-8,-7.464428842589164,-8.815542833180908,-8.724510514089689
1769247164320,120,-8,-7.87740740390811,-9.41714727212971,-9.143406245318651
1769247164324,119,-9,-8.049014193550803,-9.738121327998709,-9.321328462108202
1769247164328,120,-8,-7.903970358000963,-9.434105364048216,-9.182271538568768
1769247164332,120,-8,-7.504903639680451,-8.962881496153088,-8.789230576460199
1769247164336,121,-7,-6.99938129080874,-8.235373240401348,-8.290345551036827
1769247164340,121,-7,-6.524262768194746,-8.084083159780278,-7.821998811476528
1769247164344,121,-7,-6.149873322611594,-8.043408392720053,-7.453443750880765
1769247164348,122,-6,-5.888201323001264,-7.246480887325832,-7.196627206856676
1769247164352,122,-6,-5.720666715240626,-7.1166916539744145,-7.034141873878715
1769247164356,122,-6,-5.607455334617621,-7.169061427468214,-6.926815801453278
1769247164360,122,-6,-5.490820895456393,-7.131899483044882,-6.8160365541180905
1769247164364,122,-6,-5.313078743023887,-7.074990132501728,-6.643126668020817
1769247164368,123,-5,-5.037599885169772,-6.239272039872393,-6.37195940167927
1769247164372,123,-5,-4.657141667508201,-6.16039176867976,-5.996742197188933
1769247164376,123,-5,-4.2026264420796835,-6.157205928281167,-5.549023648907825
1769247164380,124,-4,-3.7629410582938303,-5.165534989546477,-5.11689226584484
1769247164384,124,-4,-3.485785913022799,-5.094814397631323,-4.846701483346148
1769247164388,124,-4,-3.521519637453638,-5.269241284951902,-4.887936371658636
1769247164392,124,-4,-3.92448623115551,-5.1468599003973665,-5.294945325687273
1769247164396,123,-5,-4.582975307301457,-6.2105137122729035,-5.956775779921512
1769247164400,122,-6,-5.246760738870556,-7.14987959721653,-6.624363050772493
1769247164404,122,-6,-5.651884773168584,-7.130727235638844,-7.034796406491448
1769247164408,122,-6,-5.662021117716821,-7.320493009371771,-7.051872216804973
1769247164412,122,-6,-5.329348192715479,-7.063166038984702,-6.726509751729542
1769247164416,123,-5,-4.8367260735560205,-6.372456254579175,-6.239888058845594
1769247164420,123,-5,-4.362425345888736,-5.985354284264764,-5.769899345222765
1769247164424,124,-4,-3.960622326415441,-5.368110661660123,-5.3719218919545995
1769247164428,124,-4,-3.55034118223713,-5.127895751665722,-4.96612163001865
1769247164432,124,-4,-3.033022364847783,-5.257895887518443,-4.453856171625153
1769247164436,125,-3,-2.4418008404302536,-4.251900032675197,-3.867877756781529
1769247164440,126,-2,-1.9728268486637388,-3.0700669507692617,-3.4047245925140466
1769247164444,126,-2,-1.849941086508643,-3.4125684247396393,-3.2884802927167693
1769247164448,125,-3,-2.144015597511284,-4.048273373388067,-3.5888651976116224
1769247164452,125,-3,-2.711920896790037,-4.428628886931344,-4.161169969495293
1769247164456,124,-4,-3.2912854708184396,-5.089070854316984,-4.743034087286716
1769247164460,124,-4,-3.648799748359142,-5.251525437863438,-5.102903388942597
1769247164464,124,-4,-3.6706491190169657,-5.307732894587805,-5.128668969535582
1769247164468,124,-4,-3.3677964930659425,-5.132424808778696,-4.831577359496058
1769247164472,125,-3,-2.836859080612327,-4.447877426918028,-4.307376617131339
1769247164476,125,-3,-2.2219903185084897,-4.0388947778367905,-3.69914413958976
1769247164480,126,-2,-1.6902945136936438,-3.3919225205770043,-3.1731849405538632
1769247164484,126,-2,-1.4045873722596045,-3.161708337694562,-2.891920135495851
1769247164488,126,-2,-1.4752648735590426,-3.3464672844835484,-2.9659691104238526
1769247164492,126,-2,-1.8997789839620016,-3.2665323711769485,-3.3935545605114465
1769247164496,125,-3,-2.5347433194689297,-4.237918365613323,-4.031922044610521
1769247164500,124,-4,-3.1487543956663115,-5.261056430475913,-4.6497325037823725
1769247164504,124,-4,-3.5443569784627504,-5.2803278288123545,-5.049571343002365
1769247164508,124,-4,-3.663719201247378,-5.3155542458577205,-5.174045743614528
1769247164512,124,-4,-3.596312025828861,-5.292477545815936,-5.1126804399455175
1769247164516,124,-4,-3.493206694652203,-5.261765407759101,-5.015413764177034
1769247164520,124,-4,-3.4637117281886547,-5.27504414275068,-4.99007766319402
1769247164524,124,-4,-3.5215191728252755,-5.2914320605022525,-5.050286025390376
1769247164528,124,-4,-3.5956267511042954,-5.3733616623589056,-5.12669812739488
1769247164532,124,-4,-3.585724187045529,-5.236238624289204,-5.120671982393125
1769247164536,124,-4,-3.431823597150102,-5.371135242397944,-4.972091512830618
1769247164540,124,-4,-3.161048010975671,-5.187561819745879,-4.706493175970952
1769247164544,125,-3,-2.87282748725065,-4.421519612007023,-4.422206856720145
1769247164548,125,-3,-2.659312994608237,-4.295852465453594,-4.21175867635819
1769247164552,125,-3,-2.5240721511018163,-4.323794554130191,-4.079659408313493
1769247164556,125,-3,-2.382534535947481,-4.340329975842189,-3.94176699866548
1769247164560,125,-3,-2.1529457944530175,-4.2296465863383315,-3.716328283597142
1769247164564,126,-2,-1.848813065991244,-3.4518222800919247,-3.416781935166016
1769247164568,126,-2,-1.5787361051084805,-3.2673157878664796,-3.151240649132231
1769247164572,126,-2,-1.453995508560539,-3.415221036063886,-3.0299893690097104
1769247164576,126,-2,-1.4896846994071686,-3.250716480871481,-3.067758318658762
1769247164580,126,-2,-1.5813548295223232,-3.386831397749085,-3.161306468369527
1769247164584,126,-2,-1.5752596732832762,-3.3302017522735303,-3.1585606247662223
1769247164588,126,-2,-1.3879559575131395,-3.408165362258222,-2.976235330061404
1769247164592,126,-2,-1.0912273093897376,-3.327544610133747,-2.684666412242509
1769247164596,127,-1,-0.8801050549372504,-2.3370856769124204,-2.4776211490166076
1769247164600,127,-1,-0.9207083684710604,-2.377205150604547,-2.521145010876536
1769247164604,126,-2,-1.19433454390481,-3.360655143742443,-2.796983176129932
1769247164608,126,-2,-1.483681888704301,-3.4230677620371877,-3.0882011006094197
1769247164612,126,-2,-1.5252045237742804,-3.342877786529141,-3.1317952639557234
1769247164616,126,-2,-1.199450284216763,-3.348456219653443,-2.80908587104241
1769247164620,127,-1,-0.6036086338278817,-2.406380047063247,-2.217626921526417
1769247164624,128,0,0.041012907646549,-1.3629779580654495,-1.578039424088647
1769247164628,128,0,0.5562820979989516,-1.4663886754980635,-1.066930788607222
1769247164632,128,0,0.909353942920088,-1.3339500879340966,-0.7161303613298493
1769247164636,129,1,1.185969559865736,-0.3900202901514358,-0.4406124552319184
1769247164640,129,1,1.4869434843228002,-0.4110593892414889,-0.1413268970999832
1769247164644,129,1,1.8407426428501883,-0.3789654712422754,0.2092822367693325
1769247164648,130,2,2.187309948659353,0.50434773280374,0.5517769811004709
1769247164652,130,2,2.433476354083567,0.6652255325323329,0.7941615459360065
1769247164656,130,2,2.5334515767278303,0.5646525932719237,0.891340510433976
1769247164660,130,2,2.526815848116526,0.6107453606112387,0.8828138328438269
1769247164664,130,2,2.500904197882283,0.5466453945682903,0.8552225762293737
1769247164668,130,2,2.5116656544781635,0.5641641125393764,0.8636566438362485
1769247164672,130,2,2.5315951685645235,0.5454729041059481,0.880178397550412
1769247164676,130,2,2.467422463484499,0.6781597815897493,0.8119171956216318
1769247164680,130,2,2.2315020211861025,0.4270143714440761,0.5723913486271024
1769247164684,129,1,1.807809107155596,-0.2662191794132624,0.1467243890232878
1769247164688,129,1,1.2623895411028034,-0.7087180185576214,-0.3991366664162772
1769247164692,128,0,0.6985823437072471,-1.1659693799852264,-0.9635959494504368
1769247164696,128,0,0.1955877969193722,-1.69591316774727,-1.469373420580307
1769247164700,127,-1,-0.2353998727218198,-2.184570945080825,-1.905234712217428
1769247164704,127,-1,-0.661808588739984,-2.72627119793365,-2.3363867521830373
1769247164708,126,-2,-1.1942916392717609,-3.268446344007444,-2.8714149947253125
1769247164712,126,-2,-1.9018907254758215,-3.648174450264975,-3.5796638682083968
1769247164716,125,-3,-2.721039814582854,-4.2572141945547735,-4.399529202733012
1769247164720,124,-4,-3.447600848448408,-5.633671647726991,-5.127908939556375
