timestamp_ms,ecg_u8_raw,ecg_counts_raw_int,ecg_counts_filt_monitor,ecg_counts_filt_diagnostic,ecg_counts_filt_st
1768734395444,126,-2,-1.207813951612548,-3.7941756220863407,-3.624500526239708
1768734395448,129,1,1.5010077727134736,-1.164630281194178,-0.8832448884254092
1768734395452,134,6,6.758783124739354,4.248613644662322,4.401739834635178
1768734395456,142,14,15.001089396302763,11.893905642879368,12.656769841444724
1768734395460,151,23,25.36759250156603,21.141843231805694,23.02159577049904
1768734395464,162,34,35.38713802801731,32.04266897276412,33.033317881194826
1768734395468,170,42,41.60613136829945,40.009690080994446,39.24828401455008
1768734395472,169,41,41.0557503855556,39.20472768937566,38.70442187154328
1768734395476,160,32,32.7534335837492,29.882282567785968,30.42130423508761
1768734395480,145,17,18.28140946154288,15.273668699363409,15.97842872298436
1768734395484,128,0,1.0845867487280856,-2.1077629801191087,-1.1860401812153327
1768734395488,111,-17,-15.020171134801732,-18.652046380056284,-17.26309555448072
1768734395492,100,-28,-27.204476904113314,-30.042910433887585,-29.42996812318859
1768734395496,94,-34,-34.18793808748688,-35.734578173862516,-36.4074590240654
1768734395500,92,-36,-35.98726789401548,-38.048612816902974,-38.20805811694032
1768734395504,93,-35,-33.37557117139863,-36.739581983297555,-35.59675241878925
1768734395508,99,-29,-27.550011676541917,-30.920742200650594,-29.763838145533725
1768734395512,107,-21,-20.04251475676194,-22.72127994909566,-22.2406216835698
1768734395516,115,-13,-12.558296352336487,-14.94609889178967,-14.737422723589816
1768734395520,121,-7,-6.552696434079444,-8.81943426100442,-8.714931560900107
1768734395524,125,-3,-2.742816274686466,-4.901914915803559,-4.8912340157583545
1768734395528,126,-2,-0.9344217255295986,-3.7313944207136966,-3.0690311040284683
1768734395532,126,-2,-0.3341497020292873,-3.801242421207058,-2.4521492570641863
1768734395536,127,-1,-0.122669265405561,-2.800444057711097,-2.222573972986309
1768734395540,128,0,0.1341371256141081,-1.8449539486693525,-1.9507760773096567
1768734395544,128,0,0.4718498180377765,-1.8513626730156896,-1.6039072273762462
1768734395548,128,0,0.7783752679164038,-1.6703987000382172,-1.2913018644376582
1768734395552,128,0,1.0041044702160058,-1.8252261476192055,-1.0566869536768175
1768734395556,128,0,1.1797468072951802,-1.680537858686355,-0.866224779532704
1768734395560,129,1,1.3351540437077798,-0.8787884779117165,-0.6925492570885012
1768734395564,129,1,1.4749892012258932,-0.7726140892338655,-0.5360023364417454
1768734395568,129,1,1.6320368439800372,-0.641330456511179,-0.3660523122901526
1768734395572,129,1,1.8933842656621516,-0.8234978916279756,-0.0936229963821264
1768734395576,129,1,2.335752345068528,-0.5796107754259658,0.3608484769353133
1768734395580,131,3,2.9387983040781003,1.0801952131496204,0.9773233666442928
1768734395584,131,3,3.580530144631379,1.3579790498211053,1.6323085167836835
1768734395588,131,3,4.117899190380345,1.29490949325436,2.1822259714921777
1768734395592,132,4,4.468026156602285,2.3068887090352455,2.5451399367285847
1768734395596,132,4,4.631886057549539,2.360082308542451,2.7227239679572364
1768734395600,132,4,4.669037247390892,2.199860766260784,2.774096549870694
1768734395604,132,4,4.653827134033517,2.3548741777977744,2.77274046591182
1768734395608,132,4,4.636929397955456,2.3321709690690744,2.7689000553165113
1768734395612,132,4,4.630253136992043,2.371533952847955,2.7746891821332795
1768734395616,132,4,4.619808392463316,2.332892166932959,2.7766744633771876
1768734395620,132,4,4.592879519698953,2.32231673947792,2.762580189002604
1768734395624,132,4,4.5602084363827675,2.3108409106520043,2.743199807238197
1768734395628,132,4,4.5604142849032705,2.4442626342371696,2.7569965280445428
1768734395632,132,4,4.643350909569006,2.3347756537084075,2.85369977863899
1768734395636,132,4,4.842111988947028,2.41978160319575,3.0661455046783224
1768734395640,133,5,5.15457909868262,3.3315042867875952,3.3917415969803164
1768734395644,133,5,5.545764596201606,3.372964897024051,3.7953785360295287
1768734395648,133,5,5.958008794143144,3.457480194882926,4.220022269751326
1768734395652,134,6,6.315737763096173,4.3939133254679215,4.590783196194203
1768734395656,134,6,6.535296763812716,4.405176904809495,4.823910991355767
1768734395660,134,6,6.55047288227219,4.4448065518987026,4.852593767575522
1768734395664,134,6,6.335870195628431,4.330636253893546,4.651149123739064
1768734395668,133,5,5.903792542997349,3.5774803612607635,4.232033341194645
1768734395672,133,5,5.28007834061866,3.331589704861734,3.621241821991372
1768734395676,132,4,4.487178063258514,2.5373972545250902,2.841294725844795
1768734395680,131,3,3.5492502485459707,1.383447166314487,1.9165534394067485
1768734395684,130,2,2.5077204135214552,0.4949491129509877,0.888576546285254
1768734395688,129,1,1.4296476761100942,-0.5379992221138141,-0.1759318717755142
1768734395692,128,0,0.3999893780231693,-1.470394704675044,-1.192548723318697
1768734395696,127,-1,-0.5048597087966411,-2.6151884653911814,-2.084802923989423
1768734395700,126,-2,-1.2523936064305716,-3.361297076206511,-2.819535132709868
1768734395704,126,-2,-1.8681108682156085,-3.6951464100622737,-3.4219536824277057
1768734395708,125,-3,-2.4041564661700137,-4.259758087993833,-3.944673912422719
1768734395712,125,-3,-2.883766702815175,-4.702375764216198,-4.411389134326823
1768734395716,124,-4,-3.2772257274925845,-5.309041809432496,-4.79209475085214
1768734395720,124,-4,-3.53617942097402,-5.588282534858681,-5.037820247303349
1768734395724,124,-4,-3.6490152426254423,-5.397175326413577,-5.136906432757689
1768734395728,124,-4,-3.6585743120778305,-5.459194914734908,-5.132796170167492
1768734395732,124,-4,-3.6291293406133174,-5.476760718099342,-5.09030148853372
1768734395736,124,-4,-3.603226139959306,-5.426311009250457,-5.051978285491947
1768734395740,124,-4,-3.5904242282670755,-5.440387363446952,-5.02699469611402
1768734395744,124,-4,-3.588940778839224,-5.42336483399883,-5.01302374988512
1768734395748,124,-4,-3.607953456654618,-5.391674345041319,-5.018747466743779
1768734395752,124,-4,-3.6612382602172384,-5.451342586832711,-5.057878386601434
1768734395756,124,-4,-3.734020565813043,-5.417148346570022,-5.116316466054631
1768734395760,124,-4,-3.758354810032554,-5.337207354595986,-5.127093949267524
1768734395764,124,-4,-3.638103732851745,-5.492116393087995,-4.9943617047682
1768734395768,124,-4,-3.3252628347235182,-5.1927018696216685,-4.669401462788636
1768734395772,125,-3,-2.888406256301003,-4.64398449633837,-4.220001576993858
1768734395776,125,-3,-2.4967589651365105,-4.106166535984415,-3.815460303189485
1768734395780,126,-2,-2.310546472773353,-3.612811811367626,-3.616487033589843
1768734395784,125,-3,-2.3654705572288064,-4.1118385991078155,-3.658556626289359
1768734395788,125,-3,-2.5566379771981196,-4.509974166900881,-3.835958105731774
1768734395792,125,-3,-2.7326884921264054,-4.278410238742183,-3.9973333200377494
1768734395796,125,-3,-2.806268884778568,-4.372476355374125,-4.05669660022958
1768734395800,125,-3,-2.787933503716689,-4.312901117552912,-4.02594846380161
1768734395804,125,-3,-2.7402346815851217,-4.263810711901578,-3.967326039365888
1768734395808,125,-3,-2.7158652475542686,-4.361683105788151,-3.9316605082370777
1768734395812,125,-3,-2.7308769562550648,-4.304472113142665,-3.93333804564797
1768734395816,125,-3,-2.772257273572795,-4.331291044782896,-3.959477129082227
1768734395820,125,-3,-2.8125829382340304,-4.240225216754774,-3.984546582498309
1768734395824,125,-3,-2.8201834069883778,-4.256874932463566,-3.978865926398615
1768734395828,125,-3,-2.777129755732553,-4.318717961371377,-3.924769689777123
1768734395832,125,-3,-2.709895169694834,-4.259868308572259,-3.8470062393170057
1768734395836,125,-3,-2.703249840124585,-4.347682210023742,-3.828262100574342
1768734395840,125,-3,-2.8568152941350373,-4.106622387071189,-3.967611005093764
1768734395844,125,-3,-3.1925927176055575,-4.3235524974687065,-4.288268003209011
1768734395848,124,-4,-3.592581029085129,-5.187192598145423,-4.673794638033783
1768734395852,124,-4,-3.848160319019642,-5.316941025958981,-4.916206212022921
1768734395856,124,-4,-3.807695098317749,-5.26274637588127,-4.863548033618045
1768734395860,124,-4,-3.5053801040905865,-5.057737238864492,-4.5494424345519855
1768734395864,125,-3,-3.154170380428517,-4.331830904687827,-4.186471137230642
1768734395868,125,-3,-2.9968163381957993,-4.061644702102602,-4.0170319651273925
1768734395872,125,-3,-3.13336409087541,-4.4388389957314605,-4.140554441653713
1768734395876,124,-4,-3.4661726074257,-5.047939414021711,-4.459016901889912
1768734395880,124,-4,-3.797096981228587,-5.2101270263371,-4.775077457779862
1768734395884,124,-4,-3.97880527755978,-5.083523428219971,-4.94309962424105
1768734395888,124,-4,-3.995391617428439,-5.221995126428323,-4.947922709101208
1768734395892,124,-4,-3.9337993352893705,-5.249805768706787,-4.87521625553003
1768734395896,124,-4,-3.896753732090877,-5.147599714944437,-4.825863765195891
1768734395900,124,-4,-3.9258861992061895,-5.067151889450749,-4.841287350130958
1768734395904,124,-4,-3.977304516808301,-5.105240358265991,-4.879004601740444
1768734395908,124,-4,-3.96264591094596,-5.149280154688347,-4.8515895304378835
1768734395912,124,-4,-3.831945158142563,-5.250470620474073,-4.708467406511143
1768734395916,124,-4,-3.629864523857629,-5.102285572182127,-4.493561208106345
1768734395920,125,-3,-3.457054760159603,-4.0289305017218595,-4.308011010353696
1768734395924,125,-3,-3.356605777460879,-4.048980253989599,-4.195454965455001
1768734395928,124,-4,-3.2448234575646677,-5.134336395351098,-4.071242841094106
1768734395932,125,-3,-2.9733049570172385,-4.215282323570184,-3.785773624405073
1768734395936,126,-2,-2.4592179606568885,-3.075831687523332,-3.2570590672419852
1768734395940,126,-2,-1.7483572054484828,-2.9962961060788302,-2.5331238697756673
1768734395944,127,-1,-0.9694674742651148,-1.9437161587582183,-1.7434936401628756
1768734395948,128,0,-0.2527858793086599,-1.2030552325142403,-1.0167432980203155
1768734395952,128,0,0.3151743022544824,-1.0776397350567213,-0.4371902015474314
1768734395956,129,1,0.6997367299447044,-0.1858875527855215,-0.0389493004680745
1768734395960,129,1,0.9219648511320956,0.2193536982653348,0.1979258260251755
1768734395964,129,1,1.0611676738824654,-0.0788371575548958,0.3514381451749599
1768734395968,129,1,1.227325327734422,0.03535968319167,0.5308627844358118
1768734395972,130,2,1.4987466025794038,0.6885309997324587,0.8141225313272225
1768734395976,130,2,1.8648729261270964,1.1311033042645366,1.1907887854535382
1768734395980,130,2,2.214319344471238,0.9665883994577776,1.550683148964806
1768734395984,130,2,2.378100428646196,1.2938229214907682,1.726284235316915
1768734395988,131,3,2.218226777650056,1.7296198332354047,1.5797259423032337
1768734395992,130,2,1.7234175487625465,1.0148960712113049,1.0986020931307126
1768734395996,129,1,1.0366176681952035,-0.112228935266796,0.4250338399528712
1768734396000,128,0,0.3680148450447174,-0.7488669813719384,-0.2308181770536932
1768734396004,128,0,-0.147125018563097,-0.8245663060650803,-0.733672294410987
1768734396008,128,0,-0.5267658077562458,-1.1557763133540635,-1.1015690246392298
1768734396012,127,-1,-0.902475436502784,-1.9694977963861489,-1.4657989073206463
1768734396016,127,-1,-1.4120180891308238,-2.166931308584782,-1.963827475674841
1768734396020,126,-2,-2.109541989644854,-2.53070578943445,-2.649999238881408
1768734396024,125,-3,-2.946985267461072,-4.003806066766352,-3.4763791510216304
1768734396028,124,-4,-3.825041256555797,-4.878683032221586,-4.343005207072823
1768734396032,124,-4,-4.656571050477632,-5.1818768410953595,-5.161767499071973
1768734396036,123,-5,-5.377066491088805,-5.967502644768041,-5.86782511293842
1768734396040,122,-6,-5.906482448604207,-6.550932457559618,-6.381931230785943
1768734396044,122,-6,-6.138545064864027,-6.978493701769007,-6.599936174483318
1768734396048,122,-6,-6.008160049222983,-6.763398690118647,-6.4595910204205635
1768734396052,123,-5,-5.590251612852654,-6.27734146873545,-6.036881587416533
1768734396056,123,-5,-5.126734888950719,-5.8549008883282845,-5.570078017257804
1768734396060,123,-5,-4.916606072653338,-5.488809290643512,-5.3508079875111845
1768734396064,123,-5,-5.097871568936167,-6.053284496594715,-5.51256036877902
1768734396068,123,-5,-5.441140518114954,-5.540389387635132,-5.830698504783689
1768734396072,124,-4,-5.3285931876243255,-5.466094854846432,-5.698931076743022
1768734396076,124,-4,-4.056627528264086,-4.719422887644054,-4.4204585495885995
1768734396080,126,-2,-1.4001844438460136,-2.2892174095372866,-1.7645257426767538
1768734396084,128,0,1.9445668035090795,-1.492437344082954,1.583767271360255
1768734396088,133,5,4.553166529682448,5.3404138798723615,4.20290120543801
1768734396092,140,12,5.19029723081375,9.351922670407117,4.851976940166088
1768734396096,128,0,3.761148377416922,0.7781439311573739,3.4343835818752004
1768734396100,128,0,1.3821789824636994,-1.8891244388461488,1.071716683141788
1768734396104,128,0,-0.5191051192526586,0.2492048898491319,-0.8079683476885826
1768734396108,128,0,-1.1937008438129229,-1.311906851473417,-1.4648231115477826
1768734396112,128,0,-0.8211076653068372,-0.9900383802650056,-1.0860580850110797
1768734396116,128,0,-0.0478460227716404,-0.5651223860912324,-0.3143561846300811
1768734396120,129,1,0.5962409412063425,0.1596311229226512,0.331105402274416
1768734396124,129,1,0.955072782061873,0.5927848922303296,0.7006554815797559
1768734396128,129,1,1.141349425968644,0.0704185878122194,0.904872221230646
1768734396132,130,2,1.297155316203632,1.0271597058495496,1.0790619949984697
1768734396136,130,2,1.4601822706699847,1.3371766507399654,1.2554184163404931
1768734396140,130,2,1.6072996093185434,1.357025561745457,1.410031132333117
1768734396144,130,2,1.7597413788905047,1.4253456393183273,1.567690611348195
1768734396148,130,2,1.999699847542454,1.2795843557290598,1.815119943480322
1768734396152,131,3,2.3806947743018303,1.9671474614651427,2.2076002545122657
1768734396156,131,3,2.8490273009019,2.488590888378668,2.689255946081902
1768734396160,132,4,3.2796134310141603,3.208730091329922,3.1312971785811894
1768734396164,132,4,3.592088154253487,3.655202428270208,3.451971173033514
1768734396168,132,4,3.815029454401163,3.067232978009473,3.6821674661484742
1768734396172,132,4,4.026700122299523,3.3266429991769053,3.9033217801721793
1768734396176,133,5,4.2525188873468265,4.220922742224648,4.141043143049885
1768734396180,133,5,4.450736011925284,4.479005719564511,4.350783820947819
1768734396184,133,5,4.5962161611630155,4.48472987297266,4.505369264420177
1768734396188,133,5,4.739669738617467,4.232178308024433,4.656598443353284
1768734396192,133,5,4.955782213788949,4.340764361589423,4.881401172756299
1768734396196,134,6,5.244800098463605,5.232785967537814,5.180287315403577
1768734396200,134,6,5.513234284598775,5.560693896836387,5.458163455411337
1768734396204,134,6,5.6581316038969955,5.410843679791693,5.611369671021202
1768734396208,134,6,5.658241002618066,5.393401015588823,5.620000630434061
1768734396212,134,6,5.581835562755521,5.271677350301107,5.553688871569761
1768734396216,134,6,5.521959870432158,5.377869707501944,5.50463357281224
1768734396220,134,6,5.531289689514216,5.491488954974598,5.523192588006327
1768734396224,134,6,5.599861580845749,5.488286440147266,5.5984649627984195
1768734396228,134,6,5.665652239862377,5.4290609722640815,5.670256261874353
1768734396232,134,6,5.640640900169433,5.282041909229326,5.6531804638157865
1768734396236,134,6,5.458819779118282,5.497397758718317,5.481647821591745
1768734396240,134,6,5.14196265331066,5.3831402835645665,5.1753102100072255
1768734396244,133,5,4.827552850096222,4.675840250349579,4.869674740337196
1768734396248,133,5,4.696893291019931,4.283546953440464,4.746273998729775
1768734396252,133,5,4.834186194755629,4.5378335040667634,4.89071186689674
1768734396256,134,6,5.145935226450565,5.314158754666495,5.209947362226103
1768734396260,134,6,5.434321156677076,5.632325556945083,5.505571566146679
1768734396264,134,6,5.565113867913937,5.471454080970244,5.6433115793615345
1768734396268,134,6,5.572340368064497,5.546624807056467,5.658265713863909
1768734396272,134,6,5.608055372994956,5.365945408897178,5.703255925256894
1768734396276,134,6,5.796773658516356,5.557919894224063,5.901751204901304
1768734396280,135,7,6.131454320620054,6.468081976946757,6.244467788444274
1768734396284,135,7,6.485899206475916,6.6761749034845925,6.604224476352397
1768734396288,135,7,6.699278502459118,6.411462762662583,6.821861509078581
1768734396292,135,7,6.645377473548969,6.5745826048172,6.773804797399788
1768734396296,135,7,6.258101048792473,6.434463676657089,6.3947505054936835
1768734396300,134,6,5.541819252208574,5.64050398599359,5.68746762847218
1768734396304,133,5,4.578566260423377,4.588646224529056,4.73200493783965
1768734396308,132,4,3.5083054044511077,3.521251064757039,3.667898126459375
1768734396312,131,3,2.471985539912474,2.5872614007965984,2.637275285755563
1768734396316,130,2,1.5503898966210965,1.4588893189327303,1.7221922016635265
1768734396320,129,1,0.7479310747507419,0.7180667341166118,0.9269027991369274
1768734396324,129,1,0.0373284375468405,0.5516226670428033,0.2227318781329965
1768734396328,128,0,-0.5796176478648343,-0.3802232569807842,-0.3891619047037329
1768734396332,127,-1,-1.06622593847707,-1.4211620733592605,-0.8708238650695148
1768734396336,127,-1,-1.4102841515365852,-1.483534294204746,-1.208519000594082
1768734396340,127,-1,-1.6676577956661305,-1.236824171186119,-1.4585600688418818
1768734396344,127,-1,-1.9192557185180892,-1.473166121438381,-1.703631496457679
1768734396348,126,-2,-2.1864475371731524,-2.2498460635147453,-1.9657312148443364
1768734396352,126,-2,-2.4117823957577547,-2.5146238378079917,-2.1863379184676104
1768734396356,126,-2,-2.52977763497588,-2.298733464324989,-2.2989907709590267
1768734396360,126,-2,-2.5427530848288664,-2.358383701001134,-2.3062515896667524
1768734396364,126,-2,-2.5195803357812294,-2.298668066215676,-2.2776328283959915
1768734396368,126,-2,-2.52661971873746,-2.32248183421389,-2.2795426911632144
1768734396372,126,-2,-2.5631917999741165,-2.425287016779584,-2.3109561361769915
1768734396376,126,-2,-2.5590946474396516,-2.26579811001104,-2.3015556269734514
1768734396380,126,-2,-2.434875500475866,-2.3757399154939467,-2.1720952654412207
1768734396384,126,-2,-2.1754486444135965,-2.1697288236231635,-1.9078024161199196
1768734396388,127,-1,-1.8546570606382768,-1.4089630627832728,-1.5827514742783428
1768734396392,127,-1,-1.5870911311919984,-1.2607062663558,-1.31136892421714
1768734396396,127,-1,-1.44892243655954,-1.364732805299031,-1.169145547934244
1768734396400,127,-1,-1.435975767481127,-1.2180610877123028,-1.1513491870286567
1768734396404,127,-1,-1.4852825478137062,-1.2481753908197923,-1.1953607234920782
1768734396408,127,-1,-1.528790948738418,-1.2805938521732818,-1.2341069990809146
1768734396412,127,-1,-1.5342910643703,-1.2945509228529977,-1.2358703621007532
1768734396416,127,-1,-1.5126955696989923,-1.2901620758469168,-1.2110388790223086
1768734396420,127,-1,-1.4961072178791606,-1.2012447613824175,-1.190827564878667
1768734396424,127,-1,-1.50478079781439,-1.2201864539307614,-1.1952137653240795
1768734396428,127,-1,-1.5266605306290109,-1.22882177446968,-1.2126902229713985
1768734396432,127,-1,-1.527232465577586,-1.2763958685287349,-1.2094585530323547
1768734396436,127,-1,-1.4860706009619369,-1.2532362217207678,-1.16522102595717
1768734396440,127,-1,-1.4312748707273515,-1.1512928272042746,-1.1075708600778444
1768734396444,127,-1,-1.4366482840214558,-1.2314857057557145,-1.109826927754915
1768734396448,127,-1,-1.5718994852556172,-1.1209315932145243,-1.2417327938494571
1768734396452,127,-1,-1.8402389784415067,-1.3388348859335766,-1.506730556326343
1768734396456,126,-2,-2.160895065277517,-2.1089018354932407,-1.8239626410291976
1768734396460,126,-2,-2.42069379371324,-2.240153879451271,-2.080135945568733
1768734396464,126,-2,-2.551280069895349,-2.0751388703401568,-2.207332602262633
1768734396468,126,-2,-2.5632530062262853,-2.201302110976694,-2.216790212483761
1768734396472,126,-2,-2.517417629539778,-2.196087946926465,-2.1692023195731287
1768734396476,126,-2,-2.4731402285589734,-2.1699985128029504,-2.1230434387689914
1768734396480,126,-2,-2.4581589005981415,-2.141857665272824,-2.1054126344549373
1768734396484,126,-2,-2.4688271945078895,-2.0855096407883704,-2.112952814795837
1768734396488,126,-2,-2.485942176547995,-2.140174117284171,-2.127199839509253
1768734396492,126,-2,-2.492252992431797,-2.1677469098178817,-2.131228954889999
1768734396496,126,-2,-2.4841497611734087,-2.142572026113964,-2.121159264543376
1768734396500,126,-2,-2.4719264438417987,-2.107462364998536,-2.1069327566238267
1768734396504,126,-2,-2.467950572513797,-2.0552946070721685,-2.1009145331115135
1768734396508,126,-2,-2.4728812616599067,-2.097446162952465,-2.1039726567706163
1768734396512,126,-2,-2.47461888403411,-2.1398950317233805,-2.104030833669942
1768734396516,126,-2,-2.462965159814329,-2.1022044020260435,-2.090639953415179
1768734396520,126,-2,-2.444899406446372,-2.0931292189729116,-2.070593788114844
1768734396524,126,-2,-2.4417116864232256,-2.0056549627691833,-2.065425368402405
1768734396528,126,-2,-2.466385400687954,-2.0630368169787756,-2.0887000389138177
1768734396532,126,-2,-2.5007695364791043,-2.1254258154985823,-2.1225583267672237
1768734396536,126,-2,-2.495351307803409,-2.0178475992210885,-2.116842413843877
1768734396540,126,-2,-2.394954489402569,-2.163243019892104,-2.015024134352939
1768734396544,126,-2,-2.1677319769512917,-1.825001569475543,-1.7845735357936403
1768734396548,127,-1,-1.809133659989577,-1.2084702676959984,-1.4222047251157282
1768734396552,127,-1,-1.3214225784549136,-0.8774554486681065,-0.9328071669823532
1768734396556,128,0,-0.7059423048357477,-0.2229162517937557,-0.3193014019082811
1768734396560,128,0,0.0041604782184918,0.1141589785218739,0.3866388559065896
1768734396564,129,1,0.7049116088519256,0.9433286214435634,1.0850984690522014
1768734396568,130,2,1.2482406256696466,2.1179919919783745,1.631803226196893
1768734396572,130,2,1.550388966647975,1.8479159083044816,1.943012063974359
1768734396576,130,2,1.6931023521580633,2.1363439290215163,2.0950211242922414
1768734396580,131,3,1.8955644399130671,2.7891564711618395,2.2988866148096267
1768734396584,130,2,2.326410544336554,2.348669119334672,2.7194044677888143
1768734396588,131,3,2.8843232695898027,2.7622347792488333,3.2609332613704645
1768734396592,131,3,3.187114991473087,3.3254643320990285,3.553474238626123
1768734396596,132,4,2.9308815879986887,3.665106443140142,3.3021817528573103
1768734396600,132,4,2.457288266496853,4.371222359671209,2.847423690610989
1768734396604,132,4,3.015885838720079,3.786301520862956,3.428387102340997
1768734396608,133,5,6.243836108857085,5.407351654292732,6.669758430475326
1768734396612,141,13,12.964530702990258,12.786792382273596,13.38699308071017
1768734396616,150,22,22.097243548528304,22.230486166449843,22.499927116847097
1768734396620,159,31,30.59423385629966,30.948544137569193,30.970365429101093
1768734396624,164,36,34.67766912997444,36.19673999292072,35.03439353236131
1768734396628,161,33,31.726375239968466,33.09185335403007,32.08083484926712
1768734396632,150,22,21.665737544976743,22.044713091198425,22.03510741510551
1768734396636,135,7,7.006064202143922,7.079452689545278,7.398461490440928
1768734396640,119,-9,-8.446210429107055,-8.87046617459713,-8.03451080589258
1768734396644,106,-22,-21.337202520769537,-21.82771597376946,-20.91828808751493
1768734396648,99,-29,-29.90214626981178,-28.782060205190195,-29.4901160315429
1768734396652,96,-32,-33.98018040797615,-32.014160876587184,-33.58448616024583
1768734396656,94,-34,-34.26284527526971,-33.77162661956593,-33.88340519107986
1768734396660,96,-32,-31.578188659074584,-32.01362169125791,-31.205898631748784
1768734396664,101,-27,-26.70463975135637,-26.56381581377645,-26.328632115924695
1768734396668,108,-20,-20.555421556061624,-20.041935474617187,-20.17145098270404
1768734396672,114,-14,-14.264569357347636,-13.622739523215724,-13.87675789334724
1768734396676,120,-8,-8.942492678114514,-8.156840489338533,-8.557621304484844
1768734396680,123,-5,-5.276152583127798,-4.560519649506178,-4.896938967796702
1768734396684,125,-3,-3.3093337306151636,-2.980138060407767,-2.9326899250537215
1768734396688,125,-3,-2.572666190223777,-2.567514591879046,-2.1933814922145753
1768734396692,126,-2,-2.443524472486205,-1.989915782252587,-2.0594075364285076
1768734396696,126,-2,-2.462822666808904,-1.7434972864547076,-2.0767778573463724
1768734396700,126,-2,-2.4292128101991315,-1.8809832195723144,-2.046665896415333
1768734396704,126,-2,-2.3078570053023437,-1.636811690376045,-1.9320461831909688
1768734396708,126,-2,-2.113075979239441,-1.8092796194388183,-1.7425223856955825
1768734396712,126,-2,-1.8675980106309695,-1.711472516978901,-1.497955024653658
1768734396716,127,-1,-1.6124408134600268,-0.9057426752436246,-1.2407722645769903
1768734396720,127,-1,-1.3940817003664738,-0.7066386108800065,-1.0212759602543424
1768734396724,127,-1,-1.221793259768326,-0.7086318602342963,-0.8508724192029837
1768734396728,127,-1,-1.0559989363636035,-0.7195907484350075,-0.6886032095651324
1768734396732,127,-1,-0.8552313024446181,-0.6836254122957457,-0.4903153906005015
1768734396736,128,0,-0.6235490260036198,0.0858492708986875,-0.2592405866343941
1768734396740,128,0,-0.3917637697635461,0.4258461115955008,-0.0275620543473462
1768734396744,128,0,-0.1550388280382544,0.1518908485392009,0.2081356698167908
1768734396748,128,0,0.1461347343708641,0.5458399451861333,0.5072895994353201
1768734396752,129,1,0.5652658021351533,1.0641955268222718,0.924042820631934
1768734396756,129,1,1.0715170748118867,1.4394401511173394,1.4278892049721867
1768734396760,130,2,1.5405056558707304,2.1371565458378003,1.8944950880249
1768734396764,130,2,1.8333160889475808,2.479501516992273,2.185212798890927
1768734396768,130,2,1.9004695205930424,2.319489321212213,2.2510028986108725
1768734396772,130,2,1.825677682334316,2.2924180934991383,2.1756024431109102
1768734396776,130,2,1.7739999002092874,2.350508980439965,2.123412813867083
1768734396780,130,2,1.882271521981744,2.223902357556115,2.2303854156835023
1768734396784,130,2,2.1699720801075224,2.524627979068776,2.515520400341838
1768734396788,131,3,2.5333810493556608,3.2812286192106166,2.8753521749982456
1768734396792,131,3,2.824587909923805,3.4282327820117877,3.163019943915555
1768734396796,131,3,2.9516435444034013,3.264739721911105,3.2878883913634733
1768734396800,131,3,2.9270298124884544,3.3790844672078837,3.2627587538395955
1768734396804,131,3,2.846002550359602,3.435901974745384,3.181587507903902
1768734396808,131,3,2.827062743471325,3.424210462171182,3.161245301294664
1768734396812,131,3,2.9494925083890435,3.351199937828037,3.2808683460797914
1768734396816,131,3,3.2115239708491963,3.4274703755456937,3.5399096658631306
1768734396820,132,4,3.5354714990713316,4.244064643880086,3.861531202961123
1768734396824,132,4,3.8278272841272742,4.688978537000818,4.15193535590774
1768734396828,132,4,4.048723540684569,4.16811278979851,4.370756319175706
1768734396832,132,4,4.224310645352433,4.724838664406261,4.54422299483047
1768734396836,133,5,4.39337461132059,5.097205778375798,4.711417233937227
1768734396840,132,4,4.54967253895838,4.614144865361845,4.866003059077295
1768734396844,133,5,4.641528282855041,5.45579515677159,4.955822458408465
1768734396848,133,5,4.628602372961883,5.361711990558705,4.940257908736284
1768734396852,132,4,4.537348202932602,4.707488985077628,4.846216496159685
1768734396856,133,5,4.456953200396136,5.069009979169291,4.763690538195454
1768734396860,132,4,4.479787367103431,4.798301350158312,4.785204648797792
1768734396864,133,5,4.646140498478295,5.267786895040901,4.950322836323093
1768734396868,133,5,4.93753996343114,5.66264896159767,5.239851164582502
1768734396872,133,5,5.304216290032211,5.45456458152249,5.604000784801367
1768734396876,134,6,5.686205221238203,6.360730780310551,5.983185920812538
1768734396880,134,6,6.012461204402218,6.625315438162136,6.30664186292461
1768734396884,134,6,6.193245335537829,6.41981137836148,6.484836088589115
1768734396888,134,6,6.128089752292071,6.678902227985816,6.417477974539862
1768734396892,134,6,5.740859222926277,6.4058367487088015,6.0283800858627306
1768734396896,133,5,5.028383547997706,5.538068683114081,5.314153358908829
1768734396900,132,4,4.083206800361834,4.471040029348402,4.3672601246629235
1768734396904,131,3,3.0602421965486957,3.648496853847568,3.3426601532147977
1768734396908,130,2,2.1037117042834153,2.5336023372079444,2.384438155196597
1768734396912,129,1,1.2866885175883251,1.586743877362682,1.5652356783380283
1768734396916,129,1,0.6048501257860333,1.4511872032393316,0.8804408332950868
1768734396920,128,0,0.0188122749305083,0.5950780971309553,0.2911678779275091
1768734396924,127,-1,-0.5002753184465754,-0.4003172202557143,-0.2303612051534216
1768734396928,127,-1,-0.956504082823733,-0.3446721117544573,-0.6878329182094336
1768734396932,127,-1,-1.3383804631826794,-0.4995508692441039,-1.070589807422463
1768734396936,126,-2,-1.6316892168683907,-1.358402695231442,-1.3654872868205614
1768734396940,126,-2,-1.8354910099529016,-1.583753131048164,-1.5718601353417072
1768734396944,126,-2,-1.9777122241446397,-1.09996715057967,-1.7171991939164282
1768734396948,126,-2,-2.1108796578580753,-1.6386235598162997,-1.8532847427622796
1768734396952,125,-3,-2.2830984396276035,-2.098646440093486,-2.0275051775388966
1768734396956,126,-2,-2.5037071312617347,-1.715617863835397,-2.249164849448914
1768734396960,125,-3,-2.7244268989037503,-2.1741643273709292,-2.4708310867660015
1768734396964,125,-3,-2.852167477883703,-2.4134881184083654,-2.600190355219304
1768734396968,125,-3,-2.801682093930417,-2.3107504413263613,-2.5518488636047203
1768734396972,125,-3,-2.562554808369616,-2.3003021446784704,-2.3148383787973277
1768734396976,126,-2,-2.223112375435643,-1.520468311632175,-1.9775197938303917
1768734396980,126,-2,-1.9195760836598468,-1.234144173295809,-1.6765900525852633
1768734396984,126,-2,-1.7495709928293983,-1.36048190324607,-1.50954561741313
1768734396988,126,-2,-1.724143568446899,-1.2417181175656262,-1.4864309471031891
1768734396992,126,-2,-1.7885058872201842,-1.354712722165199,-1.5516563388888462
1768734396996,126,-2,-1.87293618165408,-1.3781373453110608,-1.6359991888388643
1768734397000,126,-2,-1.9204293705756723,-1.3176732244113505,-1.6839801568865154
1768734397004,126,-2,-1.8833017017742837,-1.214113376647132,-1.648985206181786
1768734397008,126,-2,-1.72467051629443,-1.3193195553884824,-1.4936446428628851
1768734397012,126,-2,-1.447732850647415,-1.2245143105717315,-1.2196958933965911
1768734397016,127,-1,-1.1221673085703676,-0.4466365809108032,-0.8959504553115387
1768734397020,127,-1,-0.8582005475822574,-0.1771061103804516,-0.6329740130028823
1768734397024,127,-1,-0.7324146619772514,-0.2944950668317863,-0.5080913195048122
1768734397028,127,-1,-0.7314650469369403,-0.1754736113770558,-0.5082828279699543
1768734397032,127,-1,-0.7697138536943283,-0.3089279404300429,-0.5478525836012591
1768734397036,127,-1,-0.7670292882666072,-0.3228456395961565,-0.5465837543166479
1768734397040,127,-1,-0.7198235322107219,-0.193781034719993,-0.5009438084514404
1768734397044,127,-1,-0.7054065492480147,-0.2541341384454578,-0.4884561491671344
1768734397048,127,-1,-0.8144424090655449,-0.1075217111008037,-0.5998848904012912
1768734397052,127,-1,-1.067562860797694,-0.3667403241309772,-0.855273062419672
1768734397056,126,-2,-1.389989166243672,-1.1771600113868947,-1.17862310953427
1768734397060,126,-2,-1.665943097639151,-1.2877422446551026,-1.453692273748996
1768734397064,126,-2,-1.816862751928445,-1.0836064966800163,-1.6034572574253256
1768734397068,126,-2,-1.8328222146351452,-1.2125529754202975,-1.6204965591972935
1768734397072,126,-2,-1.752118863903988,-1.2159969181008528,-1.543869341059452
1768734397076,126,-2,-1.6381736831871416,-1.25180350065843,-1.4347599583938575
1768734397080,126,-2,-1.5753918241973317,-1.1766567588405832,-1.374229401376176
1768734397084,126,-2,-1.6485634506310898,-1.0962564758728868,-1.4458321569328694
1768734397088,126,-2,-1.8782070582365649,-1.1595817824031878,-1.6721880588893303
1768734397092,126,-2,-2.161082868166494,-1.205261455688837,-1.953497451712821
1768734397096,125,-3,-2.3098903077179957,-2.1837819779966137,-2.104258517909443
1768734397100,125,-3,-2.20904117442283,-2.2425072283833036,-2.0080515830189514
1768734397104,126,-2,-1.960554747207601,-0.8701803382861213,-1.7644741664945287
1768734397108,126,-2,-1.859309694035661,-1.4243662166670616,-1.6656507695312084
1768734397112,125,-3,-2.1809158048122836,-1.776190531510105,-1.9853650034578696
1768734397116,126,-2,-2.9452652399413326,-1.639982652212474,-2.74427468010112
1768734397120,123,-5,-3.857849908669455,-3.690976040568223,-3.651825387692819
1768734397124,123,-5,-4.499123383571631,-4.368529324076878,-4.293577133458896
1768734397128,123,-5,-4.626488646890612,-3.864400622633213,-4.42932397153646
1768734397132,123,-5,-4.329805361141387,-4.227098661191276,-4.145597747463993
1768734397136,124,-4,-3.861872190059862,-3.202071974741675,-3.6869149760773343
1768734397140,125,-3,-3.2164004207347507,-1.971466597732944,-3.038937754945665
1768734397144,126,-2,-1.7698742735174984,-1.159322943418788,-1.5767998639520258
1768734397148,129,1,1.6505619749203748,2.131255097383608,1.8643043795913616
1768734397152,136,8,8.142062184299872,8.731274694893454,8.36838012304905
1768734397156,145,17,17.802170892772715,17.990042009374413,18.024057050104044
1768734397160,156,28,29.05696525004163,28.86184027701745,29.25952013990773
1768734397164,166,38,38.7795602391887,39.07745629452816,38.9588035873466
1768734397168,172,44,43.3622740445158,44.94865363988725,43.52543732870398
1768734397172,169,41,40.30698450915875,41.92976029286078,40.46672563198905
1768734397176,157,29,29.455568826027676,29.821294910983152,29.624287826819707
1768734397180,140,12,13.114860406616025,13.065665615022647,13.301317873522477
1768734397184,122,-6,-4.9627716977109575,-5.0644918146056614,-4.756053209423383
1768734397188,106,-22,-21.054138779138594,-20.801589654627904,-20.832762058018194
1768734397192,96,-32,-32.552097526641475,-31.194798194442676,-32.32834604627661
1768734397196,90,-38,-38.29395379123774,-36.973806060762655,-38.08063084711582
1768734397200,89,-39,-38.36220749375582,-38.06192458754435,-38.16518475987292
1768734397204,93,-35,-33.78552625190238,-33.91840606338161,-33.60115748089953
1768734397208,101,-27,-26.29960322517472,-25.862460868679488,-26.119215861759336
1768734397212,110,-18,-18.01395429740975,-17.079749753450933,-17.83070170442883
1768734397216,117,-11,-10.860691248250834,-10.013697585571729,-10.672492338374507
1768734397220,122,-6,-5.998914504314344,-4.999662469578089,-5.806360723122549
1768734397224,124,-4,-3.530326390174025,-2.980980203706221,-3.333419210727106
1768734397228,124,-4,-2.725828106711791,-2.724776792998668,-2.523348893123371
1768734397232,125,-3,-2.6064183061463293,-2.1613525628917736,-2.3981980381030255
1768734397236,125,-3,-2.483668448250341,-1.7893351123489063,-2.272821666585445
1768734397240,126,-2,-2.1479330032673873,-1.2143979417087136,-1.9399220356375548
1768734397244,126,-2,-1.704810215252328,-0.6867202096037874,-1.5033488186205397
1768734397248,126,-2,-1.3092630832709218,-1.0028619329149076,-1.112770720596262
1768734397252,126,-2,-1.028468314553053,-0.7953561358898364,-0.8309972189430419
1768734397256,127,-1,-0.8565849518476782,-0.0520871584224125,-0.652849643992762
1768734397260,127,-1,-0.7578260676018296,0.0646416854293709,-0.5474683859312743
1768734397264,127,-1,-0.6620546713596238,0.1230120912679029,-0.4489743899532641
1768734397268,127,-1,-0.4618506195254535,0.1835510133086728,-0.2497756788717664
1768734397272,127,-1,-0.0754608327182876,0.1374483864008335,0.1352916297608808
1768734397276,128,0,0.4645693024357791,1.0611086619071322,0.6761270437192413
1768734397280,129,1,1.0060638609898425,2.0458922870512044,1.2198459414272396
1768734397284,129,1,1.389388427503447,2.149733291682749,1.6048830222149588
1768734397288,129,1,1.5757051114617069,2.2367027471218077,1.792218803156382
1768734397292,129,1,1.6636989132932976,2.118812336394422,1.882130076142352
1768734397296,129,1,1.787217653298922,2.186906717529972,2.00916954450748
1768734397300,130,2,2.008286577733788,2.957888046847674,2.2337280671031023
1768734397304,130,2,2.3035884725104636,3.311611858396472,2.530461285142718
1768734397308,130,2,2.622327993589913,3.1011135173101954,2.8489102880352113
1768734397312,130,2,2.9267652680296075,3.338071250243045,3.153733322475477
1768734397316,131,3,3.184864442370229,4.024418561933896,3.414391793909256
1768734397320,131,3,3.363560804287652,4.191509940293199,3.5968174008990896
1768734397324,131,3,3.456476528976882,4.130022349532413,3.692716154709661
1768734397328,131,3,3.5108667225205417,4.33115721099834,3.748863745274667
1768734397332,131,3,3.6055088769419417,4.170258627086841,3.8452213059943783
1768734397336,131,3,3.790767017922101,4.259483596104509,4.033177112214626
1768734397340,132,4,4.053469627863354,5.023921610030178,4.299045804825593
1768734397344,132,4,4.34449765227312,5.355930820702491,4.592521474750831
1768734397348,132,4,4.631646068982909,5.1522328326641755,4.8813330355483515
1768734397352,132,4,4.912057512634059,5.409715911103243,5.1637272392961675
1768734397356,133,5,5.178562809411111,6.084619379109049,5.433180025677415
1768734397360,133,5,5.396455468539816,6.258445405295421,5.65444312305077
1768734397364,133,5,5.525227931194225,6.197844140630138,5.786268564522719
1768734397368,133,5,5.556690909712261,6.338538570936808,5.820423613839372
1768734397372,133,5,5.525688695948627,6.304901531175466,5.7921282519268
1768734397376,133,5,5.48537669480689,6.220248636275142,5.754752306394506
1768734397380,133,5,5.4715646900408075,6.225160882798912,5.744078549811889
1768734397384,133,5,5.484726692925675,6.263566239112813,5.760483595187606
1768734397388,133,5,5.501542927298966,6.3482327885715835,5.780547817247269
1768734397392,133,5,5.503354917258591,6.331297238790584,5.78553350062789
1768734397396,133,5,5.4942475608685175,6.264195799300229,5.779512197861417
1768734397400,133,5,5.4921326385222455,6.248387570649633,5.780437558298347
1768734397404,133,5,5.504409097558666,6.2987161794548365,5.795773992386982
1768734397408,133,5,5.5162483337928565,6.369778724593907,5.810842383251797
1768734397412,133,5,5.505918478292286,6.3582343520900215,5.804176409982178
1768734397416,133,5,5.472487206605489,6.302419897432743,5.774986329461984
1768734397420,133,5,5.446960539067078,6.277193936374328,5.753944898554117
1768734397424,133,5,5.47062319456713,6.327622732428152,5.78161670915745
1768734397428,133,5,5.550458770967561,6.399328658675471,5.864543532345637
1768734397432,133,5,5.621950800201401,6.37236514328432,5.938560591793202
1768734397436,133,5,5.553395708098316,6.36522103004605,5.872794162815672
1768734397440,133,5,5.205590267939407,6.261016384237381,5.528593376712839
1768734397444,132,4,4.518417328244428,5.427382800781201,4.845806969116252
1768734397448,131,3,3.5623551791784944,4.323162395575219,3.8945740375763407
1768734397452,130,2,2.5088279945618663,3.524844330554634,2.846010343720608
1768734397456,129,1,1.5344675272742498,2.2619282852864986,1.8764811733435984
1768734397460,128,0,0.727798806091724,1.4284831045106197,1.074088527257969
1768734397464,128,0,0.0653908330467722,1.3520251557935823,0.4149619285575694
1768734397468,127,-1,-0.5339997446403015,0.4019843847454531,-0.1819049553991822
1768734397472,126,-2,-1.1340335709959186,-0.4422703425268217,-0.7789918331229035
1768734397476,126,-2,-1.7456185825656665,-0.7757183539770056,-1.386103925345726
1768734397480,125,-3,-2.337591137870074,-1.4096624149864905,-1.9722587092301471
1768734397484,125,-3,-2.859138770620611,-1.7969448242261556,-2.4878723736764545
1768734397488,124,-4,-3.2564554466404387,-2.35225039590608,-2.8801584455119817
1768734397492,124,-4,-3.4924079211552654,-2.6661314214693164,-3.112144595849406
1768734397496,124,-4,-3.5704132396609993,-2.4825142190653864,-3.186844526728871
1768734397500,124,-4,-3.5439433155222284,-2.6279139446491664,-3.1571151383523053
1768734397504,124,-4,-3.496321218184275,-2.5474309935101376,-3.1055802630037577
1768734397508,124,-4,-3.4966861995060254,-2.4893644025863786,-3.100945703352976
1768734397512,124,-4,-3.5548010059150768,-2.556855278228193,-3.153241184264247
1768734397516,124,-4,-3.6036939412045297,-2.4515109969697497,-3.1963003631158937
1768734397520,124,-4,-3.5319274399898344,-2.674677755551823,-3.119329157822221
1768734397524,124,-4,-3.257277058533167,-2.365646574564612,-2.8401821159972505
1768734397528,125,-3,-2.7940119046793876,-1.6657271973278664,-2.3728593027692595
1768734397532,125,-3,-2.2588446732351155,-1.3007661518023454,-1.83376724870503
1768734397536,126,-2,-1.8054016078013528,-0.6627964618761237,-1.376212976113837
1768734397540,126,-2,-1.5354503812174307,-0.4008854467158009,-1.1015938726754395
1768734397544,126,-2,-1.4520638509089756,-0.5655573538391858,-1.012767149975936
1768734397548,126,-2,-1.4818402743480494,-0.4352687568115381,-1.036597081321742
1768734397552,126,-2,-1.5371969944558628,-0.4487537358644762,-1.0862023518288442
1768734397556,126,-2,-1.5665253178576062,-0.4959559287749202,-1.1105119895045026
1768734397560,126,-2,-1.564022440865782,-0.4556172912184568,-1.1035696359803404
1768734397564,126,-2,-1.548817594880432,-0.4906193140148276,-1.0838862171218857
1768734397568,126,-2,-1.538972102972774,-0.4259889645820387,-1.0691504027526788
1768734397572,126,-2,-1.5383694160468446,-0.4278278597506004,-1.0634275310637102
1768734397576,126,-2,-1.5402497587666566,-0.4528743136044717,-1.060280380975298
1768734397580,126,-2,-1.539992765390348,-0.4265303482723863,-1.0550242997315662
1768734397584,126,-2,-1.5437333742097827,-0.4668216480054021,-1.053424066208252
1768734397588,126,-2,-1.5619225553529943,-0.3934241663152169,-1.0658599352828184
1768734397592,126,-2,-1.5906329003161244,-0.4055045312144043,-1.0889353851528476
1768734397596,126,-2,-1.6001589734431811,-0.4361797349444922,-1.0935295249769252
1768734397600,126,-2,-1.5517493005392318,-0.3420194506775467,-1.0407231373425008
1768734397604,126,-2,-1.4379195675284724,-0.5360026816867827,-0.9222108948444492
1768734397608,126,-2,-1.3076836723236305,-0.2209768814039714,-0.7865493264967001
1768734397612,127,-1,-1.2393637732518408,0.4186036557286103,-0.7124230467628714
1768734397616,126,-2,-1.278696923343997,-0.1491670956255986,-0.7460100543772812
1768734397620,126,-2,-1.4094528380147628,-0.6097074175512149,-0.8711069744362225
1768734397624,126,-2,-1.5927584886624582,-0.1740723088103035,-1.0490305999795724
1768734397628,126,-2,-1.8321399129936455,-0.553634494907556,-1.2838569990869226
1768734397632,125,-3,-2.196236785662779,-1.1992176699858423,-1.6442014396034068
1768734397636,125,-3,-2.777199250749532,-1.4375885147283012,-2.2211161048865313
1768734397640,124,-4,-3.613269552252381,-2.310045594188295,-3.051614165064231
1768734397644,123,-5,-4.626101796856541,-3.3591517681278074,-4.057258318576247
1768734397648,122,-6,-5.62112453465587,-4.3745558680905035,-5.044833976296612
1768734397652,121,-7,-6.365257497712249,-5.280347437510152,-5.783180029029691
1768734397656,121,-7,-6.701316251504501,-5.319275361466471,-6.115908355015847
1768734397660,121,-7,-6.628419260158403,-5.34982472624513,-6.040525441731605
1768734397664,121,-7,-6.298403485989281,-5.262149631463882,-5.70572762988306
1768734397668,122,-6,-5.928005018543903,-4.431864473555365,-5.3267223675624065
1768734397672,122,-6,-5.676483177102707,-4.158341403931036,-5.065350579161908
1768734397676,122,-6,-5.5687953587726176,-4.395175101183698,-4.951928660039332
1768734397680,122,-6,-5.521381891098908,-4.207184003149566,-4.9061904964569045
1768734397684,122,-6,-5.436686004845803,-4.331248821492,-4.827548617117097
1768734397688,122,-6,-5.241030439035418,-4.360778163123244,-4.6337897836595845
1768734397692,123,-5,-4.75910973342209,-3.097417226147459,-4.141977546615702
1768734397696,125,-3,-3.4858219072502092,-1.4865527075379037,-2.8472616904084465
1768734397700,127,-1,-0.5197668396544577,1.051528277723059,0.1424895582875343
1768734397704,133,5,5.061908146101798,6.376696141927482,5.738080042994664
1768734397708,140,12,13.411811084031264,14.05386403996392,14.08592603805432
1768734397712,150,22,23.17959826911059,23.503337485434216,23.8393835509202
1768734397716,159,31,31.505526940831697,32.9926298994828,32.14903511086095
1768734397720,164,36,35.048769857395214,37.647746833064886,35.684189513000675
1768734397724,160,32,31.609146463482297,33.75456467101165,32.24973789513602
1768734397728,149,21,21.34775216822854,22.74826205184414,22.00567133291011
1768734397732,134,6,6.784991601255257,7.758695715540734,7.4664814732145715
1768734397736,118,-10,-8.420738599598394,-8.11709612898862,-7.717592854479222
1768734397740,106,-22,-21.08941102676148,-20.183632752744995,-20.373809800847873
1768734397744,99,-29,-29.53468111819142,-27.255799645084352,-28.819036209430195
1768734397748,95,-33,-33.55215964263688,-31.215108204105245,-32.84573127561447
1768734397752,94,-34,-33.75096681570216,-32.21058610593654,-33.05449104832704
1768734397756,96,-32,-30.94440588231481,-30.13128728172625,-30.25027082131694
1768734397760,101,-27,-25.991198157676237,-25.083700921650554,-25.28992304925721
1768734397764,108,-20,-19.912526118263266,-18.307096811895413,-19.199953364115103
1768734397768,114,-14,-13.88388147236462,-12.084129141954106,-13.1625993982025
1768734397772,119,-9,-8.943871255549201,-7.34340959831894,-8.218683354091521
1768734397776,122,-6,-5.623313760040261,-3.9426322155053257,-4.896243977943451
1768734397780,124,-4,-3.8075829747589047,-2.245062634170284,-3.076817413513825
1768734397784,124,-4,-2.952979593211398,-2.0603483905437088,-2.2154836187727023
1768734397788,125,-3,-2.491495414931933,-1.2631198061201836,-1.746388812808747
1768734397792,126,-2,-2.1227670067839406,-0.1203014297389626,-1.3725674416453275
1768734397796,126,-2,-1.8177274097324831,-0.1067204003615733,-1.066238602514324
1768734397800,126,-2,-1.623673359234164,-0.0425300481356103,-0.8723920430984891
1768734397804,126,-2,-1.5034214267136674,-0.1634080179149468,-0.7502881948604925
1768734397808,126,-2,-1.340825323823656,-0.1430141079006359,-0.5827567374504867
1768734397812,127,-1,-1.0500684635779525,0.8501390317909965,-0.2862195935518201
1768734397816,127,-1,-0.650812004587515,0.9357776336943138,0.117196246107154
1768734397820,127,-1,-0.2470264967050228,0.9994520861358838,0.5235167294166834
1768734397824,128,0,0.055200334036864,1.8542126859797308,0.8282952195423148
1768734397828,128,0,0.2253258734707584,1.8828955225095665,1.00185716173387
1768734397832,128,0,0.3299354452019738,1.882244506682582,1.1102590607474014
1768734397836,128,0,0.4778300543782465,1.9459607116659092,1.261541682923097
1768734397840,128,0,0.7245071483224574,2.0571294150596353,1.5110006271762586
1768734397844,129,1,1.0190447758908665,2.85286376787095,1.8078808527883892
1768734397848,129,1,1.2485958157829902,2.956293921917736,2.0396279678690417
1768734397852,129,1,1.3440872389346523,2.8256035939237165,2.137557942731212
1768734397856,129,1,1.3513209431102702,3.0946193220513543,2.1477375277195394
1768734397860,129,1,1.4052028594031771,2.9149687090243317,2.204967732424977
1768734397864,129,1,1.629885165723446,3.1081238638863766,2.433000914952695
1768734397868,130,2,2.045929491778963,3.719436245903585,2.851846715904578
1768734397872,130,2,2.557349884093665,4.14140726790669,3.364900271829553
1768734397876,131,3,3.0259958358710963,4.812133659983813,3.833841957034955
1768734397880,131,3,3.3670797035696247,5.2523905006595415,4.174984342056733
1768734397884,131,3,3.583450280422325,4.852382848227459,4.393172466242559
1768734397888,131,3,3.72311957059224,4.982553781269641,4.537097428491582
1768734397892,132,4,3.82802163719591,6.004207674821432,4.646568193263918
1768734397896,132,4,3.9337688351570934,5.901498422639446,4.754297153477827
1768734397900,131,3,4.086473088351615,5.336456796885014,4.906147767424705
1768734397904,132,4,4.310219476029491,5.714726181136872,5.128725064019433
1768734397908,132,4,4.550119010078148,6.2702491308097414,5.3692441882226785
1768734397912,133,5,4.686167887111656,6.684801802032879,5.507453074465417
1768734397916,132,4,4.638038103690832,6.33894388664244,5.461638459653625
1768734397920,132,4,4.4598162132070165,5.925423926516045,5.285103261641408
1768734397924,132,4,4.320905696871483,6.180398007220002,5.147227728520757
1768734397928,132,4,4.381309803559115,5.877441005192095,5.20814679121276
1768734397932,132,4,4.666621049799502,6.081107915320746,5.493487724020496
1768734397936,133,5,5.047488453061196,7.077534438194855,5.873939946922798
1768734397940,133,5,5.341235183126827,7.172199774134736,6.16713755083256
1768734397944,133,5,5.449062394572436,7.042809221169838,6.274904583085015
1768734397948,133,5,5.413810993275488,7.021262935901949,6.240388211077516
1768734397952,133,5,5.361750762452914,6.995776616782491,6.189270811813467
1768734397956,133,5,5.393162000553696,7.244254755829775,6.220935754985928
1768734397960,133,5,5.512550039848779,7.040160013998719,6.339731426903333
1768734397964,133,5,5.641449908942076,7.259248140127504,6.467698124508334
1768734397968,134,6,5.693863410040205,7.817685791556467,6.519110307595766
1768734397972,133,5,5.650723761221352,7.268243962306808,6.4748100723827955
1768734397976,133,5,5.567196037947687,7.024172432706563,6.390121964130238
1768734397980,133,5,5.5042527366045375,7.325406259122583,6.326479228041798
1768734397984,133,5,5.4525274212882024,7.034239229811214,6.274588100279919
1768734397988,133,5,5.3268177717606555,7.059596168357313,6.148537629459501
1768734397992,133,5,5.036505223994205,7.124086561006811,5.856775253523452
1768734397996,132,4,4.557913564087327,6.169428267460129,5.375459697477884
1768734398000,131,3,3.933561774678407,5.305696602690218,4.747963992030435
1768734398004,131,3,3.205889963653154,5.0390565322286625,4.017782082310046
1768734398008,130,2,2.369659167299307,4.152757460398906,3.1800954754844586
1768734398012,129,1,1.4060662231697916,3.045763228090221,2.2157968155925696
1768734398016,128,0,0.366529935233453,2.339761913371479,1.1755682962559626
1768734398020,127,-1,-0.5884069647923074,1.1796500273824873,0.2191588586460748
1768734398024,126,-2,-1.2583829449942665,0.2031341963115467,-0.453486522865524
1768734398028,126,-2,-1.5458617140000737,0.0643377814167731,-0.74471577505445
1768734398032,126,-2,-1.5544986340263054,0.1439378345763131,-0.7577360765521619
1768734398036,126,-2,-1.5427510181670572,0.3703120526872154,-0.7503318213367809
1768734398040,126,-2,-1.7511236118145677,0.1360873776725066,-0.962152070630784
1768734398044,125,-3,-2.234670371680627,-0.6426172064571314,-1.447722623538697
1768734398048,125,-3,-2.830423998267883,-1.117799963266016,-2.0445964707518884
1768734398052,124,-4,-3.2789279485595197,-1.560048482610601,-2.494757521112161
1768734398056,124,-4,-3.4035519728613477,-1.899332519466407,-2.622813128182399
1768734398060,124,-4,-3.2177928364878934,-1.5075571451604466,-2.4423512859978
1768734398064,125,-3,-2.8902725100504933,-0.9504308492464824,-2.120938385652108
1768734398068,125,-3,-2.604581704159271,-0.8062561593875839,-1.840564866563651
1768734398072,125,-3,-2.430257962539639,-0.7579236220351235,-1.669543521465674
1768734398076,125,-3,-2.3040107747564695,-0.7174477638196262,-1.5448727670404572
1768734398080,125,-3,-2.119119133300205,-0.5411474477468001,-1.3620073066489913
1768734398084,126,-2,-1.8335459140610175,0.0444185034577362,-1.0813805205289535
1768734398088,126,-2,-1.5119352517243658,0.3106455350323661,-0.7677300096918431
1768734398092,126,-2,-1.286043368387335,0.1392895529207725,-0.5498334400538671
1768734398096,126,-2,-1.2683356433616633,0.4489557042985315,-0.5369436585247023
1768734398100,126,-2,-1.458473564205364,0.3916391752651279,-0.7288204896207813
1768734398104,126,-2,-1.6874453444568205,0.0707314592590091,-0.959757853406586
1768734398108,126,-2,-1.6607458472331276,0.4449659598957201,-0.93788578914028
1768734398112,126,-2,-1.1259727950255192,-0.0599049759350306,-0.4100290328756169
1768734398116,126,-2,-0.0713807358120999,0.8118131737004657,0.6378046310199896
1768734398120,130,2,1.2259841689439333,4.021177276492799,1.928957442695031
1768734398124,130,2,2.3821373200963305,4.5172452532345195,3.078421930460552
1768734398128,130,2,3.16322550141668,4.053818276303818,3.8526363315922554
1768734398132,131,3,3.580195131735221,5.336180495603758,4.26398209994035
1768734398136,131,3,3.768383933098048,5.52955651265375,4.447844295995601
1768734398140,131,3,3.811474721023011,5.270265360080701,4.486188536747568
1768734398144,131,3,3.676180675984309,5.445112011336073,4.344331391364139
1768734398148,131,3,3.2851376939886645,5.06545453069387,3.945200872044485
1768734398152,130,2,2.6370806784500243,4.450120074511522,3.2890619136193893
1768734398156,129,1,1.8583955525987053,3.416123180642791,2.5038139701825406
1768734398160,128,0,1.1379798507661103,2.441261417776529,1.7785557164205932
1768734398164,128,0,0.6052273628846675,2.382927155654939,1.2410613243656032
1768734398168,128,0,0.2584307169170005,2.111902679433076,0.8874344387189703
1768734398172,127,-1,-0.0100062108989023,1.525914821954693,0.6095384056617059
1768734398176,127,-1,-0.336920504694868,1.3067503977399093,0.2723785508497414
1768734398180,126,-2,-0.8252063344491969,0.678405651638204,-0.2244170939655625
1768734398184,126,-2,-1.5119402890393387,0.137705245287254,-0.917000195784842
1768734398188,125,-3,-2.353501397586127,-0.5267063882482411,-1.7630885057488848
1768734398192,124,-4,-3.227488024431307,-1.8425718142064615,-2.6427262442630433
1768734398196,123,-5,-3.968649850960931,-2.2468023435591076,-3.392354061694375
1768734398200,123,-5,-4.4396545719636675,-2.7195483005542704,-3.874117643331124
1768734398204,122,-6,-4.602280913505576,-3.424686513813134,-4.047097826383735
1768734398208,123,-5,-4.535850112902772,-2.860872494614717,-3.9878251355539103
1768734398212,123,-5,-4.373671605558662,-2.522754542592584,-3.829391967884857
1768734398216,123,-5,-4.198336852855695,-2.465622609023849,-3.6574723421901063
1768734398220,123,-5,-3.9945960802296856,-2.4950774510313978,-3.4612920800723788
1768734398224,123,-5,-3.7150673671438086,-2.5578688734244386,-3.1961730750826014
1768734398228,124,-4,-3.3823013353230977,-1.6976443510832206,-2.882831225475916
1768734398232,124,-4,-3.072876313630828,-1.6202401260684036,-2.591007195010472
1768734398236,124,-4,-2.7116027407688006,-1.3380682374710482,-2.2373996168238044
1768734398240,126,-2,-1.794436342855493,0.4507447815741974,-1.3151780508813775
1768734398244,128,0,0.6897605221252288,2.53512083447006,1.1803929066652596
1768734398248,133,5,5.892908111019681,7.277590401686286,6.389036111986828
1768734398252,141,13,14.31316195737206,15.456464369932634,14.799494101943232
1768734398256,151,23,24.977700436037775,25.64447145620204,25.43905068854856
1768734398260,162,34,35.22470781769616,36.51579063158422,35.654939894182355
1768734398264,169,41,41.47872597920437,43.53933643380262,41.88282942229496
1768734398268,169,41,40.78854299400676,43.25840731170546,41.17796469157828
1768734398272,160,32,32.2923895618419,34.52775293135061,32.67895704684344
1768734398276,144,16,17.700286173829873,18.547367481018913,18.092744626523285
1768734398280,126,-2,0.4932702082969236,0.6872740692032613,0.8954521918007083
1768734398284,111,-17,-15.594674849219524,-14.54117046413313,-15.186057200285031
1768734398288,100,-28,-27.838341642421092,-25.578975977269657,-27.434103357605593
1768734398292,93,-35,-34.93715112380689,-32.49967558669423,-34.550555281807384
1768734398296,90,-38,-36.755152704584226,-35.43137613621432,-36.39349485459566
1768734398300,92,-36,-33.94603490462215,-33.23777009814782,-33.60662295186176
1768734398304,99,-29,-27.77437876056753,-26.639311552277142,-27.44883630843347
1768734398308,107,-21,-19.985796031807343,-18.35104483360803,-19.667548611418017
1768734398312,115,-13,-12.461046284279242,-10.720348032385838,-12.148474900418686
1768734398316,120,-8,-6.665019655966321,-5.1369652269232855,-6.359198248736626
1768734398320,124,-4,-3.1933101326485467,-1.57062466708283,-2.894823258384778
1768734398324,125,-3,-1.7208502800425445,-0.2615955456510545,-1.4289323052650449
1768734398328,125,-3,-1.3922683446185329,-0.6574009628175711,-1.1059419386507603
1768734398332,125,-3,-1.3892657948800835,-0.3437254376225853,-1.109100156415492
1768734398336,126,-2,-1.2998036156018151,0.5849678694135636,-1.0288935058341564
1768734398340,126,-2,-1.097343848225904,0.6745534688717222,-0.8399182666887106
1768734398344,126,-2,-0.8706258919148603,0.5913601304719217,-0.6285329096691983
1768734398348,126,-2,-0.6150421104587747,0.5021904679143196,-0.3854902374432405
1768734398352,126,-2,-0.2514283156384901,0.6073547497484789,-0.0291289068626112
1768734398356,127,-1,0.2365344823155588,1.6658863333133285,0.454365892931603
1768734398360,128,0,0.7533530252121747,2.6219492199744954,0.9644929921601288
1768734398364,128,0,1.1850709636464671,2.696987822798026,1.3852615736527547
1768734398368,128,0,1.5024412609185174,2.44148768982601,1.6903276800240503
1768734398372,128,0,1.751415128944965,2.7489156235787267,1.9294927431788664
1768734398376,129,1,1.971443006387959,3.55890420278391,2.142309570713169
1768734398380,129,1,2.162161520882156,3.762545522696044,2.3253858148568947
1768734398384,129,1,2.3242576486771265,3.621917759293646,2.477756131423743
1768734398388,129,1,2.4913535861737075,3.545609244014503,2.634695245362119
1768734398392,129,1,2.7010024266147608,3.746255636416184,2.8358045770228077
1768734398396,130,2,2.95531591480477,4.550377949345629,3.082563132248383
1768734398400,130,2,3.2326152619522124,4.870813002509545,3.3511678851569706
1768734398404,130,2,3.5237267974687043,4.511524241180144,3.6321630220344696
1768734398408,130,2,3.827197774678513,4.755993011232493,3.926025542091778
1768734398412,131,3,4.111394262775119,5.558826097382876,4.20235105220758
1768734398416,131,3,4.316689317747116,5.792201212188507,4.400369802414119
1768734398420,131,3,4.417283871119288,5.678669382494893,4.492581843852029
1768734398424,131,3,4.468014479145758,5.7480313126393865,4.533980216561315
1768734398428,131,3,4.567639278897226,5.57867390456973,4.6250160855940905
1768734398432,131,3,4.771568573819351,5.778201504751338,4.821876404756834
1768734398436,132,4,5.0518666970809605,6.622550031658541,5.095304464391873
1768734398440,132,4,5.346589835609406,6.903722231939854,5.381740688313023
1768734398444,132,4,5.630584264434528,6.56962612862349,5.656434023004067
1768734398448,132,4,5.918156445528251,6.808334973049404,5.935544940363299
1768734398452,133,5,6.205813892606416,7.59047711700773,6.2162808886598295
1768734398456,133,5,6.44363445114201,7.851485890449807,6.447509499625213
1768734398460,133,5,6.576791114882321,7.750630406002885,6.573254300181048
1768734398464,133,5,6.601983670675012,7.750870354904241,6.59067057822863
1768734398468,133,5,6.571317599027794,7.6955242116161005,6.552996256698456
1768734398472,133,5,6.546266519355783,7.713670874069725,6.521787434608178
1768734398476,133,5,6.5547829457013345,7.809271189746487,6.523910053539148
1768734398480,133,5,6.586399733485047,7.830584172361657,6.548118274310753
1768734398484,133,5,6.614386139494385,7.743732030051956,6.568314289282113
1768734398488,133,5,6.617142727958076,7.721897200985054,6.564278500142418
1768734398492,133,5,6.590091140063142,7.744567828651406,6.531904320873233
1768734398496,133,5,6.556234040109518,7.808939231776551,6.4931691039818675
1768734398500,133,5,6.570938123981781,7.920427321382726,6.502200590510266
1768734398504,133,5,6.698657668426288,7.678841501805877,6.62349936721801
1768734398508,133,5,6.960004569646455,7.846668819090811,6.878705067666212
1768734398512,134,6,7.295032706064825,8.64415170866519,7.208345032229874
1768734398516,134,6,7.591472752436726,8.961670868853767,7.499645200714646
1768734398520,134,6,7.75929427387752,8.851884722555269,7.662191984226449
1768734398524,134,6,7.776793834473903,8.761772206241375,7.674656754368812
1768734398528,134,6,7.666541855296485,8.843379752711312,7.560007879408901
1768734398532,134,6,7.437778129786651,8.628040851884075,7.327188057687531
1768734398536,133,5,7.058649829842732,8.089446642476457,6.94371191069322
1768734398540,133,5,6.48116088080808,7.749509500692853,6.361407246896761
1768734398544,132,4,5.690584326360524,6.936617154349275,5.566115490081963
1768734398548,131,3,4.7337812485661654,5.6961371197622395,4.605560420188539
1768734398552,130,2,3.703778005300677,4.790503810128001,3.5730747516380843
1768734398556,129,1,2.697578519681395,4.023158555826295,2.5649509541766538
1768734398560,128,0,1.7811135234725757,2.8400315734440515,1.6458498492954217
1768734398564,127,-1,0.9789165123723556,1.938689026049356,0.8394554874302478
1768734398568,127,-1,0.2855357421200692,1.693282617650718,0.1407732657762275
1768734398572,126,-2,-0.31304358623286,0.8432630365719684,-0.4621531313908862
1768734398576,125,-3,-0.8219743532997543,0.0212403691087848,-0.9720911290929092
1768734398580,125,-3,-1.228366079251777,-0.0794266639837955,-1.3761994022082675
1768734398584,125,-3,-1.4928866379293662,-0.1187528234301941,-1.638808282602897
1768734398588,125,-3,-1.5554000563735226,-0.167966918907099,-1.7038342233366257
1768734398592,125,-3,-1.3968400522174396,-0.3426629466713762,-1.5517865200208552
1768734398596,124,-4,-1.1515395722216335,-0.6221157637809518,-1.3119843341097923
1768734398600,125,-3,-1.1478952417504389,-0.5057120604019109,-1.3090171896056677
1768734398604,125,-3,-1.7397288527413135,0.4871712973961892,-1.8984491295897257
1768734398608,125,-3,-2.9948343185645347,-0.8427277837222924,-3.152107204832877
1768734398612,120,-8,-4.54151500272855,-4.582365439266123,-4.69873887575894
1768734398616,120,-8,-5.791985946226146,-5.323683888465784,-5.947932971958466
1768734398620,120,-8,-6.371934044837588,-4.817799524845584,-6.525179937813815
1768734398624,120,-8,-6.35078243595918,-5.0175344110517175,-6.503301761198053
1768734398628,121,-7,-6.087291557639929,-4.433042032809946,-6.242954122590762
1768734398632,120,-8,-5.8963277952880695,-4.786217019918972,-6.055883089399328
1768734398636,120,-8,-5.855632465044355,-5.268314348643994,-6.014980641992024
1768734398640,120,-8,-5.854188491439263,-4.681619582771117,-6.008337936370367
1768734398644,121,-7,-5.743029031409873,-4.190134272499722,-5.890794419900638
1768734398648,121,-7,-5.428961104886879,-4.148496275894985,-5.572937475905112
1768734398652,121,-7,-4.888164733628192,-4.016100386886892,-5.030996341728093
1768734398656,122,-6,-4.156548439502927,-3.0769365503937607,-4.298674296767622
1768734398660,123,-5,-3.318487547638953,-1.7569819291543574,-3.459113076605809
1768734398664,124,-4,-2.482509955230634,-1.1186725981243764,-2.620905846928401
1768734398668,124,-4,-1.7545478574938085,-1.0949828918145428,-1.8898869166273544
1768734398672,125,-3,-1.221535630454679,-0.0636909982680388,-1.3527374323456522
1768734398676,126,-2,-0.9256330858807204,0.9910132474884455,-1.051953257998146
1768734398680,125,-3,-0.8251250470678743,0.2222078699418066,-0.9462034515549796
1768734398684,125,-3,-0.7922195308138966,-0.033058916018788,-0.907616883838291
1768734398688,126,-2,-0.6812271098959812,0.8892728551868535,-0.7908364586874048
1768734398692,126,-2,-0.4214657900018395,1.0028299422390805,-0.5262137049783541
1768734398696,126,-2,-0.0665002209614732,0.8972410563208317,-0.1676596987612448
1768734398700,126,-2,0.2234256350848422,1.4401981899397074,0.1256804646307445
1768734398704,127,-1,0.2559813450572304,1.7145834014885777,0.1629184744179448
1768734398708,126,-2,-0.0879866162439777,1.3171635014365664,-0.1744377739823706
1768734398712,126,-2,-0.7763873243483409,0.5035694197105116,-0.8544424082311881
1768734398716,124,-4,-1.6369035751747456,-0.5036241697282482,-1.7056419166373162
1768734398720,124,-4,-2.456830813414819,-1.1663336553704755,-2.5169565318187312
1768734398724,123,-5,-3.101151862250024,-1.591523745468197,-3.1548113913333675
1768734398728,123,-5,-3.5746526536309733,-2.289834839471468,-3.6236114810381874
1768734398732,122,-6,-4.003079144235219,-2.895879357930871,-4.046750046013033
1768734398736,122,-6,-4.54943773827863,-3.031991831262781,-4.585000613974789
1768734398740,121,-7,-5.304283438890035,-3.657661105468234,-5.328939924236508
1768734398744,120,-8,-6.2125272850053905,-4.982621707314552,-6.225812494487655
1768734398748,119,-9,-7.094959540256837,-5.86128073125899,-7.099251840449265
1768734398752,119,-9,-7.757396204013934,-6.274678006009762,-7.755941582526151
1768734398756,118,-10,-8.106237919524002,-6.645268725499654,-8.099408974395173
1768734398760,118,-10,-8.184807839974933,-6.984779616699724,-8.167662980305526
1768734398764,118,-10,-8.10737606247244,-6.616425007590441,-8.07239383255654
1768734398768,119,-9,-7.94392595005543,-6.101848243224844,-7.888481858513294
1768734398772,119,-9,-7.661488114447421,-6.088866973712886,-7.593222517037735
1768734398776,119,-9,-7.210715670959341,-5.720625249135347,-7.143574883437069
1768734398780,119,-9,-6.7128391805712875,-5.944732588799006,-6.654961189991216
1768734398784,119,-9,-6.522342105036798,-5.559631469661273,-6.466401512669085
1768734398788,120,-8,-6.926810831312595,-5.043961517552646,-6.853134407218741
1768734398792,120,-8,-7.547732376293935,-5.2423394270756445,-7.438669263851482
1768734398796,121,-7,-6.956687423889075,-3.3540557071802266,-6.809203614320304
1768734398800,123,-5,-3.1441800789650136,-2.493945090969669,-2.970294048846735
1768734398804,127,-1,5.088841037680407,3.2774889655243062,5.270670331027934
1768734398808,145,17,16.693157034795316,19.016220909598175,16.866707885292374
1768734398812,155,27,28.14213881783275,30.894708687931946,28.299880569679956
1768734398816,162,34,34.88967829048315,36.43885194157701,35.03786426761543
1768734398820,161,33,33.68314397872916,36.75924148123472,33.840966489902286
1768734398824,151,23,24.24597924446521,26.02284834922525,24.43521702792071
1768734398828,135,7,9.315774683188438,10.171102369137133,9.547629234677144
1768734398832,119,-9,-6.8689441237540745,-5.972272665577232,-6.599244871839067
1768734398836,105,-23,-20.591884326486365,-19.86354304816729,-20.299979462220612
1768734398840,97,-31,-29.953801800598928,-27.55922074337556,-29.65618834441381
1768734398844,93,-35,-34.85420015659899,-31.851540140495636,-34.55975490005183
1768734398848,91,-37,-36.06717425405405,-33.749790576807996,-35.77352100437555
1768734398852,92,-36,-34.35908063187135,-33.08566716474061,-34.055186534933554
1768734398856,95,-33,-30.28735066731158,-29.71065231535561,-29.961585504912264
1768734398860,102,-26,-24.54033926039444,-22.611777387566335,-24.188743496746845
1768734398864,109,-19,-18.20475133701912,-15.84074565177744,-17.83239625614815
1768734398868,114,-14,-12.55842750987519,-10.63378945040375,-12.172747319590876
1768734398872,119,-9,-8.537664648298662,-6.2436954563770914,-8.140837417695623
1768734398876,120,-8,-6.336755806562927,-4.471382053622824,-5.924384488908798
1768734398880,121,-7,-5.453693828157955,-3.865969797958362,-5.019668257937425
1768734398884,121,-7,-5.12167779246594,-3.500328035299445,-4.663669727845223
1768734398888,122,-6,-4.7902931938073845,-2.9266187259762173,-4.311341729273607
1768734398892,123,-5,-4.33122835551028,-1.8969705874615277,-3.836897212944498
1768734398896,123,-5,-3.8992954426081146,-1.756839151179087,-3.393048215824156
1768734398900,123,-5,-3.648822719244869,-1.5936546344293263,-3.129282551187869
1768734398904,123,-5,-3.5637236856988115,-1.668388059625359,-3.025980565722765
1768734398908,123,-5,-3.495259176845493,-1.7761647393415947,-2.9350413720366992
1768734398912,124,-4,-3.3043585754005504,-0.9232280805888629,-2.7213045519265173
1768734398916,124,-4,-2.955308020953719,-0.7510751845938233,-2.352425785462599
1768734398920,124,-4,-2.505253495188743,-0.5135620128200703,-1.885466065095304
1768734398924,125,-3,-2.040474083900059,0.2524204735808526,-1.403957887908883
1768734398928,125,-3,-1.6255860703070013,0.3865938198688755,-0.9703048599291508
1768734398932,126,-2,-1.2856391321136855,0.9286597626056268,-0.6098134373859158
1768734398936,126,-2,-1.0100500305183608,1.4790788474571002,-0.3135653928270971
1768734398940,126,-2,-0.770624350670067,1.2571175692389045,-0.0542065112185097
1768734398944,126,-2,-0.548592677923486,1.541464724180207,0.1875958698618767
1768734398948,127,-1,-0.3498316524046809,2.148938152451023,0.4066212471663166
1768734398952,127,-1,-0.1871414777892424,2.189013387654656,0.5898760358751287
1768734398956,127,-1,-0.0468412665605324,2.3129197839748934,0.7505740433574204
1768734398960,127,-1,0.1141942304476923,2.4009754303582915,0.9318598255546038
1768734398964,127,-1,0.3273971367925954,2.492750966324287,1.165424965092947
1768734398968,128,0,0.5713483117292935,3.1872451597114853,1.429838918008149
1768734398972,128,0,0.7804663503367752,3.2643193991309003,1.6594686213019096
1768734398976,128,0,0.8991755426439045,3.219839276696202,1.7990866073390268
1768734398980,128,0,0.9305453227780024,3.598001961911102,1.8521529795066665
1768734398984,128,0,0.9379300006837998,3.2572364916493295,1.8816830749419244
1768734398988,128,0,1.001507588941312,3.5315305010936098,1.9668610710089671
1768734398992,129,1,1.1626354299802593,3.933702554308283,2.1484990554271493
1768734398996,128,0,1.391664581066088,3.618868500406872,2.3976197711092397
1768734399000,129,1,1.6013103343609187,4.2344198603389405,2.62813559615316
1768734399004,129,1,1.7056480448641618,4.632449846634589,2.7545306151832594
1768734399008,129,1,1.690430069797921,4.2358007015448,2.7618974507922776
1768734399012,129,1,1.6354656792075977,4.239288503481962,2.7291836171187014
1768734399016,129,1,1.6574735523122293,4.417050604143887,2.772865017957937
1768734399020,129,1,1.8120703862673837,4.404883328171747,2.948926548111894
1768734399024,129,1,2.037471003148045,4.55911741529793,3.195858585078138
1768734399028,130,2,2.194788487917992,5.304536615292498,3.374506418481523
1768734399032,130,2,2.177439839065193,5.26389709365964,3.3781220289699827
1768734399036,129,1,1.992831522159947,4.415248384320069,3.2148405969564267
1768734399040,129,1,1.7424636509465343,4.440762211442154,2.987054604573449
1768734399044,129,1,1.5321992726949865,4.561805359932634,2.800216891076038
1768734399048,129,1,1.409701430072427,4.338348768588437,2.700439493289678
1768734399052,129,1,1.375402166716671,4.307967593456089,2.687256248632046
1768734399056,129,1,1.4254838075417466,4.407691669914321,2.7576716706636666
1768734399060,129,1,1.567014708954603,4.46612465662645,2.920400315900162
1768734399064,129,1,1.7954110750835488,4.590379332084184,3.1715964020022547
1768734399068,130,2,2.070297749934041,5.317570333723473,3.469970745580095
1768734399072,130,2,2.320109770652852,5.454976761870825,3.7422772642362223
1768734399076,130,2,2.4665643667173236,5.229228993118483,3.909284774679684
1768734399080,130,2,2.4424219150470243,5.7411645142236125,3.904342796270876
1768734399084,130,2,2.197539141005379,5.286207767280505,3.6791911960788126
1768734399088,129,1,1.7107708677000066,4.690168345499984,3.214580953432833
1768734399092,129,1,1.021028873476663,4.184921104115874,2.549386385233104
1768734399096,128,0,0.2666854223603532,3.449367104384341,1.8194198113529696
1768734399100,128,0,-0.3129110551001994,3.679514983751271,1.2614863299701289
1768734399104,127,-1,-0.4724150059655283,2.2228194046031073,1.1214573185817804
1768734399108,126,-2,-0.1334587128919402,1.9556772912123708,1.4802647537365297
1768734399112,130,2,0.512707031325188,4.857459649604992,2.1474254338951604
1768734399116,129,1,1.1139256152400778,4.91845893119098,2.7692180449671997
1768734399120,129,1,1.4073029564675108,4.170188333476039,3.0821559503799403
1768734399124,129,1,1.377145135511389,4.793275122976608,3.0722036347855877
1768734399128,129,1,1.1946345949579076,4.419381732686552,2.911898810886932
1768734399132,129,1,1.0407202891016345,4.410198726601935,2.781283653697382
1768734399136,129,1,0.9870548571495794,4.516823330407574,2.749963619634181
1768734399140,129,1,1.004523925535932,4.482577914379992,2.787633016305064
1768734399144,129,1,1.0419748544986012,4.63735937240174,2.843453721977298
1768734399148,129,1,1.0783976890037064,4.483873064055148,2.8977042069523273
1768734399152,129,1,1.1046927695757147,4.498851888889836,2.942676909065066
1768734399156,129,1,1.076663798167963,4.429610537355534,2.934817566605173
1768734399160,129,1,0.9176488257435552,4.627999852939749,2.796970036947372
1768734399164,129,1,0.5945773266805341,4.518162892899976,2.4950081718645043
1768734399168,128,0,0.1954885248257792,3.612310289717118,2.1163370448112473
1768734399172,128,0,-0.0899483645326986,3.4585457300919713,1.8505814711482451
1768734399176,128,0,-0.097733729515734,3.4949536499180103,1.8616238453092784
1768734399180,128,0,0.177704851050555,3.6295672942059984,2.154633040086285
1768734399184,129,1,0.5649626908234467,4.516146012775688,2.5583079447396893
1768734399188,129,1,0.8355389829730281,4.67720961071144,2.8454730512475748
1768734399192,129,1,0.8712366247834235,4.415029980427315,2.8997477722256337
1768734399196,129,1,0.7548677270151452,4.61813769722402,2.8043876495225453
1768734399200,129,1,0.7246091780672124,4.519954050737782,2.7957212154454933
1768734399204,129,1,1.0260451026602673,4.658233486898149,3.1165618984304517
1768734399208,130,2,1.7525550390199305,5.58974124384256,3.858981006721367
1768734399212,131,3,2.76911829213155,6.531100412637249,4.889148694572337
1768734399216,132,4,3.772335349492087,7.585103256375345,5.9062199629540055
1768734399220,133,5,4.4622007466787785,8.556312666646694,6.61207627603134
1768734399224,133,5,4.724976346718495,8.66615598407952,6.89312984481205
1768734399228,133,5,4.704638724338421,8.602637838895571,6.892247323331259
1768734399232,133,5,4.704309090686321,8.579263519000406,6.911152085493993
1768734399236,133,5,4.97856342829696,8.58610482068779,7.203082728384441
1768734399240,134,6,5.563011225030777,9.592121771854725,7.802457232818634
1768734399244,135,7,6.258913867780838,10.667344636524794,8.510365948047756
1768734399248,135,7,6.764374174829279,10.628899701144226,9.026797555934785
1768734399252,135,7,6.839115427162688,10.61013354925232,9.114539787666825
1768734399256,135,7,6.403024481704953,10.5924527604697,8.694982648205311
1768734399260,134,6,5.5516509013702615,9.621350046545796,7.86209721522498
1768734399264,133,5,4.512725616259569,8.665302051032393,6.8405624335509705
1768734399268,132,4,3.5547819347187963,7.686723701641207,5.8971436038225225
1768734399272,131,3,2.8651832420674648,6.581107915596728,5.219624421739278
1768734399276,131,3,2.457240229075555,6.689117723947031,4.822716066095508
1768734399280,131,3,2.177139923396101,6.546760990008435,4.553731661621887
1768734399284,130,2,1.816769647746899,5.7734272600825385,4.2052697476238965
1768734399288,130,2,1.2530306231777686,5.634317492325616,3.654663103674866
1768734399292,129,1,0.5162294938187308,4.649355039524799,2.9320005435566365
1768734399296,128,0,-0.2482376986278451,3.688631674108926,2.181507779045715
1768734399300,128,0,-0.8822576245965281,3.5601681452780287,1.5597714753137186
1768734399304,127,-1,-1.3044618060783737,2.8226497101360097,1.147564294469986
1768734399308,127,-1,-1.5335531626629175,2.599993153104637,0.9272610587446656
1768734399312,127,-1,-1.643292979224823,2.761205528382189,0.8271591803140266
1768734399316,127,-1,-1.6886533764203313,2.577223404829163,0.7937935524918595
1768734399320,127,-1,-1.6607242829345603,2.742015026755988,0.835829226963759
1768734399324,127,-1,-1.5114581054686962,2.6535764938770825,0.998893850146576
1768734399328,127,-1,-1.2318879043316369,2.8204369969346135,1.2880496113568909
1768734399332,128,0,-0.9064120598964732,3.584165034953304,1.6161217115283415
1768734399336,128,0,-0.6661009526014214,3.789070666308743,1.8541580112463816
1768734399340,128,0,-0.5360449487989154,3.5708606776264986,1.984985123421692
1768734399344,128,0,-0.249025163796666,3.860715398740579,2.2842156043423527
1768734399348,130,2,0.8667255769927293,5.645558313497418,3.4243570910149597
1768734399352,133,5,3.7989097039266113,8.811255763240396,6.383695588048671
1768734399356,138,10,9.4462441773203,13.61489795492666,12.048141172328252
1768734399360,146,18,17.93307664597107,21.77708336491949,20.535803288381576
1768734399364,156,28,27.981119622019744,31.72072872058035,30.57271680349922
1768734399368,165,37,36.87300935722258,40.77481642786768,39.451717905519565
1768734399372,171,43,41.32248895988316,46.763417062065194,43.89494162270865
1768734399376,169,41,38.95003518348655,44.64598417980681,41.52601700813615
1768734399380,158,30,29.510724668125704,33.76193008646405,32.099612814639045
1768734399384,143,15,15.070689390424215,18.750148110684425,17.679654959272547
1768734399388,127,-1,-0.9635693074730723,2.7402127598948915,1.6678367792763678
1768734399392,113,-15,-15.27394240841802,-11.056250289708922,-12.625260262647458
1768734399396,104,-24,-25.64096000873568,-20.49865167423704,-22.98666138729305
1768734399400,98,-30,-31.157370125664425,-25.94849284450562,-28.50938917437089
1768734399404,97,-31,-31.917649648434622,-27.591810465165132,-29.2809621338348
1768734399408,99,-29,-28.6796050393585,-24.85394761313001,-26.05020397643576
1768734399412,106,-22,-22.70823983508808,-18.443038192690487,-20.077973124839097
1768734399416,113,-15,-15.633191632091489,-11.05344328669706,-12.996607142310378
1768734399420,120,-8,-9.10111817919961,-4.298478404815567,-6.458228749365102
1768734399424,125,-3,-4.277970627176016,0.6685961384407444,-1.6316317100377282
1768734399428,127,-1,-1.5058057205968214,2.974000317378534,1.1425880588867687
1768734399432,128,0,-0.3676862359207418,3.64952848321355,2.284342648563074
1768734399436,128,0,-0.1097971062342615,4.032821224848333,2.547892604395528
1768734399440,129,1,-0.1029661928046732,4.608211841873037,2.559207569710957
1768734399444,129,1,-0.044873300216593,4.832976604164706,2.6169090541470856
1768734399448,129,1,0.1282499795364922,4.802216710236476,2.784772229318407
1768734399452,129,1,0.415807849928532,4.841470968895488,3.0664706650808595
1768734399456,129,1,0.8202693611375315,4.936870345244366,3.468992361767457
1768734399460,130,2,1.3070144699580817,5.736616401375063,3.958058209308304
1768734399464,131,3,1.785268868402092,6.746347133377859,4.43904412173837
1768734399468,131,3,2.174888345955426,6.900527864759966,4.828139941424277
1768734399472,131,3,2.4806993540816085,6.744266641099052,5.130369044649332
1768734399476,131,3,2.7728043526466157,7.144248438139508,5.418817935461923
1768734399480,132,4,3.092440111287287,7.529234523053247,5.736535897954579
1768734399484,132,4,3.3993275937478264,8.030293864632636,6.042090339069943
1768734399488,133,5,3.622269259981557,8.606720562578666,6.262289552192929
1768734399492,132,4,3.746303456099101,8.063198736314906,6.3820788023151795
1768734399496,132,4,3.832050363930637,7.914920462034058,6.4636105928943355
1768734399500,133,5,3.955592775377182,8.753902664101894,6.583772192900333
1768734399504,133,5,4.149241841645587,8.905970740837997,6.774190444831872
1768734399508,133,5,4.400542131333019,8.679972135209216,7.021612931770571
1768734399512,133,5,4.6875347698892895,9.0862077876686,7.303976159970701
1768734399516,134,6,5.004587411936013,9.894487776969298,7.615737536432455
1768734399520,134,6,5.359387670884283,9.84850964725569,7.964754392368379
1768734399524,134,6,5.743808240600995,9.842119070310044,8.343421684407478
1768734399528,135,7,6.10436785417712,10.751482501852172,8.69853632125087
1768734399532,135,7,6.355733443346935,11.065463986582442,8.944142109656324
1768734399536,135,7,6.445187429109993,10.941903771676005,9.026771833253475
1768734399540,135,7,6.41015727710393,10.873210329361733,8.984264834868634
1768734399544,135,7,6.3659612170821855,10.833124933573847,8.933360864983761
1768734399548,135,7,6.431384613597613,10.785366789215486,8.993643294470063
1768734399552,135,7,6.660289387066075,11.06474154354316,9.217872088043157
1768734399556,136,8,7.031127252304748,11.989509813596092,9.582189731009596
1768734399560,136,8,7.476878760297657,11.894696851019146,10.018186360019014
1768734399564,136,8,7.902305520788722,11.811847430586518,10.431404617356272
1768734399568,137,9,8.182755912818207,12.859068141669445,10.699562312451162
1768734399572,137,9,8.197038314653131,12.973964984102444,10.704338803779075
1768734399576,136,8,7.914459367348798,12.181774709381058,10.41713387106393
1768734399580,136,8,7.470783287606721,11.727966426785772,9.972595121610915
1768734399584,136,8,7.147435188691592,11.995867087751488,9.646479762157886
1768734399588,136,8,7.224239593775147,11.748142516444842,9.712319594093666
1768734399592,136,8,7.74719976925608,11.99171050153979,10.216318808635814
1768734399596,136,8,8.336692901315127,12.429547776155715,10.786844127909117
1768734399600,136,8,8.239889007130579,11.269516180348957,10.678500394319649
1768734399604,136,8,6.756551020841574,12.749073459428567,9.189776889594285
1768734399608,136,8,3.8344732042920233,10.757173476344043,6.262006738693467
1768734399612,125,-3,0.3033447778549893,2.201350508197086,2.7229019702875306
1768734399616,125,-3,-2.599804066677451,0.1582010083901996,-0.1875665721512693
1768734399620,125,-3,-4.070615633969356,1.625037149900086,-1.6654111125325837
1768734399624,125,-3,-4.191333876829111,0.4637121808251048,-1.798065128760125
1768734399628,125,-3,-3.661129064224929,1.0010377571230942,-1.2866280698112906
1768734399632,125,-3,-3.1756893475503243,1.1705678342440695,-0.8211852773771819
1768734399636,125,-3,-3.0272162528093443,0.9393151217245016,-0.6866840987298676
1768734399640,125,-3,-3.1360898358337614,1.1499725697433698,-0.8021170161309379
1768734399644,125,-3,-3.319832874669975,0.7070639173490716,-0.9900699619063272
1768734399648,125,-3,-3.4982905401490116,1.0539352637357218,-1.1765876535178128
1768734399652,125,-3,-3.697568119072395,1.0103093735673685,-1.389922633042476
1768734399656,124,-4,-3.93650680859914,0.1687814131235265,-1.6460640440594032
1768734399660,124,-4,-4.160884889232662,-0.0674544996493153,-1.886183632366792
1768734399664,124,-4,-4.291025346016338,-0.063164026862533,-2.0283606187055883
1768734399668,124,-4,-4.306302004969144,-0.0566082555293476,-2.0534463796565774
1768734399672,124,-4,-4.262451360995596,0.1143542350994741,-2.020348901552678
1768734399676,124,-4,-4.228338563009929,0.1168337919781574,-1.9998175157309452
1768734399680,124,-4,-4.217273958794703,-0.0467892083563521,-2.00437058692137
1768734399684,124,-4,-4.184100875954077,-0.0046610826990143,-1.9863057366870271
1768734399688,124,-4,-4.08109102003119,-0.0750794471634113,-1.8959490416082945
1768734399692,124,-4,-3.899760679385847,0.195772701103527,-1.7253748620774618
1768734399696,125,-3,-3.644524127457295,1.038442306273415,-1.481547477422018
1768734399700,125,-3,-3.2755003386518173,1.0386020045652111,-1.1263691891537269
1768734399704,125,-3,-2.7156898405601844,0.9641407163638872,-0.5820037819591756
1768734399708,126,-2,-1.9490044507692523,2.0029501198365125,0.169646584878861
1768734399712,127,-1,-1.1055081857882838,3.184798027178002,0.9990946167341196
1768734399716,128,0,-0.4140594985382249,4.0299511164886646,1.6765367590858309
1768734399720,128,0,-0.0423676193158085,4.102791307553556,2.033855034037005
1768734399724,128,0,0.0284709795299898,3.8923234126434174,2.090867827208497
1768734399728,128,0,-0.0168180777619133,4.170857063037731,2.0330820386395176
1768734399732,128,0,0.0335003207773153,4.031737443008369,2.071542972964864
1768734399736,128,0,0.2783651700235457,4.209148481457397,2.3035027876191805
1768734399740,129,1,0.6566672935860236,4.964979822323931,2.6666538635131647
1768734399744,129,1,1.002487331292146,5.026708194512684,2.995427653709421
1768734399748,129,1,1.1438122578237462,5.143141802764701,3.119652900048699
1768734399752,129,1,0.9761797020606564,5.039128310674916,2.936977422877938
1768734399756,128,0,0.4868994638318056,4.273363761215855,2.4354042275408503
1768734399760,128,0,-0.2497085978626732,3.872593970809349,1.6878141475136632
1768734399764,127,-1,-1.087707617065503,3.1973748916851097,0.8377906877766886
1768734399768,126,-2,-1.8514524637100096,2.001736165503483,0.0598008961239079
1768734399772,125,-3,-2.420952955732941,1.2284775801496424,-0.5255463791983253
1768734399776,125,-3,-2.8189173398261604,1.1132956304537729,-0.9398280843501344
1768734399780,125,-3,-3.2141532369975385,1.0205051379503178,-1.3512039770345687
1768734399784,124,-4,-3.811018701287871,0.1400574883425536,-1.9633881353597924
1768734399788,123,-5,-4.701157281092773,-0.9421822679696228,-2.8670869864318425
1768734399792,122,-6,-5.788356887171456,-1.745983858030364,-3.9659471759367086
1768734399796,121,-7,-6.832556917302204,-2.935605415471218,-5.021474540149769
1768734399800,120,-8,-7.57572696730564,-3.8929000362008246,-5.777925379025053
1768734399804,120,-8,-7.872665681925851,-3.88900888542842,-6.09094425331922
1768734399808,120,-8,-7.755921336826598,-3.883012555866967,-5.9913092726765615
1768734399812,120,-8,-7.403155619402082,-3.7357958260440967,-5.653507852620369
1768734399816,121,-7,-7.029564615805193,-2.9743896591539167,-5.29110179823468
1768734399820,121,-7,-6.771411507245967,-2.7975955274066915,-5.04236289130518
1768734399824,121,-7,-6.636114711500888,-2.9723013763417723,-4.919320731386149
1768734399828,121,-7,-6.55075542767143,-2.7238710802635184,-4.852432936155862
1768734399832,121,-7,-6.454066526386982,-2.871181256069562,-4.778900670563036
1768734399836,121,-7,-6.313863519044608,-2.8368501968658,-4.6599678181734845
1768734399840,122,-6,-5.991863746196742,-1.8836831850046512,-4.350099835564501
1768734399844,123,-5,-5.028546243832915,-0.8772319114478182,-3.387806927908175
1768734399848,125,-3,-2.5779122155818133,1.2770076546158142,-0.9331627060410428
1768734399852,130,2,2.2800983615225174,6.12679371350411,3.923107540682453
1768734399856,137,9,9.861303821583746,13.208822545974686,11.488933479760147
1768734399860,146,18,19.192832353782403,22.07999587371453,20.79231280957608
1768734399864,155,27,27.865182069438067,31.225404030037517,29.43229066908679
1768734399868,161,33,32.758308727464765,37.20425043927855,34.2984750100302
1768734399872,160,32,31.41694230642953,36.21451697971281,32.940819588169944
1768734399876,151,23,23.305475805528843,27.08733044263093,24.823739212698214
1768734399880,137,9,10.137833135795692,13.204671461379702,11.657830926365818
1768734399884,122,-6,-4.92536917201681,-1.8632945108808912,-3.4015518214998774
1768734399888,108,-20,-18.652278327951187,-15.60665438863206,-17.128804056257778
1768734399892,99,-29,-28.823077370009916,-24.91142202832532,-27.309335128111435
1768734399896,94,-34,-34.523251645533094,-29.718473679170955,-33.02964120235768
1768734399900,92,-36,-35.81391163011388,-31.996229510643943,-34.34577844313402
1768734399904,93,-35,-33.31588302802989,-30.611199529348777,-31.87025764495804
1768734399908,99,-29,-28.04579657313871,-24.83048103520277,-26.614561400880294
1768734399912,106,-22,-21.381799123053348,-17.63503867082017,-19.95853100019463
1768734399916,113,-15,-14.85275091057154,-10.982535181250098,-13.43645656195514
1768734399920,118,-10,-9.6923181116478,-5.715778060567464,-8.285303580815626
1768734399924,121,-7,-6.430018493100466,-2.8997940227471366,-5.033670263834945
1768734399928,122,-6,-4.829525520863196,-1.5090883315884684,-3.442749879381474
1768734399932,123,-5,-4.218810204610114,-0.9098853910536162,-2.839765856049824
1768734399936,123,-5,-3.9604027607309025,-0.6790158294929696,-2.5888934385633933
1768734399940,124,-4,-3.7375340842585993,0.0409935460953572,-2.3756924334446503
1768734399944,124,-4,-3.5190908543657016,0.3363812838593292,-2.1699296029251736
1768734399948,124,-4,-3.3365079522787915,0.3192079069792406,-2.001480367165068
1768734399952,124,-4,-3.1268364282258405,0.2719875288592579,-1.804354159046117
1768734399956,124,-4,-2.775484296325163,0.1958997108765103,-1.461989518850983
1768734399960,125,-3,-2.262321540357448,1.1759821960818777,-0.9553552957848424
1768734399964,126,-2,-1.7137285055213471,2.24351085316856,-0.4139565993336848
1768734399968,126,-2,-1.289711961714099,2.435564335156469,0.0004854433681819
1768734399972,126,-2,-1.0330251165434872,2.2025882197193845,0.2466669667912512
1768734399976,126,-2,-0.8426578693133697,2.2815508770136708,0.4279922151158126
1768734399980,127,-1,-0.5836347667267736,3.118976296023233,0.6796993307460586
1768734399984,127,-1,-0.2085176433784275,3.325615125866271,1.047502116885778
1768734399988,127,-1,0.2145000524243121,3.407955627536528,1.462027284851055
1768734399992,128,0,0.5666448765545047,4.25225208813523,1.805057695583259
1768734399996,128,0,0.7707850481125833,4.276141358257009,2.0006810783310693
1768734400000,128,0,0.8440191827949088,4.104989349576222,2.066576142556122
1768734400004,128,0,0.8791594789950881,4.420000487681577,2.0952949900586813
1768734400008,128,0,0.975022105401715,4.307165074778611,2.185023249967776
1768734400012,128,0,1.172662728342608,4.436334796804957,2.376207696329603
1768734400016,129,1,1.4460184966762744,5.0802896371735855,2.6424622995147953
1768734400020,129,1,1.7448563380250102,5.340395616037451,2.9338803858277966
1768734400024,129,1,2.0396939135347893,5.208115500613619,3.221911809383521
1768734400028,129,1,2.324670191143096,5.55944061055118,3.501235815112867
1768734400032,130,2,2.590525345358038,6.229249064914393,3.761918907469964
1768734400036,130,2,2.811404224311506,6.290638311899404,3.97707158317406
1768734400040,130,2,2.9579478560417996,6.178382270167059,4.117442684769832
1768734400044,130,2,3.0140175007310757,6.370736597364139,4.168004495998129
1768734400048,130,2,2.985249440607416,6.465760304676616,4.134910126548132
1768734400052,130,2,2.9068008928980986,6.331403222262683,4.052511002667832
1768734400056,130,2,2.8454707426103374,6.2304074263551605,3.9865396650121183
1768734400060,130,2,2.8773362514215965,6.258574371675245,4.013127417645392
1768734400064,130,2,3.04243234252912,6.306035630902239,4.173493180990525
1768734400068,130,2,3.3123741881485937,6.597473938793575,4.440194024748984
1768734400072,131,3,3.607363363497964,7.199911914554652,4.73295047949515
1768734400076,131,3,3.852074375288666,7.41904067296481,4.974927680834972
1768734400080,131,3,4.012091320797841,7.077902091841373,5.130718481668045
1768734400084,131,3,4.067440881667647,7.492262598362837,5.180969852968114
1768734400088,131,3,3.9521764304673774,7.508210460676056,5.0615377993887165
1768734400092,130,2,3.5398769184140204,6.228382310745779,4.64718852181487
1768734400096,130,2,2.7259311998193017,6.535510411226312,3.83245129206165
1768734400100,130,2,1.5609399360277163,5.869024533567988,2.6661270842925027
1768734400104,126,-2,0.3024482459978626,2.812689706606445,1.405509053425868
1768734400108,126,-2,-0.7070025592228797,2.1724368787381474,0.3943894924482268
1768734400112,126,-2,-1.2495503088786744,2.614794373447193,-0.1490773238739141
1768734400116,126,-2,-1.334258817967653,2.19791449862699,-0.2350769801277051
1768734400120,126,-2,-1.114156869207208,2.194646064401862,-0.0170056398317232
1768734400124,126,-2,-0.7311690985054775,2.582116880056052,0.3643558184032713
1768734400128,127,-1,-0.237635481902152,3.3346924249089103,0.8575517292442312
1768734400132,127,-1,0.3655145088806497,3.5768723439844514,1.4610283045720371
1768734400136,128,0,1.0386449352245002,4.183376259557075,2.133877099553761
1768734400140,129,1,1.6559065491250404,5.30998956816029,2.7498542172969773
1768734400144,129,1,2.053140167424786,5.453567729313202,3.1458351925426067
1768734400148,129,1,2.1408201340501236,5.488871830092816,3.2338724016566296
1768734400152,129,1,1.992290453703639,5.47181935017146,3.087839100324246
1768734400156,129,1,1.831867544332178,5.282106159570687,2.9308857283384984
1768734400160,129,1,1.9150568243393224,5.290363828390113,3.016719501083816
1768734400164,129,1,2.365302261122748,5.46376922897362,3.4678009698515098
1768734400168,130,2,3.0728418098121595,6.529274827810256,4.174578315638912
1768734400172,131,3,3.7362658569305216,7.443957529956086,4.83667744276243
1768734400176,131,3,4.030365682901482,7.354298217659812,5.13040001782386
1768734400180,131,3,3.7875768982528415,7.230016942899008,4.889584584809912
1768734400184,130,2,3.0753233760310543,6.576579932567425,4.181994849823962
1768734400188,129,1,2.135369107761389,5.386393607946134,3.2481654660274195
1768734400192,128,0,1.2417582238389349,4.680427011786752,2.3599382172584145
1768734400196,128,0,0.5681318237674815,4.093852099461293,1.6891774992453112
1768734400200,127,-1,0.1279914218013932,3.5783735057111477,1.24933436671681
1768734400204,127,-1,-0.2027085213345778,3.2182798291158425,0.9182112040865682
1768734400208,126,-2,-0.6082252203979372,2.77080981561651,0.5139968696613287
1768734400212,126,-2,-1.2355517581793345,2.3394366360527243,-0.1090213624448106
1768734400216,125,-3,-2.1122306486834055,1.4329504697539308,-0.979037566047766
1768734400220,124,-4,-3.1199955900109817,0.3249232449650696,-1.979758013047595
1768734400224,123,-5,-4.049815506629469,-0.5685627158051592,-2.9041873029767156
1768734400228,122,-6,-4.715606343168349,-1.35889143240535,-3.5671541056605487
1768734400232,122,-6,-5.055796126719897,-1.5620297864742885,-3.9061198179916814
1768734400236,122,-6,-5.152064602779748,-1.5726612143780478,-4.000100744065922
1768734400240,122,-6,-5.151140987427349,-1.6746505195659704,-3.9931027711246574
1768734400244,122,-6,-5.147228344884037,-1.528070652356076,-3.9790139346471074
1768734400248,122,-6,-5.116608602932512,-1.387457268859198,-3.9374303532466945
1768734400252,122,-6,-4.9650162728960545,-1.5241383209288433,-3.779341749170173
1768734400256,122,-6,-4.658872369084568,-1.535631887155097,-3.47447955458785
1768734400260,123,-5,-4.313667179965869,-0.7287122033291169,-3.136179289130778
1768734400264,123,-5,-4.1001517235133935,-0.3876420935157751,-2.927201618327514
1768734400268,123,-5,-3.9563801411140274,-0.5854953383970427,-2.7762308131504634
1768734400272,124,-4,-3.2869335807118905,0.7737443161063009,-2.0846275631631137
1768734400276,127,-1,-0.9392472269411554,3.142283613732148,0.2926920417078027
1768734400280,131,3,4.33490220494019,7.670754472710371,5.5895069506852035
1768734400284,140,12,13.00953981062153,16.235400217599654,14.268594589721964
1768734400288,150,22,23.95259349483435,26.80439491644296,25.198222979431613
1768734400292,161,33,34.26381118647531,37.444148116870096,35.489727936186746
1768734400296,168,40,40.16266816873393,44.451594922857694,41.376968037377026
1768734400300,167,39,38.65648770315666,43.41300696531174,39.87533506312359
1768734400304,157,29,29.087346372351988,33.42119227564859,30.325781459599213
1768734400308,140,12,13.577744856215254,16.65901114388889,14.843810896739644
1768734400312,122,-6,-3.9470489685211714,-1.4399901434060194,-2.653690983845901
1768734400316,107,-21,-19.52774788454152,-16.540836313293827,-18.214689037824577
1768734400320,97,-31,-30.61202865923383,-26.54534428058046,-29.291225263298383
1768734400324,92,-36,-36.428311573493666,-31.517337546674785,-35.1108520162682
1768734400328,90,-38,-37.4334204313928,-33.40982649141233,-36.12357823074376
1768734400332,92,-36,-34.56888514007372,-31.35445349363923,-33.26194997692829
1768734400336,98,-30,-28.916547911406138,-25.623490667353565,-27.60296310150981
1768734400340,105,-23,-21.744497847714207,-18.41270682515345,-20.417025659538854
1768734400344,113,-15,-14.525687754348734,-10.617952775358726,-13.18354644911509
1768734400348,119,-9,-8.631174272614746,-4.285857167309473,-7.278282017962201
1768734400352,123,-5,-4.83164426083994,-0.5181050276989736,-3.4712769757740096
1768734400356,124,-4,-3.020843068082123,0.5645214301268338,-1.651759662340186
1768734400360,124,-4,-2.4313919484160698,0.4151327169463834,-1.0492113726944616
1768734400364,125,-3,-2.19250973196237,1.6197712421314303,-0.7951308956367148
1768734400368,126,-2,-1.801414590298687,2.522488232412779,-0.392508987850538
1768734400372,126,-2,-1.211990523613823,2.660504670850749,0.2018820012298159
1768734400376,127,-1,-0.6094580229323312,3.4442001576931,0.8064264252704398
1768734400380,127,-1,-0.1510246993278778,3.5105698175905142,1.270536184994048
1768734400384,127,-1,0.1371979674848615,3.613004148107985,1.571022686003274
1768734400388,128,0,0.3233181521622095,4.518247015458984,1.7726230958719849
1768734400392,128,0,0.5008582531472194,4.71761631602847,1.963276782829885
1768734400396,128,0,0.7398824706756486,4.371086255855925,2.211072278225821
1768734400400,128,0,1.0473559590613957,4.637086635580882,2.5256291905205854
1768734400404,129,1,1.3501268123866494,5.497200832967923,2.8371102274288544
1768734400408,129,1,1.54365229309114,5.687562754622082,3.041553791660738
1768734400412,129,1,1.5908217256082455,5.548453003620531,3.100303843214069
1768734400416,129,1,1.5770136305327038,5.58138755248316,3.0975366655466123
1768734400420,129,1,1.652821078848567,5.409581082570554,3.1839715276586205
1768734400424,129,1,1.9089371511198592,5.802475453699337,3.450810465874638
1768734400428,130,2,2.300661312642863,6.3713668462235695,3.8531929169156034
1768734400432,130,2,2.693156361763578,6.934771360194164,4.2557367717129715
1768734400436,131,3,2.9805612003577684,7.178452129486763,4.552739249110491
1768734400440,130,2,3.163844011020346,6.837304252968938,4.746215034695034
1768734400444,131,3,3.3237325423489814,7.41518283931866,4.917664888589704
1768734400448,131,3,3.533727660045998,7.75783765279394,5.140103881880999
1768734400452,131,3,3.8037823217019975,7.637357157755833,5.422141857810728
1768734400456,132,4,4.095379554040796,8.416605440067897,5.7242869473301905
1768734400460,132,4,4.3741175101833045,8.704171888236022,6.012459262468598
1768734400464,132,4,4.637701150206131,8.474088826054672,6.2858427420736485
1768734400468,132,4,4.89385470656941,8.829044872942069,6.55337991541759
1768734400472,133,5,5.126622103216195,9.513508448869338,6.798670565716438
1768734400476,133,5,5.303672139107676,9.621322795824817,6.98777615254834
1768734400480,133,5,5.416999569611994,9.473545825483022,7.111866658836104
1768734400484,133,5,5.498096917099384,9.75317373196129,7.20323906718163
1768734400488,133,5,5.581162266027924,9.56859473869278,7.297266115896408
1768734400492,133,5,5.658433129523847,9.80352051517364,7.386192087405318
1768734400496,134,6,5.684880251863277,10.361757734621282,7.424054186671711
1768734400500,133,5,5.628871799634535,9.737049116079858,7.378870011266868
1768734400504,133,5,5.509683218535846,9.52634849447648,7.2706607620100865
1768734400508,133,5,5.38315662779275,9.808544156471076,7.155908946148901
1768734400512,133,5,5.299586823974749,9.60416686607675,7.084473858820233
1768734400516,133,5,5.277090160542881,9.569238599761016,7.073579632458547
1768734400520,133,5,5.301332367260305,9.576657623166216,7.108594635579285
1768734400524,133,5,5.338335598143574,9.668794169761853,7.155955724025733
1768734400528,133,5,5.351468762871383,9.735893721720595,7.179643873328822
1768734400532,133,5,5.319726236094978,9.655388072291457,7.159090713154486
1768734400536,133,5,5.2514241813593925,9.591042369198412,7.102680157515497
1768734400540,133,5,5.187102104176656,9.532616630028029,7.050547330774429
1768734400544,133,5,5.188690652805558,9.76265711096187,7.064030469079795
1768734400548,133,5,5.312500622674214,9.650479125933176,7.199210971308108
1768734400552,133,5,5.569899947670559,9.76917454281147,7.467642915798707
1768734400556,134,6,5.898502280743605,10.51927569597509,7.807001882313415
1768734400560,134,6,6.173757563284548,10.59372845217026,8.092541898896478
1768734400564,134,6,6.2618224617381975,10.754387180403707,8.190633515042517
1768734400568,134,6,6.076498242285716,10.650990945136602,8.016060467511831
1768734400572,133,5,5.602980606185666,9.818071003283944,7.554827539198016
1768734400576,133,5,4.887785328908092,9.474169876169912,6.852717462993258
1768734400580,132,4,4.019830407716107,8.675941676486426,5.996602327341907
1768734400584,131,3,3.112463895801138,7.674705178107853,5.098713850233717
1768734400588,130,2,2.2714679901006027,6.7790844296974875,4.266358090071127
1768734400592,129,1,1.551776334237424,5.690728315435992,3.5571638658002684
1768734400596,129,1,0.950184441360741,5.644523458139991,2.968462550887398
1768734400600,129,1,0.4694983020647272,5.512590045615971,2.5006044063048827
1768734400604,128,0,0.1977226244621017,4.8694895004736285,2.239291280057135
1768734400608,128,0,0.2876412811550046,4.606777956002242,2.338171625564887
1768734400612,128,0,0.8134118847621177,4.881304675800642,2.8740957350595298
1768734400616,130,2,1.642744395084081,6.473604869337567,3.7154846891384974
1768734400620,131,3,2.4817298219645627,7.7119267558753295,4.566263448888128
1768734400624,131,3,3.068014810126487,7.698467679908296,5.162113589487181
1768734400628,131,3,3.319006538848203,7.791721427290733,5.421238942665114
1768734400632,131,3,3.2973836975591135,7.713439925414339,5.408691585838316
1768734400636,131,3,3.0651588424500114,7.639109233129659,5.187638032607342
1768734400640,131,3,2.606864599173187,7.600081821148585,4.74175369492473
1768734400644,130,2,1.8998725903833835,6.836979853170191,4.046974069088739
1768734400648,129,1,1.0325005625014314,5.6702327334521225,3.1908220432096237
1768734400652,128,0,0.2165524679709278,4.85206790727532,2.384825396599924
1768734400656,128,0,-0.3478191058717526,4.4842899081889716,1.8291270268483228
1768734400660,127,-1,-0.6470756919275504,3.828712742400999,1.537855373018134
1768734400664,127,-1,-0.909160883660284,3.618911233523747,1.2841285025505595
1768734400668,127,-1,-1.460481003530298,3.92909231929879,0.7422283304832639
1768734400672,126,-2,-2.4699610272963044,2.5894967062763232,-0.2566881368184379
1768734400676,124,-4,-3.785909222465308,0.7232641384475329,-1.5610093235040527
1768734400680,123,-5,-5.017666745730363,-0.3137954748467813,-2.7806190850512382
1768734400684,122,-6,-5.802487106664948,-1.2878476634592002,-3.5544491205607276
1768734400688,122,-6,-6.033565320061024,-1.0336129543895582,-3.77747185749628
1768734400692,123,-5,-5.876115315161936,-0.5405880082615253,-3.614255017591287
1768734400696,122,-6,-5.597784434639995,-1.046531087103962,-3.3288136953527796
1768734400700,123,-5,-5.378039662989691,-0.5905558713877674,-3.0973939531969483
1768734400704,123,-5,-5.231965540593799,0.0669624303836182,-2.9363890130114725
1768734400708,123,-5,-5.068102366986109,-0.3852753840819414,-2.760030912318805
1768734400712,123,-5,-4.8117467916415055,-0.1928259071057514,-2.498805554659419
1768734400716,124,-4,-4.487428024512033,0.6729180571817719,-2.1765811965575805
1768734400720,124,-4,-4.166275034522222,0.6282489550638566,-1.856851667807055
1768734400724,124,-4,-3.766362196034609,0.9827668248796576,-1.4481114844068403
1768734400728,126,-2,-2.8211370596848986,2.622350952873731,-0.4805623149130089
1768734400732,128,0,-0.4267676656323782,4.896542835695586,1.942259142442176
1768734400736,133,5,4.435165486495034,9.536130466921698,6.8256274567468775
1768734400740,140,12,12.194429217685364,16.840999297502304,14.590731500019956
1768734400744,149,21,21.939785822158044,25.78541355030376,24.32853085395558
1768734400748,159,31,31.1956099027897,35.847068681688484,33.57305327861877
1768734400752,166,38,36.64485960124767,42.68581269676881,39.0162322683609
1768734400756,165,37,35.5988504944045,41.71436483887397,37.97334040379911
1768734400760,156,28,27.37211039884825,32.67398975603651,29.759297616543872
1768734400764,141,13,13.663549385133852,17.93732493796437,16.071813247637856
1768734400768,125,-3,-2.2775164030333865,1.7054204153690549,0.1563540224025636
1768734400772,111,-17,-17.06994030985615,-12.10941388772378,-14.61340310678911
1768734400776,101,-27,-28.28858749749415,-22.43568939837387,-25.82002723772264
1768734400780,94,-34,-34.76920027055108,-29.097438295329074,-32.30122688325949
1768734400784,92,-36,-36.36567093900739,-31.27255209198473,-33.90500653732828
1768734400788,94,-34,-33.66069924462326,-29.101150492178036,-31.20502087085041
1768734400792,100,-28,-27.84906336419114,-23.272300745632386,-25.39083762363955
1768734400796,108,-20,-20.612894220824217,-15.268160287418215,-18.14578747302399
1768734400800,115,-13,-13.745564204944584,-8.180998188719771,-11.267598536401051
1768734400804,120,-8,-8.575079146474842,-3.245221919014875,-6.0871765545225935
1768734400808,123,-5,-5.530537416640214,-0.1165594366549847,-3.033523031715931
1768734400812,124,-4,-4.168305655119822,0.7006261191840233,-1.6616319517566494
1768734400816,124,-4,-3.6474978426224447,0.8094279363852297,-1.130493602287998
1768734400820,125,-3,-3.3073240415241183,1.8326404752259409,-0.7814627253272246
1768734400824,126,-2,-2.9449616909505227,2.714002966455505,-0.4144035965778198
1768734400828,126,-2,-2.6732987795406373,2.9858261081254804,-0.1420738911250059
1768734400832,126,-2,-2.5951381227073096,2.516266971778641,-0.0631633886350382
1768734400836,125,-3,-2.62630768358392,2.095201434238507,-0.0888700473032616
1768734400840,126,-2,-2.5756960197067924,2.546249632157666,-0.0278448302024019
1768734400844,126,-2,-2.3221468759888273,3.051336896217059,0.2363987758657901
1768734400848,127,-1,-1.890850035048461,3.6477613816672454,0.6740068577476264
1768734400852,127,-1,-1.397535795153081,3.824948145674242,1.169368517635071
1768734400856,127,-1,-0.961770029602971,3.8645997024407457,1.6070711278045224
1768734400860,128,0,-0.6631042933776663,4.747583975820876,1.910858150806569
1768734400864,128,0,-0.5251092942104159,4.956032880697156,2.056546765024934
1768734400868,128,0,-0.5010006894287173,4.659123336011485,2.0880683415031966
1768734400872,128,0,-0.4837861493276394,4.891021772351565,2.110732957132843
1768734400876,128,0,-0.3671394748497618,4.7636218865969475,2.231489147065827
1768734400880,128,0,-0.1231724691629936,4.922726601214063,2.4795792876521285
1768734400884,129,1,0.1753835127918218,5.7942599044512395,2.7826312643641633
1768734400888,129,1,0.4176751383812566,5.831641185626398,3.029272636266137
1768734400892,129,1,0.5461074302248741,5.705100372150218,3.1617547313960603
1768734400896,129,1,0.5914250979388275,5.995788080979027,3.21139514592323
1768734400900,129,1,0.6284484758829587,5.68615132467506,3.2533953164785605
1768734400904,129,1,0.7096106388959227,6.099312460559339,3.339683127041813
1768734400908,130,2,0.8425070422988568,6.50764494049872,3.477032015671252
1768734400912,129,1,1.017120080510299,6.037021281198719,3.6552789289907226
1768734400916,130,2,1.236155711762671,6.696134521124627,3.877711446055253
1768734400920,130,2,1.5117037415651882,6.9889808381640535,4.156920090112424
1768734400924,130,2,1.836377513376875,6.860227272125645,4.48540258035637
1768734400928,131,3,2.163437921849096,7.715192756026417,4.815920384698279
1768734400932,131,3,2.420901592651006,7.878715051740842,5.076265465000554
1768734400936,131,3,2.552626105958944,7.815210017415324,5.210776988172037
1768734400940,131,3,2.5536980301145804,7.962435271462595,5.21532594499296
1768734400944,131,3,2.4743365651709706,7.850450016662638,5.140251418996071
1768734400948,131,3,2.3941560730208167,7.789791640263353,5.064266152922404
1768734400952,131,3,2.3840747981539168,7.762301273234206,5.057203709079954
1768734400956,131,3,2.4710479202577815,7.983395946028839,5.145908015381203
1768734400960,131,3,2.618860877531929,7.803447495405251,5.295128227302725
1768734400964,131,3,2.741849764280313,8.044632947457888,5.420129331936996
1768734400968,132,4,2.7593741448564586,8.604264151392982,5.440306316568644
1768734400972,131,3,2.6629140028453264,7.942056431007171,5.346734724688278
1768734400976,131,3,2.537742759669327,7.831772414492718,5.224583344355997
1768734400980,131,3,2.510567562985298,7.975009356518693,5.200482698466735
1768734400984,131,3,2.6651170078091795,7.902245718984663,5.357557860271596
1768734400988,132,4,2.9956287962981576,8.752951419830826,5.689419615408957
1768734400992,132,4,3.423299602822469,8.812595323883894,6.1175977127902
1768734400996,132,4,3.845318444194641,8.952580041374066,6.54037754775032
1768734401000,133,5,4.179547690464089,9.913186989264045,6.876242327227245
1768734401004,133,5,4.39044053345027,9.945996450936638,7.089365509689176
1768734401008,133,5,4.488170689051666,9.75723427996535,7.189478081417475
1768734401012,133,5,4.496638489842413,9.78754584463023,7.200158385733865
1768734401016,133,5,4.41384054824354,10.010672122057974,7.1187618961341705
1768734401020,133,5,4.202257821004635,9.864389271579842,6.9071664738123095
1768734401024,132,4,3.8128755165583423,9.035133719515777,6.516905853757655
1768734401028,132,4,3.21272753357673,8.660158204610266,5.916648145797519
1768734401032,131,3,2.400892349524031,7.913983036739334,5.106544992919963
1768734401036,130,2,1.4236874750213109,6.863155278480124,4.132189102454275
1768734401040,129,1,0.3864045946838157,6.078137385059659,3.0970192164949113
1768734401044,128,0,-0.5679332529552712,4.806698587528068,2.1428339013922253
1768734401048,127,-1,-1.326833951153922,3.9377812997091697,1.3825109940108218
1768734401052,127,-1,-1.8819736342233688,3.606110024676316,0.8258307137054421
1768734401056,126,-2,-2.3366221453041898,3.212040529247992,0.3708406505108739
1768734401060,126,-2,-2.821720516889949,2.739299619476657,-0.1130460199585705
1768734401064,125,-3,-3.38215282560272,2.1777121681177696,-0.6715062547589938
1768734401068,125,-3,-3.932487894353276,1.5789519719392562,-1.220649191494346
1768734401072,124,-4,-4.327885861365519,0.9422838098820016,-1.616932243537951
1768734401076,124,-4,-4.495731537230398,0.9245938328277972,-1.787622850163445
1768734401080,124,-4,-4.513477621724345,1.022574187434249,-1.8083055334486309
1768734401084,124,-4,-4.55351662192092,0.9478627754599932,-1.8491041164551223
1768734401088,124,-4,-4.722258031433267,0.8103272644269239,-2.016075417277152
1768734401092,124,-4,-4.915462294818344,0.6825312330168183,-2.2071862703151313
1768734401096,124,-4,-4.826505979637576,1.2437058746896934,-2.1180298764210908
1768734401100,124,-4,-4.154110097071188,0.6746005371086374,-1.4469442923297338
1768734401104,124,-4,-2.8839196930882305,1.385742161868901,-0.1781131733542706
1768734401108,129,1,-1.3923778816314072,5.332530403082981,1.3113538672847502
1768734401112,129,1,-0.2333048172192933,6.191217066304959,2.466092121183365
1768734401116,128,0,0.2197335965474844,4.736175639863621,2.9141785710473953
1768734401120,128,0,-0.0484475620425649,5.189924103258027,2.6444870999154166
1768734401124,128,0,-0.8023053043086792,4.923599719777174,1.8936211557927176
1768734401128,127,-1,-1.7651012033597475,3.7207703734011335,0.9344917114075634
1768734401132,126,-2,-2.73189289297663,2.9363477229744777,-0.0324703919240718
1768734401136,125,-3,-3.5699922232799173,1.8965689864794648,-0.8753891216914993
1768734401140,124,-4,-4.196126880655465,1.1424715262470455,-1.5081453384031185
1768734401144,124,-4,-4.5779067395153925,0.9146500690931938,-1.8947521903431104
1768734401148,124,-4,-4.735961568954654,0.7630339979769127,-2.0538030453630265
1768734401152,124,-4,-4.716763134398042,0.924853295845582,-2.0319941439154565
1768734401156,124,-4,-4.552242951585212,0.9100196213704352,-1.8638026767805151
1768734401160,124,-4,-4.251193519758713,1.152536287668719,-1.5623975725369703
1768734401164,125,-3,-3.840309724759963,1.9077635496873515,-1.1583810333899696
1768734401168,125,-3,-3.414177406352947,1.7638924414850292,-0.7460335846731094
1768734401172,125,-3,-3.1106926869358764,1.9742209508937096,-0.4569998432631886
1768734401176,126,-2,-2.943459955877164,2.854463043498085,-0.2958933224202726
1768734401180,126,-2,-2.531237231682423,3.235365510469483,0.1236827709646926
1768734401184,128,0,-0.9315226783546942,4.82453865817506,1.7406177598309225
1768734401188,132,4,3.144602754152852,8.851958351829564,5.832549422012707
1768734401192,139,11,10.633531599285975,15.944316992594077,13.32425964331033
1768734401196,149,21,21.205063686327932,25.86849646080528,23.881800400505195
1768734401200,160,32,32.72190354247098,37.30088641688251,35.37397583520217
1768734401204,171,43,41.62930976805371,47.68774749545921,44.256687696767685
1768734401208,174,46,44.3239475225279,51.04421047493818,46.935265757530715
1768734401212,168,40,38.83770440750094,44.683320110796046,41.445684760032734
1768734401216,154,26,25.833301090869988,31.13164449076653,28.450408625269617
1768734401220,136,8,8.310616537677681,13.04371144058713,10.94482206836847
1768734401224,118,-10,-9.720531489071965,-5.089851539155147,-7.069638165152178
1768734401228,104,-24,-24.735539773049567,-19.01763675753873,-22.077721521262863
1768734401232,95,-33,-34.57969393304633,-28.28789495326376,-31.929604752093475
1768734401236,90,-38,-38.56949068268586,-32.75818443689788,-35.9383000511594
1768734401240,91,-37,-37.173567140225884,-32.1485020867149,-34.56278860802748
1768734401244,96,-32,-31.67738607970805,-26.86430471350696,-29.080101608234287
1768734401248,105,-23,-23.90841542896492,-18.233641164866707,-21.316063137063225
1768734401252,113,-15,-15.86789201055571,-10.0569847336061,-13.2757544754783
1768734401256,119,-9,-9.22115464768134,-3.9415626486662614,-6.628736428992407
1768734401260,124,-4,-4.840220316029485,0.9388140367105868,-2.2486905226733462
1768734401264,126,-2,-2.6637615999875495,3.0803901256437536,-0.0738536871753097
1768734401268,126,-2,-1.971885390340015,2.773650422934254,0.6165942134381852
1768734401272,126,-2,-1.906959565069296,3.050702594410313,0.6800628585452041
1768734401276,127,-1,-1.9054213528105612,3.949511790529603,0.6780501036097151
1768734401280,127,-1,-1.7934680954659614,4.04989865727188,0.7823651779019571
1768734401284,127,-1,-1.5951084373904971,3.962181880492049,0.9702334366266494
1768734401288,127,-1,-1.3214535608531106,3.8922806039017024,1.2350015061198456
1768734401292,127,-1,-0.9366355710878193,3.991088491784905,1.6158818588813912
1768734401296,128,0,-0.4478379062569483,5.02486239265337,2.1040667624854947
1768734401300,129,1,0.0557910093564157,5.966433527875874,2.605490805787417
1768734401304,129,1,0.4767620778577426,6.041920846771853,3.020081068394881
1768734401308,129,1,0.7907187136040814,5.815121273320214,3.3259583527194887
1768734401312,129,1,1.0337021864879845,6.112921036127677,3.5631650117586
1768734401316,130,2,1.2349742295766244,6.915579707182825,3.761446518390623
1768734401320,130,2,1.399691796501931,7.0741857881530645,3.9228386713516255
1768734401324,130,2,1.550767054046666,6.94057380286546,4.067905683293056
1768734401328,130,2,1.7421560220781078,6.907819630410495,4.251769628113582
1768734401332,130,2,2.0024699628290032,7.077980649101596,4.505705344861481
1768734401336,131,3,2.282294395782458,7.926631860857654,4.781013863187872
1768734401340,131,3,2.4897844570603507,8.119390878155292,4.98418840626962
1768734401344,131,3,2.5877925548412186,7.838391628087157,5.076501851227773
1768734401348,131,3,2.6416940624061933,8.06991215826932,5.123671857632685
1768734401352,131,3,2.7588427526429213,7.898116871175198,5.23456514166106
1768734401356,131,3,2.98261354461219,8.138010343319742,5.453233909451105
1768734401360,132,4,3.2547037966815022,8.932114382909697,5.720422539087296
1768734401364,132,4,3.484957067583633,8.991359075890934,5.944690827695313
1768734401368,132,4,3.649867109968812,8.973395100567387,6.102649483186345
1768734401372,132,4,3.8104485351536943,8.957822226631968,6.256678140330842
1768734401376,132,4,4.0341383915786855,9.137941283866958,6.474940726107766
1768734401380,133,5,4.313389119193543,9.905663652123485,6.748983384479361
1768734401384,133,5,4.568787623674935,10.054777624418607,6.998158732738675
1768734401388,133,5,4.722723189185654,9.897004168384512,7.144991028728196
1768734401392,133,5,4.76040894604842,10.05933390540092,7.17589898348842
1768734401396,133,5,4.72775758929847,10.040141696106026,7.137400199775518
1768734401400,133,5,4.686834864547186,10.007479252674866,7.090935398288138
1768734401404,133,5,4.675175064170376,9.981529485105924,7.073184367063626
1768734401408,133,5,4.693261989496052,9.957250501416812,7.084563785815014
1768734401412,133,5,4.718164268529442,10.033569810301833,7.102697878168541
1768734401416,133,5,4.728934272767157,10.0519404144766,7.107007896056645
1768734401420,133,5,4.725289983419023,10.021137936112076,7.097036266228941
1768734401424,133,5,4.725141005166057,9.970643307811688,7.0903212737463255
1768734401428,133,5,4.742780026692682,9.979734394799005,7.101072617340547
1768734401432,133,5,4.768640002191772,10.022972550514387,7.120009104085206
1768734401436,133,5,4.773724803835755,10.063164187295236,7.118456324062419
1768734401440,133,5,4.7405007316856755,10.031980559608332,7.07887732307579
1768734401444,133,5,4.694731115028357,9.954531322845192,7.026721810170412
1768734401448,133,5,4.705128165954299,10.02358905659964,7.030481944829871
1768734401452,133,5,4.840329383426154,9.965315087377473,7.158931168960689
1768734401456,133,5,5.111587045931909,10.153273550804592,7.423499228782401
1768734401460,134,6,5.450494789567855,10.927211317667712,7.75559824415785
1768734401464,134,6,5.744416056852567,11.098654969762489,8.042306685040398
1768734401468,134,6,5.897119944893288,10.857547558270827,8.187517060082989
1768734401472,134,6,5.861575311152243,11.165012005136168,8.144633002160585
1768734401476,134,6,5.628837842726138,10.935129893795471,7.9050026818213235
1768734401480,133,5,5.200379305758532,10.16964662353697,7.470097615603441
1768734401484,133,5,4.576747705455392,9.86635610418219,6.840177782478029
1768734401488,132,4,3.772746037162494,9.095546281776103,6.029497799090237
1768734401492,131,3,2.8409801212289585,7.936730971849098,5.090275864062227
1768734401496,130,2,1.87106694479084,7.161503004088319,4.112480514201539
1768734401500,129,1,0.9517817913190294,5.966733925425464,3.1857799409284455
1768734401504,128,0,0.1272843742989668,5.061310942177406,2.3547056206129997
1768734401508,128,0,-0.6042072674827663,4.940843333680326,1.6167705233932068
1768734401512,127,-1,-1.2437736286970749,4.061993214175244,0.9700527058070374
1768734401516,126,-2,-1.753056132566808,3.0753936640182467,0.4530995208124622
1768734401520,126,-2,-2.075811158527334,3.0324959711646327,0.1229719455530398
1768734401524,126,-2,-2.1977705051397898,3.027399627133637,-0.0058872899112117
1768734401528,126,-2,-2.1753704462765753,2.9675137906810996,0.0094800014993182
1768734401532,126,-2,-2.103063707929135,3.0613024035196754,0.0742285021999442
1768734401536,126,-2,-2.0547190727454487,3.0657760005545773,0.114819932551937
1768734401540,126,-2,-2.0505593795750663,3.05411048661471,0.1115844193417605
1768734401544,126,-2,-2.068059855726092,3.010551204300992,0.08718599237737
1768734401548,126,-2,-2.077406061852846,2.9936039522553317,0.0710942403448866
1768734401552,126,-2,-2.0687945676906137,3.052438747757069,0.0726640872894803
1768734401556,126,-2,-2.0530859057918156,3.071601840768266,0.0808799917717679
1768734401560,126,-2,-2.043494934236053,3.0570682640995415,0.0827692127636894
1768734401564,126,-2,-2.040802199297962,3.012145833920516,0.0779308658950859
1768734401568,126,-2,-2.035943256851172,3.002737499342103,0.0755513402018362
1768734401572,126,-2,-2.0233249842025463,3.055716455863959,0.0809677140812994
1768734401576,126,-2,-2.0084091993787467,3.070112507606807,0.0884111639341607
1768734401580,126,-2,-2.0021403300404206,3.0631610678339474,0.086995650395825
1768734401584,126,-2,-2.0091863412281072,3.0143836230845023,0.0724549470229835
1768734401588,126,-2,-2.0209085913721725,3.0058765006106367,0.053705669252328
1768734401592,126,-2,-2.0181933080647028,3.06887135159377,0.0496887737129698
1768734401596,126,-2,-1.9844642227469835,3.0548798048480723,0.0765626788839465
1768734401600,126,-2,-1.926736303500825,3.0855298139448206,0.1270110114562612
1768734401604,126,-2,-1.8944145192267543,3.000594222036092,0.1514414070365407
1768734401608,126,-2,-1.9756524875328456,3.019960439372233,0.0615838231990789
1768734401612,126,-2,-2.260348432465592,3.0765579956598907,-0.2319996365837386
1768734401616,125,-3,-2.789959172676008,2.039906318367381,-0.7694302377599662
1768734401620,124,-4,-3.528950308631045,1.106627360243878,-1.5142067329813194
1768734401624,124,-4,-4.366709053854183,0.9898885704159516,-2.356841390246136
1768734401628,123,-5,-5.136669394962358,0.0242441965530666,-3.1333223297149684
1768734401632,122,-6,-5.659052690122571,-0.8930459744632957,-3.664885919616723
1768734401636,122,-6,-5.820664933375596,-1.0053169643011888,-3.836303084316746
1768734401640,122,-6,-5.651572468874346,-0.8273418565268571,-3.674609219306507
1768734401644,123,-5,-5.318279329482105,-0.0949193522667997,-3.3455413398996714
1768734401648,123,-5,-5.014536749404701,0.1473828393343961,-3.0454571036319193
1768734401652,123,-5,-4.838933275350142,-0.0324809307752129,-2.8771168898205643
1768734401656,123,-5,-4.766257691416426,0.1580483614321544,-2.81772096896951
1768734401660,123,-5,-4.713456313729202,-0.0132926170935183,-2.7820558272936684
1768734401664,123,-5,-4.584448357128359,0.1001582276383956,-2.6673323883252236
