timestamp_ms,ecg_u8_raw,ecg_counts_raw_int,ecg_counts_filt_monitor,ecg_counts_filt_diagnostic,ecg_counts_filt_st
1769239317084,122,-6,-4.888738766508638,-1.963134023650141,-1.7660233660947735
1769239317088,122,-6,-4.771115311124072,-2.12879128193801,-1.6800263160998012
1769239317092,122,-6,-4.7371630083288885,-1.9793880258028635,-1.6783185573302624
1769239317096,122,-6,-4.736678802813643,-2.033826355508898,-1.710577274887454
1769239317100,122,-6,-4.731586548342838,-2.024389860080784,-1.7386787539598538
1769239317104,122,-6,-4.707340732563074,-2.0446944017904367,-1.7480800220951551
1769239317108,122,-6,-4.668156136543553,-2.0850112675269847,-1.742841791290859
1769239317112,122,-6,-4.62598129055468,-2.031040031477498,-1.7346870142241242
1769239317116,122,-6,-4.590621768840436,-2.0365501663973493,-1.7333639480160945
1769239317120,122,-6,-4.563904138201272,-2.036070711044642,-1.7408461799689894
1769239317124,122,-6,-4.539851383943276,-2.067687700744875,-1.7513370677873523
1769239317128,122,-6,-4.510843444702841,-2.085819954023951,-1.7573014475599806
1769239317132,122,-6,-4.474863841871736,-2.0561508149134102,-1.7567130935774695
1769239317136,122,-6,-4.437089938678917,-2.0514569646270204,-1.7546552227429943
1769239317140,122,-6,-4.404373134980896,-2.046769920683347,-1.757788506122957
1769239317144,122,-6,-4.378325507990156,-2.08659939888733,-1.7675469819414271
1769239317148,122,-6,-4.353556551901297,-2.094415224914639,-1.778626464714315
1769239317152,122,-6,-4.321912861429223,-2.0738796417743446,-1.783315316194126
1769239317156,122,-6,-4.278858062654369,-2.074952777029511,-1.77750902880471
1769239317160,122,-6,-4.2285255617946325,-2.048925161262957,-1.7651823453706772
1769239317164,122,-6,-4.185139663638067,-2.114107432329573,-1.7597311227266044
1769239317168,122,-6,-4.166532772985445,-2.099995742914144,-1.7782671552160774
1769239317172,122,-6,-4.176359995881259,-2.0858572575649963,-1.8247642602163296
1769239317176,122,-6,-4.183736447178912,-2.121336332542978,-1.8695705434764092
1769239317180,122,-6,-4.124671147221473,-2.007047674987054,-1.849505930112148
1769239317184,122,-6,-3.943042253963121,-2.2104488047916133,-1.7078287428943124
1769239317188,122,-6,-3.647694378810834,-2.0154789904468053,-1.452096198740727
1769239317192,123,-5,-3.32439574984214,-1.2068699171659834,-1.1677216962952237
1769239317196,123,-5,-3.069455462578208,-1.0454231637026048,-0.9517533724099844
1769239317200,123,-5,-2.8994076509506193,-1.09388559829108,-0.8211758507697651
1769239317204,123,-5,-2.734862746814158,-1.182637794967527,-0.6961938149116822
1769239317208,123,-5,-2.4844998493393606,-1.0494693329607876,-0.4854193772849955
1769239317212,124,-4,-2.1441344570035294,-0.234336690431312,-0.1857214126233239
1769239317216,124,-4,-1.811061906962048,-0.0207138282201406,0.1048124820892977
1769239317220,124,-4,-1.607433502137348,-0.1736984436453275,0.2651813989946672
1769239317224,124,-4,-1.5878939094307902,-0.1153523170996453,0.2429742198971203
1769239317228,124,-4,-1.695044141869755,-0.178604647988434,0.0962821520928933
1769239317232,124,-4,-1.7735162414917376,-0.1250049212624202,-0.0212375172394438
1769239317236,124,-4,-1.6344477121351566,-0.1675662024533539,0.0771621439959489
1769239317240,124,-4,-1.159485506836304,-0.0440203728543355,0.509322809326926
1769239317244,125,-3,-0.3980754448077634,0.7066608406288153,1.2264954424696093
1769239317248,126,-2,0.4227559267948648,1.9698184272798531,2.0022284089407294
1769239317252,127,-1,1.010487842782815,2.6781341244770775,2.5446440818472436
1769239317256,126,-2,1.1666315343340026,2.013788252327056,2.6566840143034716
1769239317260,126,-2,0.8767200742120249,1.7317020588931211,2.324924733937308
1769239317264,126,-2,0.2907209359118432,1.883638278824599,1.6982007142914393
1769239317268,125,-3,-0.3605862805464124,0.7654155509800251,1.0048191812035796
1769239317272,124,-4,-0.8659564811592932,-0.1742312198131861,0.4548825325723533
1769239317276,124,-4,-1.1249900506625667,-0.1117195528555923,0.1497249700551699
1769239317280,124,-4,-1.1879482608100616,-0.2343448685710543,0.0404157109400382
1769239317284,124,-4,-1.2057136632410042,-0.1459334514950603,-0.0234247913155205
1769239317288,124,-4,-1.319924926036707,-0.2795778862763463,-0.1833449720773332
1769239317292,123,-5,-1.5796319180564686,-1.144885528418794,-0.4882871081911664
1769239317296,123,-5,-1.9382469053378,-1.1732424628486493,-0.8919200284732614
1769239317300,123,-5,-2.306242585730515,-1.223780292131372,-1.3052608932411776
1769239317304,122,-6,-2.6052142769519566,-2.182829692384434,-1.6498637716712097
1769239317308,122,-6,-2.796482655289727,-2.3010550376258005,-1.886559782760877
1769239317312,122,-6,-2.880434629130817,-2.125538393100823,-2.0163134870739188
1769239317316,122,-6,-2.8697076663591057,-2.2660482638209385,-2.0536084560803785
1769239317320,122,-6,-2.7616148501848965,-2.129496048323048,-1.9963475219670932
1769239317324,122,-6,-2.547832913469748,-2.3537024493590017,-1.833298279643469
1769239317328,122,-6,-2.2559362344934417,-2.153324828374118,-1.5874041321597616
1769239317332,123,-5,-1.960497907916042,-1.30699896603483,-1.3318488744435504
1769239317336,123,-5,-1.7256040062400029,-1.1364082038946268,-1.1357168683364645
1769239317340,123,-5,-1.539626779203441,-1.268283054152339,-0.9962081397545616
1769239317344,123,-5,-1.342659982013055,-1.2935240620747628,-0.8588109439898934
1769239317348,123,-5,-1.1382891508913229,-1.2293997389418534,-0.7224992370345609
1769239317352,123,-5,-1.0233841874438805,-1.2955490523744615,-0.6702237209725332
1769239317356,123,-5,-0.957339328008354,-1.1514055202418914,-0.6482399095515157
1769239317360,125,-3,-0.3174258477464158,0.6868306205581654,-0.0335689248539896
1769239317364,128,0,2.3724619270992067,3.733253294774659,2.635362036284498
1769239317368,133,5,9.020991602572456,8.674168432904182,9.249329694505704
1769239317372,143,15,20.731230224638757,18.797184326781853,20.90347296805898
1769239317376,159,31,36.41833774149949,34.71346963978698,36.51784025996578
1769239317380,177,49,52.44575583540489,52.80703262593355,52.46717330564621
1769239317384,190,62,63.93630872632874,65.57203286176329,63.88595308653564
1769239317388,192,64,67.1421743920753,67.73634074079422,67.03581486026533
1769239317392,185,57,61.33291459734809,60.65093051506585,61.190253770462746
1769239317396,172,44,48.9638864069545,47.721336572600464,48.79875338750668
1769239317400,157,29,34.14474291928196,32.81917747269805,33.95630882373679
1769239317404,144,16,20.55100958066482,19.541383208167804,20.323602522911965
1769239317408,134,6,10.087881244247887,9.857476504978088,9.800419145282422
1769239317412,128,0,2.8706313643165036,3.4313183421823417,2.509130663440614
1769239317416,122,-6,-1.8875419625406655,-2.0857178421858613,-2.322383846098366
1769239317420,118,-10,-4.964076491453801,-6.475963948541068,-5.458764933560149
1769239317424,116,-12,-6.791092679100328,-8.16910744641754,-7.329552741935819
1769239317428,116,-12,-7.631302312468336,-8.425136309979763,-8.206232462166644
1769239317432,116,-12,-7.811491231407848,-8.399734196954386,-8.42806281141764
1769239317436,116,-12,-7.711434742126422,-8.230773345339031,-8.380856800085281
1769239317440,116,-12,-7.590356757564317,-8.527507631732716,-8.319768011067055
1769239317444,115,-13,-7.499763363216412,-9.001829399472589,-8.287520285006327
1769239317448,116,-12,-7.375785140894462,-8.757040992061462,-8.215292285831929
1769239317452,116,-12,-7.179451129412225,-7.9834679212899315,-8.06648010856879
1769239317456,117,-11,-6.927677684229889,-7.809186371974482,-7.863686349286342
1769239317460,116,-12,-6.622920420844377,-7.955312434572701,-7.61214687635885
1769239317464,117,-11,-6.213741556607494,-7.610678797947068,-7.258472591613501
1769239317468,117,-11,-5.656012270962982,-7.222034916068605,-6.755203658394796
1769239317472,118,-10,-4.9991490831967536,-6.475740697238311,-6.150828228996855
1769239317476,119,-9,-4.381938317620373,-5.489536018592365,-5.585715270023428
1769239317480,119,-9,-3.9276103627643497,-5.212522214297638,-5.1843965349817935
1769239317484,119,-9,-3.644987149405914,-5.5014101180601,-4.955050100186579
1769239317488,119,-9,-3.4330077862661645,-5.282434751180287,-4.7954969294998335
1769239317492,120,-8,-3.1698973533728627,-4.511279912121577,-4.584383123488361
1769239317496,120,-8,-2.7934850800055484,-4.497471485046876,-4.260912702704575
1769239317500,120,-8,-2.3183438288010065,-4.242480592404805,-3.839921650420459
1769239317504,121,-7,-1.8056123999317577,-3.536099920675492,-3.381398108401245
1769239317508,121,-7,-1.3182394310689438,-3.26442794036964,-2.9473675434182955
1769239317512,122,-6,-0.8817971300212943,-2.592564544641885,-2.56368894337549
1769239317516,122,-6,-0.4715382550798783,-2.471493602620037,-2.206334615546759
1769239317520,122,-6,-0.0407375819064479,-2.311337182351334,-1.8287398513491957
1769239317524,123,-5,0.429610894596055,-1.5278972179449624,-1.4116691930951588
1769239317528,123,-5,0.9092279733519084,-1.2894269549118431,-0.9854465516135402
1769239317532,124,-4,1.3513953975146764,-0.6425968281129251,-0.5970313626722423
1769239317536,124,-4,1.7480365523775454,-0.4513861704164421,-0.2542893449248016
1769239317540,124,-4,2.1491961640274067,-0.4068222707493194,0.0935800519214766
1769239317544,125,-3,2.6263685598790443,0.5253475045248104,0.5185708473814099
1769239317548,125,-3,3.2151540301317816,0.6361874572061885,1.0556891165076552
1769239317552,126,-2,3.888046460698721,1.3393047720129574,1.6759092172156915
1769239317556,127,-1,4.573525702275996,2.5777718129476734,2.3067049935648902
1769239317560,127,-1,5.191518463402913,2.433046455156566,2.8690026648319433
1769239317564,127,-1,5.667951729619361,2.696666437141598,3.291152033137095
1769239317568,128,0,5.936973628233902,3.387115772681627,3.508496218494303
1769239317572,128,0,5.973294555008644,3.540217631731251,3.494290471536605
1769239317576,128,0,5.8477550107977585,3.349852089738456,3.317145229380916
1769239317580,127,-1,5.727022835586808,2.560977697162686,3.143230905358497
1769239317584,127,-1,5.772221567541553,2.56465387840096,3.1347217297952357
1769239317588,128,0,6.013817269380438,3.423698048863985,3.3228694525829474
1769239317592,128,0,6.3265744844483445,3.504525753366285,3.5825135906493153
1769239317596,128,0,6.529896834265798,3.2964577338917844,3.733204951520184
1769239317600,128,0,6.519647831584904,3.5877382633522683,3.6710296645675338
1769239317604,128,0,6.323609716315136,3.447514944662543,3.42349728557509
1769239317608,127,-1,6.045833354738927,2.508287667162624,3.0940993473137395
1769239317612,127,-1,5.7500016431364145,2.365475871159056,2.746267763996805
1769239317616,127,-1,5.380607106869312,2.4005986910173,2.324607471548831
1769239317620,126,-2,4.793721174724329,1.4060059074048703,1.6854477104700565
1769239317624,125,-3,3.872439875457542,0.587361650162249,0.7121659046107798
1769239317628,124,-4,2.625319586909157,-0.7039263359519454,-0.5865080760323806
1769239317632,122,-6,1.1852343610560294,-2.4608299533133513,-2.077656177138981
1769239317636,121,-7,-0.284865725854194,-3.818413685286008,-3.59832132854317
1769239317640,119,-9,-1.6950229134641273,-5.451901077434266,-5.0587423192755026
1769239317644,118,-10,-3.0507162496145304,-6.580739769360694,-6.464996407682387
1769239317648,117,-11,-4.3805896702949525,-7.635791672995991,-7.846187234075094
1769239317652,115,-13,-5.649677644351786,-9.51690754189478,-9.166805998417953
1769239317656,114,-14,-6.753368161243532,-10.887832925483607,-10.32106226971794
1769239317660,113,-15,-7.595422996392792,-11.369550981212196,-11.212410192630314
1769239317664,113,-15,-8.159166595292817,-11.791039858003089,-11.825142855171086
1769239317668,112,-16,-8.499921737422621,-12.427502254735815,-12.215441031318996
1769239317672,112,-16,-8.682856754912434,-12.787448344087371,-12.44824779389942
1769239317676,112,-16,-8.736568787234795,-12.697554110430202,-12.551580080476285
1769239317680,112,-16,-8.656424812253293,-12.578916134785889,-12.520692561338008
1769239317684,112,-16,-8.44263490828767,-12.707931952005165,-12.35583140751986
1769239317688,112,-16,-8.137097320459738,-12.489723096945175,-12.098728319347222
1769239317692,113,-15,-7.821876151524387,-11.831211755911944,-11.831502384341215
1769239317696,113,-15,-7.568463768952958,-11.68059682395836,-11.626048937266573
1769239317700,113,-15,-7.380306699507015,-11.676049357596549,-11.48585453721878
1769239317704,113,-15,-7.193005195212317,-11.680557411507309,-11.345954450415176
1769239317708,113,-15,-6.941609630617839,-11.54615906189076,-11.141175986898494
1769239317712,114,-14,-6.628754456041124,-10.855069868903405,-10.87494715585692
1769239317716,114,-14,-6.326051269767875,-10.683280099272816,-10.619747354598958
1769239317720,114,-14,-6.115390683419216,-10.770316109627297,-10.457021145678556
1769239317724,114,-14,-6.032344806984177,-10.626311690012123,-10.42082223532639
1769239317728,114,-14,-6.052850519592353,-10.67550996449904,-10.486213209103472
1769239317732,114,-14,-6.1128847204223735,-10.767395632893118,-10.58999931477241
1769239317736,114,-14,-6.134835290387974,-10.831273521605285,-10.65626860347906
1769239317740,114,-14,-6.053039386158728,-10.68936726726064,-10.6201617238571
1769239317744,114,-14,-5.842672415746917,-10.768553320118574,-10.45596670350244
1769239317748,114,-14,-5.541102507773934,-10.600728516100348,-10.19953709380694
1769239317752,115,-13,-5.232886465841447,-9.881487679943245,-9.934956348363292
1769239317756,115,-13,-4.989646730555565,-9.792258688918007,-9.734633291377545
1769239317760,115,-13,-4.810044902780186,-9.776864749111946,-9.597965831421792
1769239317764,115,-13,-4.624246905598138,-9.767715543476186,-9.454991559021408
1769239317768,115,-13,-4.367559040574632,-9.649668812652196,-9.24072449147443
1769239317772,116,-12,-4.050928062119919,-8.8998778394828,-8.9664329279518
1769239317776,116,-12,-3.757618402397505,-8.810539000248218,-8.715780540213272
1769239317780,116,-12,-3.5740821839073704,-8.850495481052935,-8.574781526632512
1769239317784,116,-12,-3.5231352053552016,-8.729631446436542,-8.565276475818617
1769239317788,116,-12,-3.5504702762017932,-8.805817636615421,-8.632564617170816
1769239317792,116,-12,-3.5623415741467452,-8.741110060965031,-8.683496128018245
1769239317796,116,-12,-3.4816125171328527,-9.079038513007964,-8.641972177387869
1769239317800,116,-12,-3.287259671583036,-8.598598720689045,-8.487700798908927
1769239317804,117,-11,-3.0169721430023797,-8.086395251266229,-8.258154393483968
1769239317808,116,-12,-2.740510528736676,-8.51111860853337,-8.021805507277271
1769239317812,117,-11,-2.528857306830301,-8.074529848881758,-7.848419132391722
1769239317816,117,-11,-2.428711287500416,-7.839940247327255,-7.785082253012285
1769239317820,117,-11,-2.437501015523574,-7.852752617167829,-7.830879935054309
1769239317824,117,-11,-2.4951679616431246,-7.969848258896484,-7.926490567553453
1769239317828,116,-12,-2.520654636741148,-8.62443514491352,-7.989652188498035
1769239317832,117,-11,-2.4745287248875116,-8.100066592528464,-7.979493112813247
1769239317836,117,-11,-2.380525227118285,-7.788013055434083,-7.920089323335786
1769239317840,117,-11,-2.2756873677683256,-8.050759268028028,-7.850139958695168
1769239317844,117,-11,-2.149279036650025,-7.773140428017702,-7.759721058551097
1769239317848,117,-11,-1.952428889279114,-7.949498019623138,-7.598976204764096
1769239317852,117,-11,-1.6754586204821482,-7.8082240594836945,-7.356773516463953
1769239317856,118,-10,-1.39876062769486,-7.147667650853379,-7.113337787155747
1769239317860,118,-10,-1.240291684996243,-6.757556757798596,-6.9876167112193786
1769239317864,118,-10,-1.2396947900380977,-7.124633564434226,-7.0197601594683565
1769239317868,117,-11,-1.3013107763127043,-7.696809434141973,-7.113534477917933
1769239317872,118,-10,-1.2616425491282206,-7.108265297202341,-7.104993744777887
1769239317876,118,-10,-1.018773360598604,-6.933865805287471,-6.8927932032116335
1769239317880,118,-10,-0.6099366574213136,-6.993909306795,-6.515090661379693
1769239317884,119,-9,-0.1820589565628247,-5.999150557022959,-6.119095732427974
1769239317888,119,-9,0.1131518377459597,-5.850212091296747,-5.855888825633636
1769239317892,119,-9,0.2196787925889489,-6.101518434884598,-5.780195764314523
1769239317896,119,-9,0.2047325217432782,-5.922467049598093,-5.823577979855247
1769239317900,119,-9,0.2083090542934009,-6.143959493329885,-5.846017152575725
1769239317904,119,-9,0.3701015049835787,-5.8503815313043965,-5.7094735489218955
1769239317908,120,-8,0.7849805668955296,-5.126585971892181,-5.321192335230629
1769239317912,120,-8,1.48301467697575,-4.871948927306298,-4.651700899199527
1769239317916,121,-7,2.402121239106296,-4.225009599284922,-3.761666542265566
1769239317920,122,-6,3.362397508567014,-2.908462943301346,-2.8292038860428073
1769239317924,123,-5,4.098839820275316,-2.140683826101745,-2.1188201835070357
1769239317928,123,-5,4.376784966740775,-1.9504156807818391,-1.8657411755558824
1769239317932,123,-5,4.123894380891878,-2.0756686662256265,-2.1426201799495597
1769239317936,122,-6,3.4745206612361716,-3.1521659634651655,-2.814826759367823
1769239317940,121,-7,2.688995219757127,-3.983637887452489,-3.6221134655552234
1769239317944,121,-7,2.013272147816046,-4.195762862725776,-4.3195698846751895
1769239317948,120,-8,1.5792286360144512,-4.919050549661682,-4.776394473610237
1769239317952,120,-8,1.3907492148229232,-5.216361960440979,-4.988512662415541
1769239317956,120,-8,1.370237363793772,-5.056203907227283,-5.032189610217915
1769239317960,120,-8,1.4196385782732417,-5.163932657628477,-5.004333668481678
1769239317964,120,-8,1.466507262853496,-5.093263578431664,-4.977315762483497
1769239317968,120,-8,1.4829960900353203,-5.079421835800722,-4.979700893591873
1769239317972,120,-8,1.4777560372064908,-5.1608969565427065,-5.003544148154431
1769239317976,120,-8,1.4721820208733172,-5.149243669948591,-5.0276701138115065
1769239317980,120,-8,1.478708647374131,-5.176116623501745,-5.039483003536963
1769239317984,120,-8,1.4944196106191494,-5.132150403436997,-5.041700077736204
1769239317988,120,-8,1.5097949567465456,-5.12892552671471,-5.0437518517353395
1769239317992,120,-8,1.5201182605571657,-5.185446096791706,-5.0502822752792005
1769239317996,120,-8,1.527476425100525,-5.1941895037938135,-5.059086845042178
1769239318000,121,-7,-7.446758626431002,-8.061632235261005,-8.227247503741992
1769239318004,121,-7,-7.38739783974391,-8.178587024284601,-8.159942599142411
1769239318008,121,-7,-7.214529258113692,-7.986719741577442,-7.971888884300504
1769239318012,122,-6,-6.941295259989336,-7.260420773450876,-7.685547985346953
1769239318016,122,-6,-6.590073263407316,-7.11450269453185,-7.333021556972194
1769239318020,122,-6,-6.235523335389236,-7.268777330068447,-6.991574076105724
1769239318024,122,-6,-6.043910696571197,-6.953050580978661,-6.8184818471792905
1769239318028,122,-6,-6.169915942545559,-7.197675559248992,-6.952103168737393
1769239318032,122,-6,-6.411444672035936,-7.02392240421381,-7.178918897691922
1769239318036,124,-4,-5.771606923767188,-5.309287658338896,-6.506175507917361
1769239318040,127,-1,-2.3735877943363426,-2.08854857010303,-3.0750183546729706
1769239318044,134,6,5.825414955928973,4.905730679575657,5.139447841065507
1769239318048,146,18,19.597810035546743,16.966062449529083,18.90455492596479
1769239318052,164,36,37.148407089276375,34.84583565023823,36.43313241663965
1769239318056,184,56,54.11802120835237,54.87985292994117,53.37861269840362
1769239318060,196,68,65.31198368859845,66.69150007241981,64.55758383118457
1769239318064,196,68,67.23279388260346,67.11142107649525,66.48114379375727
1769239318068,188,60,59.75424047578153,58.69642714081297,59.02599739986532
1769239318072,173,45,45.880163312956086,44.07505797553485,45.1883846217597
1769239318076,158,30,29.93335578308966,28.72228076882459,29.274502523307135
1769239318080,144,16,15.496849350412637,14.923873733420216,14.852264681216472
1769239318084,133,5,4.313345399173597,3.987332192066491,3.66138670451379
1769239318088,126,-2,-3.5415873136712026,-3.1994394026051554,-4.212093312686442
1769239318092,120,-8,-8.766814788319522,-9.017125241600374,-9.451167108503324
1769239318096,116,-12,-12.046280146779148,-13.214413361613758,-12.728946185573337
1769239318100,114,-14,-13.811174341742667,-15.048904713081294,-14.477062081737207
1769239318104,114,-14,-14.4112477783984,-15.030153194521551,-15.05557955652684
1769239318108,115,-13,-14.274717020736269,-14.17102254597439,-14.904486548043174
1769239318112,115,-13,-13.83665509210709,-14.064300846140936,-14.462690032443032
1769239318116,115,-13,-13.36993207059648,-14.182177049362252,-13.996864228441906
1769239318120,115,-13,-12.944738346656088,-14.00278287824477,-13.568249702352066
1769239318124,116,-12,-12.538361164533883,-13.08748822605964,-13.151397227062237
1769239318128,117,-11,-12.1351946320122,-12.054559388199223,-12.73549212645336
1769239318132,117,-11,-11.720087210097727,-12.240429167689385,-12.311096040770993
1769239318136,117,-11,-11.240945959015017,-11.945938993039546,-11.826651435493453
1769239318140,118,-10,-10.645192528275144,-11.245729468812234,-11.225736690473074
1769239318144,118,-10,-9.962249102944764,-10.776131081665362,-10.534814573163956
1769239318148,120,-8,-9.314482296714708,-9.387788287051038,-9.877140335220815
1769239318152,120,-8,-8.81734578754721,-8.871582057906831,-9.370804331996478
1769239318156,120,-8,-8.471942693702092,-9.34201998010698,-9.017677262480698
1769239318160,120,-8,-8.17331727871117,-8.791629184626935,-8.711211087376764
1769239318164,121,-7,-7.824973456244819,-8.215709634554328,-8.353520554059799
1769239318168,121,-7,-7.430017603906138,-7.942727383114845,-7.948361925661754
1769239318172,122,-6,-7.0644121664257975,-7.275661973333468,-7.573417053458681
1769239318176,122,-6,-6.773240464507239,-6.973998568617648,-7.274320613591732
1769239318180,122,-6,-6.5096579115053395,-7.085336356608342,-7.002819326668303
1769239318184,122,-6,-6.181310975881927,-6.947695450193939,-6.6648954233665725
1769239318188,123,-5,-5.744915223869202,-6.149467963335061,-6.217578190883728
1769239318192,124,-4,-5.237567254539867,-5.103622637731511,-5.699916324203525
1769239318196,124,-4,-4.7179983536561245,-5.077545318043935,-5.171533088061682
1769239318200,124,-4,-4.202090772063405,-5.022613219911555,-4.646981038738414
1769239318204,125,-3,-3.667129851191503,-3.918709684726223,-4.102087552440924
1769239318208,126,-2,-3.0986410383672016,-3.2482815385317823,-3.52284237743665
1769239318212,126,-2,-2.513204397378363,-2.909358162467051,-2.9272700759190604
1769239318216,127,-1,-1.94370341421173,-2.3186124765336316,-2.3485374533142127
1769239318220,127,-1,-1.418206009786676,-1.7137197194218343,-1.8135810598305393
1769239318224,128,0,-0.9500434768181848,-1.2402551422635786,-1.3347615472850674
1769239318228,128,0,-0.533339931100814,-0.9122786481104748,-0.9065835616327708
1769239318232,129,1,-0.1424148557119675,-0.2072225406140713,-0.5046238802327518
1769239318236,129,1,0.2531783625981051,-0.0356796097547318,-0.099135275838124
1769239318240,129,1,0.6536392866444185,0.0655956054247481,0.3106404707858207
1769239318244,130,2,0.9996249683558224,0.947216733464284,0.6664111197075989
1769239318248,130,2,1.1893957798093346,0.958042367140852,0.8668369315763763
1769239318252,130,2,1.1475937582668965,0.8993087498653185,0.8361146131185079
1769239318256,130,2,0.8934695623307591,0.9158504222505748,0.5929042273303762
1769239318260,129,1,0.54462926783885,0.1006894993711832,0.254714025631146
1769239318264,129,1,0.2459732354259923,-0.0625961084280469,-0.0332201547122377
1769239318268,129,1,0.0818834636195385,-0.0120137857093942,-0.1862742462771494
1769239318272,129,1,0.0445632300583853,-0.1296332752953589,-0.2123970923344295
1769239318276,129,1,0.0756741899289659,-0.0001141996774253,-0.1702987682253017
1769239318280,129,1,0.1290928070322167,-0.0004576298647279,-0.1063489523680869
1769239318284,129,1,0.1889173462941581,0.0674187555296741,-0.0363407184962684
1769239318288,129,1,0.2278737262388532,-0.1317608427588601,0.0128474384534287
1769239318292,129,1,0.156953784654919,-0.010053868791089,-0.0475000739620012
1769239318296,129,1,-0.1654442342377391,-0.0459469909296672,-0.3590728251819062
1769239318300,128,0,-0.8513042018531474,-1.014376046889652,-1.0340772320563874
1769239318304,127,-1,-1.892157072012706,-1.820279701233338,-2.063989730693827
1769239318308,126,-2,-3.143280084246271,-3.3290089677884023,-3.303824092441217
1769239318312,124,-4,-4.403167051080235,-4.708618064014157,-4.552107823088045
1769239318316,124,-4,-5.524925153129628,-5.379836160407588,-5.662519842060473
1769239318320,122,-6,-6.473001877087574,-6.63072449453469,-6.600145034317015
1769239318324,122,-6,-7.293300126908046,-7.192425471173596,-7.410865241779468
1769239318328,121,-7,-8.038981877803948,-7.974597844723543,-8.147055564694309
1769239318332,120,-8,-8.718948386243266,-8.997587113894667,-8.816763638537749
1769239318336,120,-8,-9.29973378330169,-9.131685700335218,-9.386369988992882
1769239318340,119,-9,-9.74027413449341,-9.783874411282817,-9.815404724966598
1769239318344,119,-9,-10.020698526082157,-10.106895032453696,-10.084749813713492
1769239318348,119,-9,-10.145273939617898,-9.975529062274545,-10.199022732124982
1769239318352,119,-9,-10.12807699434012,-10.03847748440527,-10.172072624831676
1769239318356,119,-9,-9.983732360489771,-10.032289889613214,-10.01798299867074
1769239318360,119,-9,-9.733942565226528,-9.873083184115211,-9.758172347873977
1769239318364,120,-8,-9.41574382515477,-9.02321431835286,-9.42986999957702
1769239318368,120,-8,-9.073798431646331,-9.011580102686567,-9.077929724078
1769239318372,120,-8,-8.741638419217729,-9.035869159259509,-8.735765575263292
1769239318376,121,-7,-8.42785811336091,-7.95692229611071,-8.411941772153533
1769239318380,121,-7,-8.113436789457507,-7.981435634124226,-8.087654922408005
1769239318384,121,-7,-7.763605393722754,-7.86918911239121,-7.728146324913366
1769239318388,122,-6,-7.355826809482882,-7.164263510137274,-7.310679574552542
1769239318392,122,-6,-6.904759451063937,-6.876785263345939,-6.850092929861044
1769239318396,123,-5,-6.456756109148521,-6.0700928369057525,-6.393216663923067
1769239318400,123,-5,-6.05814119551397,-5.879230156010558,-5.986299017065268
1769239318404,123,-5,-5.731180121605577,-5.927289738330756,-5.6508406373259055
1769239318408,124,-4,-5.4739452113237,-5.131951694209826,-5.384414512084419
1769239318412,124,-4,-5.266786017567455,-4.85574100126861,-5.167682772041512
1769239318416,124,-4,-5.07303813410949,-5.1061100314368275,-4.964587275252771
1769239318420,124,-4,-4.8463591041913485,-4.787200079668594,-4.729210464856676
1769239318424,125,-3,-4.552055581200639,-4.031749983294835,-4.4270729942374425
1769239318428,125,-3,-4.189409098649977,-4.0152530349210505,-4.057207181516881
1769239318432,125,-3,-3.8015083605639624,-3.939490137439555,-3.66193088021148
1769239318436,126,-2,-3.463843134075304,-3.026727832700632,-3.3162664921523
1769239318440,126,-2,-3.2455145576090247,-2.812230647344818,-3.089761710421847
1769239318444,126,-2,-3.1624507873023484,-3.034605285704524,-2.999034966609242
1769239318448,126,-2,-3.1673739614998206,-2.970450458398639,-2.996875460705625
1769239318452,126,-2,-3.1929547255352855,-2.9917128635537145,-3.015574449197056
1769239318456,126,-2,-3.2063594408079013,-2.940741073247392,-3.0221127477574803
1769239318460,126,-2,-3.2210147834749647,-2.8753116988171765,-3.030042167417965
1769239318464,126,-2,-3.258363273620176,-2.9657100066994055,-3.060946177405051
1769239318468,126,-2,-3.3018927721512403,-3.026259183789775,-3.0982875728195767
1769239318472,126,-2,-3.290628352396858,-2.921973296805303,-3.0809126570764085
1769239318476,126,-2,-3.1622353409737105,-2.9951452756030004,-2.946324135277897
1769239318480,126,-2,-2.9100666671213835,-2.78627097016742,-2.68807979547157
1769239318484,127,-1,-2.601308930194053,-2.0536145070004697,-2.3740154479013693
1769239318488,127,-1,-2.3360584973919885,-1.9198509907318804,-2.1046160320023093
1769239318492,127,-1,-2.1843811510169022,-2.0226899445190396,-1.9493086490516425
1769239318496,127,-1,-2.156269081370541,-1.8702161453936543,-1.916859661631738
1769239318500,127,-1,-2.216312566463276,-1.8921043498947536,-1.9713889039178272
1769239318504,127,-1,-2.3097525034000523,-1.9381256031600904,-2.05901666278538
1769239318508,127,-1,-2.373822548406557,-2.014821619494086,-2.1183449271482457
1769239318512,127,-1,-2.3449731901037643,-1.9245868989815,-2.086356458702755
1769239318516,127,-1,-2.1835764962669586,-1.9373892861073192,-1.9227293149474551
1769239318520,127,-1,-1.9086276535338256,-1.812911972240133,-1.6454363217916346
1769239318524,128,0,-1.6035788903821753,-1.0059674573792254,-1.337648770326516
1769239318528,128,0,-1.368789913534227,-0.9160371349369456,-1.1001300483704692
1769239318532,128,0,-1.2518399159440352,-1.0466141250172456,-0.9806940951273276
1769239318536,128,0,-1.2177433145796757,-0.7439118741765138,-0.9441867692622836
1769239318540,128,0,-1.1840102645514468,-1.0539041496686974,-0.9081547484007284
1769239318544,128,0,-1.0840714583976625,-0.691119643079097,-0.8065106258349781
1769239318548,129,1,-0.9058034511926468,-0.2583600898834609,-0.6273767003862893
1769239318552,128,0,-0.6866504788737693,-0.6644222424739492,-0.4077197387820177
1769239318556,129,1,-0.4829455702914242,-0.1131085803930662,-0.2033767638761079
1769239318560,129,1,-0.3361815458066317,0.3160324933007375,-0.0561803165701624
1769239318564,129,1,-0.2533114469763315,-0.0225978638183528,0.0262634512978455
1769239318568,129,1,-0.2160313701726888,0.0534163243379244,0.0624389657458546
1769239318572,129,1,-0.2125609694502095,0.0887722297045491,0.0650242055566749
1769239318576,129,1,-0.2524339718972643,0.0901976932995743,0.0248302196101513
1769239318580,129,1,-0.3336919315229631,0.1861548195066807,-0.056938179434137
1769239318584,129,1,-0.3907250009375269,0.0769124055880745,-0.1155148174407213
1769239318588,129,1,-0.2913304091909205,-0.0053880371083491,-0.0184330831829538
1769239318592,129,1,0.0869185958747917,0.1640263175631346,0.3577233117606213
1769239318596,130,2,0.7587711708868086,1.0035869446790406,1.027827124137172
1769239318600,131,3,1.6066455385304423,2.330095407817959,1.8730971087711048
1769239318604,132,4,2.453833254960917,2.9133868068345277,2.7159111899481148
1769239318608,132,4,3.158605313534796,3.1977694099835015,3.415350032091509
1769239318612,133,5,3.64473881086686,3.965228618328138,3.896829513167446
1769239318616,133,5,3.87341832446851,4.190144621574624,4.122035550853944
1769239318620,133,5,3.8242896922728105,4.204460018498754,4.069593272061622
1769239318624,133,5,3.517934383954509,4.006829310334204,3.75894276786882
1769239318628,132,4,3.0426692515924803,3.1882407526031016,3.2783061754692953
1769239318632,132,4,2.536101462636495,2.8992530880585905,2.7659298852820706
1769239318636,131,3,2.1216611021708847,2.3588339019675852,2.345559779017723
1769239318640,131,3,1.849589105722984,1.9569678588741148,2.067034518482664
1769239318644,131,3,1.6893152884041047,2.382206257884164,1.899385707510405
1769239318648,131,3,1.5721163276396848,1.7447021098132192,1.7743261038809854
1769239318652,130,2,1.442136539698588,1.397010986267643,1.636863873887751
1769239318656,131,3,1.2818786850851032,1.8597774986466475,1.4695550534327493
1769239318660,130,2,1.110955178876095,1.4378158876949252,1.2911037361940108
1769239318664,130,2,0.9662569122449312,1.009047257514366,1.1377787763750185
1769239318668,130,2,0.8690247839461501,1.0264846054584784,1.031250946378135
1769239318672,130,2,0.7995621815147106,1.241833762586594,0.9526522038379308
1769239318676,130,2,0.706187526608347,0.893272061060315,0.8504439887616384
1769239318680,129,1,0.5459251191962593,0.5435076857304781,0.6806215141898252
1769239318684,130,2,0.3252303948385336,0.8396959594117983,0.4481581351135528
1769239318688,129,1,0.1095961333230627,0.268877093745737,0.2186407220528771
1769239318692,129,1,-0.0095086342563374,-0.0243164776133897,0.0866502049344107
1769239318696,129,1,0.0290240791646949,0.1652755164241355,0.1174168865079036
1769239318700,129,1,0.2232193819861593,0.3158976050665889,0.3091450989088162
1769239318704,130,2,0.5266529825331097,1.0646586675478524,0.608787471209034
1769239318708,130,2,0.880179127079864,1.095104825185791,0.9476469212693236
1769239318712,130,2,1.1928714324394285,1.118015942816811,1.2313323592519556
1769239318716,130,2,1.2957673508156236,1.048749419504304,1.2996032665509374
1769239318720,129,1,1.021802997468118,0.4403503281434426,1.001856072249915
1769239318724,130,2,0.5494308659800524,0.96981529404728,0.5273543187721217
1769239318728,131,3,0.8769099948146384,2.221672918872102,0.8691214140650665
1769239318732,134,6,3.940686012721132,4.9849956686996055,3.945792091238144
1769239318736,140,12,11.875178373595617,11.20186515344068,11.87561257116802
1769239318740,152,24,25.505199193787227,23.317415583872652,25.479516633676997
1769239318744,171,43,43.01692396239043,42.11903015372821,42.95076153661009
1769239318748,190,62,60.009135123977714,61.14106434932321,59.89887929925416
1769239318752,202,74,71.28279713954547,73.02116071376972,71.1353504373975
1769239318756,203,75,73.366443009855,74.1639475723702,73.19805738896318
1769239318760,194,66,66.12483364087537,65.24592663460027,65.956017482887
1769239318764,180,52,52.47681665706146,51.1981048615229,52.32150217958504
1769239318768,165,37,36.628441660933234,36.095088941631126,36.48401087333738
1769239318772,151,23,22.12044597711386,22.181846653621125,21.968194582537407
1769239318776,140,12,10.798807817070148,11.05585682509737,10.615939798112082
1769239318780,132,4,2.9349933503934995,3.368198960891126,2.708808053657614
1769239318784,127,-1,-2.0399590738909694,-1.95612843795187,-2.3060343373545846
1769239318788,123,-5,-4.878274854495954,-5.724436748830633,-5.169678590413869
1769239318792,122,-6,-6.256013554750237,-6.942507581285737,-6.558302816480805
1769239318796,122,-6,-6.773873151786193,-6.802819801017321,-7.082220010238746
1769239318800,122,-6,-6.935467883432658,-6.770335822700505,-7.25599174437799
1769239318804,122,-6,-7.027308915415647,-6.878350619656119,-7.369917640369442
1769239318808,121,-7,-7.062396631040819,-7.743977572585042,-7.431891482485305
1769239318812,121,-7,-6.916324113287226,-7.929667382878609,-7.309963748540365
1769239318816,122,-6,-6.546325470471447,-6.725712451582511,-6.9592402344469875
1769239318820,123,-5,-6.066799280115149,-5.90170155225074,-6.498321033279496
1769239318824,123,-5,-5.622198784214288,-5.727086279175329,-6.075979439294492
1769239318828,123,-5,-5.236901382371605,-5.887142931775199,-5.715827214530055
1769239318832,123,-5,-4.827665611866335,-5.771220332389348,-5.330647737298159
1769239318836,124,-4,-4.344075954586595,-4.814242918259219,-4.868426987807718
1769239318840,125,-3,-3.848369836840985,-3.8710744286810286,-4.393865445258214
1769239318844,125,-3,-3.4417608223969616,-3.690409249288368,-4.0108400751902575
1769239318848,125,-3,-3.142671536171001,-3.9763766234454168,-3.737032590609402
1769239318852,125,-3,-2.8661822634904475,-3.5986455502594294,-3.4847817440987785
1769239318856,126,-2,-2.5140621264112397,-3.004135316882688,-3.1550672447013386
1769239318860,126,-2,-2.0614089785517073,-2.660996686890641,-2.725166449781483
1769239318864,127,-1,-1.558386881803286,-1.881857784394117,-2.247438449916854
1769239318868,127,-1,-1.0768269531395245,-1.7977055423869504,-1.793073753878986
1769239318872,127,-1,-0.6731687828323638,-1.722481691756959,-1.4158502061131886
1769239318876,128,0,-0.3833183342197284,-0.894250379306156,-1.1502392267124395
1769239318880,128,0,-0.2117406048559242,-0.7431215622820794,-1.002009775982346
1769239318884,128,0,-0.1052164852984249,-0.7966371243728603,-0.920132305491821
1769239318888,128,0,0.0427090596955137,-0.8699615173248766,-0.7987364170821858
1769239318892,128,0,0.3276905389502973,-0.6215257313707612,-0.5409813419439111
1769239318896,129,1,0.7595468482529468,0.00634926445903,-0.1358083042368109
1769239318900,129,1,1.2553261761645975,0.3791623438262292,0.3339031416813443
1769239318904,130,2,1.7159466062100672,1.0932194353745828,0.7683537250664239
1769239318908,130,2,2.114290479806439,1.242857562093485,1.1399953372769247
1769239318912,130,2,2.5075184585468153,1.3052076141311266,1.5062227829197
1769239318916,131,3,2.961917067380559,2.0504615954983993,1.9336292456533937
1769239318920,131,3,3.467377160459638,2.402455088569075,2.4119363993263945
1769239318924,132,4,3.927664176124352,3.0262057962771975,2.844576906220095
1769239318928,132,4,4.234974236286318,3.386302262564572,3.123907584497079
1769239318932,132,4,4.356621669885493,3.1250878731085976,3.217852129601414
1769239318936,132,4,4.3566016728842225,3.2624679929149214,3.190671265250451
1769239318940,132,4,4.340085349214826,3.210193278294029,3.147021724308102
1769239318944,132,4,4.373492196383018,3.1980322096110485,3.1526413008208363
1769239318948,132,4,4.442063617538087,3.29949078727572,3.1927355854629194
1769239318952,132,4,4.470312204087014,3.1476276737933837,3.192294523402152
1769239318956,132,4,4.386441042895845,3.320623277543167,3.0798124688121287
1769239318960,132,4,4.181921634856841,3.1031215401225216,2.8467887024719793
1769239318964,131,3,3.916805546364244,2.3622509601722412,2.5534355387578263
1769239318968,131,3,3.664906280169649,2.135156181681225,2.2736599347566697
1769239318972,131,3,3.453108304496898,2.3286971830255254,2.0339272118247487
1769239318976,131,3,3.2535584011785885,2.1502364978571373,1.8059365695563503
1769239318980,130,2,3.0221142103756877,1.287999923153603,1.5457849253711795
1769239318984,130,2,2.7286880940349043,1.1853085662992535,1.223794948169216
1769239318988,130,2,2.352458861817812,1.346360679206377,0.8188840173199112
1769239318992,129,1,1.8597237389172872,0.099955377767688,0.2968983405841137
1769239318996,128,0,1.189666212331312,-0.5789423558298947,-0.4027254009518414
1769239319000,128,0,0.2677017955080201,-0.9910850017919683,-1.3538918318554596
1769239319004,126,-2,-0.9432408428135672,-2.5138564858109578,-2.593319528256786
1769239319008,125,-3,-2.380449902289204,-3.9355166451343546,-4.058347771804426
1769239319012,123,-5,-3.867339587198788,-5.6133491858860705,-5.572654644133025
1769239319016,122,-6,-5.177803257005644,-6.849486061059418,-6.910613700974139
1769239319020,121,-7,-6.143692958586688,-7.706171580560351,-7.904602012503557
1769239319024,120,-8,-6.7361382204776605,-8.782797842193714,-8.526014974172154
1769239319028,120,-8,-7.069392213297008,-8.648600309987414,-8.889081871900741
1769239319032,120,-8,-7.324753354740292,-8.877112918215838,-9.174725929139756
1769239319036,119,-9,-7.6457091219081,-9.607391341678971,-9.525422778039507
1769239319040,119,-9,-8.074506415504056,-9.890706537418142,-9.98215195974953
1769239319044,118,-10,-8.558062910416801,-10.644820545410226,-10.491653335783411
1769239319048,118,-10,-8.990429099426533,-10.701127406202144,-10.949547017685209
1769239319052,118,-10,-9.252133236367758,-10.88007005259749,-11.238287759851024
1769239319056,117,-11,-9.248594552222832,-11.523089054282329,-11.263606579418056
1769239319060,118,-10,-8.962176009216645,-11.03051302062648,-11.006543041734528
1769239319064,118,-10,-8.489028829054295,-10.431251267983257,-10.562054930340045
1769239319068,119,-9,-8.00802155168789,-9.94646663812824,-10.108963866941362
1769239319072,119,-9,-7.682550760442851,-9.589896922264447,-9.811029875254269
1769239319076,119,-9,-7.5675577939916385,-9.802535210280157,-9.723084712178984
1769239319080,119,-9,-7.592618544405148,-9.780688195178636,-9.774384304148525
1769239319084,119,-9,-7.622637183949883,-9.609210221205991,-9.82997491332052
1769239319088,119,-9,-7.540926874563472,-9.821386323618082,-9.773808971010965
1769239319092,119,-9,-7.300264381611908,-9.623851706715836,-9.55936140431144
1769239319096,120,-8,-6.923715780367009,-8.80802793874724,-9.209994776918526
1769239319100,120,-8,-6.474327945120435,-8.744649674520984,-8.788276741858148
1769239319104,120,-8,-6.027860707524018,-8.639788471699442,-8.368896624689764
1769239319108,121,-7,-5.660676299720038,-7.781863954955684,-8.027487553990055
1769239319112,121,-7,-5.432867893433738,-7.627997755506483,-7.824363839008309
1769239319116,121,-7,-5.355531699656717,-7.809388504279744,-7.771317771214573
1769239319120,121,-7,-5.368597038496606,-7.725306058842667,-7.808717941241876
1769239319124,121,-7,-5.361571239445805,-7.654911923294148,-7.82610174604925
1769239319128,121,-7,-5.234448927985125,-7.755263730199172,-7.723337826090151
1769239319132,121,-7,-4.9603906121849946,-7.614272665222404,-7.473639218325241
1769239319136,122,-6,-4.604147683335004,-6.8367120910940296,-7.142058297955983
1769239319140,122,-6,-4.279760427634249,-6.658058604146353,-6.842619027481027
1769239319144,122,-6,-4.081513148637425,-6.754540925410416,-6.668744362953786
1769239319148,122,-6,-4.041426089075433,-6.597049822877774,-6.651448478246967
1769239319152,122,-6,-4.1299393462026615,-6.795827776242964,-6.76135845069686
1769239319156,122,-6,-4.276107907146667,-6.607482549901453,-6.928864728684491
1769239319160,122,-6,-4.391457572207371,-6.90033508666653,-7.066359771188063
1769239319164,121,-7,-4.405798312808766,-7.494409149581634,-7.103171537605181
1769239319168,122,-6,-4.307621872216561,-6.839382591554457,-7.027022629329925
1769239319172,122,-6,-4.150924222500356,-6.545350234810073,-6.891958402188434
1769239319176,122,-6,-4.011831083222065,-6.829130231046132,-6.774411859701956
1769239319180,122,-6,-3.9349043476157,-6.685417619952286,-6.718564218910989
1769239319184,122,-6,-3.9171368485015456,-6.6805829858993455,-6.720722434810834
1769239319188,122,-6,-3.929124562933468,-6.675605281037038,-6.751500046644975
1769239319192,122,-6,-3.940288967266385,-6.64821139970467,-6.78114289318313
1769239319196,122,-6,-3.930055025997072,-6.749946931360745,-6.78991222249792
1769239319200,122,-6,-3.891644823861604,-6.718041668596798,-6.771197941769983
1769239319204,122,-6,-3.8363519081277464,-6.669789208011896,-6.7357118434220435
1769239319208,122,-6,-3.792877731909145,-6.661686596363267,-6.71117292748513
1769239319212,122,-6,-3.791963875752312,-6.647369212173123,-6.727542907229443
1769239319216,122,-6,-3.837924778761648,-6.728280237691788,-6.7892206440189975
1769239319220,122,-6,-3.885547440536853,-6.739105069245866,-6.852070666474607
1769239319224,122,-6,-3.849111335482522,-6.628440901335616,-6.831577952927465
1769239319228,122,-6,-3.656995330464473,-6.71782780426016,-6.656314003378075
1769239319232,122,-6,-3.325729370144488,-6.53637687028648,-6.341964873623279
1769239319236,123,-5,-2.9879615875560717,-5.858806773274184,-6.020393764889919
1769239319240,123,-5,-2.824851906201458,-5.55929335494687,-5.872608137623843
1769239319244,123,-5,-2.9377916829589856,-5.842797856211275,-5.999873453516172
1769239319248,122,-6,-3.2650911871166803,-6.46214651816995,-6.3400713072816846
1769239319252,122,-6,-3.616182183191029,-6.797809106243919,-6.702725401162711
1769239319256,122,-6,-3.790468784652506,-6.574928945289832,-6.8883725513237115
1769239319260,122,-6,-3.687444589826848,-6.8093603630140525,-6.797689108931186
1769239319264,122,-6,-3.344515586556123,-6.624972167117795,-6.468088345153899
1769239319268,123,-5,-2.8991077507772873,-5.608833041015803,-6.035975640627922
1769239319272,123,-5,-2.5083117663651397,-5.709431567711492,-5.65746149158201
1769239319276,123,-5,-2.271459383675402,-5.583152930683862,-5.4315619874410785
1769239319280,124,-4,-2.1927844486803987,-4.836683438248952,-5.3625906257369484
1769239319284,123,-5,-2.1954934085994857,-5.559955160657593,-5.373757730870612
1769239319288,123,-5,-2.169548775937726,-5.6804959926594965,-5.355216537206857
1769239319292,124,-4,-2.017452464461786,-4.616633755869759,-5.210374995302271
1769239319296,124,-4,-1.6756515490235535,-4.657658307690081,-4.876670852684665
1769239319300,124,-4,-1.129645703215365,-4.754309458850482,-4.339486146748865
1769239319304,125,-3,-0.4449779757211027,-3.6187099846315616,-3.6633652782079538
1769239319308,126,-2,0.2156220882523176,-2.634710185558855,-3.0103516760615374
1769239319312,126,-2,0.6377552627343679,-2.635627726410836,-2.594720701610428
1769239319316,126,-2,0.6540260187255065,-2.6243716915218864,-2.5838756404539645
1769239319320,126,-2,0.2314951925863049,-2.7757376265518743,-3.0109135601757973
1769239319324,125,-3,-0.5079202595602279,-3.5950178404687367,-3.7541813433685145
1769239319328,124,-4,-1.3481290249737363,-4.648142693404961,-4.597524147631799
1769239319332,123,-5,-2.0878179983539527,-5.611775831914251,-5.3395054535245885
1769239319336,123,-5,-2.6258126802585773,-5.617199009437544,-5.8796132126758005
1769239319340,123,-5,-2.9654983602224227,-5.771315415427543,-6.222282234992956
1769239319344,122,-6,-3.159904578509395,-6.5972718387447475,-6.420412426819085
1769239319348,122,-6,-3.2715406441788133,-6.630245768624428,-6.5350119200753385
1769239319352,122,-6,-3.373481891153795,-6.630415953908109,-6.638081629524082
1769239319356,122,-6,-3.5438545220075177,-6.573906899412683,-6.808176689392007
1769239319360,122,-6,-3.818808788428615,-6.788873601280353,-7.0821511837069915
1769239319364,121,-7,-4.145603755824127,-7.595278915626915,-7.40690385774885
1769239319368,121,-7,-4.399392864139475,-7.594761686545701,-7.657093588799703
1769239319372,121,-7,-4.462789547369798,-7.700802264260177,-7.716561449059829
1769239319376,121,-7,-4.304813934569665,-7.436398137436056,-7.556857348583827
1769239319380,122,-6,-4.0065721502695295,-6.940920765155925,-7.259952018594426
1769239319384,121,-7,-3.729949099347726,-7.406625694942301,-6.984870902220764
1769239319388,122,-6,-3.6457207402319183,-6.804356706423639,-6.897483996176885
1769239319392,122,-6,-3.836401397997664,-6.481934683891714,-7.077521665001919
1769239319396,121,-7,-4.21744167366816,-7.619736239111467,-7.4429708433081485
1769239319400,121,-7,-4.553414433973128,-7.767755579971244,-7.766009767491258
1769239319404,121,-7,-4.6021267302004745,-7.51599541870599,-7.812434423792583
1769239319408,121,-7,-4.304428356652941,-7.767541051802227,-7.52408490043586
1769239319412,121,-7,-3.850393964621877,-7.442360604293207,-7.081158301443169
1769239319416,122,-6,-3.475006904738867,-6.674820469336176,-6.703510238401198
1769239319420,123,-5,-3.00339629449453,-5.686160370016342,-6.20831087556434
1769239319424,125,-3,-1.4397949658596358,-3.5608368573595217,-4.607155522762398
1769239319428,129,1,2.925997074840165,0.2203883846159642,-0.2079683390389233
1769239319432,136,8,11.620586503433891,7.652550556429929,8.500717160737851
1769239319436,149,21,24.6389375362313,20.20156677859592,21.51231847031561
1769239319440,164,36,39.58829182214095,35.528097177963424,36.44510551099449
1769239319444,179,51,52.21899248684568,50.190685158188074,49.06383881831296
1769239319448,186,58,58.34258971771304,57.48420195109553,55.19018932098051
1769239319452,182,54,56.00999236308066,53.31864183328195,52.87867245525247
1769239319456,171,43,46.47165835424181,42.509619873446226,43.37654198378024
1769239319460,158,30,33.28704070207091,29.2246361737602,30.2330501826988
1769239319464,145,17,20.30139448110545,16.514223343451388,17.279715962703676
1769239319468,136,8,9.911248263135104,7.286555116979915,6.903928239303551
1769239319472,129,1,2.600519985549296,0.5242079420009045,-0.4082562886318894
1769239319476,124,-4,-2.334945623857454,-4.647783867428387,-5.348892727669831
1769239319480,120,-8,-5.730417290296227,-8.684676558635577,-8.739818130597111
1769239319484,117,-11,-7.988749466903098,-11.548941927911308,-10.978116464515942
1769239319488,116,-12,-9.2032450905605,-12.640209614409384,-12.161787482234107
1769239319492,116,-12,-9.552441495605793,-12.490921304363784,-12.479878370290267
1769239319496,117,-11,-9.45515937558311,-11.642157291296472,-12.359394797144535
1769239319500,117,-11,-9.355628706694173,-11.704415723804583,-12.244838583245938
1769239319504,116,-12,-9.424873170419191,-12.5402978720762,-12.30061677535842
1769239319508,116,-12,-9.5135317603404,-12.626583539552923,-12.370381404328567
1769239319512,116,-12,-9.387879783435206,-12.46333963650678,-12.21918188408387
1769239319516,117,-11,-8.988837371066754,-11.664538533691182,-11.792753901296482
1769239319520,118,-10,-8.468117216461579,-10.678416126037048,-11.248266377330868
1769239319524,118,-10,-8.013806671651265,-10.572338708641086,-10.774341809740244
1769239319528,118,-10,-7.680594219482633,-10.582417890961937,-10.421098642665234
1769239319532,118,-10,-7.388494835267585,-10.464785774484604,-10.10415666828836
1769239319536,119,-9,-7.042443871278009,-9.679697059656505,-9.729132951251362
1769239319540,120,-8,-6.611578162858479,-8.631590377880404,-9.269799994320252
1769239319544,120,-8,-6.104079673507732,-8.638316528096679,-8.737226396031987
1769239319548,120,-8,-5.52194594875245,-8.483997055021938,-8.13141648699735
1769239319552,121,-7,-4.876641956990046,-7.546342480278775,-7.460071061384507
1769239319556,122,-6,-4.224140530270066,-6.599853659142096,-6.7783972549688665
1769239319560,123,-5,-3.637168513503808,-5.69662082600562,-6.161579770222627
1769239319564,123,-5,-3.1327402356873257,-5.562020451328251,-5.628539244274783
1769239319568,123,-5,-2.653688112569716,-5.5574425183480365,-5.121282206300734
1769239319572,124,-4,-2.137828124659423,-4.441245338659319,-4.575858111174069
1769239319576,125,-3,-1.5915280777740015,-3.722246784570841,-3.998414691833683
1769239319580,125,-3,-1.0793911944979369,-3.5418158133097704,-3.454794360265762
1769239319584,126,-2,-0.6464921470715386,-2.710459431352858,-2.9909227577430144
1769239319588,126,-2,-0.2649050844644868,-2.401160567663548,-2.5783150058235957
1769239319592,126,-2,0.1369191814488074,-2.5779791157669782,-2.1443094987267193
1769239319596,127,-1,0.5972303778465806,-1.6067991507559278,-1.650564790346433
1769239319600,128,0,1.0841149151642315,-0.5961492751705193,-1.130052083070466
1769239319604,128,0,1.536562331039621,-0.6969378506144659,-0.6443258342831177
1769239319608,128,0,1.92856564892715,-0.3391835379482206,-0.2185027650210833
1769239319612,129,1,2.2850301684167187,0.3041994858955221,0.1732226804186217
1769239319616,129,1,2.6474363981569784,0.5516270959967016,0.5716754899697953
1769239319620,130,2,3.0358528698391107,1.250999724986624,0.9955489094893312
1769239319624,130,2,3.433545769969654,1.4695756033819103,1.4280634133379668
1769239319628,130,2,3.789874087049697,1.5310957907819929,1.8200684778935967
1769239319632,131,3,4.041646472126626,2.3910077212298586,2.10942264565338
1769239319636,131,3,4.157795160665392,2.5183102339549044,2.264299599491487
1769239319640,131,3,4.180612535443713,2.249412040511906,2.3254801259598996
1769239319644,131,3,4.211393741327767,2.545094428794577,2.393911042111004
1769239319648,131,3,4.329383061528914,2.4273420785255055,2.549904585254781
1769239319652,131,3,4.511242887827579,2.504501394060011,2.7709832221990234
1769239319656,132,4,4.639188320786431,3.4222961691825557,2.9387893642785574
1769239319660,132,4,4.605482618562386,3.3428296068580443,2.944581509208671
1769239319664,131,3,4.412447064099185,2.5001721136100796,2.7910287524998956
1769239319668,131,3,4.1615936308759895,2.456930805549118,2.581034008324249
1769239319672,131,3,3.946322734036602,2.472214783785448,2.4083430588560706
1769239319676,131,3,3.765356177971841,2.471888560444716,2.2702825964471263
1769239319680,131,3,3.534683711124246,2.304974200138197,2.0813766852721702
1769239319684,130,2,3.160560394032927,1.5899504862702982,1.7479330799943602
1769239319688,130,2,2.5900705711086376,1.3256291385720775,1.218301843258776
1769239319692,129,1,1.8073704466557587,0.6364065548531086,0.4778635082123479
1769239319696,128,0,0.8082604726412198,-0.7261502213006041,-0.477188320919319
1769239319700,127,-1,-0.4014961903315446,-1.432117999898618,-1.641684245963686
1769239319704,126,-2,-1.7738760487679226,-2.657137048667158,-2.968795329236231
1769239319708,124,-4,-3.190023376512859,-4.4546569308166015,-4.340547947598864
1769239319712,123,-5,-4.486406017269688,-5.539715980480704,-5.5932428464500425
1769239319716,122,-6,-5.537807451046264,-6.615873345780177,-6.600661800890444
1769239319720,121,-7,-6.3319441686317255,-7.422129824429968,-7.349653994237239
1769239319724,121,-7,-6.962562698893186,-7.727482073230601,-7.934083299307052
1769239319728,120,-8,-7.536126487305088,-8.304446988216142,-8.461417104213238
1769239319732,120,-8,-8.069892423051472,-8.778601377182472,-8.949628561916994
1769239319736,119,-9,-8.476603248491315,-9.306052650547938,-9.310802035727948
1769239319740,119,-9,-8.654941418829225,-9.751151992960644,-9.44217909533396
1769239319744,119,-9,-8.596957243142455,-9.342129323925974,-9.335575418264042
1769239319748,120,-8,-8.397622578779988,-8.691987077522246,-9.08770468602136
1769239319752,120,-8,-8.154991221415887,-8.425846480821658,-8.798316792329588
1769239319756,120,-8,-7.878476172101218,-8.602218171802113,-8.476090657169616
1769239319760,120,-8,-7.516374684064107,-8.500444970194394,-8.06694656164997
1769239319764,121,-7,-7.064791316995032,-7.491091577847947,-7.566101756623466
1769239319768,122,-6,-6.615084354677502,-6.618307401243737,-7.0665462981399205
1769239319772,122,-6,-6.276514397046963,-6.433259627091487,-6.679217349107188
1769239319776,122,-6,-6.0687999847464225,-6.638046459210853,-6.4234050142696955
1769239319780,122,-6,-5.908517475389376,-6.419843082044946,-6.214303184193171
1769239319784,123,-5,-5.693454286943617,-5.562298389287062,-5.949489218738342
1769239319788,123,-5,-5.390254685346718,-5.546168351472099,-5.596411779501108
1769239319792,123,-5,-5.053487643838322,-5.4842898990285445,-5.210041729542333
1769239319796,124,-4,-4.7765888014503375,-4.596891435983917,-4.883695422749172
1769239319800,124,-4,-4.616023318062112,-4.436734085338583,-4.67380507469596
1769239319804,124,-4,-4.544376516393939,-4.536925411819715,-4.552681668599815
1769239319808,124,-4,-4.475396274164531,-4.561223075650515,-4.4332308276513785
1769239319812,124,-4,-4.341555160482519,-4.456254962357367,-4.247591184716136
1769239319816,125,-3,-4.143545876682443,-3.6417943898705194,-3.997632295020948
1769239319820,125,-3,-3.9212386314713585,-3.338987702017231,-3.7247612559426457
1769239319824,125,-3,-3.6942849530178927,-3.6620515452599594,-3.448537705277654
1769239319828,125,-3,-3.4549431894106433,-3.382760724625689,-3.1596521249395004
1769239319832,126,-2,-3.215185126875377,-2.673592898909078,-2.869049849550664
1769239319836,126,-2,-3.0319054291765144,-2.401076106221605,-2.633988211116701
1769239319840,126,-2,-2.9671998747574895,-2.550562587345084,-2.5172553039481596
1769239319844,126,-2,-3.027057154742039,-2.464101620389966,-2.5251105570301795
1769239319848,126,-2,-3.1442000754866557,-2.5239194580812985,-2.590595173738635
1769239319852,126,-2,-3.2213030872358894,-2.6095779087680366,-2.6168794527843113
1769239319856,126,-2,-3.2005939235019043,-2.3744429649122925,-2.545973523820082
1769239319860,126,-2,-3.1101628217140616,-2.6286274355540717,-2.4047597045853166
1769239319864,126,-2,-3.047448256182668,-2.307740320952966,-2.2898477061662086
1769239319868,127,-1,-3.0970915858596575,-1.7154393771803005,-2.2866611421318828
1769239319872,126,-2,-3.2427011683774585,-2.410939994579249,-2.380277018842426
1769239319876,126,-2,-3.3643458126141357,-2.5607457395894215,-2.451011130580874
1769239319880,126,-2,-3.34752498806884,-2.4286017508135846,-2.3832519508519634
1769239319884,126,-2,-3.2066847556178804,-2.48390047236016,-2.1907545911989903
1769239319888,127,-1,-3.0889282959184676,-1.5389804660746107,-2.021357117154296
1769239319892,127,-1,-3.137368127991425,-1.5798913525091611,-2.018979714661765
1769239319896,126,-2,-3.346270494945689,-2.3994075553645473,-2.177092182918387
1769239319900,126,-2,-3.555889380162786,-2.5528608061031215,-2.334424452691402
1769239319904,126,-2,-3.586647298558382,-2.372226623254704,-2.3116089071242056
1769239319908,127,-1,-3.3734788578286357,-1.6201402413276778,-2.045757756008073
1769239319912,127,-1,-2.9885024514757736,-1.5047028519612342,-1.6104920612005351
1769239319916,127,-1,-2.570719768709991,-1.4538161465598538,-1.1438561028801753
1769239319920,128,0,-2.245656029180121,-0.5007033871933386,-0.7692979809193216
1769239319924,128,0,-2.0800213500260236,-0.4014870188361006,-0.5525015946488542
1769239319928,128,0,-2.0709222744783755,-0.6096573716768259,-0.4909942904291917
1769239319932,128,0,-2.1612076195401135,-0.4661660041702306,-0.5286727291595764
1769239319936,128,0,-2.269836462201258,-0.5235635881770355,-0.5855312644906894
1769239319940,128,0,-2.321021526430111,-0.3891969305851612,-0.5863397663930345
1769239319944,128,0,-2.2653490180211646,-0.5240440321885427,-0.4814011222370133
1769239319948,128,0,-2.0932753806828512,-0.4695700848194982,-0.2603217374476423
1769239319952,129,1,-1.83098115364674,0.4068724550485683,0.0514937628403542
1769239319956,129,1,-1.5102344791622604,0.6066143768020624,0.4227565892075586
1769239319960,129,1,-1.1325597254115751,0.4933038003089773,0.8519808298460174
1769239319964,130,2,-0.661362198040194,1.5980730365445646,1.374874470779896
1769239319968,131,3,-0.0521777303941684,2.424426713928728,2.0343808206492033
1769239319972,131,3,0.6923249257634705,2.506552914381908,2.8271785076622207
1769239319976,132,4,1.4684005174510115,3.5450210702726963,3.650498180225796
1769239319980,133,5,2.065007603927286,4.530861947278959,4.2947439141436226
1769239319984,133,5,2.246241794352456,4.595474668043427,4.524535292928428
1769239319988,133,5,1.8925125185584757,4.4091453181485,4.2199180335688835
1769239319992,132,4,1.097483165623674,3.557957386030419,3.4741790829899264
1769239319996,131,3,0.1354602209919893,2.4682195423661533,2.561611532101865
1769239320000,130,2,-0.6842438822747023,1.6556781102945133,1.7914306535216002
1769239320004,130,2,-1.1690526125480734,1.4341848253071996,1.3555586874092755
1769239320008,130,2,-1.2986878930152923,1.638374600153038,1.2733965459521044
1769239320012,130,2,-1.173743775535085,1.295172026802665,1.44407873555564
1769239320016,130,2,-0.929717224909324,1.7692634275329768,1.7327754584004786
1769239320020,131,3,-0.6871982387870526,2.3410043044340005,2.0201336740106037
1769239320024,130,2,-0.5461587501190367,1.7513282079898156,2.207324334762301
1769239320028,131,3,-0.5827133170039356,2.352995971111489,2.2185513204245044
1769239320032,131,3,-0.8139628984886547,2.5740313359252633,2.035903418823287
1769239320036,130,2,-1.1538755353472578,1.5121601286192752,1.744000604789692
1769239320040,130,2,-1.4274385704806192,1.583239064946,1.516547640306111
1769239320044,130,2,-1.4710703085497436,1.5391946413992423,1.5162806944384832
1769239320048,130,2,-1.2534693512049262,1.5475427546528562,1.7747401665394915
1769239320052,131,3,-0.9112808664428256,2.4381735729748293,2.157522281626176
1769239320056,131,3,-0.6568528482295969,2.616669658008264,2.456097324137112
1769239320060,131,3,-0.6219618121321773,2.506038720019644,2.541026756875701
1769239320064,131,3,-0.7576209450310817,2.6033220887170216,2.4583176629639354
1769239320068,131,3,-0.8725551318432598,2.497587907359655,2.3909631121323636
1769239320072,131,3,-0.7944389762327698,2.510501140743649,2.5040061549673305
1769239320076,131,3,-0.5370832015317069,2.548425244331505,2.785495538292901
1769239320080,131,3,-0.3010620244043921,2.591579438980718,3.0473512612109896
1769239320084,132,4,-0.188839563639354,3.490476135620592,3.201556829968264
1769239320088,133,5,0.2687238641956246,4.66843276917166,3.721217049919676
1769239320092,135,7,2.392601930288593,6.2993674281657395,5.915690244224031
1769239320096,140,12,7.985096303722084,11.837824758761249,11.567815278010496
1769239320100,150,22,18.211572238849044,21.259610629297622,21.830367423495986
1769239320104,162,34,32.29714404029837,33.86244314275858,35.93155694950323
1769239320108,179,51,47.045096710476805,50.32482410952808,50.689065242131214
1769239320112,192,64,57.88110219360825,63.629946254603254,61.54315311124354
1769239320116,195,67,61.068611817688954,66.53426802040329,64.76543781452864
1769239320120,188,60,55.70683894872147,59.4432684293731,59.4562894356168
1769239320124,175,47,44.118288429199325,46.70220501855408,47.932245618114
1769239320128,162,34,30.395223377110927,33.40033154272025,34.27285675487226
1769239320132,150,22,18.20036544760435,21.72908808268069,22.126933933968356
1769239320136,142,14,9.289827306187494,13.442792705109268,13.244524376864096
1769239320140,137,9,3.4825128932373115,8.641214923151816,7.450814407863306
1769239320144,133,5,-0.3105016994023817,4.4085897192158345,3.671271328095338
1769239320148,129,1,-2.9895989646242436,0.6914011599745549,1.018523699492722
1769239320152,127,-1,-4.856411936997122,-1.5516381967957278,-0.8056493693027764
1769239320156,126,-2,-5.899222940131055,-2.226364830676448,-1.7974792525120449
1769239320160,127,-1,-6.228941184685374,-1.6615953286592633,-2.080957335169079
1769239320164,127,-1,-6.183373752054952,-1.3261302552291954,-2.0019419037748167
1769239320168,127,-1,-6.098190865886343,-1.5947407690240594,-1.8931346644253997
1769239320172,126,-2,-6.087596600638973,-2.2535702813084058,-1.8584624310198965
1769239320176,126,-2,-6.075780272565648,-2.4806487095693535,-1.8146978547416903
1769239320180,127,-1,-5.981422697686933,-1.391337123593251,-1.682481255856155
1769239320184,128,0,-5.810254824038814,-0.606674638406461,-1.4751370534190502
1769239320188,127,-1,-5.588602687743018,-1.3313695492509772,-1.2232316232985017
1769239320192,127,-1,-5.288157673113433,-1.5019733138401088,-0.8959026066497413
1769239320196,128,0,-4.8616408774469875,-0.2029134591586272,-0.4413731093692412
1769239320200,129,1,-4.325756316474003,0.3545808890703588,0.1246564225283219
1769239320204,129,1,-3.771152640893383,0.6176654410957658,0.709346213000182
1769239320208,130,2,-3.290693177628735,1.4883146614861666,1.2181503925606554
1769239320212,130,2,-2.913045156260252,1.6071619477832877,1.6230427990624046
1769239320216,130,2,-2.6044976213666877,1.805345902990448,1.9592423729987205
1769239320220,131,3,-2.319132819110058,2.2668836888566015,2.272755717619072
1769239320224,131,3,-2.0337347514300177,2.7886665908573876,2.5852485752526917
1769239320228,132,4,-1.7379994437856825,3.2518221972119727,2.9059953797834956
1769239320232,131,3,-1.4135675425445844,2.8817748041972955,3.2544883448045914
1769239320236,132,4,-1.040102248076609,3.5519710980796804,3.65301808978192
1769239320240,133,5,-0.6111417747687153,4.50595740853884,4.108234448308601
1769239320244,133,5,-0.1225516944317708,4.604081466250748,4.622440001564007
1769239320248,134,6,0.4509188210067014,5.361390067450965,5.219312855733823
1769239320252,134,6,1.1392277096236514,5.86688486698194,5.929202895548974
1769239320256,135,7,1.9176651913496277,6.487534026784968,6.728978874672601
1769239320260,136,8,2.673335162902187,7.676521094781284,7.506600816229044
1769239320264,137,9,3.259633378468689,8.361210296118596,8.114982098075814
1769239320268,137,9,3.608638776015413,8.656821606447604,8.485490853199336
1769239320272,137,9,3.795885087722295,8.546574618997855,8.693725620431438
1769239320276,137,9,3.987396324948308,8.825409395229057,8.906106396241478
1769239320280,138,10,4.311853452205911,9.363342985292345,9.251072819650052
1769239320284,138,10,4.76827401646443,9.662820965290456,9.726769513769224
1769239320288,139,11,5.238645687086041,10.387814736400005,10.214642604622329
1769239320292,139,11,5.579929699465929,10.78582830681536,10.572240524140176
1769239320296,139,11,5.711836093161482,10.631788693898056,10.720716594646063
1769239320300,139,11,5.638728380087995,10.521587287865588,10.66540557648026
1769239320304,139,11,5.415632552695321,10.564736496980917,10.460715508464746
1769239320308,139,11,5.111808687476337,10.434315899743847,10.174262526362146
1769239320312,138,10,4.798822600421234,9.803295254120952,9.876698195126185
1769239320316,138,10,4.543917644842155,9.572929151269292,9.635880132803516
1769239320320,138,10,4.390661504152597,9.627273448683852,9.496551334416498
1769239320324,138,10,4.341764678739085,9.444385105476496,9.461885825606997
1769239320328,138,10,4.365422570742386,9.56642752936577,9.499656945699842
1769239320332,138,10,4.419764560041905,9.692071336040389,9.567424497828588
1769239320336,138,10,4.468847955982707,9.66511260483504,9.629172529108937
1769239320340,138,10,4.472986887943821,9.57051855277421,9.645492477308544
1769239320344,138,10,4.367218270543578,9.485238228014335,9.55139265682138
1769239320348,138,10,4.060842954508322,9.53863358352665,9.255754318731736
1769239320352,137,9,3.470466742289393,8.746427898745317,8.675181606643708
1769239320356,136,8,2.5606061644037696,7.573385744060772,7.775016826398879
1769239320360,135,7,1.3611952703727344,6.730141710925004,6.585920226731744
1769239320364,134,6,-0.0386039215794271,5.259334891112451,5.196638866038765
1769239320368,132,4,-1.5069813275130093,3.837414313491028,3.7378397960689895
1769239320372,131,3,-2.898618048043982,2.4198309975617858,2.3542700215155987
1769239320376,129,1,-4.100743098884263,0.9156928487791391,1.1591575997348076
1769239320380,129,1,-5.073714494851823,0.4151018062765067,0.1929078333988174
1769239320384,128,0,-5.850553276487383,-0.4677767898743639,-0.5771998175304826
1769239320388,127,-1,-6.4905397604365795,-1.3593143511711403,-1.2106822069704464
1769239320392,127,-1,-7.024418089164629,-1.4452874738983998,-1.738653430199903
1769239320396,126,-2,-7.436152293882919,-2.1431723700273886,-2.145103102339879
1769239320400,126,-2,-7.694245569788196,-2.5908571943589593,-2.3981345543191654
1769239320404,126,-2,-7.801356737760064,-2.402111678497783,-2.5002057839013347
1769239320408,126,-2,-7.810117498934256,-2.4436817863354636,-2.504543659028181
1769239320412,126,-2,-7.783850396239675,-2.3463532977344,-2.475303214818827
1769239320416,126,-2,-7.741678854073003,-2.216030711884941,-2.431358766182089
1769239320420,126,-2,-7.649244072281463,-2.5547224861687203,-2.3368324347723703
1769239320424,126,-2,-7.464806239955071,-2.3983128490783665,-2.1489300024022637
1769239320428,127,-1,-7.183200349091217,-1.456920316941211,-1.8635315914459103
1769239320432,127,-1,-6.8263607891350295,-1.317386014156324,-1.504791980050111
1769239320436,127,-1,-6.406630893648629,-1.2196983508807198,-1.08583921642292
1769239320440,128,0,-5.9285921915803375,-0.5855522954572858,-0.609629092503963
1769239320444,128,0,-5.434763494298104,-0.3265923843740521,-0.1164970578283313
1769239320448,129,1,-5.024392960121728,0.4354496090792985,0.2946940329777554
1769239320452,129,1,-4.793047142906869,0.85953734318523,0.5267625927443693
1769239320456,129,1,-4.738619791536867,0.563297206572273,0.5801625564091045
1769239320460,129,1,-4.738230113905398,0.6620296364627448,0.5778825528976127
1769239320464,129,1,-4.640950538790274,0.4075705716877872,0.67232718330962
1769239320468,129,1,-4.397401864536186,0.7006192761036434,0.9136763125082336
1769239320472,130,2,-4.094896579347748,1.6580333845403703,1.2136774324323023
1769239320476,130,2,-3.857250633337383,1.7187248755197315,1.4473144672673526
1769239320480,130,2,-3.7146279497071033,1.5653841321516369,1.585010465255341
1769239320484,130,2,-3.583033819183459,1.4351800481083994,1.7125507486152691
1769239320488,130,2,-3.3672026237834234,1.7252384202973676,1.9254411420198256
1769239320492,131,3,-3.064653229645062,2.62872803816889,2.2240031743890474
1769239320496,131,3,-2.765808186490194,2.7826572025134597,2.516053306645021
1769239320500,131,3,-2.576855276715962,2.4981014579987395,2.6967275650269036
1769239320504,131,3,-2.5595861279704923,2.475476757318878,2.7071324686040072
1769239320508,131,3,-2.720366594910702,2.706493872711607,2.5415579294835076
1769239320512,131,3,-3.011555681982348,2.6427256472887164,2.245280991010282
1769239320516,130,2,-3.3341779775151035,1.829478792924086,1.9150955515219037
1769239320520,130,2,-3.576489215168465,1.4173366677357115,1.6633425770128212
1769239320524,130,2,-3.685589414349316,1.560735614768244,1.5450835545037294
1769239320528,130,2,-3.699837306494386,1.6113892718908989,1.5228761638852386
1769239320532,130,2,-3.6906071296808984,1.7596445087739934,1.5243326081444435
1769239320536,130,2,-3.6668750227533775,1.7691431480520257,1.539266981964078
1769239320540,130,2,-3.553039621091751,1.4289784769757952,1.6432948521450554
1769239320544,130,2,-3.2776685093504128,1.574698400995454,1.9084414236707352
1769239320548,131,3,-2.883544069288634,2.544622489269966,2.29183565203566
1769239320552,131,3,-2.5366471388019187,2.9113269447682835,2.62705970807603
1769239320556,131,3,-2.4155576892382964,2.604752352443769,2.7360153053364944
1769239320560,131,3,-2.5804006589070574,2.6230793757449984,2.559814054862228
1769239320564,131,3,-2.9272586944902352,2.318275985673574,2.202804174560858
1769239320568,130,2,-3.2519953382597655,1.8159280903934931,1.868067608724024
1769239320572,130,2,-3.3719244116089,1.676499559351748,1.7367639233568997
1769239320576,130,2,-3.2270572851452046,1.8685212605470416,1.868229177480026
1769239320580,131,3,-2.901604046408459,2.3690462302201283,2.1789241366571117
1769239320584,131,3,-2.560205317415394,2.5196196150195527,2.505578071226434
1769239320588,131,3,-2.347680420864014,2.6316835669909513,2.704196491092629
1769239320592,131,3,-2.3139323626368307,2.878141462579593,2.72442510063379
1769239320596,131,3,-2.3986464655650623,2.7135744739668737,2.625664659069667
1769239320600,131,3,-2.475873687565495,2.508783582022008,2.533949453596591
1769239320604,131,3,-2.427627973543224,2.352562843211237,2.568237516932772
1769239320608,131,3,-2.192351426201947,2.7997970340484013,2.7901596066249845
1769239320612,132,4,-1.7525709896712085,3.7377289877554825,3.2156845866206556
1769239320616,132,4,-1.0969993509603526,3.908065220786741,3.85485500043141
1769239320620,133,5,-0.2355514979900508,4.284082057123242,4.698494034188476
1769239320624,134,6,0.7220206531775037,5.5659130960478675,5.638518052006195
1769239320628,135,7,1.5247168818912218,6.563765331105559,6.424336910745111
1769239320632,135,7,1.8727844858993965,7.015342863520165,6.75530969950725
1769239320636,135,7,1.600575273941513,6.687434333755108,6.465524219728798
1769239320640,134,6,0.7948586531691602,5.4548504108124405,5.6428900274173355
1769239320644,133,5,-0.2549213578020892,4.40092043764483,4.577732095895712
1769239320648,132,4,-1.2246124795356366,3.673182788184736,3.5930278287829385
1769239320652,131,3,-1.9036290519953196,3.0021967708605497,2.8969056626466827
1769239320656,131,3,-2.237970836429791,2.710801149330255,2.5423549340198757
1769239320660,131,3,-2.290834291258967,2.4501664570816577,2.4679738993573244
1769239320664,131,3,-2.186023305286347,2.338963603235653,2.5526618965754793
1769239320668,131,3,-2.059285307575163,2.735673264386213,2.661256704849386
1769239320672,131,3,-2.0054254383527623,2.9858661880665793,2.6970568187038304
1769239320676,131,3,-2.0334595344296997,2.767748053600294,2.6495291991500016
1769239320680,131,3,-2.076867821099188,2.3943766806409754,2.586284178240777
1769239320684,131,3,-2.0689795656608654,2.330111610483334,2.575958435309799
1769239320688,131,3,-2.011994318827619,2.745847304125066,2.6155985788583096
1769239320692,131,3,-1.96105888964151,3.0217221674378516,2.646346182836569
1769239320696,131,3,-1.9459843567267752,2.7847681987134107,2.636156311122334
1769239320700,131,3,-1.936621587624912,2.368458350627224,2.6185397046709222
1769239320704,131,3,-1.9006564751947488,2.29445811750041,2.6329724281871725
1769239320708,131,3,-1.8692795046868045,2.769182023985246,2.6521478582573987
1769239320712,131,3,-1.9020422578436755,3.0640018617032623,2.611459044206978
1769239320716,131,3,-1.981480318240466,2.7801409542175244,2.516397167556663
1769239320720,131,3,-1.9966017770641689,2.3918703883808687,2.4687268926386463
1769239320724,131,3,-1.896400043064576,2.1630404377385917,2.5231538345725952
1769239320728,130,2,-1.8507279193001935,1.9335453784577528,2.527296133823567
1769239320732,130,2,-2.1157297239304476,1.9153572666817176,2.243595320790204
1769239320736,131,3,-2.502978141156807,3.0259605852738325,1.8627494560597484
1769239320740,133,5,-1.8330598364224553,4.120562770080494,2.5450375121471964
1769239320744,135,7,1.9136899075472211,6.367078107292762,6.284831272533895
1769239320748,142,14,10.357558735222472,13.72606111662209,14.693138506437933
1769239320752,152,24,22.98034215498782,24.191440456230023,27.264368205173653
1769239320756,167,39,36.33430352897616,38.806451426939795,40.56931473687347
1769239320760,183,55,45.338675998083176,54.379895295571394,49.53522646420154
1769239320764,183,55,46.168019479601654,53.98520745993757,50.33710839907573
1769239320768,168,40,38.630289016008106,40.03449732510819,42.7866334390158
1769239320772,156,28,26.13121509007195,27.876566660652053,30.292197739697805
1769239320776,145,17,13.360756619644372,17.12704573901574,17.531924790832104
1769239320780,137,9,3.661268064341005,8.185662267845045,7.825008164423723
1769239320784,132,4,-2.091791270893988,3.2433636448745173,2.0338812131815276
1769239320788,128,0,-4.84543872546574,-0.2176063928516025,-0.7775083471821378
1769239320792,126,-2,-6.0130424914577985,-1.956071574986625,-1.9972790041673216
1769239320796,125,-3,-6.5479622139339195,-3.02713184086338,-2.560828085996889
1769239320800,125,-3,-6.825679142878554,-3.670905220489285,-2.845604703567587
1769239320804,126,-2,-6.967639865906925,-2.78963781052251,-2.990112798070778
1769239320808,126,-2,-7.075439012973747,-2.226267908263522,-3.11250837440641
1769239320812,125,-3,-7.2020850096559235,-2.99806871889244,-3.26915063316635
1769239320816,124,-4,-7.270288369106979,-3.995645878463189,-3.373077936862617
1769239320820,125,-3,-7.149324773008461,-3.687867435622629,-3.2822416478918863
1769239320824,126,-2,-6.82117990368382,-2.6879487912931705,-2.976121973725995
1769239320828,126,-2,-6.4202834143091385,-2.3329992253249507,-2.595174498482907
1769239320832,126,-2,-6.094241060158068,-1.944646846666299,-2.2930153401795668
1769239320836,126,-2,-5.8589850231243314,-2.0515408206222903,-2.085259835013728
1769239320840,126,-2,-5.617873696978375,-2.6463501725163083,-1.8707629040225533
1769239320844,127,-1,-5.303019341206838,-1.629673468769616,-1.5794885336735045
1769239320848,128,0,-4.952454481781521,-0.4140052428832623,-1.251991674185875
1769239320852,127,-1,-4.637106343628609,-0.8777561938091416,-0.9621521594385032
1769239320856,127,-1,-4.352565709527093,-1.1556269940643025,-0.7047800527036729
1769239320860,128,0,-4.01859249916836,-0.5208107971036161,-0.3967062955411257
1769239320864,129,1,-3.569305857675349,0.2871814448193949,0.0288469058210693
1769239320868,129,1,-3.011819532143643,0.6993921141132183,0.5628460111289801
1769239320872,129,1,-2.400374000778988,0.9692648473467284,1.1490126941516496
1769239320876,130,2,-1.781302648232772,1.977531160736261,1.741017200362599
1769239320880,131,3,-1.1755360527693433,2.354051212690782,2.319670738547646
1769239320884,131,3,-0.6032199728981075,2.4470620532350984,2.866481937209638
1769239320888,132,4,-0.1027565439777491,3.590040594216729,3.3429895272804075
1769239320892,132,4,0.2966551008155755,4.010464439421948,3.71837698857085
1769239320896,132,4,0.6264511627928671,3.9586747959603,4.02280853862637
1769239320900,133,5,0.9831847941724108,4.322173838335561,4.353261169351553
1769239320904,133,5,1.4575895341367926,4.592872666775252,4.801705299910632
1769239320908,134,6,2.0527114370381847,5.388353239835911,5.3715226091306665
1769239320912,134,6,2.679114239905972,6.271984038948258,5.972559473203821
1769239320916,135,7,3.233639169131144,6.594425994676563,6.50125515172502
1769239320920,135,7,3.6792095111866177,6.752300427447191,6.921104013674844
1769239320924,136,8,4.050823389508752,7.171849911313214,7.267642812659291
1769239320928,136,8,4.397582956733861,7.822828049463459,7.589550777020608
1769239320932,136,8,4.725947202432294,7.860008964307302,7.892515915653498
1769239320936,136,8,4.989485688712231,7.912653576591257,8.130024976302106
1769239320940,137,9,5.124733938393082,8.531055000101087,8.239200623678784
1769239320944,137,9,5.104018130401157,8.335300031195963,8.192965786869376
1769239320948,136,8,4.9648374935761,7.7605520762511775,8.02896081383739
1769239320952,136,8,4.791079360068786,7.8459109859394385,7.830571601351406
1769239320956,136,8,4.662977599698101,7.92923635873495,7.6772714941045
1769239320960,136,8,4.615105482157768,7.530077784685371,7.603545427519613
1769239320964,136,8,4.624702897276868,7.337768537873685,7.587400297486259
1769239320968,136,8,4.632130459845968,7.83900291352618,7.569744948085351
1769239320972,136,8,4.583292818878002,7.669786925201497,7.496104164175739
1769239320976,135,7,4.462798578410204,7.160372990501331,7.350479720272075
1769239320980,136,8,4.281771001683287,7.236519867663389,7.144022360209347
1769239320984,135,7,4.02738352298532,6.724558560010968,6.864349971275091
1769239320988,135,7,3.63003542507449,6.428455579111548,6.441990119498172
1769239320992,134,6,2.99307394279694,6.088112843786539,5.77997046605974
1769239320996,133,5,2.0658574951619086,4.711480260604107,4.827444714394809
1769239321000,132,4,0.8935545942948995,3.676490986234522,3.629925646132447
1769239321004,131,3,-0.4029593641615467,2.359250110248589,2.3088792444227875
1769239321008,129,1,-1.6980558999463016,0.7467670219428661,0.9899848018959084
1769239321012,128,0,-2.918896600358929,-0.1625331141980481,-0.2547980612829899
1769239321016,127,-1,-4.0435930397339215,-1.1469384090519883,-1.404611688021863
1769239321020,126,-2,-5.058394288516624,-2.3710784946211083,-2.4454972706708413
1769239321024,125,-3,-5.933649301868501,-3.6359745365051137,-3.3462731402596297
1769239321028,124,-4,-6.643543179783289,-4.183073315942764,-4.080082251149484
1769239321032,124,-4,-7.189258948311043,-4.2911014637191185,-4.648916701898044
1769239321036,123,-5,-7.585134484101118,-5.0137301590027255,-5.068683381915524
1769239321040,123,-5,-7.830215839048525,-5.497087162557255,-5.338803128039066
1769239321044,123,-5,-7.91169882837012,-5.493597901860071,-5.445490940191701
1769239321048,123,-5,-7.837073919077124,-5.2905606673669565,-5.395297813149507
1769239321052,123,-5,-7.649023207026803,-5.227226440324756,-5.230901528910591
1769239321056,123,-5,-7.39962275231197,-5.066557821017655,-5.004995249612771
1769239321060,124,-4,-7.109779817980004,-4.450218493913153,-4.738959144987632
1769239321064,124,-4,-6.758173218837687,-4.511920587515917,-4.411369069849731
1769239321068,124,-4,-6.317000722253284,-4.251335110086582,-3.994048718315444
1769239321072,125,-3,-5.802976385120758,-3.302260191389461,-3.503739201714953
1769239321076,125,-3,-5.290370165326402,-2.976774012726614,-3.015115699491365
1769239321080,126,-2,-4.8703302759816784,-2.5601509386509793,-2.6192863387265075
1769239321084,126,-2,-4.596752077358577,-2.3459312729652244,-2.3694078655488564
1769239321088,126,-2,-4.465713270555719,-2.432444179323093,-2.261112404150297
1769239321092,126,-2,-4.433182490610607,-2.1313397759935824,-2.2510812120577515
1769239321096,126,-2,-4.444144675032289,-2.147024082733156,-2.285410008305878
1769239321100,126,-2,-4.455287279126218,-2.4046635406374137,-2.3207270615228883
1769239321104,126,-2,-4.450284145122662,-2.4368265874837687,-2.3393816586966754
1769239321108,126,-2,-4.439731021643265,-2.371002324628037,-2.35114287141553
1769239321112,126,-2,-4.432498736323527,-2.1875120565412685,-2.3657557202758146
1769239321116,126,-2,-4.396787153573484,-2.1055949065937214,-2.35280357935049
1769239321120,126,-2,-4.263395891611593,-2.442359867332705,-2.2430381094255027
1769239321124,126,-2,-3.991846590008906,-2.354621581981056,-1.994679205055452
1769239321128,127,-1,-3.636696794949583,-1.471896281401602,-1.6617252716500528
1769239321132,127,-1,-3.327751487867379,-1.0832427956991444,-1.3748964984643526
1769239321136,127,-1,-3.16804090972782,-1.226855692337521,-1.2380478344900063
1769239321140,127,-1,-3.1527489972961975,-1.3070592596125912,-1.2457531369142163
1769239321144,127,-1,-3.191223477344739,-1.463417902167797,-1.3061898577618432
1769239321148,127,-1,-3.1997442014839432,-1.3812731963106704,-1.3356377773782044
1769239321152,127,-1,-3.164779160523836,-1.1573207355998996,-1.3218751747663773
1769239321156,127,-1,-3.1238568413199386,-1.1816183413699206,-1.3034153936583863
1769239321160,127,-1,-3.10497409061838,-1.3156685153087664,-1.307626619999455
1769239321164,127,-1,-3.0978909412038984,-1.4554200228005394,-1.3227690057495456
1769239321168,127,-1,-3.0778402585436417,-1.3873671506905152,-1.3235880519369818
1769239321172,127,-1,-3.03899887533362,-1.1570836976197658,-1.3053878494016748
1769239321176,127,-1,-2.996563667010864,-1.1842622836803227,-1.2845785493877713
1769239321180,127,-1,-2.9670123497542074,-1.301363799338596,-1.277280844957636
1769239321184,127,-1,-2.9601885095244542,-1.4417653396525207,-1.2919500255093153
1769239321188,127,-1,-2.985744429064586,-1.4397660989005112,-1.3378829521091695
1769239321192,127,-1,-3.0470704477717945,-1.0622923481799065,-1.4197095168660965
1769239321196,127,-1,-3.1216757076342385,-1.3384803690961946,-1.5158558694750852
1769239321200,126,-2,-3.1663034298161588,-2.0619575531695458,-1.5821914229572054
1769239321204,127,-1,-3.158674153669975,-1.7415907363441183,-1.5951486795410277
1769239321208,127,-1,-3.1229426807440124,-1.0862217146347966,-1.5791667254872188
1769239321212,127,-1,-3.095310652109559,-1.4652115008934332,-1.5717124117814552
1769239321216,126,-2,-3.0722959049926226,-1.905848694630641,-1.5696073468391134
1769239321220,127,-1,-3.0137938834443783,-1.4784972902913358,-1.5319402310453076
1769239321224,127,-1,-2.8983673070619034,-1.3506401932608345,-1.4367600559685858
1769239321228,127,-1,-2.7616274479502745,-1.4377873684590796,-1.3200552821427365
1769239321232,127,-1,-2.6725114499385607,-1.1629806271229255,-1.2513576828011708
1769239321236,127,-1,-2.668610807009335,-1.15316083638368,-1.2682504422229997
1769239321240,127,-1,-2.7082904366982614,-1.264730908826136,-1.3282828897243175
1769239321244,127,-1,-2.6823584736335953,-1.5305771108073778,-1.3213636429568436
1769239321248,127,-1,-2.475168843255223,-1.282606931678002,-1.132085152634958
1769239321252,128,0,-2.0219414370981603,-0.3091436745953085,-0.6971811457004429
1769239321256,128,0,-1.3269738956848058,0.0118610349260749,-0.0221105616344979
1769239321260,129,1,-0.4611233482010595,0.5551221599644665,0.8228328039764441
1769239321264,130,2,0.4358142379084115,1.6871054771071716,1.6992488569661917
1769239321268,131,3,1.1681582037482423,2.446195583614458,2.411895236745339
1769239321272,131,3,1.5451351005850738,3.0030072997607373,2.769448588008647
1769239321276,131,3,1.4663119543080454,2.687145677208373,2.6713681204081796
1769239321280,130,2,0.9663354792855076,1.8864369083240051,2.1529551489454253
1769239321284,130,2,0.1898161827494731,1.3769612622617329,1.3589358142510315
1769239321288,129,1,-0.6694435847006248,0.6987156378494719,0.4821221534437858
1769239321292,128,0,-1.4242710367797464,-0.1733924294094115,-0.2911024839463485
1769239321296,127,-1,-1.9416364150788172,-1.1963009088096517,-0.8272919693676684
1769239321300,127,-1,-2.1827715822996203,-1.148684067043691,-1.087059625942626
1769239321304,128,0,-2.2090700751067707,-0.6585611089515331,-1.1321271865704747
1769239321308,127,-1,-2.1394232713497705,-1.224734246063836,-1.0819177447231585
1769239321312,127,-1,-2.0933829922445,-1.2694105751038176,-1.0555246806856189
1769239321316,127,-1,-2.1577472515615996,-1.0785740945594768,-1.1386972225492509
1769239321320,127,-1,-2.369137262857594,-1.263493408578448,-1.367486005536712
1769239321324,127,-1,-2.6945066436282374,-1.562379796010836,-1.7089037473869673
1769239321328,126,-2,-3.027433523810944,-2.3009011504784196,-2.057084156168365
1769239321332,126,-2,-3.2277666464797563,-2.2147087064062605,-2.2733144875861475
1769239321336,126,-2,-3.1939353072822603,-2.0926834690315665,-2.258046341162295
1769239321340,126,-2,-2.925051520371081,-2.2698650150070723,-2.011044359802916
1769239321344,127,-1,-2.5342943355429086,-1.5473836496529083,-1.642876925303345
1769239321348,127,-1,-2.1977870595964637,-1.308654385806962,-1.3246676863263631
1769239321352,127,-1,-2.054425253063953,-1.2380685159814588,-1.1920378625586645
1769239321356,127,-1,-2.1115657968081556,-1.0077161886839274,-1.2552421409908308
1769239321360,127,-1,-2.232275197551826,-1.4128624874605595,-1.3865144251098158
1769239321364,127,-1,-2.2442269331338496,-1.3547947078186595,-1.4223924317863883
1769239321368,127,-1,-2.1115203327036167,-1.5365166257907217,-1.3263832818213432
1769239321372,126,-2,-1.998885790560326,-1.9955814145696629,-1.2503335558386546
1769239321376,127,-1,-2.04434014753122,-1.225656607852615,-1.3156647605498006
1769239321380,128,0,-1.8510272739561957,-0.2239826270171925,-1.1192769006550725
1769239321384,130,2,-0.0621847488150182,1.5034592310223065,0.6847863189854293
1769239321388,135,7,5.412410886376391,6.545407384993665,6.166530253291077
1769239321392,144,16,16.248802651218178,16.01121615694418,16.98770092312206
1769239321396,159,31,32.13946545765759,30.699076471882982,32.841456562864224
1769239321400,178,50,49.95342812902624,49.967221030559465,50.60870547772046
1769239321404,196,68,64.5838206913219,67.22691453126099,65.19628700569854
1769239321408,202,74,71.28947480603077,73.8630250606381,71.87352183799084
1769239321412,197,69,68.09279208566132,68.58657625543725,68.66875596761048
1769239321416,184,56,56.62669562487648,56.07322494025502,57.21299883140918
1769239321420,169,41,40.96604476218201,40.58882626596366,41.56859476486798
1769239321424,154,26,25.41317903432807,25.627703673063152,26.020242869856535
1769239321428,142,14,12.730126476709474,13.61577335772185,13.319322246835846
1769239321432,133,5,3.686732126658006,4.812323632245981,4.239542280899972
1769239321436,127,-1,-2.258569344585549,-1.1262932684983578,-1.746132580376138
1769239321440,123,-5,-5.9724619965002255,-5.2932067583626345,-5.489774752798379
1769239321444,120,-8,-8.088200089554373,-8.460169589418102,-7.618679735741056
1769239321448,119,-9,-9.026109146017838,-9.249239894273192,-8.558242249766389
1769239321452,120,-8,-9.222552717667666,-8.321092562186768,-8.756500232850732
1769239321456,120,-8,-9.156548668973327,-8.01140865673846,-8.70184900854143
1769239321460,120,-8,-9.143169286482452,-8.466728829576747,-8.709242171219294
1769239321464,119,-9,-9.187381998479015,-9.265116066312787,-8.775321276316209
1769239321468,119,-9,-9.104232554066089,-9.411898408300608,-8.707682908934363
1769239321472,120,-8,-8.77452596513465,-8.154412026262573,-8.387911590668498
1769239321476,121,-7,-8.260277027571021,-7.162097024004798,-7.884698188710697
1769239321480,121,-7,-7.703853942188834,-7.393990822362987,-7.344487601487013
1769239321484,121,-7,-7.1865708822345,-7.262706315031292,-6.845940856452499
1769239321488,122,-6,-6.713544027659878,-6.467772651450419,-6.389085914750312
1769239321492,122,-6,-6.289448867311545,-6.0125749863644,-5.977257171710677
1769239321496,123,-5,-5.947776472616043,-5.383868820827497,-5.646976384424585
1769239321500,123,-5,-5.69598184408171,-5.12466027191449,-5.408711397989995
1769239321504,123,-5,-5.4690751406890055,-5.58118278222571,-5.197174911613417
1769239321508,123,-5,-5.171494455640153,-5.099997875113073,-4.9145036054209665
1769239321512,124,-4,-4.765621120156619,-4.377127145821751,-4.522078738206494
1769239321516,124,-4,-4.3023293621132215,-4.047520089508331,-4.071941814226006
1769239321520,125,-3,-3.860826144000474,-3.418198684875214,-3.6445329613715014
1769239321524,125,-3,-3.470555123337012,-3.362239543541768,-3.268815447234618
1769239321528,125,-3,-3.097005294035871,-3.218679981206658,-2.9089120223773866
1769239321532,126,-2,-2.6898550006895254,-2.3521110565407772,-2.514223691721437
1769239321536,126,-2,-2.227929934526161,-1.9656900552305885,-2.064711391046238
1769239321540,127,-1,-1.7200620353236418,-1.6193857369836169,-1.570188521810512
1769239321544,127,-1,-1.182839776524812,-1.0484634350730473,-1.0469383888927593
1769239321548,128,0,-0.6312049158476112,-0.6219913178056553,-0.5089527291538127
1769239321552,128,0,-0.0845957943260544,0.1215908834798575,0.0247099234181188
1769239321556,129,1,0.4312529687181869,0.5394125413419318,0.5278851450540497
1769239321560,129,1,0.8953882407431597,0.8416830140759402,0.9790714248212172
1769239321564,130,2,1.305562814022855,1.5649297724699605,1.376031694677881
1769239321568,130,2,1.6816137538920433,1.6648604582919249,1.73922722093166
1769239321572,130,2,2.0543526167745307,1.9557579866595411,2.100036354028965
1769239321576,131,3,2.4492857761640456,2.5994489147623288,2.4835945682868292
1769239321580,131,3,2.8789766886116177,2.8594542859756618,2.9012107100607105
1769239321584,132,4,3.3432453420797956,3.497659591793909,3.3519561016663655
1769239321588,132,4,3.8206135036663538,3.7553157677729985,3.8153157722329833
1769239321592,132,4,4.24955185906346,3.8821656708526575,4.231593475378983
1769239321596,133,5,4.532974698131156,4.6341216367574845,4.504177016470975
1769239321600,133,5,4.594680935056039,4.874129349189776,4.555275426571544
1769239321604,133,5,4.450847677811549,4.427165314893783,4.399375506258657
1769239321608,132,4,4.213085308020776,3.879629023841914,4.1483407632385685
1769239321612,132,4,3.9983789679666906,3.731260681953408,3.920818289762826
1769239321616,132,4,3.832740134796377,3.781577330236119,3.743790207356527
1769239321620,132,4,3.654972705864645,3.75769553927084,3.555518081189959
1769239321624,132,4,3.4169208432799523,3.502157803838059,3.3068481903979894
1769239321628,131,3,3.1645345708214463,2.8621803455513577,3.043329702115193
1769239321632,131,3,3.0017890870581985,2.6958435467928332,2.868952793161654
1769239321636,131,3,2.9653401631441625,2.839714006471988,2.820313897076944
1769239321640,131,3,2.93291745297905,2.7065046026231165,2.775286461908114
1769239321644,131,3,2.6608236678717905,2.5306368693031063,2.4909193538598204
1769239321648,130,2,1.934783799813265,1.898849484527056,1.7537659310667588
1769239321652,129,1,0.7249845443808773,0.5637002267598974,0.5340274970858372
1769239321656,127,-1,-0.7731273911614323,-0.9453156769210392,-0.9736301154829956
1769239321660,126,-2,-2.2518000532616806,-2.5884232350529004,-2.462180629837351
1769239321664,124,-4,-3.4803104589423492,-4.091834981712497,-3.701165999279862
1769239321668,124,-4,-4.425606757391323,-4.5181436713151655,-4.657663776744905
1769239321672,123,-5,-5.211221566781569,-4.998747593158004,-5.455173812056254
1769239321676,122,-6,-5.96441904047458,-6.395904164847853,-6.220254032086921
1769239321680,121,-7,-6.697988150255341,-7.149009591898263,-6.964633698483791
1769239321684,121,-7,-7.320915058837158,-7.495814507993091,-7.597067161245086
1769239321688,120,-8,-7.739539469724875,-8.155631204595071,-8.024787624276687
1769239321692,120,-8,-7.942901398179366,-8.304803724336839,-8.237796047154783
1769239321696,120,-8,-8.004729725386175,-8.155178719697227,-8.309972369008083
1769239321700,120,-8,-8.015060016057372,-8.324627475605185,-8.330937050416635
1769239321704,120,-8,-8.008317696735787,-8.383088027841568,-8.334767632168276
1769239321708,120,-8,-7.950492517269001,-8.20114691092956,-8.287281174970815
1769239321712,120,-8,-7.793330528218019,-8.320292800757201,-8.139971480368635
1769239321716,120,-8,-7.5421934753917315,-8.094900127601758,-7.898021666400377
1769239321720,121,-7,-7.268285700888593,-7.411336432598654,-7.633018094335415
1769239321724,121,-7,-7.047152857452859,-7.285591881790863,-7.421268900536558
1769239321728,121,-7,-6.8847714282408905,-7.282535474259789,-7.26896287694743
1769239321732,121,-7,-6.714459150941569,-7.270940997335288,-7.1087420481890184
1769239321736,121,-7,-6.474318327521943,-7.113543262191906,-6.878020302466217
1769239321740,122,-6,-6.18348946790769,-6.428205091847886,-6.596082612270276
1769239321744,122,-6,-5.934404761060904,-6.226123699569524,-6.355998843235934
1769239321748,122,-6,-5.808321518022889,-6.360491377037959,-6.239306301975752
1769239321752,122,-6,-5.797726676120668,-6.192523799724563,-6.238219425669598
1769239321756,122,-6,-5.806195159078889,-6.188723893250401,-6.255826050897351
1769239321760,122,-6,-5.723119424840651,-6.385815893140659,-6.181154080640858
1769239321764,122,-6,-5.5076966817501365,-6.204112632971765,-5.973613581928532
1769239321768,123,-5,-5.208032366608892,-5.436764695287659,-5.68228293621128
1769239321772,123,-5,-4.9002814138246364,-5.061132547174985,-5.384061222292979
1769239321776,123,-5,-4.616423816003921,-5.380593054438043,-5.110199626792498
1769239321780,123,-5,-4.340795056135974,-5.161825174553997,-4.843472691104827
1769239321784,124,-4,-4.06730652456199,-4.432628001328152,-4.5774412869701155
1769239321788,124,-4,-3.834407931342634,-4.209727672892171,-4.351904926759658
1769239321792,124,-4,-3.6935234728447695,-4.263006510721698,-4.219541305094458
1769239321796,124,-4,-3.6558769836256135,-4.222392650720402,-4.19121987216244
1769239321800,124,-4,-3.681248137961059,-4.288257426850794,-4.225353996109472
1769239321804,124,-4,-3.7141926126271905,-4.337332266933287,-4.265734400277334
1769239321808,124,-4,-3.723672290069549,-4.263354590518535,-4.281912884955274
1769239321812,124,-4,-3.7099890865713343,-4.22995637178133,-4.27551540026857
1769239321816,124,-4,-3.684554828819788,-4.248923120207502,-4.258770411334235
1769239321820,124,-4,-3.654176175804576,-4.277427083358559,-4.238001557134119
1769239321824,124,-4,-3.627379826091662,-4.339640428647195,-4.220271431437297
1769239321828,124,-4,-3.625231579166778,-4.257568103934204,-4.225434548392252
1769239321832,124,-4,-3.6667352802666273,-4.220006579768373,-4.272668774862212
1769239321836,124,-4,-3.729717528517078,-4.286788372521004,-4.3413072098395995
1769239321840,124,-4,-3.731514040691079,-4.2218819864256085,-4.350202651603332
1769239321844,124,-4,-3.5744492604013955,-4.416746737256386,-4.201854271849264
1769239321848,124,-4,-3.24012865527703,-4.155370071789875,-3.876686451653248
1769239321852,125,-3,-2.8479501029184533,-3.318846544110046,-3.4927784591922357
1769239321856,125,-3,-2.60124689081415,-3.210474000207063,-3.2530840767029177
1769239321860,125,-3,-2.6422491741017833,-3.272447794151723,-3.30042508365643
1769239321864,125,-3,-2.932011932254047,-3.4118845660967243,-3.5966346203777357
1769239321868,124,-4,-3.264462750245231,-4.103821049201958,-3.935791944546839
1769239321872,124,-4,-3.4143672363742272,-4.421853434810657,-4.092231068984865
1769239321876,124,-4,-3.2994255584019165,-4.059115477423788,-3.9836054029161896
1769239321880,125,-3,-3.0167408014573844,-3.4610639934226466,-3.707841073744377
1769239321884,125,-3,-2.7277739731841963,-3.206867667057381,-3.426988103822958
1769239321888,125,-3,-2.5119507607353686,-3.288908956650439,-3.219481544435664
1769239321892,125,-3,-2.33199404760827,-3.2901395275562986,-3.0461740221266846
1769239321896,125,-3,-2.125419780637226,-3.1203374245928166,-2.8442511443367
1769239321900,126,-2,-1.9019682072170867,-2.4998753317444,-2.6256283170516883
1769239321904,126,-2,-1.737593291729239,-2.049215000403915,-2.4685607880297433
1769239321908,126,-2,-1.6883870614067429,-2.543684102861803,-2.428490810828531
1769239321912,125,-3,-1.732847877797868,-2.960091654548595,-2.480808751332064
1769239321916,126,-2,-1.790702508331852,-2.514024588935124,-2.543430547629822
1769239321920,126,-2,-1.7658608684673578,-2.0986363851920147,-2.5217913788119692
1769239321924,126,-2,-1.5660098520171457,-2.397104220760272,-2.3263264466483617
1769239321928,126,-2,-1.125376312762396,-2.262703380960532,-1.8923506479205248
1769239321932,127,-1,-0.4596916973486209,-1.143618846366118,-1.234797743969109
1769239321936,128,0,0.2891723064931417,-0.4746410295198167,-0.4942133918368893
1769239321940,128,0,0.8844621148707683,-0.0106852862079935,0.0937897958776673
1769239321944,129,1,1.1042216433004013,0.4283371509138827,0.3079506028396673
1769239321948,128,0,0.8631066043549385,-0.0104882072693047,0.0626433860467667
1769239321952,128,0,0.2667599778836929,-0.4491471406077283,-0.5377442328402764
1769239321956,127,-1,-0.4434673707356213,-1.188052951876769,-1.2529604355446609
1769239321960,126,-2,-1.0313002894468155,-2.256573205128813,-1.8467075257185472
1769239321964,126,-2,-1.400399290109824,-2.36509939586418,-2.2220286885238067
1769239321968,126,-2,-1.6195577465920412,-2.1273911060991195,-2.447503768460408
1769239321972,126,-2,-1.8190361262472088,-2.4343348950550703,-2.653354707385455
1769239321976,125,-3,-2.0589601173325884,-3.138246366526656,-2.8991505841737344
1769239321980,125,-3,-2.292057473567713,-3.3714614007498156,-3.13715669594586
1769239321984,125,-3,-2.4350368895604286,-3.195095357746129,-3.284758805291351
1769239321988,125,-3,-2.45717442488597,-3.2995213844486417,-3.312330941615299
1769239321992,125,-3,-2.4041548915363355,-3.2831397821601596,-3.265284270998445
1769239321996,125,-3,-2.3556347212737654,-3.2717095943326164,-3.2217005820287867
1769239322000,125,-3,-2.36384990780547,-3.2893047116439194,-3.2333571809071113
1769239322004,125,-3,-2.4154182901991836,-3.2133647797281863,-3.2890683216766217
1769239322008,125,-3,-2.4383562004756683,-3.3164624016636757,-3.319547317914783
1769239322012,125,-3,-2.357614977389076,-3.239439512200374,-3.2488135136353256
1769239322016,125,-3,-2.17003260191175,-3.3469715476393453,-3.068244972760251
1769239322020,125,-3,-1.9715367316371024,-3.2210892583643944,-2.868839207230254
1769239322024,126,-2,-1.8824316084108157,-2.251759892778009,-2.7731691687539697
1769239322028,126,-2,-1.9188064455822151,-2.2881571791937008,-2.807237566222261
1769239322032,125,-3,-1.9618032177774571,-3.2534577290485647,-2.8617365258354455
1769239322036,125,-3,-1.9109037577415569,-3.366937432290242,-2.8356133079223875
1769239322040,125,-3,-1.862692019790552,-3.2084068030098134,-2.812638525809289
1769239322044,125,-3,-1.9982851077680697,-3.236998563797908,-2.9574709062183873
1769239322048,126,-2,-2.060551165317106,-2.3080599751494004,-3.006304982081335
1769239322052,128,0,-0.781452953977054,-0.1900149611392566,-1.70075381089113
1769239322056,132,4,4.049637830013646,3.488333197497343,3.1509100230589517
1769239322060,140,12,14.454891203968424,11.994733143856092,13.556771234564428
1769239322064,156,28,30.527247424708055,27.531913616725895,29.60832583878141
1769239322068,176,48,49.3425918763192,48.001515260720815,48.38987910907587
1769239322072,195,67,65.64742430251255,66.49771770985166,64.66011308180384
1769239322076,203,75,74.21690857349415,74.74784050944056,73.2067615428335
1769239322080,200,72,72.43928925774776,71.66437392752174,71.42776651033105
1769239322084,188,60,61.44487614204806,59.77612816956497,60.454217785941616
1769239322088,171,43,45.17629279339392,42.75823993462606,44.21676855969505
1769239322092,155,27,28.22795241421722,26.81311158303341,27.290395617922353
1769239322096,142,14,13.917346586150572,13.488714795022368,12.978344519344946
1769239322100,131,3,3.5618871201571,2.97330435825926,2.598795856251323
1769239322104,125,-3,-3.0764539349191367,-3.5810157037376396,-4.07177100998804
1769239322108,120,-8,-6.899933560217351,-7.871389091708579,-7.918146094835187
1769239322112,118,-10,-8.830521583518856,-10.564591774888948,-9.853415663148647
1769239322116,117,-11,-9.613238593236714,-11.109183760464155,-10.626837641359767
1769239322120,118,-10,-9.836090660225215,-10.406757884698573,-10.83896771692441
1769239322124,118,-10,-9.900688486530806,-10.306223925126323,-10.901808188592293
1769239322128,117,-11,-9.941510615755355,-11.062211103653562,-10.950321821339664
1769239322132,117,-11,-9.865948324277218,-11.493125962246564,-10.88437467806928
1769239322136,117,-11,-9.5561000034602,-11.023103362241216,-10.57964285014202
1769239322140,119,-9,-9.047122313729362,-9.622821481155505,-10.07203578879524
1769239322144,119,-9,-8.50513338606856,-8.995890003055512,-9.532521579828376
1769239322148,119,-9,-8.062982935291632,-9.462668802379724,-9.095940468687068
1769239322152,119,-9,-7.719747261849252,-9.049074604031762,-8.758656058652019
1769239322156,120,-8,-7.395686186338103,-8.461031553088205,-8.43783867256098
1769239322160,120,-8,-7.039155496952044,-8.216027431095027,-8.082289090235868
1769239322164,121,-7,-6.6524716663849,-7.355497381645178,-7.697247922865818
1769239322168,121,-7,-6.235734774672811,-7.1635588137083515,-7.284484048386211
1769239322172,121,-7,-5.750424236957733,-7.30719115771669,-6.804322264500232
1769239322176,122,-6,-5.162082287838501,-6.226069834248925,-6.220261594328031
1769239322180,123,-5,-4.508011682156302,-5.438248164873678,-5.569118772631533
1769239322184,123,-5,-3.9002540311911575,-5.139392632618251,-4.964091626200941
1769239322188,124,-4,-3.44967797721688,-4.37825945152392,-4.51710370497298
1769239322192,124,-4,-3.1823689329736355,-4.103709823640205,-4.253898542625772
1769239322196,124,-4,-3.024696388202318,-4.425882112576195,-4.099554913630125
1769239322200,124,-4,-2.863614747940499,-4.243630644029455,-3.9404612544177833
1769239322204,125,-3,-2.616729890202981,-3.3293870831953236,-3.6952524685089663
1769239322208,125,-3,-2.251090637876346,-3.186102467349775,-3.332351146124677
1769239322212,125,-3,-1.7627080431082374,-3.30659796671977,-2.847839805880854
1769239322216,126,-2,-1.1671015659113977,-2.2101700079871853,-2.256311719293966
1769239322220,127,-1,-0.5093579636256491,-1.4835874826658928,-1.602284332810862
1769239322224,127,-1,0.1382533789132329,-1.0734497255338256,-0.957978939252796
1769239322228,128,0,0.7039313781025345,-0.4399125557031919,-0.3950243186281672
1769239322232,128,0,1.1510031133467178,-0.072606864658124,0.0500464591123503
1769239322236,129,1,1.499556334055722,0.580772291350592,0.3968484143925339
1769239322240,129,1,1.8211083772302836,0.6749394013645441,0.7161008379018968
1769239322244,129,1,2.197455969172594,0.8279364471391406,1.0893132204525269
1769239322248,130,2,2.659906648625805,1.601637774771292,1.5482162327727669
1769239322252,130,2,3.155675859530837,1.943501407677925,2.0406524109351665
1769239322256,131,3,3.5776076243513435,2.5007293895215006,2.4598349067289957
1769239322260,131,3,3.8392573279459,2.801356227818647,2.719292738015252
1769239322264,131,3,3.934653824180485,2.6666208963874407,2.81267018089184
1769239322268,131,3,3.934215143132579,2.782500917032328,2.809889356840223
1769239322272,131,3,3.922114277966789,2.7558616597965373,2.794998257334706
1769239322276,131,3,3.927370773650994,2.674351837975964,2.79747542155326
1769239322280,131,3,3.9055675324645063,2.6423058756504316,2.773382260795066
1769239322284,131,3,3.788948183701218,2.814790682363343,2.6547682243332513
1769239322288,131,3,3.562589668620779,2.641743712263164,2.426179526861076
1769239322292,130,2,3.2893116193508263,1.8872888673948676,2.1504660354468372
1769239322296,130,2,3.046411420685943,1.542172811509822,1.9053635169414167
1769239322300,130,2,2.832804694637327,1.7585470661654978,1.689677374714324
1769239322304,130,2,2.5461321118741904,1.7305931717870109,1.4005175300739126
1769239322308,129,1,2.0549041223365876,0.6875781599946856,0.9065287592754006
1769239322312,128,0,1.2928487413017735,-0.1109539802323998,0.1421790504947745
1769239322316,128,0,0.2969370093129793,-0.5313461235136459,-0.8554087822183509
1769239322320,126,-2,-0.824982859689825,-2.117046702667431,-1.978979241475891
1769239322324,125,-3,-1.963391308656825,-3.430897536241562,-3.1192944009195536
1769239322328,124,-4,-3.065221093911937,-4.11347101352166,-4.222949756249014
1769239322332,123,-5,-4.13776283920179,-5.324544661061461,-5.297114836524894
1769239322336,122,-6,-5.194322872786287,-6.348801141465122,-6.355611919115167
1769239322340,121,-7,-6.194820419823589,-7.256031347091017,-7.358751170630521
1769239322344,120,-8,-7.0466574418787555,-8.352537648082182,-8.213308246304868
1769239322348,119,-9,-7.673118709197931,-9.112917309925663,-8.841376049370695
1769239322352,119,-9,-8.080815917966488,-9.397835988135313,-9.249437448995614
1769239322356,119,-9,-8.347412589132386,-9.238347593611005,-9.51667899077676
1769239322360,119,-9,-8.535361455813902,-9.388797748382991,-9.706933405287646
1769239322364,118,-10,-8.631538646194084,-10.218313191311674,-9.806368922515588
1769239322368,118,-10,-8.589692143765063,-10.22298353155796,-9.766824941599062
1769239322372,119,-9,-8.422979944455777,-9.33725793210075,-9.600911561235456
1769239322376,119,-9,-8.22592386288262,-9.257610876532864,-9.404451167549324
1769239322380,119,-9,-8.093988962625497,-9.415665107914965,-9.274042440184054
1769239322384,119,-9,-8.033642324822557,-9.137460033808074,-9.215770890160396
1769239322388,119,-9,-7.959829076988083,-9.350294284459208,-9.14359450734966
1769239322392,119,-9,-7.776806083567823,-9.20451377972656,-8.961585018836214
1769239322396,120,-8,-7.459433579034009,-8.384582608490156,-8.645196738474567
1769239322400,120,-8,-7.066598674265329,-8.310083469525077,-8.253682537284691
1769239322404,120,-8,-6.689267698365815,-8.189445697125056,-7.8778862177257025
1769239322408,121,-7,-6.3838828202767575,-7.365856980928347,-7.574263380585308
1769239322412,121,-7,-6.140122721685844,-7.14780885420779,-7.3325589123939885
1769239322416,121,-7,-5.906045091393487,-7.49403238912439,-7.100160895891688
1769239322420,121,-7,-5.651527299148263,-7.150874119875979,-6.846036293958439
1769239322424,122,-6,-5.404882643270598,-6.3648792181966325,-6.598967310428001
1769239322428,122,-6,-5.212847672855634,-6.2020577377200095,-6.40746785929229
1769239322432,122,-6,-5.067291137470699,-6.300046880821774,-6.264235590581089
1769239322436,122,-6,-4.897694110820105,-6.384570327641477,-6.0974018594886905
1769239322440,122,-6,-4.652354126557543,-6.2050857765267144,-5.853448056841781
1769239322444,123,-5,-4.372057683804721,-5.362315831409673,-5.573143449975597
1769239322448,123,-5,-4.158598474984638,-5.152216864501463,-5.359822820489528
1769239322452,123,-5,-4.065321333468136,-5.411667718507636,-5.2677833439570545
1769239322456,123,-5,-4.031677227319957,-5.2342455890091,-5.235781824081088
1769239322460,123,-5,-3.9354338796995414,-5.3883625693153805,-5.140419799011918
1769239322464,123,-5,-3.708469063269427,-5.162872875114903,-4.913580386317113
1769239322468,124,-4,-3.3991735810765715,-4.344136533323672,-4.604841895618085
1769239322472,124,-4,-3.1258008225878804,-4.243323592464076,-4.33321974417241
1769239322476,124,-4,-2.976751933574736,-4.384778548377669,-4.186326297830599
1769239322480,124,-4,-2.954827228195436,-4.269115324539474,-4.165539952801936
1769239322484,124,-4,-3.000138619517387,-4.261021477299474,-4.210671469241389
1769239322488,124,-4,-3.047664301089112,-4.264107464255197,-4.257788371923322
1769239322492,124,-4,-3.064413505799896,-4.3030665357225,-4.275004024794557
1769239322496,124,-4,-3.0517707822941085,-4.35015151024953,-4.263722857741426
1769239322500,124,-4,-3.029125483255781,-4.293757974223956,-4.242606381608733
1769239322504,124,-4,-3.015523575203108,-4.252266265247045,-4.230175536046001
1769239322508,124,-4,-3.0175735088365845,-4.261845751324666,-4.233022705691063
1769239322512,124,-4,-3.028214933457789,-4.308664865350249,-4.244187301784426
1769239322516,124,-4,-3.0361971685575684,-4.350355315501703,-4.252393085775045
1769239322520,124,-4,-3.0369449588587427,-4.301362868207718,-4.253193866150587
1769239322524,124,-4,-3.033306043853068,-4.246483638301582,-4.249943163345943
1769239322528,124,-4,-3.027150307808184,-4.265601968254508,-4.24498077543441
1769239322532,124,-4,-3.016101234886995,-4.302998623886502,-4.235689143143621
1769239322536,124,-4,-3.0033464993387513,-4.362764253200328,-4.224302399266195
1769239322540,124,-4,-3.006304442940279,-4.302801431811764,-4.2274881600909335
1769239322544,124,-4,-3.042042390006414,-4.2359033048570485,-4.262645874897613
1769239322548,124,-4,-3.0929690729986534,-4.288705915671148,-4.31332185687532
1769239322552,124,-4,-3.091586895551722,-4.258987248779696,-4.312709813505775
1769239322556,124,-4,-2.9598077010989505,-4.435314152775346,-4.182257969749539
1769239322560,124,-4,-2.682804506099262,-4.22281276945003,-3.906296056375377
1769239322564,125,-3,-2.3447499525161115,-3.329888673648745,-3.568890067693109
1769239322568,125,-3,-2.077603747743974,-3.1775768974872527,-3.302445339052549
1769239322572,125,-3,-1.963448890608543,-3.3797959106341064,-3.189075565575983
1769239322576,125,-3,-1.9811211733126377,-3.3136424698705724,-3.207233694185863
1769239322580,125,-3,-2.0374006965481573,-3.371606640819467,-3.263728007109252
1769239322584,125,-3,-2.040040379138937,-3.1755575120084876,-3.2667661067537477
1769239322588,125,-3,-1.9473547078152904,-3.314858533136812,-3.1747607184285216
1769239322592,125,-3,-1.7652284491998371,-3.256795689031715,-2.993273657348786
1769239322596,126,-2,-1.5040656043250733,-2.420118612991293,-2.73262557315702
1769239322600,126,-2,-1.1367182240507514,-2.3151688862529403,-2.3657976845660205
1769239322604,126,-2,-0.6067735755221868,-2.201966540411952,-1.8361708788708448
1769239322608,127,-1,0.1038727045696692,-1.2977077274360722,-1.1254711539012112
1769239322612,128,0,0.9098513285445642,-0.2636362522541939,-0.3197537104501139
1769239322616,129,1,1.6333222652957913,0.5767839164459398,0.4021531129363873
1769239322620,129,1,2.0887000093616126,0.6662679539096817,0.8549085674323068
1769239322624,129,1,2.1680757291499435,0.8239039240127031,0.932298596742712
1769239322628,129,1,1.8711497165116489,0.6701284607264402,0.635489338799859
1769239322632,128,0,1.2871749192105637,-0.2206893710071976,0.0533375962561011
1769239322636,128,0,0.5635875170635585,-0.4856413723469429,-0.6687148974032033
1769239322640,127,-1,-0.127986487655267,-1.2646608718706256,-1.3607101232866567
1769239322644,126,-2,-0.6429137412728969,-2.267573665600028,-1.877794561162164
1769239322648,126,-2,-0.928117030785386,-2.2104533567304614,-2.165276921425753
1769239322652,126,-2,-1.052629214111895,-2.3560300697269083,-2.291020566377598
1769239322656,126,-2,-1.1578961174012714,-2.351167633658264,-2.396688715715553
1769239322660,126,-2,-1.3511622740313944,-2.401634921769711,-2.5903575532574195
1769239322664,125,-3,-1.6293539968191868,-3.1503340430664686,-2.8692781639435907
1769239322668,125,-3,-1.8982730236110428,-3.312729460468687,-3.1389492388919784
1769239322672,125,-3,-2.0619049612178744,-3.264202402794963,-3.302976840125149
1769239322676,125,-3,-2.096856430736963,-3.4426458805815887,-3.3378203663440966
1769239322680,125,-3,-2.054268906335987,-3.3159659584395538,-3.2948496968799597
1769239322684,125,-3,-2.0038706533559716,-3.234766678511031,-3.244693668720382
1769239322688,125,-3,-1.9789170477533524,-3.2446561987550613,-3.2219143657084945
1769239322692,125,-3,-1.969431691003823,-3.314499623758296,-3.2167926766152406
1769239322696,125,-3,-1.961892969711491,-3.4201250583121867,-3.21357967148065
1769239322700,125,-3,-1.97503015515838,-3.321778585754347,-3.227059774415182
1769239322704,125,-3,-2.0398863335727437,-3.245195779034194,-3.286032912318954
1769239322708,125,-3,-2.133765338535574,-3.2339190768724486,-3.370772304222899
1769239322712,125,-3,-2.150481153076032,-3.318518296041943,-3.3830431950829367
1769239322716,125,-3,-1.98448548732522,-3.4388638746914433,-3.224735633824581
1769239322720,125,-3,-1.690024244002424,-3.2875895609747143,-2.9496181916816115
1769239322724,125,-3,-1.5326117757190725,-3.302332729918968,-2.812265144625772
1769239322728,125,-3,-1.7377243518201555,-3.1613089143166784,-3.0232789481616633
1769239322732,126,-2,-1.9597629382348165,-2.4029934283255496,-3.229998585619988
1769239322736,127,-1,-0.8453652430877261,-1.352059269673436,-2.0867581533095603
1769239322740,131,3,3.7581104076665897,2.6164103944746437,2.541306770096041
1769239322744,140,12,13.694957111242786,11.801701814385645,12.483257127680147
1769239322748,154,26,28.955807096026152,25.757103280175578,27.72667018904391
1769239322752,173,45,46.76350830272876,44.67297593224863,45.503171557073
1769239322756,191,63,62.21930835167324,62.615371233489334,60.9278614319462
1769239322760,199,71,70.4320838994787,70.56044352372817,69.1226925845446
1769239322764,196,68,68.89601064194517,67.83863533790841,67.590222157798
1769239322768,185,57,58.59854966157637,56.62835411119926,57.31701506747507
1769239322772,169,41,43.235456681057144,40.758872189522954,41.98629668511681
1769239322776,154,26,27.210347487584965,25.630756222951316,25.98327674545684
1769239322780,141,13,13.748579081735697,12.53683404454417,12.521070461088035
1769239322784,131,3,4.100388244956148,3.007022358126356,2.85204935113652
1769239322788,126,-2,-2.07953366176546,-2.6691803267745486,-3.3551740207428997
1769239322792,121,-7,-5.791428660450288,-6.873422944787341,-7.085272844388312
1769239322796,119,-9,-7.924977516927521,-9.826615702038575,-9.220242490807726
1769239322800,117,-11,-9.018994633806914,-10.920575578915829,-10.30264950227217
1769239322804,118,-10,-9.39825775125167,-10.550446457597296,-10.668739519318812
1769239322808,118,-10,-9.337325436544964,-10.17609517279833,-10.603420165572215
1769239322812,118,-10,-9.076500123914698,-10.322834748549912,-10.348553065594423
1769239322816,118,-10,-8.772204117996843,-10.48212510888548,-10.05354749939232
1769239322820,118,-10,-8.50272335931302,-10.130987586601831,-9.788893100197145
1769239322824,119,-9,-8.310750996220708,-9.432274296814803,-9.595864505904832
1769239322828,119,-9,-8.198028795911188,-9.254361497393589,-9.480661843179124
1769239322832,119,-9,-8.082189301864274,-9.285757265814654,-9.365081135287523
1769239322836,119,-9,-7.815501642699011,-9.539722586748168,-9.10119553063145
1769239322840,119,-9,-7.2989294081550655,-9.010590784470304,-8.587333022667373
1769239322844,121,-7,-6.585912356834772,-7.602415885444066,-7.875924006187509
1769239322848,121,-7,-5.854267015462268,-7.0523621169771085,-7.1461026671055725
1769239322852,122,-6,-5.2651299287755045,-6.531152609880369,-6.559918098015147
1769239322856,122,-6,-4.850272398904575,-6.301472140861339,-6.14786366169167
1769239322860,122,-6,-4.5273513207422535,-6.212730505017024,-5.825713402505224
1769239322864,123,-5,-4.199941227557593,-5.45204636940815,-5.497259427624934
1769239322868,123,-5,-3.8261505598633994,-5.137234394533288,-5.123175918418687
1769239322872,124,-4,-3.4042222025081603,-4.541501559190358,-4.703862600344609
1769239322876,124,-4,-2.9313104886551797,-4.214796352552607,-4.235601641462647
1769239322880,124,-4,-2.4094414906059427,-4.362107091224398,-3.7173578478936182
1769239322884,125,-3,-1.8849559069509887,-3.263742359029914,-3.193787689934335
1769239322888,126,-2,-1.4392565703990268,-2.341257716023133,-2.7478031799026126
1769239322892,126,-2,-1.1082851481124885,-2.3643058823457848,-2.4177418735483784
1769239322896,126,-2,-0.8233106603959066,-2.362085160533979,-2.1351029289414347
1769239322900,126,-2,-0.46326077082028,-2.251133442425167,-1.7773292872141364
1769239322904,127,-1,0.0267664834595739,-1.35703858653613,-1.2890101277458923
1769239322908,128,0,0.5826165066165596,-0.2600296484111839,-0.7352495655960167
1769239322912,128,0,1.0857510899709977,-0.4412730528243542,-0.23488003165032
1769239322916,128,0,1.466202071438728,-0.2995938177612745,0.1432873790315243
1769239322920,129,1,1.7476789050454522,0.69869520717077,0.4237225122417749
1769239322924,129,1,2.0192802818167475,0.6470486728905713,0.694646255852122
1769239322928,129,1,2.371265010759015,0.7807396268871836,1.045087089275889
1769239322932,130,2,2.831834929894918,1.4840969426303707,1.503202121885297
1769239322936,130,2,3.3397063941998413,1.7981994876546097,2.0085052013734113
1769239322940,131,3,3.778925688069508,2.566031821876714,2.445492043571482
1769239322944,131,3,4.057587629029486,2.7946956154998683,2.722119943003208
1769239322948,131,3,4.1655504822668075,2.606807223329343,2.8281180864259015
1769239322952,131,3,4.160517898896876,2.6931730929324753,2.821269498355868
1769239322956,131,3,4.102713103813164,2.5418391871457535,2.7617298317562127
1769239322960,131,3,4.007848096472173,2.8498852177035516,2.665004182109397
1769239322964,131,3,3.859876804532672,2.4781698901552245,2.515138590638266
1769239322968,130,2,3.658009486599752,1.943623060925652,2.31160792750015
1769239322972,131,3,3.4447536996042727,2.349253422577445,2.0967160542623735
1769239322976,130,2,3.2872907082828062,1.870233334692296,1.9371235422543691
1769239322980,130,2,3.221808012151527,1.5257367331967433,1.8690856319996247
1769239322984,130,2,3.199765787476543,1.7810819105957003,1.8447508042452707
1769239322988,130,2,3.088691694193807,1.6721918835376044,1.7319140265817774
1769239322992,130,2,2.7466700956809382,1.5733231255000542,1.3881115692538533
1769239322996,129,1,2.11619402152814,0.6978252365299087,0.7553837495247147
1769239323000,128,0,1.2504342848299053,-0.3884674452259046,-0.112697160814335
1769239323004,127,-1,0.2469874842362478,-1.229019541062495,-1.1178619970799222
1769239323008,126,-2,-0.8401832855835081,-2.3930911473848804,-2.2062963813222
1769239323012,125,-3,-2.0187561949319264,-3.293612748251918,-3.386635336807724
1769239323016,124,-4,-3.2926374180118563,-4.489905985210046,-4.6632616019691655
1769239323020,122,-6,-4.591359953066122,-6.178996612591403,-5.964819104542284
1769239323024,121,-7,-5.775636127535901,-7.469480989965528,-7.150725779154265
1769239323028,120,-8,-6.7132823552587135,-8.137539484780543,-8.088852305312843
1769239323032,120,-8,-7.347449097664702,-8.55441514674295,-8.723860397715871
1769239323036,119,-9,-7.7034121847558925,-9.225014861405084,-9.08221574565376
1769239323040,119,-9,-7.853279258682802,-9.45203843413461,-9.23562353236508
1769239323044,119,-9,-7.882373127375779,-9.22344651709885,-9.268052003035834
1769239323048,119,-9,-7.869780977204438,-9.360709430317518,-9.25760306771779
1769239323052,119,-9,-7.872046004937183,-9.36824641997365,-9.260792547999149
1769239323056,119,-9,-7.906374539868119,-9.3548241942208,-9.2956335679001
1769239323060,119,-9,-7.94279657713887,-9.401637771089463,-9.333245787469467
1769239323064,119,-9,-7.918449423299522,-9.220053088331603,-9.311209893389236
1769239323068,119,-9,-7.779329644958753,-9.424721186297203,-9.174805317202924
1769239323072,119,-9,-7.529328951745334,-9.25806623039912,-8.92690787389903
1769239323076,120,-8,-7.240651111733919,-8.481654949901909,-8.639779888156351
1769239323080,120,-8,-7.000309844623872,-8.292958076038452,-8.401395485055968
1769239323084,120,-8,-6.836109468300948,-8.317433960587469,-8.239764375613055
1769239323088,120,-8,-6.700016627446623,-8.368092332635387,-8.105741227365925
1769239323092,120,-8,-6.526088279437247,-8.268612004246243,-7.932597930093255
1769239323096,121,-7,-6.292728199943905,-7.520924333731524,-7.699700041788828
1769239323100,121,-7,-6.021915455808941,-7.208075934610439,-7.430578449275579
1769239323104,121,-7,-5.736472836240895,-7.462986835067974,-7.148058968920915
1769239323108,121,-7,-5.4442896970930015,-7.184687244980817,-6.858576783311418
1769239323112,122,-6,-5.16350755813831,-6.487615683452619,-6.579417787593075
1769239323116,122,-6,-4.937752972461621,-6.287532309226636,-6.35481753649938
1769239323120,122,-6,-4.810710371907637,-6.4381570758467435,-6.229314235945189
1769239323124,122,-6,-4.7894178509596825,-6.268491471728731,-6.2099564719982485
1769239323128,122,-6,-4.835281280698426,-6.3421127874465295,-6.257657603571868
1769239323132,122,-6,-4.885454184782758,-6.40540728727878,-6.309267281032304
1769239323136,122,-6,-4.883608186975885,-6.277896234418473,-6.308461037854376
1769239323140,122,-6,-4.802193570735807,-6.546325920506743,-6.2279790355169835
1769239323144,122,-6,-4.6467179989525675,-6.073696352413882,-6.073952776577748
1769239323148,123,-5,-4.442742540374903,-5.629691830174653,-5.872407157231437
1769239323152,122,-6,-4.221884565097202,-6.065321543110326,-5.654461489840578
1769239323156,123,-5,-4.0221018853522486,-5.64494712195609,-5.456846042675135
1769239323160,123,-5,-3.8887200194691265,-5.179645537468444,-5.3242662933156275
1769239323164,123,-5,-3.850053732446195,-5.426629777296302,-5.285746743854484
1769239323168,123,-5,-3.8780541933846178,-5.336000757400583,-5.314470586242542
1769239323172,123,-5,-3.8823601352763086,-5.290613237273056,-5.320530320277369
1769239323176,123,-5,-3.765629905949797,-5.508179745605674,-5.205913993942495
1769239323180,123,-5,-3.5039155128981916,-5.225876824491704,-4.945816646093203
1769239323184,124,-4,-3.1767801514347154,-4.4703227022544745,-4.619819522178922
1769239323188,124,-4,-2.9094750354197365,-4.239018865002521,-4.353863755057734
1769239323192,124,-4,-2.777096814517966,-4.426468935873308,-4.223320245135552
1769239323196,124,-4,-2.761215636085995,-4.367373807451198,-4.209280697222435
1769239323200,124,-4,-2.791428763472138,-4.360300640689067,-4.240821193188848
1769239323204,124,-4,-2.8174261467304516,-4.371197117130862,-4.267596304405641
1769239323208,124,-4,-2.838419749339996,-4.307868169611486,-4.289086862950363
1769239323212,124,-4,-2.871524078875433,-4.387927733336205,-4.322745363874094
1769239323216,124,-4,-2.9017320470004,-4.394653367613356,-4.3539824438273715
1769239323220,124,-4,-2.8702633777936617,-4.339458750082883,-4.324322483168693
1769239323224,124,-4,-2.7203643427080353,-4.4210175907475815,-4.176799860085448
1769239323228,124,-4,-2.4605246230055635,-4.224140718871977,-3.9192049829544815
1769239323232,125,-3,-2.175169825936577,-3.518381758204153,-3.635277372780716
1769239323236,125,-3,-1.9536455673079192,-3.220098903736022,-3.414018347930473
1769239323240,125,-3,-1.7944636697968912,-3.563488348798484,-3.2541128344178
