timestamp_ms,ecg_u8_raw,ecg_counts_raw_int,ecg_counts_filt_monitor,ecg_counts_filt_diagnostic,ecg_counts_filt_st
1768731599996,121,-7,-6.559722858275392,-6.37768140051558,-6.33455620937828
1768731600000,120,-8,-6.640533866047662,-6.643797663248037,-6.413857681955102
1768731600004,121,-7,-6.371003012365987,-6.38328441969196,-6.141762462738898
1768731600008,121,-7,-5.895189978471573,-5.761267006431618,-5.658588137741655
1768731600012,122,-6,-5.47915804105647,-5.2754766740910775,-5.23064133319187
1768731600016,122,-6,-5.3547793993282395,-4.9049968495843626,-5.095196255865612
1768731600020,122,-6,-5.567065153237848,-5.051726452035,-5.303898801490663
1768731600024,121,-7,-5.961758054081893,-6.09751616983069,-5.7037815771343165
1768731600028,120,-8,-6.310159061925189,-6.920396870588137,-6.059091602679198
1768731600032,121,-7,-6.38744044479552,-6.230486757942976,-6.133937110805473
1768731600036,122,-6,-5.828468215736191,-4.824231607264829,-5.556614546885042
1768731600040,124,-4,-3.8642180962486936,-3.2105859678441355,-3.5619451518804652
1768731600044,128,0,0.665516006995996,1.0908278979964117,0.9971457430145878
1768731600048,136,8,8.699741802415764,8.900149013123357,9.04529140764139
1768731600052,146,18,19.91748406258463,18.90656050838018,20.255873660863102
1768731600056,158,30,31.98983126547436,31.148203518003783,32.307315032292806
1768731600060,169,41,40.92081398656464,41.7168183624118,41.218923742591606
1768731600064,171,43,42.6629478880684,44.22719542520241,42.95683768337244
1768731600068,164,36,35.221453889083925,36.63179604571601,35.531519230035194
1768731600072,147,19,19.90654816553866,20.1879677285498,20.24889827939846
1768731600076,127,-1,0.8313546382671104,-0.1666344861428506,1.210927045468435
1768731600080,109,-19,-17.06275285020816,-17.9487786198384,-16.654402989066575
1768731600084,97,-31,-30.173708366875825,-29.997054718146977,-29.75448322890707
1768731600088,91,-37,-37.30384223930141,-36.16057142941552,-36.89152653035673
1768731600092,89,-39,-39.24806072002798,-37.90830156193799,-38.84986153633601
1768731600096,90,-38,-37.57565880030545,-37.17275945915294,-37.18431475864797
1768731600100,93,-35,-33.624222610251486,-33.915976691913094,-33.22432393734107
1768731600104,99,-29,-28.2489802545049,-28.0757306421552,-27.82850528854348
1768731600108,105,-23,-22.135931424411716,-22.05601055224836,-21.69339053384589
1768731600112,111,-17,-16.122782022399306,-15.993837032688788,-15.665232427569894
1768731600116,117,-11,-11.144893507604468,-10.114988041768411,-10.680517000150193
1768731600120,120,-8,-7.858527247345625,-6.998467314131661,-7.3903738683370594
1768731600124,121,-7,-6.305821380135901,-6.021190297622762,-5.830423779088888
1768731600128,121,-7,-5.9433008367361815,-6.075339778109937,-5.454231119626976
1768731600132,121,-7,-6.02107972928736,-5.981592208683549,-5.514677560376014
1768731600136,122,-6,-5.999914639987505,-5.091516483276861,-5.478461656404968
1768731600140,122,-6,-5.711650630621846,-5.070844148709909,-5.180955078744389
1768731600144,122,-6,-5.240699485289321,-4.909263503152712,-4.704536493850112
1768731600148,123,-5,-4.71974677730653,-4.211058541852212,-4.176852873663687
1768731600152,123,-5,-4.2157684979111725,-3.809678830853697,-3.661884075420874
1768731600156,124,-4,-3.735533222948987,-3.292020183749997,-3.1675762573523043
1768731600160,124,-4,-3.2783003985311407,-2.864602830814275,-2.6964319423494185
1768731600164,125,-3,-2.863089423324128,-2.1239887171115193,-2.26937622955423
1768731600168,125,-3,-2.513324467366705,-1.9853698865561369,-1.909032316721328
1768731600172,125,-3,-2.227769850885638,-2.0248139765068376,-1.6122277806398926
1768731600176,126,-2,-1.968089010091509,-1.0920061532973948,-1.340014900348245
1768731600180,126,-2,-1.670868860526609,-1.0611309475515651,-1.030159478591287
1768731600184,126,-2,-1.2819707024046578,-0.942388570466911,-0.629720182359166
1768731600188,127,-1,-0.8030414963638224,-0.1378515080238166,-0.140103549599995
1768731600192,127,-1,-0.3155180752602238,0.1179285140304112,0.3584073952427599
1768731600196,128,0,0.0579825746486668,0.7643236762165267,0.7438482543615211
1768731600200,128,0,0.2466628377443434,1.0780438235421848,0.9451348215755646
1768731600204,128,0,0.3066548145711127,0.9106784768582304,1.0179836716048218
1768731600208,128,0,0.4008023893581045,1.0196409684897374,1.125309890742142
1768731600212,128,0,0.6835813482578517,0.977764013269701,1.421474336608958
1768731600216,129,1,1.1857652319281944,1.864513761897847,1.936140834537487
1768731600220,130,2,1.7998465415143294,3.028462278232863,2.560721734818001
1768731600224,130,2,2.3670674717623386,2.903169953315591,3.1374243581617915
1768731600228,130,2,2.774333197285948,3.0857957017148196,3.55584606231519
1768731600232,131,3,2.9926202318980417,3.8741778256441495,3.7882722876940154
1768731600236,131,3,3.0723224087877443,3.968544175678799,3.8832119949772137
1768731600240,131,3,3.1267103796081477,3.936199482945505,3.9510359194028255
1768731600244,131,3,3.2892949686080906,3.9823645698486017,4.124607723639218
1768731600248,131,3,3.6357699206407705,4.034853307416411,4.4814118982410935
1768731600252,132,4,4.127804807076307,4.89777963199104,4.98481521853358
1768731600256,133,5,4.65103391576359,5.954569266177332,5.520561628636119
1768731600260,133,5,5.127296603905053,5.951889284133193,6.009952575452745
1768731600264,133,5,5.5876234501231785,5.961212221383092,6.483756027575792
1768731600268,134,6,6.127420589819556,7.078336734248748,7.036801491225144
1768731600272,135,7,6.7892935001698795,7.810662525834467,7.7106196147292385
1768731600276,135,7,7.481240434257957,8.078162543089991,8.412942383298585
1768731600280,136,8,7.994729428331852,8.80936601398933,8.936422874909743
1768731600284,136,8,8.11593392579099,9.125140035047089,9.06859535092319
1768731600288,136,8,7.768989748667552,8.896480378198534,8.733927676777943
1768731600292,135,7,7.0949787723887106,7.984585624516288,8.073170566736785
1768731600296,134,6,6.3941536641389005,6.9105418811357,7.386217002179486
1768731600300,134,6,5.960119453656795,6.973592581629352,6.965998155807041
1768731600304,134,6,5.9262042545737526,6.987382090720394,6.944612250994514
1768731600308,134,6,6.226005295649988,7.012780138420457,7.254651061562573
1768731600312,135,7,6.66732795809438,7.878282573980776,7.704228771495947
1768731600316,135,7,7.041530504725373,8.012467251021533,8.08654091888437
1768731600320,135,7,7.196717299270481,7.850929921421934,8.251976371373189
1768731600324,135,7,7.062908551014097,8.15762367627863,8.13148537296113
1768731600328,135,7,6.660975446518006,7.784187464128753,7.744514439882922
1768731600332,134,6,6.108994676961355,7.155772295398986,7.206356850419795
1768731600336,134,6,5.59209919101424,6.698111449634247,6.700282756502838
1768731600340,133,5,5.264602074308351,6.175008404183415,6.381143332746624
1768731600344,133,5,5.1254621687473065,5.865015073163155,6.250112804676077
1768731600348,133,5,4.973708852036861,6.016862169269427,6.107910186612803
1768731600352,133,5,4.517821001482464,6.009918955094211,5.662836156340182
1768731600356,132,4,3.581786813826762,4.735739966825434,4.737689778629145
1768731600360,130,2,2.242118861933943,3.239232600049891,3.4084468235059293
1768731600364,129,1,0.7741628662865878,1.7144346619527644,1.9508817690435751
1768731600368,127,-1,-0.542844538166857,0.2145428980902224,0.6445548012345632
1768731600372,127,-1,-1.5866263338312194,-0.1894090147101927,-0.3887404589633372
1768731600376,126,-2,-2.39032137868885,-1.08622955278892,-1.1828298426300257
1768731600380,125,-3,-3.015125032097049,-1.886311314076836,-1.7988995134910877
1768731600384,125,-3,-3.4451319454247975,-2.2244725265580128,-2.2204541570523104
1768731600388,124,-4,-3.607495430909579,-2.8040322743309867,-2.3742845629570315
1768731600392,125,-3,-3.4834167818988404,-2.2043906866871605,-2.241666799719092
1768731600396,125,-3,-3.1878629387874184,-2.0414609475696848,-1.937564797830726
1768731600400,125,-3,-2.9294241189999144,-1.931397484565202,-1.6703550532840004
1768731600404,126,-2,-2.871349864444903,-1.1961683626548512,-1.6033661203820735
1768731600408,125,-3,-3.006823939719313,-1.8274924753180244,-1.730220818233301
1768731600412,125,-3,-3.1636997185059608,-2.2014479709895873,-1.87893101569803
1768731600416,125,-3,-3.151034985384755,-2.020986412867542,-1.858263515114612
1768731600420,125,-3,-2.9265952702163154,-1.942713712781771,-1.6259920866777082
1768731600424,126,-2,-2.631726139505652,-1.2152862263607358,-1.3241524704547245
1768731600428,126,-2,-2.4584524115661868,-0.7637485215801016,-1.145151455564051
1768731600432,126,-2,-2.475373524533214,-1.3317880784938736,-1.15652539604144
1768731600436,125,-3,-2.576065226152263,-1.827890885864708,-1.2501166704899929
1768731600440,126,-2,-2.583808431734917,-1.1766599717386903,-1.2489579346629234
1768731600444,126,-2,-2.3959572138894645,-0.968706959252004,-1.0522698026570476
1768731600448,126,-2,-2.041879427909745,-0.9960677913059524,-0.6915823127201298
1768731600452,127,-1,-1.6378108560571432,-0.1295014083612724,-0.2836049424037228
1768731600456,127,-1,-1.308363962500865,0.0144277701432592,0.048507910311202
1768731600460,127,-1,-1.1403831011004202,-0.0791255224945707,0.2200514496157658
1768731600464,127,-1,-1.1768944727164905,-0.0108441751499404,0.1891507844584632
1768731600468,127,-1,-1.41209967947974,-0.0066705764119905,-0.0390343443036592
1768731600472,127,-1,-1.7635183230646718,-0.0729520349864009,-0.3835590687516877
1768731600476,126,-2,-2.0587825469992165,-1.0666443651123116,-0.6730144767448516
1768731600480,126,-2,-2.092379067974031,-0.9986246644815916,-0.7020402476729299
1768731600484,127,-1,-1.7406257919412926,-0.0778536471705145,-0.3469481136296513
1768731600488,127,-1,-1.0536159587699283,0.0331771574050661,0.3423470947908067
1768731600492,128,0,-0.2530387358566487,0.9323891215326012,1.1448194712788733
1768731600496,129,1,0.3712471404271781,1.8940582256963887,1.7712766439133067
1768731600500,129,1,0.6122385248450578,2.0535324769268515,2.0148778321625627
1768731600504,129,1,0.4540250145724711,1.8468387109402689,1.859802470852378
1768731600508,128,0,0.0625826128759694,1.1193536751087847,1.472364350522003
1768731600512,128,0,-0.3303944798502988,0.8494719375746553,1.0840330593527925
1768731600516,128,0,-0.553930991580784,0.9760688587583244,0.8643500250545118
1768731600520,128,0,-0.5469756705822248,0.9804114400236013,0.872799085057455
1768731600524,128,0,-0.3347499532829205,0.8958789806784446,1.0841632489049635
1768731600528,128,0,0.0051738406334169,1.1015187269685316,1.4225026728751893
1768731600532,129,1,0.3596429155950725,1.8339071117256167,1.77639193483008
1768731600536,129,1,0.6072939577384535,2.0240121637763293,2.0251633533405684
1768731600540,129,1,0.6754119065409684,1.904231277689318,2.0957196851342124
1768731600544,129,1,0.5959569280868332,1.9860133198257692,2.018772779481771
1768731600548,129,1,0.5110466305420631,2.000967049615679,1.934811084178945
1768731600552,129,1,0.6044910008645343,1.934522553295392,2.026850309050224
1768731600556,129,1,0.9863647259098016,1.9346511203846737,2.4058932972814486
1768731600560,130,2,1.608255648369989,2.98282995675643,3.0253835229036223
1768731600564,131,3,2.289740800995518,3.918128876645703,3.705938017583006
1768731600568,131,3,2.854824993780462,4.057402233320559,4.270969124578394
1768731600572,132,4,3.2695440264223037,4.877742977624254,4.685049520074494
1768731600576,132,4,3.653744356710249,5.004028500327829,5.067128032613229
1768731600580,132,4,4.14549036400725,4.877077413054379,5.555565844247948
1768731600584,133,5,4.738260885670839,6.070292146768536,6.144577607409708
1768731600588,134,6,5.25443519569332,6.860212699358457,6.656914105475644
1768731600592,134,6,5.4979368368229515,7.11603404623418,6.896921318838915
1768731600596,134,6,5.446307484732615,6.744452134547773,6.842969311875491
1768731600600,133,5,5.2951200816077835,6.124878654184812,6.690605219212192
1768731600604,134,6,5.311262708862813,6.832309366702452,6.7047162270556475
1768731600608,134,6,5.623044035631216,7.081752389711514,7.011283216186468
1768731600612,134,6,6.1084766649380935,6.935334100172715,7.488543180278236
1768731600616,135,7,6.454614379454924,7.896212736158881,7.826453271060457
1768731600620,135,7,6.352403472801722,7.992554685117981,7.718641017869767
1768731600624,134,6,5.707626873583199,6.911122145810959,7.070993065653367
1768731600628,133,5,4.718698717095041,6.048828130001068,6.079811734743591
1768731600632,132,4,3.7477029814361176,4.946392358180552,5.104819848085088
1768731600636,131,3,3.0667909524717425,3.904106792330966,4.417098394673834
1768731600640,131,3,2.6715625436644808,3.9728321933124655,4.012729128321485
1768731600644,131,3,2.3107231605485374,3.926496455086225,3.641973975797381
1768731600648,130,2,1.707764445580527,3.032800955268406,3.0303113707793483
1768731600652,129,1,0.7911910578440897,1.9917424707956264,2.107543857061501
1768731600656,128,0,-0.2481893515750315,0.8076308152643084,1.063756991430612
1768731600660,127,-1,-1.1001695908497242,0.1126699914821802,0.206564847577537
1768731600664,127,-1,-1.5523417384439009,-0.2757743505763512,-0.2538591513150959
1768731600668,126,-2,-1.6226647526626978,-0.6889481742601576,-0.3353345865584578
1768731600672,127,-1,-1.5235555171301285,-0.3241053808573546,-0.2481916419618197
1768731600676,127,-1,-1.4886556998093765,0.1382033404705481,-0.223778928641979
1768731600680,127,-1,-1.5940375758519152,-0.2315155789222973,-0.3365653279513628
1768731600684,126,-2,-1.7245106117961295,-0.9719205802351012,-0.4711650463104013
1768731600688,126,-2,-1.7184754443596602,-0.9136285460852708,-0.4689426167787556
1768731600692,127,-1,-1.5511455741904383,-0.1827019710992584,-0.3113310541342651
1768731600696,127,-1,-1.3718788528124284,0.0949110090227295,-0.1522256709863525
1768731600700,127,-1,-1.350641052109839,-0.2957111523923652,-0.1577522755987821
1768731600704,126,-2,-1.4421487999921982,-0.8313782783180004,-0.2703467130551131
1768731600708,127,-1,-1.1937028584932037,-0.1122046359146859,-0.0259565801972403
1768731600712,129,1,0.3212079276759141,2.0555776900137546,1.5015099037769608
1768731600716,133,5,4.332537103742763,5.860410463103502,5.528134175016053
1768731600720,140,12,11.831481418261244,12.923327303050677,13.02737885446514
1768731600724,150,22,22.71198743967965,22.9938524427725,23.884404587338093
1768731600728,162,34,35.04303497288003,35.00169831473442,36.17416229222152
1768731600732,173,45,45.14920173390461,46.014391257229065,46.23710608580003
1768731600736,178,50,48.86305272152307,50.81809055158672,49.921139030856565
1768731600740,173,45,43.507495087074375,45.99041182050862,44.55610176113658
1768731600744,158,30,29.46039448074809,30.828967531553104,30.516856011942725
1768731600748,137,9,10.22262812935772,10.153090756374649,11.294189406591332
1768731600752,118,-10,-9.155287265397185,-9.128165634342505,-8.07410539065875
1768731600756,103,-25,-24.32388242246555,-23.978250387364017,-23.24870836309805
1768731600760,95,-33,-33.20190282244946,-32.1300206246079,-32.151149681599016
1768731600764,93,-35,-36.09407126553024,-34.025207650703315,-35.07986974511077
1768731600768,94,-34,-34.646383124359986,-33.01413921422985,-33.668538166087814
1768731600772,97,-31,-30.60417835196292,-29.997552048489368,-29.650827096800427
1768731600776,102,-26,-25.192972973784087,-25.124866605878267,-24.248357942696444
1768731600780,108,-20,-19.22444790039234,-18.962969441947298,-18.279520911035107
1768731600784,115,-13,-13.430819748265638,-12.204545560603776,-12.48897712809419
1768731600788,120,-8,-8.536303550054953,-6.825825283782715,-7.609105007360889
1768731600792,123,-5,-5.0329421617693075,-4.246691057061083,-4.129383837465586
1768731600796,124,-4,-2.979988822756109,-2.859139348872818,-2.0994872653720247
1768731600800,126,-2,-2.0607098481327,-1.2469518484054931,-1.1959945006164272
1768731600804,126,-2,-1.8188129662916868,-0.8873027814645331,-0.964298870832366
1768731600808,126,-2,-1.857213178190066,-1.1484467519231598,-1.0137970152975124
1768731600812,126,-2,-1.901262902872303,-0.9240483525129678,-1.074144363206988
1768731600816,126,-2,-1.7860809768801598,-1.1979423426538642,-0.9795923092062556
1768731600820,126,-2,-1.4512504161966049,-0.9109703184009764,-0.6658925322152902
1768731600824,127,-1,-0.9501489422953862,-0.1890270382333837,-0.1833905255637944
1768731600828,127,-1,-0.4243552991294896,0.1297072408273112,0.3266178453522198
1768731600832,128,0,-0.0179007997952311,0.8224894780444707,0.7182308969484257
1768731600836,128,0,0.2217586055716968,1.0035299115910583,0.9419664458869936
1768731600840,128,0,0.3707991580586647,0.914078319708762,1.0734782299383148
1768731600844,128,0,0.5464145199719932,0.9759024877405136,1.2308481993776448
1768731600848,128,0,0.7809042449830862,0.9939184273747872,1.44705846839451
1768731600852,129,1,0.976745885529068,1.92209206090554,1.624147830915537
1768731600856,129,1,0.9976200573426278,1.9307913179403904,1.625495861591735
1768731600860,128,0,0.810353608624665,0.9352952387625172,1.4192158544158195
1768731600864,128,0,0.5406869412631717,1.0168580376783165,1.132755535013474
1768731600868,128,0,0.4013670348198856,0.9072261736930208,0.9783852397637138
1768731600872,128,0,0.5689122857255609,1.0319861867849252,1.1297919080759975
1768731600876,129,1,1.0963804958543877,1.8101925553379263,1.637815575823819
1768731600880,129,1,1.8863646924299684,2.0466610937998406,2.4058910205958526
1768731600884,130,2,2.7160005297783405,2.9333071139189273,3.213967830932271
1768731600888,131,3,3.3186540376771414,3.956835510447053,3.797133460753811
1768731600892,131,3,3.5146110373907,4.011771425416879,3.97509504050013
1768731600896,131,3,3.323304831202872,3.7776726107416336,3.766040840766437
1768731600900,130,2,2.9635270071594846,3.140195037301245,3.388570455882062
1768731600904,130,2,2.7235263342950375,2.7668901524894483,3.1312946925054344
1768731600908,130,2,2.797090759669356,3.2033697442454203,3.1873811454883767
1768731600912,131,3,3.207204909997724,3.690930594134886,3.578265545102012
1768731600916,131,3,3.8459869335279624,4.161328461223839,4.195456325100631
1768731600920,132,4,4.556641874766607,4.713798103203961,4.883665350326562
1768731600924,132,4,5.1817898768931006,5.207074773413925,5.487878364539186
1768731600928,133,5,5.5818828527174755,5.756508370452853,5.86949219593849
1768731600932,133,5,5.671798473829202,6.123118132622808,5.9422975936087346
1768731600936,133,5,5.4770998021010655,5.761189226954926,5.730237709075741
1768731600940,132,4,5.146792553942566,5.070542245788626,5.381580881849964
1768731600944,132,4,4.877072754401858,4.894581245554161,5.09246742779841
1768731600948,132,4,4.789153919024418,5.003989068124252,4.98407821037231
1768731600952,132,4,4.856047059818987,4.947406695686448,5.029734549038978
1768731600956,132,4,4.932651481107807,4.878163743760911,5.085445804039351
1768731600960,132,4,4.8648234927097995,5.016247543437084,4.9982402608504195
1768731600964,132,4,4.603620356714451,4.871793316651068,4.719216471998433
1768731600968,131,3,4.247191947633549,4.079083537810094,4.345325979101139
1768731600972,131,3,3.975560277589998,3.82129358029838,4.055181806009085
1768731600976,131,3,3.9205706099701354,4.0659281360432615,3.980142801004748
1768731600980,131,3,4.068407178996701,3.7807342489015863,4.10716552978446
1768731600984,131,3,4.271979378910923,4.135595971929064,4.29043088659582
1768731600988,132,4,4.367775332123662,4.783505183738525,4.367126825577822
1768731600992,131,3,4.305678729383109,4.13181523853549,4.287008025813442
1768731600996,131,3,4.178954703952664,3.75733992964404,4.142743424789694
1768731601000,131,3,4.121956352692827,4.0796762275393235,4.067805167184103
1768731601004,131,3,4.16434355570407,3.8461146063292206,4.090975865931286
1768731601008,131,3,4.170912889478852,4.031278683010861,4.076956936201066
1768731601012,131,3,3.918371550006712,3.958079620506031,3.8035612474521416
1768731601016,130,2,3.248176913396903,2.8420000289605984,3.113775037310706
1768731601020,129,1,2.1834357946947907,2.088499528368385,2.0313515730191343
1768731601024,128,0,0.931971216251507,0.7294103410323394,0.7634606485500772
1768731601028,126,-2,-0.2226246221439825,-0.7832460351257393,-0.40748833504385
1768731601032,126,-2,-1.06987846759131,-1.2499510453943912,-1.271886543428745
1768731601036,125,-3,-1.567312413974931,-1.9440702654993431,-1.7876922745743933
1768731601040,125,-3,-1.8284971186936605,-2.1007084866767367,-2.0686236490531806
1768731601044,125,-3,-2.029827894087626,-2.1439016379221005,-2.2906129581545693
1768731601048,124,-4,-2.314501361783051,-2.8515373977132,-2.595403616855339
1768731601052,124,-4,-2.753515402376263,-3.246497434304347,-3.05222624283285
1768731601056,123,-5,-3.35453269856281,-3.871236991935509,-3.6683359311581896
1768731601060,123,-5,-4.067729111671753,-4.24992173278406,-4.39565977393776
1768731601064,122,-6,-4.774207080503031,-4.94304311672845,-5.11777732335434
1768731601068,121,-7,-5.305729041852137,-6.095971434211109,-5.667370843618839
1768731601072,121,-7,-5.534452562639903,-5.981602307650541,-5.915373190271279
1768731601076,121,-7,-5.481005158671607,-6.117238239201019,-5.880610285286785
1768731601080,121,-7,-5.330013167549962,-6.0519869300706075,-5.747036294540032
1768731601084,122,-6,-5.304676357828179,-5.08348260753223,-5.738232157891154
1768731601088,121,-7,-5.489581095040886,-6.024183354098429,-5.938922774322098
1768731601092,120,-8,-5.7583149698194935,-7.002805031274852,-6.222403265021436
1768731601096,121,-7,-5.871218852628931,-6.131790786535065,-6.349522283756088
1768731601100,121,-7,-5.652543691330765,-6.021702521251549,-6.145945895404951
1768731601104,121,-7,-5.1064092235346035,-6.123637519514224,-5.616434952966723
1768731601108,122,-6,-4.406816346775894,-4.966134236695897,-4.934109332882663
1768731601112,123,-5,-3.786719866568405,-4.079228263420785,-4.330734393050115
1768731601116,123,-5,-3.4026273039261525,-4.057171878560244,-3.9623133827238033
1768731601120,123,-5,-3.265888677401352,-4.097857982444017,-3.840148527716619
1768731601124,123,-5,-3.2824193801402606,-4.0576421550009405,-3.870342211055955
1768731601128,123,-5,-3.348328264391736,-4.019012245071828,-3.9495943332780055
1768731601132,123,-5,-3.4079748568978037,-4.035729450200768,-4.022989821363389
1768731601136,123,-5,-3.4379988733955673,-4.101615620028577,-4.0673288452206675
1768731601140,123,-5,-3.403688447132042,-4.0495936985063015,-4.047314703624578
1768731601144,123,-5,-3.2537837592160974,-4.121821328620159,-3.911091379078241
1768731601148,123,-5,-2.96664288580421,-3.936039180437325,-3.637264552741838
1768731601152,124,-4,-2.5978868653385847,-3.1435277331642637,-3.2823140682669893
1768731601156,124,-4,-2.274539768920799,-2.965827541902668,-2.973420056402596
1768731601160,124,-4,-2.132845553308563,-3.2195823358594224,-2.8456337335222455
1768731601164,124,-4,-2.24207725549972,-2.9281692072444083,-2.966873397701125
1768731601168,124,-4,-2.558186639006937,-3.153598492862617,-3.293150458274829
1768731601172,123,-5,-2.9349797798302055,-3.9239371771992255,-3.679768524977783
1768731601176,123,-5,-3.1998479780202596,-4.165322110348823,-3.9557881549880327
1768731601180,123,-5,-3.2598070896027487,-4.058403215447507,-4.028864475622951
1768731601184,123,-5,-3.166693548080293,-4.04252951773087,-3.949925501000242
1768731601188,123,-5,-3.087303034663411,-4.097407046535475,-3.883768304265007
1768731601192,123,-5,-3.1886167642651024,-3.92547665854642,-3.9957255462838512
1768731601196,123,-5,-3.5098940114513355,-4.210072536837067,-4.325109895994307
1768731601200,122,-6,-3.913580526804776,-4.993775403917405,-4.736125083612492
1768731601204,122,-6,-4.164977913344296,-5.113726651853503,-4.996208385640454
1768731601208,122,-6,-4.098723339140468,-5.0485586926573545,-4.940928258909123
1768731601212,122,-6,-3.7540833502836817,-4.928162951193267,-4.6086374115526345
1768731601216,123,-5,-3.369032781792521,-4.261687849210772,-4.235387400275335
1768731601220,123,-5,-3.2190916729394012,-3.884291181752235,-4.095251438848778
1768731601224,123,-5,-3.4087970592059493,-4.289359056173136,-4.29251504971207
1768731601228,122,-6,-3.777205112091948,-4.839286920363755,-4.666910590715913
1768731601232,122,-6,-4.001458283880314,-5.150003614315219,-4.896795140307442
1768731601236,122,-6,-3.8230782851410665,-5.056376840719135,-4.725164272144365
1768731601240,123,-5,-3.221213904110762,-4.040439151983865,-4.132141912853972
1768731601244,124,-4,-2.4089114835526075,-3.195142102538688,-3.330198243881371
1768731601248,124,-4,-1.6776256204720328,-2.875147788584407,-2.6087100125018576
1768731601252,125,-3,-1.2198460043903183,-2.1740828978916125,-2.15829566136553
1768731601256,125,-3,-1.0443590006491572,-2.0016033639256916,-1.9877049130603597
1768731601260,125,-3,-1.0128969804062673,-2.1157198104725055,-1.9601711333574947
1768731601264,125,-3,-0.9517316527391588,-2.1132516879697887,-1.9034792220694596
1768731601268,125,-3,-0.7574809954574324,-1.9503907879216855,-1.71485717155437
1768731601272,126,-2,-0.4306038864503203,-1.1186116574564642,-1.3944351812983895
1768731601276,126,-2,-0.0332352362072287,-1.0403491158035485,-1.0033258172336117
1768731601280,126,-2,0.3692910900740995,-1.0926795731781,-0.6059075739459935
1768731601284,127,-1,0.729348897139825,-0.1333346118215896,-0.2500023508194524
1768731601288,127,-1,1.004065173621077,0.0777870295308896,0.0203357385617691
1768731601292,127,-1,1.1417808554000428,-0.1828828316058908,0.1529910975359767
1768731601296,127,-1,1.0851973536412207,0.0703544229693732,0.091884626768388
1768731601300,127,-1,0.7933043457397173,-0.2547474218031498,-0.2024834279916096
1768731601304,126,-2,0.2782936742899902,-0.936368653193941,-0.7182120050634095
1768731601308,126,-2,-0.3666343913602079,-1.1418735770922903,-1.3642715108202617
1768731601312,125,-3,-0.9920019627289232,-1.964474117338073,-1.9929445265937544
1768731601316,124,-4,-1.4864507994866871,-3.1326593546267096,-2.492249664803188
1768731601320,124,-4,-1.8802856094606832,-3.08190756728587,-2.8902572166782363
1768731601324,124,-4,-2.346308201705982,-3.072884173258755,-3.35824392279176
1768731601328,123,-5,-3.056286466150442,-4.051745564956637,-4.0681200912577795
1768731601332,122,-6,-4.003443016222305,-5.008715718027471,-5.014129418463018
1768731601336,121,-7,-4.9633784044904825,-6.134194753669949,-5.972996446811068
1768731601340,120,-8,-5.649989704421166,-7.064597336391241,-6.659724686063189
1768731601344,120,-8,-5.941379322133122,-7.094987585305348,-6.953201683721555
1768731601348,120,-8,-5.97985616744638,-7.0324720953413244,-6.99533359454351
1768731601352,120,-8,-6.052742516468428,-6.999652094570826,-7.071258841955743
1768731601356,120,-8,-6.345462139127937,-7.186216728487585,-7.363259027403417
1768731601360,119,-9,-6.768244185612709,-7.985570752166025,-7.7798458259786525
1768731601364,119,-9,-7.002413424876143,-8.230445682689021,-8.004475202070157
1768731601368,119,-9,-6.740160113170788,-7.835705648816616,-7.735327574997087
1768731601372,120,-8,-5.941863871736,-7.2334261610048385,-6.939005500458646
1768731601376,121,-7,-4.914085350462849,-5.923988949969515,-5.923146199091333
1768731601380,122,-6,-4.117696618246388,-5.260609171190307,-5.141659410956595
1768731601384,122,-6,-3.7738090299157023,-5.002614669152177,-4.803569227427518
1768731601388,123,-5,-3.4700871308567547,-4.000931471011138,-4.487353290736539
1768731601392,124,-4,-2.0314831866371703,-3.134446839007202,-3.0197446615671857
1768731601396,128,0,2.136904797007757,1.0432666352724689,1.179959854928997
1768731601400,137,9,10.227029524358496,9.737636395336336,9.285522518625394
1768731601404,147,19,22.015126091804547,20.0116891967094,21.064334000728874
1768731601408,160,32,35.21260302303996,33.01082933151037,34.23518527622806
1768731601412,172,44,45.766234585484746,44.82882921776657,44.76234171168123
1768731601416,176,48,49.30309079348157,49.07364103595134,48.287729518534654
1768731601420,171,43,43.16676031580466,43.632352492795874,42.159597128338426
1768731601424,154,26,27.894334256824855,27.101654428131255,26.91099121034273
1768731601428,132,4,7.1513281592857485,4.85548408834474,6.19947662503496
1768731601432,111,-17,-13.890807681543029,-15.956348841700551,-14.812863601119425
1768731601436,95,-33,-30.71366963844359,-32.12400200047374,-31.617112135581337
1768731601440,86,-42,-40.880454490603455,-41.08068703014994,-41.78240355258265
1768731601444,83,-45,-44.167624158993725,-44.14879304665767,-45.08284853982505
1768731601448,84,-44,-41.7988893868882,-42.91614674746568,-42.73129978737781
1768731601452,90,-38,-35.58891189655634,-37.20799883648019,-36.529706707716336
1768731601456,98,-30,-27.463731302834148,-28.90335137825685,-28.39801136281406
1768731601460,107,-21,-19.25060750549072,-20.287440209617937,-20.16695180295829
1768731601464,114,-14,-12.423281293997553,-12.937635532498112,-13.319073680119615
1768731601468,119,-9,-7.744829606996386,-8.144496291087144,-8.624816567407933
1768731601472,121,-7,-5.078588725862401,-6.055111861202972,-5.949468984032997
1768731601476,122,-6,-3.6385456898918935,-5.040322583833307,-4.504144667994424
1768731601480,123,-5,-2.602070956486905,-4.167478814678713,-3.46215506599446
1768731601484,124,-4,-1.652646560921376,-2.975384399595108,-2.5053644077157218
1768731601488,126,-2,-1.0304554525888283,-1.1358929163506106,-1.875289837074078
1768731601492,126,-2,-1.0839014424398945,-1.0752119543045286,-1.9215711342185764
1768731601496,124,-4,-1.7655686549282192,-3.054814270533092,-2.595235026090058
1768731601500,123,-5,-2.551096198475108,-4.153541003326957,-3.369329207921271
1768731601504,123,-5,-2.8306275962402676,-3.944849878041087,-3.634544851200116
1768731601508,124,-4,-2.375515307129998,-3.184323236472056,-3.1664426708743685
1768731601512,125,-3,-1.4617425232868235,-2.0085333133112933,-2.244451898553415
1768731601516,126,-2,-0.5940201135883956,-1.1581045290243996,-1.3719890491773246
1768731601520,126,-2,-0.116774075813216,-1.0537530174258258,-0.8885653364173058
1768731601524,126,-2,-0.0288119019983885,-1.0268068603612677,-0.789212266507907
1768731601528,126,-2,-0.0871265825832687,-1.124698665560964,-0.8317380739320043
1768731601532,126,-2,-0.0423956272980485,-1.045384545241875,-0.7712938885223415
1768731601536,127,-1,0.2076455194637705,-0.1629899746142652,-0.5094871127087504
1768731601540,127,-1,0.6283454292468251,-0.009197492169308,-0.08064307580836
1768731601544,127,-1,1.1430613976577124,-0.1088742253848942,0.4424334821256668
1768731601548,128,0,1.7008640800191603,1.004176903827962,1.0118457590067704
1768731601552,129,1,2.2856037039016677,1.7631499356212947,1.610668670769722
1768731601556,129,1,2.895518737013072,2.0679749223875983,2.2341883491656773
1768731601560,130,2,3.5119060807455966,2.7246319904798137,2.862235425338888
1768731601564,130,2,4.065928309069178,3.193421366155776,3.427102204416661
1768731601568,131,3,4.437669698979139,3.671616910879016,3.810592476887543
1768731601572,131,3,4.5186915330204505,4.097912183995129,3.904616600692976
1768731601576,131,3,4.305958566389877,3.732401308123938,3.705368440384414
1768731601580,130,2,3.940089774987969,3.037611629667823,3.3529394718063306
1768731601584,130,2,3.635797371243472,2.9295603843773304,3.0621687594637916
1768731601588,130,2,3.553895106957679,2.865514898851526,2.993941171376841
1768731601592,130,2,3.722533422047281,2.9696160687250543,3.1759820643717176
1768731601596,131,3,4.066422748848785,3.794599733215216,3.5326775128472776
1768731601600,131,3,4.499112079536129,4.033770446930321,3.978119888095524
1768731601604,131,3,4.981924888346517,3.89325847491833,4.474534708967192
1768731601608,132,4,5.506031301064607,4.905497530987863,5.012921579238778
1768731601612,133,5,6.044627815218551,5.930724113583495,5.565273728809706
1768731601616,133,5,6.5383866237538495,5.810205323038205,6.0720208995039915
1768731601620,133,5,6.920069858558968,6.058730738648929,6.467423934500659
1768731601624,134,6,7.1520140605574865,6.834325799877685,6.714938638995592
1768731601628,134,6,7.261184451070543,6.9593644312010445,6.840400131806016
1768731601632,134,6,7.34727031487735,6.885099256308941,6.941428287034608
1768731601636,134,6,7.525914201067954,6.831332434112205,7.133166842555389
1768731601640,134,6,7.822744296002244,7.085424691486012,7.442578678563872
1768731601644,135,7,8.11610694853246,7.752768732888172,7.749377303443427
1768731601648,135,7,8.213665558104108,8.073156219147073,7.861527223445092
1768731601652,135,7,8.019746627108109,7.737732323202051,7.683158050267057
1768731601656,134,6,7.642920768526312,6.998747236180157,7.322739393011058
1768731601660,134,6,7.335309188772196,6.911608838481585,7.031943283268555
1768731601664,134,6,7.306611990357435,6.912956734141143,7.019273224546651
1768731601668,134,6,7.563041052394009,6.9183739587511335,7.289749322423849
1768731601672,135,7,7.893924885568204,7.889048772226726,7.632818225710191
1768731601676,135,7,8.007743758306646,7.859148182483668,7.75880153602372
1768731601680,134,6,7.710721836762302,7.032969803782356,7.476174749894857
1768731601684,134,6,7.008286960711258,6.789009925246666,6.790897596261426
1768731601688,133,5,6.084647155537015,6.02006424016483,5.885452600606694
1768731601692,132,4,5.1925661924329445,4.808606770489529,5.010494279444569
1768731601696,131,3,4.516701671368294,3.9346072804978776,4.350018263117954
1768731601700,131,3,4.082831308593919,3.969296088166497,3.9302955320981225
1768731601704,131,3,3.768960075724149,3.820871612036739,3.629875490198368
1768731601708,130,2,3.406215268152297,3.002220517816329,3.2804278183115088
1768731601712,130,2,2.8865290431191633,2.811568479835799,2.77483578119414
1768731601716,129,1,2.2021267584732387,1.954926671150664,2.106229742432358
1768731601720,128,0,1.4169349960089137,0.9192864412042948,1.338398572997191
1768731601724,128,0,0.6234235382114903,0.8764618018251675,0.5625116247331235
1768731601728,127,-1,-0.0806095388179284,-0.064912937663349,-0.1249445036643245
1768731601732,126,-2,-0.6125375309062242,-1.1129270097598414,-0.6417432818829982
1768731601736,126,-2,-0.9446752087827026,-1.1128669313712516,-0.960151937087922
1768731601740,126,-2,-1.135783235695959,-1.025018941707077,-1.1388186306819494
1768731601744,126,-2,-1.3089032797900113,-1.203039099079338,-1.2995477965537543
1768731601748,125,-3,-1.5797324993389132,-1.9496476258009037,-1.555397245698498
1768731601752,125,-3,-1.9796986545823871,-2.279843130211266,-1.9364740719352256
1768731601756,125,-3,-2.4064677886005557,-1.88191235273186,-2.3430477189827705
1768731601760,125,-3,-2.63331374104309,-2.331926431789862,-2.5528060968552113
1768731601764,124,-4,-2.424912986264535,-2.8479616080829135,-2.331788483696155
1768731601768,125,-3,-1.7398899647708626,-2.334002078416033,-1.635861308015538
1768731601772,126,-2,-0.8562981278170458,-0.8848663440928404,-0.7400086189679771
1768731601776,128,0,-0.2411219017152697,0.7266172683096735,-0.1106394015270673
1768731601780,127,-1,-0.2109554975384688,0.0489185889818245,-0.0648404313063276
1768731601784,126,-2,-0.671952384598858,-1.239403899920471,-0.5085554549491387
1768731601788,126,-2,-1.1795130317546674,-0.949213831280408,-0.9974874430377312
1768731601792,126,-2,-1.263575087895753,-1.2817436560408173,-1.0637886533758492
1768731601796,126,-2,-0.7487595572420063,-0.8652518491041165,-0.5345754845422256
1768731601800,128,0,0.1567171375822071,0.6764986825850803,0.3818606501740111
1768731601804,128,0,1.0292155313225524,1.0841087191090266,1.264449452439715
1768731601808,129,1,1.5090380945528326,1.75478047883289,1.7564409591435028
1768731601812,129,1,1.49840436325429,1.9489825697195835,1.7612915758274117
1768731601816,128,0,1.1653736819807343,0.959874662075654,1.4462336856446805
1768731601820,128,0,0.7842104140243686,0.8163682252151514,1.083357200162356
1768731601824,128,0,0.551412927140098,0.9843171919719376,0.8666492954304345
1768731601828,128,0,0.5087714898546163,0.8013439391630878,0.836527011535122
1768731601832,128,0,0.5908143634388396,0.9182489286591397,0.9286646960869176
1768731601836,128,0,0.7107890928628784,1.0014743028662705,1.0595441135613095
1768731601840,128,0,0.8053249871602866,0.7483385787077087,1.1683874719609526
1768731601844,128,0,0.8392856140127998,1.0975545703877634,1.2193552234736968
1768731601848,129,1,0.8154920382662356,1.6111860845240815,1.211891886494442
1768731601852,128,0,0.7891629318363853,1.1594336337419926,1.1988707601129418
1768731601856,128,0,0.8357978321869386,0.730745180955233,1.256863558085162
1768731601860,128,0,0.9679948100256236,1.034844055358217,1.401033663273556
1768731601864,129,1,1.091820287729692,1.8123251824707205,1.5382604183536752
1768731601868,129,1,1.0786488106361891,1.853610296597208,1.5388880138425225
1768731601872,128,0,0.8915846592760837,0.967193185580604,1.3653696804604438
1768731601876,128,0,0.6295532563274739,0.8640178346418899,1.1169197990240185
1768731601880,128,0,0.4431892974428824,0.9631796743636922,0.9440399621830328
1768731601884,128,0,0.4101203307505545,0.8080718913622067,0.9235377375022324
1768731601888,128,0,0.4783886714921146,0.9190218020435392,1.0032835794639658
1768731601892,128,0,0.5104694566443371,0.8554772369289838,1.0467142825822988
1768731601896,128,0,0.386707415894354,1.0062379702775313,0.9351290963858924
1768731601900,128,0,0.0951818861637678,0.7970906379580189,0.6566336331298395
1768731601904,127,-1,-0.2584852518328622,-0.0361913441922399,0.3162298940369438
1768731601908,127,-1,-0.5335971151792154,-0.2246319060057353,0.0538356255557458
1768731601912,127,-1,-0.6610886746087676,-0.0195072996120626,-0.0622222592863055
1768731601916,127,-1,-0.6800034113688953,-0.0895458321600689,-0.0710969269844677
1768731601920,127,-1,-0.6767857509071793,-0.145955177369489,-0.0580378461246203
1768731601924,127,-1,-0.6902895437796132,-0.0631680353493677,-0.0600345828368836
1768731601928,127,-1,-0.6651000623200035,-0.2445190133076927,-0.0210956936512954
1768731601932,127,-1,-0.4835267769882456,0.0368238498564539,0.1745977971852332
1768731601936,128,0,-0.0482296073980113,0.8287187341282386,0.6214827752132628
1768731601940,128,0,0.6338716118397438,0.956022198710021,1.311597769011719
1768731601944,129,1,1.41281574832138,1.8055351254810024,2.097054929210165
1768731601948,130,2,2.040822581361293,2.9062630077475258,2.7334517549165933
1768731601952,130,2,2.306433635734318,2.847954773672847,3.0110497762942856
1768731601956,130,2,2.188467901927571,3.059077071931016,2.907397838037986
1768731601960,130,2,1.907448766072646,2.686746297024457,2.6399627606956124
1768731601964,129,1,1.7981655456189956,2.0859716447448022,2.5411691335482054
1768731601968,130,2,2.0636409650633434,2.6151486247173055,2.8140067577595627
1768731601972,130,2,2.5907824443391236,3.1312498404075253,3.3473025837600754
1768731601976,131,3,2.992017383262853,3.81088486691416,3.755608666440661
1768731601980,131,3,2.870233630813946,3.890970651478992,3.642703137377669
1768731601984,130,2,2.1144857279866613,2.9205090303205425,2.897295283263564
1768731601988,129,1,0.9894296814604816,1.693116998789884,1.7834212409879031
1768731601992,127,-1,-0.0617176048273984,0.1364817329381293,0.7437611650675133
1768731601996,127,-1,-0.74200454400833,-0.2745721997772408,0.074102759426614
1768731602000,127,-1,-1.084883045853161,0.0737408484708446,-0.2608607972473891
1768731602004,127,-1,-1.361979001061855,-0.3410371019173515,-0.5334225205808978
1768731602008,126,-2,-1.831986806089057,-1.0159072284254425,-0.9999744829730132
1768731602012,125,-3,-2.565860003801216,-2.173436003079859,-1.727637017182623
1768731602016,124,-4,-3.460117206643776,-2.994513835803372,-2.611388608503325
1768731602020,124,-4,-4.352557528095353,-3.1452539418512027,-3.491436054148412
1768731602024,123,-5,-5.105668181304783,-4.184680910844676,-4.234026600801642
1768731602028,122,-6,-5.6281527007321115,-5.12102230681815,-4.74956751516675
1768731602032,122,-6,-5.887197900183296,-5.119937789628612,-5.004507030730912
1768731602036,122,-6,-5.93150569195678,-5.038467496498817,-5.045988101496159
1768731602040,122,-6,-5.8875948817710215,-5.086938767683184,-4.998749651685842
1768731602044,122,-6,-5.901675561140471,-5.259580437118291,-5.006735769666667
1768731602048,122,-6,-6.050249830050347,-5.026958742905219,-5.144744724981183
1768731602052,122,-6,-6.27693622828684,-5.260742843478864,-5.357568665663377
1768731602056,121,-7,-6.412556189807166,-5.880578032897472,-5.481089505448578
1768731602060,122,-6,-6.291408659015488,-5.252892712479019,-5.355998707766048
1768731602064,122,-6,-5.8966356309554095,-5.072396322056148,-4.967725521535386
1768731602068,122,-6,-5.4039585416963325,-5.234506679445202,-4.486246168624703
1768731602072,123,-5,-5.0084286162113525,-4.056506030787697,-4.0950961190812905
1768731602076,124,-4,-4.55032101297628,-3.10290078898586,-3.625227228595332
1768731602080,125,-3,-3.1749030951878403,-2.0166307382773176,-2.2225215307208006
1768731602084,129,1,0.5972985439204752,1.6984651294291429,1.580597211097695
1768731602088,136,8,8.160009940930967,8.994452486559238,9.161662822834314
1768731602092,147,19,19.684518815955183,19.706340766207862,20.68255013207035
1768731602096,160,32,33.22802093094465,33.139662043279216,34.204399527147054
1768731602100,173,45,44.84643422210253,45.76554756633482,45.796993270650226
1768731602104,179,51,49.98724641438071,51.86838012882034,50.921864234682744
1768731602108,175,47,45.58446297428624,47.820946899096946,46.5200039585985
1768731602112,160,32,31.65800240741678,32.74885043620732,32.61058840306778
1768731602116,138,10,11.410140912722742,11.12715181679198,12.390042409965366
1768731602120,117,-11,-10.22380440925474,-10.260588992125433,-9.215366915139333
1768731602124,99,-29,-28.612163201401245,-27.989851380088847,-27.584390630738383
1768731602128,88,-40,-40.86004914010627,-39.29890764755987,-39.829780987144176
1768731602132,83,-45,-46.09996530144664,-44.08211121304987,-45.08370319393691
1768731602136,83,-45,-44.98326827445264,-44.06842095252069,-43.98798667217571
1768731602140,88,-40,-39.0655405299204,-39.08145936082791,-38.08538015523585
1768731602144,97,-31,-30.432465158053816,-30.16345581080469,-29.454576225626028
1768731602148,107,-21,-21.38967672925174,-20.13191340451209,-20.404085804174574
1768731602152,115,-13,-13.945197002320809,-12.257764207997369,-12.949777932857067
1768731602156,119,-9,-9.185478840971944,-7.930526877319276,-8.182908176430136
1768731602160,121,-7,-6.97589092140915,-6.271560252720372,-5.968092885101496
1768731602164,121,-7,-6.2793926683293115,-5.976790424572499,-5.2662744986486985
1768731602168,122,-6,-5.910762262609953,-5.297920533371751,-4.893490441560593
1768731602172,123,-5,-5.208893958747834,-4.07408361546034,-4.1922801836416905
1768731602176,124,-4,-4.2166869163186345,-3.0730524886166695,-3.2068181806188543
1768731602180,125,-3,-3.366640712623044,-2.2197002775522487,-2.365830942378836
1768731602184,125,-3,-3.006261414939277,-1.9569878501576603,-2.0105128592631334
1768731602188,125,-3,-3.122747254496529,-2.4290185909628588,-2.124466784300647
1768731602192,124,-4,-3.3953425160049973,-2.803075631557175,-2.3893272864626693
1768731602196,125,-3,-3.444891820117207,-2.459738065027568,-2.4326738353841817
1768731602200,125,-3,-3.060235663196047,-1.7541819662145572,-2.04883467259887
1768731602204,126,-2,-2.279173435924969,-1.501157568385296,-1.2750915112548782
1768731602208,126,-2,-1.3376417297951957,-0.8501686441164791,-0.3416941766628816
1768731602212,128,0,-0.5425957848215313,0.6363022882276089,0.4496708305582834
1768731602216,128,0,-0.1101034250053918,1.0605447010630789,0.8834171539929485
1768731602220,128,0,-0.0352156754766248,0.7598577225142533,0.9609477144343612
1768731602224,128,0,-0.089861517137316,0.9079814394818564,0.9066702261747358
1768731602228,128,0,0.0176405288743453,0.8060401532558032,1.0113242202972923
1768731602232,128,0,0.4212344440921967,0.9288890046015572,1.4103216020018357
1768731602236,129,1,0.9901261010051544,1.836349164981548,1.974424343345723
1768731602240,130,2,1.4402160913464732,2.9053809203892245,2.419897382481559
1768731602244,130,2,1.5813236869811431,2.8148538630481172,2.556866135335514
1768731602248,129,1,1.4810437079126186,1.824618478325972,2.454133385264572
1768731602252,129,1,1.399920249558576,1.9860941671563537,2.372664046295868
1768731602256,130,2,1.5765141341977178,2.707761008864907,2.54877471663948
1768731602260,130,2,2.064968770282694,3.0938482347604457,3.0334008516962325
1768731602264,131,3,2.73319662975884,3.572351806741298,3.693979717003944
1768731602268,131,3,3.370271097360621,4.095378209584258,4.322596289692784
1768731602272,132,4,3.804522874378851,4.701072021935214,4.750965822383151
1768731602276,132,4,3.981621662505801,4.967496045976913,4.92546972875024
1768731602280,132,4,3.98753269280522,4.877048425282167,4.930107403306046
1768731602284,132,4,4.005564441455691,4.72053395662431,4.945568059522964
1768731602288,132,4,4.217843033154142,5.018478013901992,5.152496257268695
1768731602292,133,5,4.701661999316504,5.702671643129995,5.628582573847173
1768731602296,133,5,5.3837810799524375,6.018577247201401,6.302486137295729
1768731602300,134,6,6.084362980443639,6.797238066887687,6.996260373155909
1768731602304,135,7,6.630855790818943,7.797127006392744,7.537717958081644
1768731602308,135,7,6.971545542646492,7.955054233004181,7.874087035073517
1768731602312,135,7,7.199007682228729,7.723386072017268,8.09675648229415
1768731602316,135,7,7.451833192631804,8.032549323686185,8.343627596922786
1768731602320,136,8,7.77409748506094,8.754240186848456,8.658418680597396
1768731602324,136,8,8.058919814681367,8.849373160262648,8.93448546733035
1768731602328,136,8,8.125422399850944,8.911349373287331,8.992143202767299
1768731602332,136,8,7.863169642453121,8.73303990504482,8.722351343577982
1768731602336,135,7,7.333895909181845,8.04572454165831,8.187153443593548
1768731602340,135,7,6.759337458227961,7.705669631991129,7.607351378139031
1768731602344,134,6,6.399234885396748,6.924775904482926,7.241450381070149
1768731602348,134,6,6.395799133215151,6.822723573694055,7.230737458083601
1768731602352,135,7,6.691189383111943,7.819739040440983,7.516847257566754
1768731602356,135,7,7.074100762215387,7.962888113587305,7.888827719357483
1768731602360,135,7,7.30841118998628,7.762041105392929,8.11215394443739
1768731602364,135,7,7.244350388790186,7.89566159700782,8.03889119438623
1768731602368,135,7,6.857912819983454,7.813152785954016,7.645546957774891
1768731602372,134,6,6.23043243617308,6.848343225038819,7.012345417799432
1768731602376,133,5,5.49715282720069,5.916056201540248,6.272659825918125
1768731602380,133,5,4.7853914684111984,5.813073410549034,5.552172146641547
1768731602384,132,4,4.160756433443628,4.845016446267433,4.916072484875524
1768731602388,131,3,3.596955215447895,3.852205440679367,4.339413404344946
1768731602392,131,3,2.9852478097714004,3.812558056122128,3.7157562402124458
1768731602396,130,2,2.1997319950749654,2.9459879134911757,2.92078314111838
1768731602400,129,1,1.2011846519741711,1.7682206921523858,1.9150986851118816
1768731602404,128,0,0.1081593118453945,0.9123722485989934,0.8155145086670423
1768731602408,127,-1,-0.8402417255959478,-0.2538904761452452,-0.1410835419940097
1768731602412,126,-2,-1.4328768933158629,-1.0569382678736858,-0.7448565986346369
1768731602416,126,-2,-1.6528088193939303,-1.2042000895066067,-0.9784370305170806
1768731602420,126,-2,-1.728436733747534,-1.076440796194496,-1.068319791938582
1768731602424,126,-2,-2.0040610481065726,-1.2344204307152036,-1.3565352826387342
1768731602428,125,-3,-2.7025324485056412,-2.1348203448799676,-2.06474135564332
1768731602432,124,-4,-3.747925052613466,-3.164823140779387,-3.1178441592609607
1768731602436,123,-5,-4.784024543216874,-4.12922444753924,-4.161893939603955
1768731602440,122,-6,-5.389906467944118,-5.124592715843011,-4.777796924863448
1768731602444,122,-6,-5.352382240239438,-5.2050588023788835,-4.7525928402664395
1768731602448,123,-5,-4.80156108665979,-4.1399804586117215,-4.215563120219587
1768731602452,124,-4,-4.105793984495765,-3.1902952566929232,-3.5340359329340956
1768731602456,124,-4,-3.6116808412352186,-3.0923119787308258,-3.0534490298469636
1768731602460,124,-4,-3.4410032578372385,-3.182584923434502,-2.894520660657222
1768731602464,124,-4,-3.4891916836476184,-3.144560886777649,-2.9527480123490704
1768731602468,124,-4,-3.5805694826193153,-3.207551757027163,-3.0540176133705055
1768731602472,124,-4,-3.618822453916275,-3.131307374497676,-3.103750132932363
1768731602476,124,-4,-3.617147041524994,-3.13067256824415,-3.1154273567562436
1768731602480,124,-4,-3.6203134523856497,-3.1799832131832027,-3.1325866427447653
1768731602484,124,-4,-3.6155376056104016,-3.1124450082668895,-3.14104999970234
1768731602488,124,-4,-3.518102653811979,-3.2968372838798423,-3.055782741576788
1768731602492,124,-4,-3.240321111085444,-2.9944745317949426,-2.78994004746311
1768731602496,125,-3,-2.7776971771999923,-2.3084761365810804,-2.3401083467846853
1768731602500,125,-3,-2.23424520112382,-1.9705285193535496,-1.810572014089808
1768731602504,126,-2,-1.7646475058702351,-1.352262494932247,-1.3552295876403484
1768731602508,126,-2,-1.479891085029082,-1.054658321350184,-1.0840196529434087
1768731602512,126,-2,-1.3874487212567788,-1.2417986707757502,-1.0041475771239836
1768731602516,126,-2,-1.4050552845932192,-1.0778311091232378,-1.0341336422951726
1768731602520,126,-2,-1.430576598504863,-1.1659449655243368,-1.0728724418781257
1768731602524,126,-2,-1.4139077317321451,-1.2199648294570702,-1.070458795524794
1768731602528,126,-2,-1.3815480187201663,-1.1180073610682997,-1.0526657628728844
1768731602532,126,-2,-1.3986873808324216,-1.2658497030368558,-1.083992160226114
1768731602536,126,-2,-1.4969028148879506,-0.976788268378737,-1.1960011419157426
1768731602540,126,-2,-1.627856731424123,-1.3307870423870674,-1.3405693167983483
1768731602544,125,-3,-1.6921591943617738,-2.021667163191349,-1.418333564177452
1768731602548,126,-2,-1.6246069026489234,-1.3449147686089702,-1.3644072912261074
1768731602552,126,-2,-1.4540316516083684,-1.0325701564058711,-1.2083682300740834
1768731602556,126,-2,-1.2808332290891338,-1.2161865232413176,-1.0507463361836582
1768731602560,126,-2,-1.201957761104011,-1.078898937646886,-0.9874351491477552
1768731602564,126,-2,-1.2518565829221149,-1.298744519553508,-1.051826541861277
1768731602568,126,-2,-1.3905066503113526,-1.0711518348709017,-1.204052949978755
1768731602572,126,-2,-1.5295708781353456,-1.308624867808852,-1.3566315012688763
1768731602576,125,-3,-1.5820388200020394,-1.9443519476148492,-1.4230123612733814
1768731602580,126,-2,-1.5136555654934956,-1.3331555623327864,-1.3691078560674204
1768731602584,126,-2,-1.3604306147446832,-1.0739932888982953,-1.2313167470578
1768731602588,126,-2,-1.1977747778427794,-1.2923833554863435,-1.0851419604050163
1768731602592,126,-2,-1.0930410208514745,-1.099857167237122,-0.9970047103821528
1768731602596,126,-2,-1.079329964559903,-1.1364341021720772,-0.99863857072295
1768731602600,126,-2,-1.1495420177298348,-1.1662732849833874,-1.0825332343399845
1768731602604,126,-2,-1.2498585888761538,-1.2200767411997504,-1.1958911645438508
1768731602608,126,-2,-1.2771475264197902,-1.1931052711228305,-1.237022669454967
1768731602612,126,-2,-1.1108647273208554,-1.1584461886163568,-1.0859300418443585
1768731602616,126,-2,-0.6885474346622025,-1.1127239288744295,-0.6797034410020879
1768731602620,127,-1,-0.0756607599487702,-0.1640747719094569,-0.0833692536482759
1768731602624,128,0,0.5438397096392291,0.7514110965572756,0.5191851785958239
1768731602628,128,0,0.970243062532112,0.8327943809422593,0.92878928975239
1768731602632,128,0,1.1098173553762931,0.8209683796957238,1.0529847999689503
1768731602636,128,0,1.0266624439919383,0.8858272406661813,0.956507294884118
1768731602640,128,0,0.901528940352176,0.858463665546784,0.8189093590500656
1768731602644,128,0,0.9348821232595096,0.6859150306913869,0.8384691491237148
1768731602648,128,0,1.243692489359816,0.944511280908836,1.130951444887772
1768731602652,129,1,1.7953198014212188,1.6555019896849914,1.6644405077441458
1768731602656,129,1,2.414106114571401,2.1038743548299585,2.2651476676942552
1768731602660,130,2,2.8690158568534643,2.5813667043394246,2.7034924004981846
1768731602664,130,2,3.0028665303589612,2.9949685904451364,2.8224584759495768
1768731602668,130,2,2.8251579770461266,2.6114213262112473,2.6308662381727745
1768731602672,129,1,2.498904674306802,1.976760249244769,2.2910307029530337
1768731602676,129,1,2.222399574461397,1.816610010995641,2.0005444411928544
1768731602680,129,1,2.0926923801025987,1.800327937923104,1.8554633397554576
1768731602684,129,1,2.0523725726636535,1.855304762828895,1.7977416580615388
1768731602688,129,1,1.944677441322498,1.6619981445236711,1.6714502519612042
1768731602692,128,0,1.6176574266901234,1.0098377538497147,1.326716098461911
1768731602696,128,0,1.0065147035293078,0.6900600738778238,0.700318336562465
1768731602700,127,-1,0.1649799822170707,-0.0073275341122682,-0.1542709211818529
1768731602704,126,-2,-0.7540095891174112,-1.3996800407389385,-1.0858786450895952
1768731602708,125,-3,-1.5613172018177373,-2.035952874390255,-1.9073288627960272
1768731602712,125,-3,-2.1174967167039815,-2.319646364892123,-2.4800147470246277
1768731602716,124,-4,-2.403970018797032,-2.9876992953934325,-2.7843955495810775
1768731602720,124,-4,-2.541598011683092,-3.314100541943539,-2.939451399613031
1768731602724,124,-4,-2.731064800090691,-3.1321002594130247,-3.145110651629325
1768731602728,124,-4,-3.1238305990570208,-3.253575825162981,-3.553738645692346
1768731602732,123,-5,-3.699217554702515,-4.170410634201997,-4.145070808751884
1768731602736,122,-6,-4.2570744808963115,-5.075746805678422,-4.717163985276321
1768731602740,122,-6,-4.555006690969134,-5.310275870140863,-5.025676463798352
1768731602744,122,-6,-4.481090078557088,-5.061206957343096,-4.960537575553039
1768731602748,123,-5,-4.116639318295174,-4.386837098237335,-4.609221634854622
1768731602752,123,-5,-3.656786383369437,-3.981158900357806,-4.172255959619237
1768731602756,123,-5,-3.279378935567214,-4.30939810708662,-3.8257753398436134
1768731602760,123,-5,-3.0369476575621586,-4.092514330904444,-3.61245501856721
1768731602764,124,-4,-2.738331718381155,-3.2555537012519955,-3.329511359142759
1768731602768,125,-3,-1.7790420848498398,-2.2421000363071584,-2.3682933787595033
1768731602772,128,0,0.95149065600955,0.962768083259676,0.37381142684237
1768731602776,134,6,6.798882765349418,6.659755267962213,6.226677005943074
1768731602780,142,14,16.545906459827943,15.007069384058443,15.96020971877618
1768731602784,155,27,29.37513188448119,27.568300280762937,28.755609792784476
1768731602788,168,40,42.3301747129741,41.02191247896941,41.66657076413398
1768731602792,178,50,50.97227045309386,50.624063721053766,50.268465248074946
1768731602796,179,51,51.2178376684068,52.03840188037331,50.48813629308464
1768731602800,169,41,41.41324937768822,41.49361133402079,40.67547747854432
1768731602804,149,21,23.344297282174814,22.06904787124491,22.613390681259904
1768731602808,127,-1,1.4972541495173497,-0.5093055282758652,0.7798781023148078
1768731602812,106,-22,-18.940978293006967,-20.800622237730824,-19.65017711029989
1768731602816,93,-35,-34.07601631076434,-34.43742252644806,-34.793311525614214
1768731602820,85,-43,-42.238379682592374,-42.03245112616602,-42.982728383164066
1768731602824,83,-45,-43.7207164915053,-44.343646590205665,-44.50250090083816
1768731602828,86,-42,-39.95490044699605,-41.192875476688954,-40.77050042093627
1768731602832,93,-35,-32.81481415089267,-34.05146860115944,-33.6514592917407
1768731602836,102,-26,-24.256058266647976,-25.269265588940293,-25.101853035707578
1768731602840,110,-18,-16.095575039025558,-17.12061159215941,-16.94598494038345
1768731602844,117,-11,-9.72169138243187,-10.352363665393206,-10.57897414308859
1768731602848,121,-7,-5.775024197757263,-6.184005328551215,-6.643476553048492
1768731602852,122,-6,-4.033594162256883,-5.104340048980151,-4.915300194814247
1768731602856,122,-6,-3.668897897709009,-5.215196891634717,-4.563017646407735
1768731602860,122,-6,-3.7618523587837696,-5.117019914009826,-4.667370994663907
1768731602864,123,-5,-3.7435114524056847,-4.412808178866841,-4.66202118669459
1768731602868,123,-5,-3.494687393179293,-4.065806482854188,-4.4295369635852495
1768731602872,123,-5,-3.138240296781125,-4.306327152892543,-4.090814336095786
1768731602876,123,-5,-2.779195679574423,-3.938783152238363,-3.747011469232467
1768731602880,124,-4,-2.4012828301181752,-3.444800034572043,-3.3803942139950216
1768731602884,124,-4,-1.9313840782536429,-3.056848220433192,-2.9201741529520175
1768731602888,125,-3,-1.3536901208131695,-2.4504152121715093,-2.35381750262019
1768731602892,125,-3,-0.761336452617041,-1.9300819019711184,-1.775364636521665
1768731602896,126,-2,-0.3083094172603893,-1.2978806638650922,-1.336965001447611
1768731602900,126,-2,-0.1002236043964952,-1.1085889644913742,-1.1418641168671633
1768731602904,126,-2,-0.1050120304302004,-1.3694789218263792,-1.157339672633623
1768731602908,126,-2,-0.1527382540345958,-1.191997164703295,-1.214860148751488
1768731602912,126,-2,-0.0337803393357397,-1.1477829224862623,-1.106702571899938
1768731602916,126,-2,0.3636339771033046,-1.1280228259621172,-0.7217721770224519
1768731602920,127,-1,0.9703914740717776,-0.218872767936338,-0.1284704811166944
1768731602924,128,0,1.5763752124716937,0.6845447080700275,0.4641749141227792
1768731602928,128,0,1.9748775773185292,0.7816183309500264,0.8502475557597615
1768731602932,128,0,2.1044231216587614,0.8325657005614677,0.9687507751744556
1768731602936,128,0,2.078812688394203,0.9250718712826932,0.9335955675533726
1768731602940,128,0,2.0897750635939345,0.693309531573628,0.9359355180218792
1768731602944,128,0,2.267449058079933,0.8092072197488558,1.1045079142524528
1768731602948,129,1,2.6065685325632004,1.6052669629916214,1.4324953295046918
1768731602952,129,1,2.998386719714177,2.045791685280782,1.8109795137364693
1768731602956,129,1,3.314998351779975,1.6736058033264145,2.1140423185880115
1768731602960,129,1,3.4694883196534105,1.9693095693337896,2.257321973369609
1768731602964,130,2,3.4370365116709527,2.5122813816641285,2.2165904388872995
1768731602968,129,1,3.268882418171766,1.8901264369201645,2.041313518596617
1768731602972,129,1,3.0994243178492504,1.771193672090128,1.8637297806434556
1768731602976,129,1,3.107489832818499,1.9348579667992087,1.8619560402544515
1768731602980,129,1,3.423373090411671,1.715322281652773,2.1670835237579924
1768731602984,130,2,4.039342493341981,2.7488445933857895,2.772566087909846
1768731602988,131,3,4.799774475131036,3.663383279031685,3.523391208786636
1768731602992,131,3,5.489508084444534,3.974681733767554,4.204241085589118
1768731602996,132,4,5.957340625410175,4.756485083188015,4.663335984258297
1768731603000,132,4,6.183507038912444,4.8559250055361645,4.880503332364394
1768731603004,132,4,6.248798114969894,4.619491767917621,4.936825209825866
1768731603008,132,4,6.244160060775714,4.77340384949851,4.924085921659435
1768731603012,132,4,6.207047071609231,4.87611225028087,4.88018272721153
1768731603016,132,4,6.139979550343617,4.850545851689795,4.806941103046846
1768731603020,132,4,6.078202446190414,4.756416122958171,4.738176849364766
1768731603024,132,4,6.114698159816574,4.712425411378474,4.765990029234647
1768731603028,132,4,6.330940614672698,4.659389600353769,4.9724390927133335
1768731603032,132,4,6.6891748023583775,5.014064736852999,5.321400904193879
1768731603036,133,5,7.007642794739321,5.688502160591335,5.632451649070192
1768731603040,133,5,7.080633296578825,5.937595961246406,5.7000413945523105
1768731603044,133,5,6.8590190748703534,5.505466452282979,5.474217254534139
1768731603048,132,4,6.521103463554048,4.850667038896517,5.132043035111814
1768731603052,132,4,6.3425620453760425,4.84255657903856,4.948020551013699
1768731603056,132,4,6.452977840726649,4.822468065063119,5.05114841605742
1768731603060,132,4,6.6785924587509715,4.860452487582325,5.268023103633304
1768731603064,133,5,6.617571273844662,5.516744602503071,5.198008328229954
1768731603068,132,4,5.913301608594603,4.88372308099273,4.48628777816167
1768731603072,130,2,4.5218340890044555,2.7506235231644016,3.0906554345778017
1768731603076,128,0,2.764593279062468,0.940916256856572,1.3326032617335457
1768731603080,127,-1,1.1355893900887697,-0.2672934329335998,-0.2965222419550812
1768731603084,126,-2,0.020185251381984,-1.373891024228226,-1.41490623080546
1768731603088,125,-3,-0.4898394582557501,-2.18418954844039,-1.9318483269048707
1768731603092,125,-3,-0.6030815052594494,-2.2359389300020207,-2.0537939222551427
1768731603096,125,-3,-0.6805228512139143,-2.0264595311134395,-2.1388669828094775
1768731603100,125,-3,-1.0205265878054908,-2.3568303002685487,-2.484101549866547
1768731603104,124,-4,-1.6991600284262116,-3.2540154337556046,-3.165510678520528
1768731603108,123,-5,-2.560386239451931,-4.330422066379972,-4.02734341654801
1768731603112,122,-6,-3.3437532829568224,-5.085951491348722,-4.810122355200931
1768731603116,122,-6,-3.8364633822040055,-5.186941573171275,-5.303163077924157
1768731603120,122,-6,-3.948384594219188,-5.1898443620675145,-5.418239811828226
1768731603124,122,-6,-3.711181787073861,-5.431025320800369,-5.186735417180484
1768731603128,122,-6,-3.2621465259095297,-5.138694713621891,-4.743669690713169
1768731603132,123,-5,-2.825589929893849,-4.317874547543534,-4.3113636276503
1768731603136,123,-5,-2.646527513687736,-3.934050276598625,-4.134456757778007
1768731603140,123,-5,-2.8684816749052686,-4.467700808470891,-4.3569465340389995
1768731603144,122,-6,-3.430804968290812,-5.136871463597841,-4.918641099547986
1768731603148,122,-6,-4.072243395930789,-5.445148970300378,-5.558944508599426
1768731603152,121,-7,-4.454137897057958,-6.042003122896619,-5.940204567731195
1768731603156,121,-7,-4.337904764150815,-6.175539709651898,-5.824625237539923
1768731603160,122,-6,-3.716622688645133,-5.268451107140907,-5.2054706587582835
1768731603164,123,-5,-2.8193405168272183,-4.270121313543043,-4.311406792235756
1768731603168,124,-4,-1.982834300258766,-3.395144770695264,-3.4780819639242657
1768731603172,124,-4,-1.477705228660547,-3.036514087299939,-2.974284869775942
1768731603176,124,-4,-1.3994674881589342,-3.2546472484938236,-2.894301977321558
1768731603180,124,-4,-1.667102997941201,-3.141078966015159,-3.1580330770270275
1768731603184,124,-4,-2.091840018734429,-3.418783317855298,-3.5793886239440527
1768731603188,123,-5,-2.464758541639863,-4.251365814202976,-3.9514363811460367
1768731603192,123,-5,-2.638876194350611,-4.177421667792643,-4.126620785449422
1768731603196,123,-5,-2.585653509905757,-4.137911757271095,-4.074067642343088
1768731603200,123,-5,-2.3923774976136354,-4.245693079118336,-3.879427048982932
1768731603204,124,-4,-2.187746228358956,-3.3092330124979723,-3.671867924564909
1768731603208,124,-4,-2.0438337593613927,-3.3764214331028444,-3.5250766586617104
1768731603212,123,-5,-1.9398436734692648,-4.054552369420222,-3.4191543987603876
1768731603216,124,-4,-1.823161277797949,-3.2891488171278405,-3.3010761041160963
1768731603220,124,-4,-1.7014618131848456,-3.071290910866605,-3.177489441684806
1768731603224,124,-4,-1.6636339626428374,-3.5063456003982534,-3.136483856574795
1768731603228,124,-4,-1.8004905394840396,-3.1480157629664984,-3.2689568139406413
1768731603232,124,-4,-2.0960239215277854,-3.325445121030892,-3.5599146828928356
1768731603236,123,-5,-2.397282198568658,-4.0254713462482155,-3.8573022455367663
1768731603240,123,-5,-2.5160288463505465,-4.323260012637363,-3.9727332241433153
1768731603244,123,-5,-2.39313014161364,-4.2702291095542755,-3.8465003289676094
1768731603248,124,-4,-2.171529704276652,-3.3571427794979396,-3.621534669135501
1768731603252,124,-4,-2.0904841443078004,-3.147560964826467,-3.5371104904506323
1768731603256,123,-5,-2.288335430135008,-4.208396753878679,-3.730655269901875
1768731603260,123,-5,-2.6914828843330945,-4.151980024076272,-4.1275361075459225
1768731603264,123,-5,-3.076088154229269,-4.432635246664239,-4.504488675569505
1768731603268,122,-6,-3.232766634493926,-5.210883869862699,-4.654262520251294
1768731603272,123,-5,-3.098636390206034,-4.274826749884352,-4.515578856082424
1768731603276,123,-5,-2.7711218981792314,-4.104514161123641,-4.185119339234283
1768731603280,123,-5,-2.4142562630658446,-4.2665383185714445,-3.8243355664868313
1768731603284,124,-4,-2.1342275581692114,-3.2988324564519456,-3.537503487151175
1768731603288,124,-4,-1.903478039161897,-3.37904182694759,-3.297688274724879
1768731603292,124,-4,-1.576648339922376,-3.085963194294364,-2.961805021990815
1768731603296,125,-3,-0.9956782362800428,-2.3118014251813648,-2.3733009510850325
1768731603300,125,-3,-0.1256760676903789,-2.0694248505240784,-1.4970297464001718
1768731603304,127,-1,0.8787105149692458,-0.4858602197454482,-0.4867665754402315
1768731603308,128,0,1.7461266413447318,0.797259466538953,0.3865503580247466
1768731603312,128,0,2.2584550098663563,0.7382442482107994,0.9052697532722532
1768731603316,128,0,2.3820088361801144,0.8472141650993641,1.0368103153975414
1768731603320,128,0,2.2591186201015168,0.7712276644904503,0.9242737345161433
1768731603324,128,0,2.0897256973466347,0.6430420523768632,0.7666707580140776
1768731603328,128,0,2.0133307945111634,0.7122658801728454,0.7011982942176211
1768731603332,128,0,2.064168455064717,0.7822832139492373,0.7603548200952448
1768731603336,128,0,2.1875927794681327,0.838045454931695,0.8898950508340645
1768731603340,128,0,2.2705122636484445,0.7251724351693027,0.9789071607784134
1768731603344,128,0,2.171240929911372,0.7153829872466857,0.8877978171287801
1768731603348,128,0,1.7716476316184129,0.614272620224902,0.4989909311456766
1768731603352,127,-1,1.0540933420275542,-0.0904459081767934,-0.2059580702033482
1768731603356,126,-2,0.1486529453853613,-1.3218097140945435,-1.0982188627295484
1768731603360,125,-3,-0.7126218273491891,-2.114835751119766,-1.9470546728655629
1768731603364,125,-3,-1.3280667646934703,-2.4622825831423545,-2.552026505914764
1768731603368,124,-4,-1.660837993243302,-3.1981467634673786,-2.8766500554399843
1768731603372,124,-4,-1.8780200903919937,-3.263940104617838,-3.0867350187439224
1768731603376,124,-4,-2.2537147476405615,-3.167127940304142,-3.4538393781933454
1768731603380,123,-5,-2.984949834534312,-4.277622140589174,-4.17274564431418
1768731603384,122,-6,-4.038435494026428,-5.330346965894361,-5.210167119841983
1768731603388,121,-7,-5.1366563796872695,-6.302374330461335,-6.291651978412361
1768731603392,120,-8,-5.901897171071545,-7.178712995550334,-7.043645268135111
1768731603396,120,-8,-6.076984348621021,-7.234997039670775,-7.210275101866949
1768731603400,120,-8,-5.6924449574582665,-7.228668408197069,-6.818544110767882
1768731603404,121,-7,-5.064876751756572,-6.405325968549131,-6.179615613230877
1768731603408,122,-6,-4.598690086511705,-5.185110803407589,-5.695880988283239
1768731603412,122,-6,-4.5104901137550915,-5.3475235536878705,-5.5876838838242495
1768731603416,121,-7,-4.695148963468101,-6.021159632309178,-5.75665878257493
1768731603420,121,-7,-4.860579147575983,-6.503137210695515,-5.915245998355343
1768731603424,121,-7,-4.80132980314303,-6.133221561048236,-5.856007459702531
1768731603428,122,-6,-4.509366288066737,-5.4215813158626665,-5.561837804833422
1768731603432,122,-6,-3.94182326190555,-5.152541857332095,-4.978916611338793
1768731603436,124,-4,-2.599928456622183,-3.1381454036556775,-3.604777068869787
1768731603440,128,0,0.6587144503581501,0.4940285643070435,-0.3059335348084597
1768731603444,133,5,7.18570716317687,5.946312071530472,6.252792784214076
1768731603448,143,15,17.493569215603227,15.443509928526526,16.57202578384531
1768731603452,155,27,30.178311201056577,28.05725896573374,29.248702451201947
1768731603456,168,40,41.705530238711056,40.63387319971719,40.76053621301586
1768731603460,175,47,47.57730612572267,47.66328642098704,46.6246892270829
1768731603464,172,44,44.448591771671346,44.78162316616046,43.50639238593141
1768731603468,159,31,31.95004369490197,31.476115378404593,31.03810809502192
1768731603472,138,10,13.027257418915756,11.103606517414793,12.158670874314314
1768731603476,118,-10,-7.42948373427272,-9.522937347731572,-8.254443879569063
1768731603480,101,-27,-24.75564119024077,-26.043632592909088,-25.550026525555072
1768731603484,91,-37,-36.1610853092706,-36.53053990345878,-36.94436904774262
1768731603488,86,-42,-41.099576799932336,-41.10931502882373,-41.88632978297984
1768731603492,86,-42,-40.57406762167107,-41.332017610495306,-41.36597638068272
1768731603496,90,-38,-36.16669082595445,-37.13395113130437,-36.953790484967705
1768731603500,97,-31,-29.438615383663393,-30.43824868458598,-30.20775298195712
1768731603504,104,-24,-21.804016696947475,-23.173592430463245,-22.547140204210027
1768731603508,112,-16,-14.570347100426602,-15.413351075353797,-15.287331575396962
1768731603512,118,-10,-8.826363219912945,-9.0722156412783,-9.522406236143016
1768731603516,122,-6,-5.1556312021374575,-5.428443435848846,-5.836056879527867
1768731603520,123,-5,-3.439628803468482,-4.1807304032845485,-4.1054678258084705
1768731603524,123,-5,-3.0038692708752466,-4.422993479264553,-3.6514222815272905
1768731603528,123,-5,-3.05621188586682,-4.146148957031338,-3.681344800380845
1768731603532,124,-4,-3.088995805011902,-3.309319563464681,-3.692214771754797
1768731603536,124,-4,-2.9685896027606726,-3.2429285796345795,-3.555261090006901
1768731603540,124,-4,-2.7501932251782755,-3.3452447323032684,-3.3251557296544423
1768731603544,124,-4,-2.4774266405521255,-3.2975074763317775,-3.0397066595342452
1768731603548,124,-4,-2.142451378588728,-3.225219290628894,-2.6859639425528483
1768731603552,125,-3,-1.748188501836882,-2.2626980670531154,-2.267708442789756
1768731603556,126,-2,-1.321989002285874,-1.2723265661640055,-1.8178728783519216
1768731603560,126,-2,-0.8550224299403961,-1.3619253141031726,-1.3318394819129704
1768731603564,126,-2,-0.2815672491648395,-1.2551281872092117,-0.7428987870510613
1768731603568,127,-1,0.4337009215001628,-0.2891255823056288,-0.0117443660661173
1768731603572,128,0,1.195821523312727,0.8186021030502169,0.7691157085770791
1768731603576,129,1,1.807577733781454,1.6231350577745027,1.401893908900442
1768731603580,129,1,2.1238142822505575,1.7478676045921897,1.7396061625628112
1768731603584,129,1,2.1814326110393885,1.6145968100358594,1.817832897017221
1768731603588,129,1,2.171837150217147,1.8411212765022285,1.8275351520853664
1768731603592,129,1,2.273459998133448,1.6907253769704904,1.947466975823229
1768731603596,129,1,2.491609059183254,1.7306069908601531,2.1838035472015203
1768731603600,130,2,2.6544720922349185,2.670821965703591,2.3655934146608772
1768731603604,130,2,2.584933086529441,2.644508379364848,2.316218485727438
1768731603608,129,1,2.3033922914227016,1.8413978647155116,2.0562575928569204
1768731603612,129,1,2.0703114743237347,1.6521623153541816,1.8457239825837144
1768731603616,129,1,2.2142743498081656,1.7842083001617133,2.011717950012102
1768731603620,130,2,2.8837797307472472,2.603718526372367,2.701049617646276
1768731603624,131,3,3.922568165335732,3.7219698642242647,3.7573190913654897
1768731603628,132,4,4.961254903021666,4.7593606037981315,4.813074812156253
1768731603632,133,5,5.654522886727927,5.716574704119052,5.525434222706178
1768731603636,133,5,5.896074112639429,5.719807724501091,5.7890306400819815
1768731603640,133,5,5.865587002908027,5.635828634889908,5.782459570448394
1768731603644,133,5,5.8817048421025815,5.7227993385296365,5.822298200790618
1768731603648,133,5,6.1723630132033085,5.727222985496235,6.1347244250876445
1768731603652,134,6,6.730111561917412,6.766975827002344,6.711630382549014
1768731603656,135,7,7.348198426194205,7.65693805207218,7.347184564195505
1768731603660,135,7,7.786652148568044,7.675437410498761,7.803793248280631
1768731603664,135,7,7.925082857085023,7.716118668958714,7.963260689770278
1768731603668,135,7,7.802889982852529,7.676434468785281,7.86472328898938
1768731603672,135,7,7.561575794018994,7.862194515129062,7.646991266816022
1768731603676,135,7,7.357278127566952,7.509860630235983,7.464060250532459
1768731603680,134,6,7.286257756813757,6.862391641135788,7.412869080354359
1768731603684,135,7,7.3460264804289075,7.495902270019281,7.493036051364792
1768731603688,135,7,7.458611666226219,7.906790966323738,7.627287951235305
1768731603692,135,7,7.547388685119171,7.619171450573146,7.737837778324135
1768731603696,135,7,7.596335960649725,7.739884529711334,7.807518357574585
1768731603700,135,7,7.627669553419548,7.662355008091003,7.858794046282575
1768731603704,135,7,7.625767761757458,7.624869163071478,7.877240659299751
1768731603708,135,7,7.503744093875937,7.857663181336709,7.776850321477587
1768731603712,135,7,7.169016790616799,7.564680587192853,7.464846877937491
1768731603716,134,6,6.635734247227896,6.896689344108838,6.954332476157262
1768731603720,134,6,6.067956696624139,6.403690183901336,6.408393880149995
1768731603724,133,5,5.686297785195314,5.946685983863847,6.047634143153131
1768731603728,133,5,5.5936267326813915,5.483720708315148,5.975729716917847
1768731603732,133,5,5.66591838392002,5.955453793105626,6.069047488251953
1768731603736,134,6,5.6210900056776305,6.527774343482365,6.044892173680459
1768731603740,133,5,5.225366059547055,5.715196678511074,5.669121349214111
1768731603744,132,4,4.459246514532798,4.687415953517742,4.923369742623375
1768731603748,131,3,3.499954952399462,3.658739651064708,3.986410255410282
1768731603752,130,2,2.560103879262064,2.8360548209649377,3.0705881999516524
1768731603756,130,2,1.7495043471327627,2.6200776423615526,2.283508526079688
1768731603760,129,1,1.0662833378014258,1.6364441373069183,1.6214962701410085
1768731603764,128,0,0.4715435282516318,0.7666634054993104,1.0459934531637414
1768731603768,128,0,-0.0597210295015244,0.5298367818998891,0.5336952092788789
1768731603772,127,-1,-0.5511038938791695,-0.0017536683550718,0.062369182324835
1768731603776,127,-1,-1.0551845832403115,-0.5756763496842148,-0.4201956407734704
1768731603780,126,-2,-1.643139794553936,-1.127817613939546,-0.9856504244131374
1768731603784,126,-2,-2.342461360404081,-1.4981229603931483,-1.6625259558557728
1768731603788,125,-3,-3.072248941946289,-2.2379072993542612,-2.3707794113958003
1768731603792,124,-4,-3.651625632101057,-3.20120008204537,-2.9293168003354637
1768731603796,124,-4,-3.9069623679959182,-3.43174582164292,-3.163559369275268
1768731603800,124,-4,-3.802623750007821,-3.1848038949604205,-3.0377004013172084
1768731603804,125,-3,-3.476280794518208,-2.533986251851119,-2.690553718213882
1768731603808,125,-3,-3.1419390012376733,-2.149119452211988,-2.337028134728365
1768731603812,125,-3,-2.9514680470036447,-2.343117405866425,-2.127951004460648
1768731603816,125,-3,-2.9350428703789797,-2.2786916016514516,-2.091187411889907
1768731603820,125,-3,-3.044182036458534,-2.310870831239314,-2.17733970202768
1768731603824,125,-3,-3.217203799091256,-2.473376623453444,-2.3267152346457927
1768731603828,125,-3,-3.39229232684418,-2.149694776654321,-2.480548966487729
1768731603832,125,-3,-3.486877046147983,-2.415835255742028,-2.5568733686676053
1768731603836,124,-4,-3.416539578245722,-3.154193042667476,-2.4685441340952763
1768731603840,125,-3,-3.162956622002011,-2.461908443012768,-2.194463967679465
1768731603844,126,-2,-2.803937542505722,-1.3363314023879735,-1.812934620291322
1768731603848,126,-2,-2.444910319221555,-1.262311280285336,-1.4320860308230532
1768731603852,126,-2,-2.1258214302824148,-1.3598806724668844,-1.0932403361525769
1768731603856,126,-2,-1.8242209018825517,-1.1401804657603505,-0.7730196672711473
1768731603860,127,-1,-1.5523858309377958,-0.5751448889384937,-0.4824859422673728
1768731603864,127,-1,-1.4206296532245393,-0.1406755032512507,-0.3317025573913018
1768731603868,127,-1,-1.5757474258870463,-0.5353780956425656,-0.4673351118746425
1768731603872,126,-2,-2.0632308663667596,-1.03133401129015,-0.9342956946383796
1768731603876,126,-2,-2.738189172456339,-1.5065234904055833,-1.5876042311968526
1768731603880,125,-3,-3.306939388179016,-2.22684430939371,-2.134675272586029
1768731603884,125,-3,-3.4839433654312577,-2.4661930876120977,-2.291409722359052
1768731603888,125,-3,-3.167568715766933,-2.2403165594566863,-1.9567308054412935
1768731603892,126,-2,-2.513801516164386,-1.2842825059366172,-1.2860300824487998
1768731603896,127,-1,-1.8471199200011048,-0.2969596699937785,-0.6025046603752077
1768731603900,127,-1,-1.4667105248011028,-0.4267077212265867,-0.2040408383263991
1768731603904,127,-1,-1.4853727149350169,-0.2998716136455823,-0.2029355194670976
1768731603908,127,-1,-1.8035177586708648,-0.3805683293671332,-0.5002970429743847
1768731603912,126,-2,-2.2132245388361693,-1.179464875771557,-0.8894592371187808
1768731603916,126,-2,-2.54323774445294,-1.3623794475581097,-1.2000469632656052
1768731603920,126,-2,-2.7424016246266847,-1.4206419065757276,-1.3811951379874794
1768731603924,126,-2,-2.8546514621269856,-1.2636071022616215,-1.476584796281879
1768731603928,126,-2,-2.93059758113417,-1.4600945650601196,-1.5358220733554484
1768731603932,125,-3,-2.971241612410847,-2.0626965083447155,-1.5586108501718734
1768731603936,126,-2,-2.949770296304922,-1.5216231540117566,-1.5179389109369668
1768731603940,126,-2,-2.865125408143149,-1.2467577228072968,-1.4141361999825297
1768731603944,126,-2,-2.759638598793042,-1.4627448015947897,-1.2909938424109173
1768731603948,126,-2,-2.691718070587788,-1.244170841846654,-1.2068007141633896
1768731603952,126,-2,-2.7000334695805535,-1.2815172822783958,-1.1988373831340458
1768731603956,126,-2,-2.783378646090364,-1.3341481447580634,-1.264860843443243
1768731603960,126,-2,-2.894790459576329,-1.4121446805726083,-1.3581115267067478
1768731603964,126,-2,-2.947724212021873,-1.3454175076669324,-1.392906227059126
1768731603968,126,-2,-2.842351689730201,-1.3021058198453188,-1.2699449660696849
1768731603972,126,-2,-2.512605564004605,-1.284431508473233,-0.923258758871367
1768731603976,127,-1,-1.9681801337341271,-0.2887254726585559,-0.3627771164715478
1768731603980,128,0,-1.2959287145429212,0.4811010678750395,0.3244364224097863
1768731603984,128,0,-0.6175171058902353,0.8045319657171754,1.0174430459821473
1768731603988,129,1,-0.0379852878566654,1.5140858036321276,1.6127245544499895
1768731603992,129,1,0.387212085016779,1.9249525041556497,2.055442924387674
1768731603996,130,2,0.6686201584725384,2.453294682871632,2.3548263633482627
1768731604000,130,2,0.881163425768636,2.762356824197224,2.583901348049052
1768731604004,130,2,1.1217392754876836,2.4966053468452283,2.8391496980596673
1768731604008,130,2,1.4278506270484186,2.847079014597901,3.1591943771322857
1768731604011,131,3,1.721583782089443,3.569641738711635,3.4671197227363875
1768731604015,131,3,1.8490789122096785,3.802354225767115,3.609185205069729
1768731604020,131,3,1.696255577247436,3.4033658759463123,3.4713146662916663
1768731604024,130,2,1.2770297593529636,2.8607559821213604,3.0676568883354696
1768731604028,130,2,0.7167674251170449,2.4695902107268655,2.5232586090698996
1768731604032,129,1,0.1544850773664358,1.9501358337307184,1.9760235015047511
1768731604035,129,1,-0.3520564448934711,1.4002644968520002,1.4829104531529365
1768731604039,128,0,-0.8528944738778731,0.8170328423327979,0.9943339702214604
1768731604044,128,0,-1.4521920006377211,0.4390601771552039,0.4074039152537051
1768731604048,127,-1,-2.2126400327727147,-0.1158756250492305,-0.3395166466648397
1768731604052,126,-2,-3.087136163306776,-1.462426468216136,-1.1991290489245272
1768731604056,125,-3,-3.9323253671053497,-2.2239741741485775,-2.0289774990677305
1768731604059,125,-3,-4.594243129793214,-2.5191454153984383,-2.676789869690861
1768731604063,124,-4,-4.999250049648245,-3.2739626475413734,-3.070190147325755
1768731604068,124,-4,-5.186934359037575,-3.355513698619295,-3.2482733193829803
1768731604072,124,-4,-5.267678378568341,-3.267966281152041,-3.319167996571016
1768731604076,124,-4,-5.3337785120394265,-3.4153805640098747,-3.372616914496244
1768731604080,124,-4,-5.38361519612917,-3.3262543722347533,-3.4060561595541214
1768731604083,124,-4,-5.3191382980437565,-3.488089393473792,-3.3234349398167815
1768731604087,124,-4,-5.031550053855407,-3.118865303179016,-3.0206384537221407
1768731604092,125,-3,-4.519231110233367,-2.532548937393753,-2.500754867067437
1768731604096,125,-3,-3.937967463230165,-2.1560473364267168,-1.9201614223982948
1768731604100,126,-2,-3.5015360139841825,-1.5731689808879292,-1.4866687370609482
1768731604104,126,-2,-3.2297605390843485,-1.2777926782735092,-1.2098943629159309
1768731604107,127,-1,-2.658994662173404,-0.2846071260805048,-0.6185314389770102
1768731604111,129,1,-0.7355102241453024,1.5644839957157806,1.339283792704482
1768731604116,133,5,3.887314857377248,5.808079969892216,5.997370424764001
1768731604120,142,14,12.106585061336103,14.402389163724886,14.236223946015988
1768731604124,152,24,23.456546511033388,24.82863900018393,25.581569909773563
1768731604128,164,36,35.572216679459615,36.53591451823709,37.67513952184249
1768731604131,174,46,44.57949698427572,46.80025142616421,46.6605382279455
1768731604135,177,49,46.5413210837128,49.47069954708023,48.617449638909534
1768731604140,170,42,39.37327944062251,42.73864743397113,41.46753009950984
1768731604144,154,26,24.122807985264316,26.453029547510987,26.251967836711856
1768731604148,133,5,4.714635906435136,5.848597507242626,6.881931239818557
1768731604152,115,-13,-13.799460578344052,-12.43099106210006,-11.604454610698491
1768731604155,101,-27,-27.452456003833895,-26.344307241507092,-25.247912409278022
1768731604159,95,-33,-34.72506207127517,-32.28308858470152,-32.52808684449633
1768731604164,95,-33,-36.406797322605826,-32.57670749580252,-34.22536255551714
1768731604168,95,-33,-34.364909856182486,-32.0675426852072,-32.19424350831771
1768731604172,99,-29,-30.264966840738893,-28.635208600511167,-28.091181824991388
1768731604176,104,-24,-25.050068207509646,-23.11071968713226,-22.85963340328824
1768731604179,110,-18,-19.20834191451671,-17.56675863428346,-16.996635893476792
1768731604183,116,-12,-13.270915099067365,-11.232575746663368,-11.043515360269652
1768731604188,122,-6,-7.989496988665786,-5.426266775219849,-5.756491757972247
1768731604192,126,-2,-4.0757937479296,-1.3519252317499637,-1.8443964655359824
1768731604196,128,0,-1.8117602632740084,0.630085643709986,0.4179732329339867
1768731604200,128,0,-0.9251663795916104,0.6255674247371557,1.3089939285949566
1768731604203,128,0,-0.8380390775624451,0.6686628253763973,1.4071235915635243
1768731604207,129,1,-1.0361046040632167,1.6171723432736538,1.2211490811628505
1768731604212,129,1,-1.2418733463055451,1.6270744135770592,1.0224506349831604
1768731604216,128,0,-1.337188896857656,0.5996736176630084,0.928399404334359
1768731604220,128,0,-1.2344986184989937,0.693987101309491,1.0309818770129169
1768731604224,129,1,-0.8664460489920667,1.5784251785430157,1.4017358291696187
1768731604227,129,1,-0.2634657548867163,1.7408608941703776,2.0101408193942625
1768731604232,130,2,0.413414274907486,2.4457493375968062,2.6920358028486966
1768731604236,131,3,0.950499808568886,3.8073591410377983,3.2316415185142877
1768731604240,131,3,1.2129779746150886,3.4513749511147287,3.495633217599509
1768731604244,130,2,1.2189142370589412,2.8391780365657016,3.505356686351913
1768731604248,131,3,1.1080646420790647,3.488909825261286,3.4012009800814686
1768731604251,131,3,1.0595109583763436,3.638796503502967,3.3587263406773493
1768731604256,131,3,1.2200403701229234,3.6646385732425295,3.5210760057296917
1768731604260,131,3,1.6382985435870825,3.539530293315188,3.937569683297848
1768731604264,131,3,2.2042458976220356,3.80536871157641,4.501997429992659
1768731604268,133,5,2.6722903903450477,5.473302258101735,4.9710543060728
1768731604272,133,5,2.8259230760713736,5.663142786787425,5.127438919803224
1768731604275,132,4,2.6776475760933276,4.625392558591786,4.982409625184503
1768731604280,132,4,2.503614872122644,4.575376826162267,4.8120585829527185
1768731604284,132,4,2.6503401151215265,4.780843437584174,4.962437544784549
1768731604288,133,5,3.273081963526447,5.457111366200176,5.586697933725568
1768731604292,134,6,4.219315268667724,6.717000461631806,6.53048506909543
1768731604296,135,7,5.125595346199107,7.542033229804841,7.431578386706777
1768731604299,135,7,5.6287568556298835,7.669308461238285,7.930764781581923
1768731604304,135,7,5.549635651516801,7.671147166734189,7.851929042668139
1768731604308,135,7,4.973171068091014,7.533072429783833,7.2793100674384545
1768731604312,134,6,4.213410680195743,6.662949742971887,6.5236575034556745
1768731604316,133,5,3.6734028806190353,5.590218511755242,5.985324366489726
1768731604320,133,5,3.645878549468732,5.61739032769167,5.956258421551851
1768731604323,134,6,4.162242740917898,6.730168747172477,6.468274535753375
1768731604328,135,7,4.9915980239961835,7.427236549514683,7.291822908194896
1768731604332,135,7,5.783843507384829,7.813983617139806,8.079185735231
1768731604336,136,8,6.2536247889535215,8.410008444412533,8.5469719421314
1768731604340,136,8,6.306411058766919,8.792401056197349,8.600258426549907
1768731604344,136,8,6.062009290879429,8.554109750111955,8.356545610221804
1768731604347,135,7,5.768247390664453,7.551350633843549,8.06178044759049
1768731604352,135,7,5.643254529531283,7.759541543940549,7.933814558229836
1768731604356,136,8,5.743875821250559,8.400608110298329,8.030098523835857
1768731604360,135,7,5.95311567997277,7.856083042267002,8.234236589381219
1768731604364,136,8,6.0870358647064124,8.425651570719097,8.36274681067998
1768731604368,136,8,6.030919359946057,8.704113050236566,8.301534855323649
1768731604371,135,7,5.804286058447774,7.591331921285828,8.071053687065682
1768731604376,135,7,5.521058068318215,7.560471530442607,7.785697319917679
1768731604380,135,7,5.3007084784882155,7.724706225073173,7.5637950036589325
1768731604384,135,7,5.215881425913681,7.487455006802399,7.475694133783768
1768731604388,135,7,5.296098741833794,7.701610950545914,7.549751492771778
1768731604392,135,7,5.5327748052158245,7.544067964268496,7.77868570141697
1768731604395,135,7,5.851699042557887,7.629859246428223,8.09056977976228
1768731604400,136,8,6.0997284395534015,8.646799421337903,8.33314376085503
1768731604404,136,8,6.10517004933266,8.53500500298097,8.333905139244628
1768731604408,135,7,5.784661371429552,7.674518842495039,8.008545432760606
1768731604412,135,7,5.198622112963633,7.552104550684245,7.417277282675018
1768731604416,134,6,4.4982833575765735,6.620819443602017,6.711316069798827
1768731604419,133,5,3.808243643133641,5.64429206756129,6.014875205918851
1768731604424,133,5,3.1417499606012163,5.533350395953175,5.340792835528328
1768731604428,132,4,2.4129937980095653,4.679692462519318,4.6035972661555835
1768731604432,131,3,1.5288258575640423,3.539527559783606,3.7113147530962953
1768731604436,130,2,0.4833380195513339,2.63009021862732,2.6589978233459566
1768731604440,129,1,-0.6112539465005766,1.6151118895666527,1.5585500408707909
1768731604443,128,0,-1.5717035079725843,0.5579305588637794,0.5919860967048369
1768731604448,127,-1,-2.2379366722010063,-0.331962679697401,-0.0815374637095767
1768731604452,127,-1,-2.558023104523605,-0.4650993789035594,-0.4101545714119194
1768731604456,127,-1,-2.607890062963089,-0.3540980935814257,-0.4693440693809884
1768731604460,127,-1,-2.5325377893713337,-0.4328730334175926,-0.4034808544776558
1768731604464,127,-1,-2.4567231633887574,-0.3860495663015634,-0.3366936194396464
1768731604467,127,-1,-2.4317628414492463,-0.3924835735179883,-0.3200320157552574
1768731604472,127,-1,-2.4441460348228303,-0.4143087704592718,-0.3403577444915929
1768731604476,127,-1,-2.459445041821474,-0.401896264559439,-0.3639486167612625
1768731604480,127,-1,-2.4589658927177545,-0.4114912391059513,-0.3725025704120936
1768731604484,127,-1,-2.446997541935603,-0.3951731604004613,-0.3701206837304649
1768731604488,127,-1,-2.4354047615233636,-0.3958142381263967,-0.3682586340468146
1768731604491,127,-1,-2.4269151054319416,-0.4066675618955014,-0.3695191722433391
1768731604496,127,-1,-2.4134616563795084,-0.4237576395003997,-0.3660627995878311
1768731604500,127,-1,-2.389474389068334,-0.3998266910838915,-0.352489787315694
1768731604504,127,-1,-2.3653587955987905,-0.4060417927828934,-0.3389577616118319
1768731604508,127,-1,-2.3642550271911182,-0.3936518447898185,-0.3481241879848145
1768731604511,127,-1,-2.3981143610540108,-0.398914785906922,-0.3917961804063301
1768731604515,127,-1,-2.439785969162012,-0.4596840178934209,-0.4432564770149931
1768731604520,127,-1,-2.4206834917063405,-0.3547509631652051,-0.4344544614245236
1768731604524,127,-1,-2.2716711196579964,-0.4726348637194033,-0.296349255786833
1768731604528,127,-1,-1.985670445973455,-0.3120154701846482,-0.0217316374854807
1768731604532,128,0,-1.6454343588897968,0.5045676515291131,0.3064903830340004
1768731604535,128,0,-1.3771630856640489,0.6397193770249463,0.5620115667655081
1768731604539,128,0,-1.258951951071108,0.5182136646104317,0.6675354843394519
1768731604544,128,0,-1.2595463589968785,0.6753478093906975,0.6557843842137936
1768731604548,128,0,-1.2532819399163238,0.4999242619437701,0.6529646973154639
1768731604552,128,0,-1.0910076097902406,0.7323293801782276,0.806697722224587
1768731604556,129,1,-0.6773565174423792,1.3616736294565637,1.20972608387665
1768731604559,129,1,-0.0257732189213835,1.835418495161562,1.8473519664112967
1768731604563,130,2,0.7130583853367618,2.310813721705295,2.570336780762574
1768731604568,130,2,1.265674756027436,2.8932376219772875,3.1078887045000747
1768731604572,131,3,1.3280677838287325,3.308839089620297,3.157325685370316
1768731604576,130,2,0.7294429787816792,2.7857632097135023,2.547243853255289
1768731604580,129,1,-0.4291392294256455,1.4151799696647092,1.3777816815334774
1768731604583,127,-1,-1.7850705621343683,-0.3068855516574453,0.0113562864804448
1768731604587,126,-2,-2.89179078264413,-1.4518073345262823,-1.1058648702584866
1768731604592,126,-2,-3.438583208386342,-1.4034552578286592,-1.664528721904689
1768731604596,126,-2,-3.3637351659024124,-1.4328091307023445,-1.603951390171421
1768731604600,126,-2,-2.823317359072007,-1.431885952644735,-1.0793601857219937
1768731604604,127,-1,-2.0830884201042976,-0.4069541308392661,-0.3545999622946765
1768731604607,128,0,-1.407364444894958,0.5714402679950341,0.307022491141186
1768731604611,128,0,-0.980149419811256,0.618052866017195,0.7212049998351764
1768731604616,128,0,-0.8733460652517697,0.5032398501248961,0.8154052411728657
1768731604620,128,0,-1.0567064739609846,0.6732568975664811,0.6194054622461922
1768731604624,128,0,-1.4209156037872768,0.4307493005558631,0.2422937521389048
1768731604628,127,-1,-1.7986447052306989,-0.2382873114259773,-0.1483661212427143
1768731604631,127,-1,-2.0016966208918276,-0.6086001470450341,-0.3640192076537449
1768731604635,127,-1,-1.884598645134272,-0.2404911368378578,-0.2596922139267993
1768731604640,128,0,-1.4070593698297285,0.4051833717947524,0.2035905019110979
1768731604644,128,0,-0.6605077456589312,0.682993361238253,0.933799421116978
1768731604648,129,1,0.1538959878173076,1.5177581220975054,1.730936675634952
1768731604652,130,2,0.7971426603174665,2.5952479726658826,2.358139524741411
1768731604655,130,2,1.1035365126370378,2.600910157195331,2.651209900293817
1768731604659,130,2,1.083580436332274,2.505312471410387,2.6203881458743385
1768731604664,130,2,0.9460472511007268,2.634354005963782,2.47247434537152
1768731604668,130,2,0.998058228982277,2.486642582906461,2.512279541282182
1768731604672,130,2,1.4561835156073375,2.6859063190566204,2.9554109422200425
1768731604676,131,3,2.2755975731490223,3.4656814804539913,3.757696155405457
1768731604679,132,4,3.126703270111135,4.67700611161452,4.590757329659546
1768731604683,133,5,3.5686313662239986,5.42965909098751,5.0150189596754124
1768731604688,132,4,3.316174629099536,4.684052111579297,4.746965587086898
1768731604692,131,3,2.41058898544299,3.4774199717726604,3.829248529811084
1768731604696,130,2,1.1838533610581088,2.662920406561227,2.593135026790021
1768731604700,129,1,0.0667426609742376,1.4977648152252905,1.466257639068632
1768731604703,128,0,-0.625416669414114,0.5806449582254031,0.7606817729071141
1768731604707,128,0,-0.8248300642340199,0.5651468717499746,0.5434420179164476
1768731604712,128,0,-0.7203381382246483,0.5477114128766384,0.6278505988212225
1768731604716,128,0,-0.6504622607087289,0.622369311950849,0.6787541428047569
1768731604720,128,0,-0.9269791765203816,0.5124927166585851,0.386813775255804
1768731604724,127,-1,-1.668913917186003,-0.4333145180858779,-0.3667782417758365
1768731604727,126,-2,-2.7317108273721487,-1.4270585003892418,-1.439414568574331
1768731604732,125,-3,-3.776954929258405,-2.483827894321286,-2.495491480840708
1768731604736,124,-4,-4.456084084327085,-3.333815886816682,-3.1883789887933727
1768731604740,124,-4,-4.611238556032217,-3.540171410150484,-3.360416337000264
1768731604744,124,-4,-4.368616828169026,-3.3714264180499955,-3.1367386007896347
1768731604748,125,-3,-4.049948734807387,-2.5032895416711765,-2.837287739799058
1768731604751,125,-3,-3.951903256700525,-2.417762162149682,-2.756002632847629
1768731604756,124,-4,-4.154172325934635,-3.404481399188873,-2.9696354881042986
1768731604760,124,-4,-4.497733577149265,-3.4884971432932135,-3.3191293766365706
1768731604764,124,-4,-4.730163511602113,-3.400456971437388,-3.557462884305874
1768731604768,124,-4,-4.694391863234097,-3.5216390273791105,-3.5357402728215908
1768731604772,124,-4,-4.440339062457193,-3.3455755531743425,-3.3077245077762116
1768731604775,124,-4,-4.197815257066021,-3.5404918909401615,-3.097779607121043
1768731604780,124,-4,-4.181373161403496,-3.3076902562924277,-3.108122858211441
1768731604784,125,-3,-4.252644157390991,-2.638337592928741,-3.189513707087922
1768731604788,125,-3,-3.611392018471922,-2.244087678003402,-2.5406227193044386
1768731604792,128,0,-0.8258870118643551,0.3394511146529151,0.2590991232812167
1768731604796,134,6,5.562331739366073,6.811079020925997,6.6505887447567344
1768731604799,144,16,15.982113496597204,16.314020981319196,17.05044439419855
1768731604804,156,28,28.88873045881691,28.75303122836125,29.91592707764482
1768731604808,169,41,40.67753103973341,41.38673690046385,41.65730174869191
1768731604812,176,48,46.8597253502745,48.64021807871802,47.80333101386324
1768731604816,174,46,44.106994444024295,46.532625957652016,45.03553170005847
1768731604820,161,33,32.032200183341274,33.459261940848876,32.96529198622086
1768731604823,141,13,13.552085935999049,13.632348491158815,14.499348443469929
1768731604828,121,-7,-6.45886105989808,-6.538856397358863,-5.500906223478751
1768731604832,104,-24,-23.377510580048327,-23.35600018454631,-22.422826428162704
1768731604836,94,-34,-34.545629559661265,-33.417187565330444,-33.61151079663966
1768731604840,90,-38,-39.61862243626448,-37.55356214585774,-38.71702713356995
1768731604844,89,-39,-39.71908022263408,-38.358991583111035,-38.850899803446616
1768731604847,92,-36,-36.30253606439872,-35.59585370342343,-35.458303458274145
1768731604852,97,-31,-30.56254334715599,-30.308877048958827,-29.72930554318478
1768731604856,104,-24,-23.51551839055525,-23.47346533786658,-22.685316675312507
1768731604860,112,-16,-16.288998051482636,-15.488905493777324,-15.463095518033947
1768731604864,119,-9,-10.093578773033286,-8.428191241284626,-9.27952140916496
1768731604868,123,-5,-5.8166242607782,-4.5862292342134925,-5.020672619703298
1768731604871,124,-4,-3.625097245525795,-3.3221168402893944,-2.8466534836892534
1768731604876,125,-3,-2.969646993716793,-2.489914268462361,-2.2026894209338748
1768731604880,125,-3,-2.996212886623643,-2.4447516865833503,-2.2358715003121117
1768731604884,125,-3,-3.027118633927043,-2.466747484302603,-2.2745119208666003
1768731604888,126,-2,-2.782861113018372,-1.5548579683778825,-2.0436348032307854
1768731604892,126,-2,-2.2928294698614815,-1.3588871410534908,-1.5714806469868463
1768731604895,126,-2,-1.6853710515887146,-1.4729936682806166,-0.9813992029468523
1768731604900,127,-1,-1.0584030490377176,-0.4522644493467564,-0.3678604132248357
1768731604904,128,0,-0.4738930328201229,0.5455588259943915,0.2062166946984971
1768731604908,128,0,0.003017712616558,0.4070874503761004,0.6726388975691977
1768731604912,128,0,0.2946128241023187,0.6983197091823188,0.9522581823724938
1768731604916,129,1,0.3471108967870711,1.4150903005371749,0.9923212157741992
1768731604919,128,0,0.1865961647388663,0.7065309773192425,0.8205344485858297
1768731604924,128,0,-0.0557661282541783,0.3357337669828263,0.568277859825553
1768731604928,128,0,-0.1886669187927658,0.6713081899254743,0.4252726409591986
1768731604932,128,0,-0.0633074630700423,0.3627302510358039,0.5384805024357189
1768731604936,128,0,0.3276553922789837,0.7875784346885406,0.9152187540390362
1768731604940,129,1,0.8262683695089168,1.3137306450011417,1.3995546208747125
1768731604943,129,1,1.1997293598607064,1.7212271109240809,1.760864786483877
1768731604948,130,2,1.3101349646214515,2.318579980198585,1.861798188075124
1768731604952,129,1,1.2464432851927392,1.6357204681546902,1.7902231016273416
1768731604956,129,1,1.2965206129626106,1.579463597110518,1.8323714673218865
1768731604960,130,2,1.749623532338108,2.4363849665500146,2.276192331538093
1768731604964,130,2,2.664536321290054,2.6960726531069144,3.1797334932078205
1768731604967,132,4,3.783065037557479,4.245817603092931,4.284668281464407
1768731604972,133,5,4.667367160672363,5.798653963378293,5.154095668080155
1768731604976,133,5,4.9675007798029025,5.305134606793544,5.440647207581077
1768731604980,132,4,4.624934909658958,4.770151921426465,5.088840176058438
1768731604984,132,4,3.885083057858283,4.334232245868517,4.344547601487834
1768731604988,131,3,3.1536014041506664,3.579883251839773,3.609797408370091
1768731604991,131,3,2.813143583968938,3.531657819860373,3.262378280263589
1768731604996,131,3,3.0733253839074264,3.4712712831231665,3.51033027619878
1768731605000,131,3,3.875855557510096,3.703627569960635,4.298074696568444
1768731605004,133,5,4.896591506263479,5.3000298683522855,5.305204796110704
1768731605008,134,6,5.69401203389316,6.682259732848344,6.091968444932265
1768731605011,134,6,5.9560801498116085,6.384524837814493,6.346369808614769
1768731605015,133,5,5.680277054917597,5.608652546347797,6.065298807776968
1768731605020,133,5,5.15169491686822,5.592951648773148,5.532243566945517
1768731605024,133,5,4.746896561896967,5.319359634126454,5.121218326094408
1768731605028,132,4,4.70714805631822,4.779113948797108,5.072066987206852
1768731605032,133,5,5.012644418774443,5.1740128922569495,5.36617333953767
1768731605035,133,5,5.417656759114842,5.930191816977414,5.760262048311298
1768731605039,134,6,5.6231162979270435,6.15219734873872,5.956719753490719
1768731605044,133,5,5.4756312216176575,5.816087669858562,5.802068750074835
1768731605048,133,5,5.052146415708626,5.25493265706288,5.372511627464693
1768731605052,132,4,4.575290434306639,4.687339928322878,4.889948278775405
1768731605056,132,4,4.242994788410328,4.456208523957028,4.551668299619653
1768731605059,132,4,4.115275521533578,4.542872143755615,4.417220879240135
1768731605063,132,4,4.130452901201555,4.503132940430973,4.424896068690227
1768731605068,132,4,4.201154683030038,4.4889342141641,4.487738332923739
1768731605072,132,4,4.283978161939291,4.523120446546425,4.562868165886817
1768731605076,132,4,4.365353018657305,4.548767114759688,4.637070854387238
1768731605080,132,4,4.399595248961802,4.4822068775054245,4.664827760352028
1768731605083,132,4,4.284078007509729,4.525071798442637,4.543513857635048
1768731605087,132,4,3.9183587716549138,4.499858285502186,4.172557829220258
1768731605092,131,3,3.3031283776156903,3.482607911726339,3.552440242990218
1768731605096,130,2,2.5805869976754447,2.6019795278030147,2.8250027318056055
1768731605100,130,2,1.961635140063576,2.3849574834512106,2.2007251234335703
1768731605104,129,1,1.5850186901131451,1.651812711130888,1.8183614116339577
1768731605107,129,1,1.414304034691411,1.3472970381064355,1.6419976836865562
1768731605111,129,1,1.2571408745618684,1.6713961413776124,1.4794606897449265
1768731605116,129,1,0.9047610454989696,1.3702330018710156,1.1214481611854543
1768731605120,128,0,0.2877180318289991,0.6068544312622733,0.4984618341812916
1768731605124,127,-1,-0.4846360013447908,-0.5582199278661348,-0.2788216969323953
1768731605128,126,-2,-1.23043038810492,-1.4851334163642098,-1.0273112012556045
1768731605131,126,-2,-1.830380411214458,-1.4258877636446372,-1.6287316019208071
1768731605135,126,-2,-2.2564495880067477,-1.6206797293519242,-2.0575910792551855
1768731605140,125,-3,-2.499440296259146,-2.335415375531609,-2.305685163298701
1768731605144,125,-3,-2.522911238049778,-2.685885010186017,-2.334811495650841
1768731605148,125,-3,-2.317021477398105,-2.321294719862956,-2.133031191057169
1768731605152,126,-2,-1.9778562514854063,-1.6047891135334085,-1.7965723994266325
1768731605155,126,-2,-1.6961982616960618,-1.4584366890068272,-1.5179487777211147
1768731605159,126,-2,-1.6462045449562357,-1.4687123097493036,-1.4720573068969398
1768731605164,126,-2,-1.8732358097077504,-1.6166827142879403,-1.7029980405433394
1768731605168,125,-3,-2.2725284533251267,-2.34448372456197,-2.104325903090583
1768731605172,125,-3,-2.6586700966622745,-2.63610622365102,-2.49062352794938
1768731605176,125,-3,-2.856580489398191,-2.3877646982905585,-2.6886430602380953
1768731605179,125,-3,-2.757643837310793,-2.555454189467574,-2.5915448693774237
1768731605183,125,-3,-2.34120811219154,-2.549667556612893,-2.1787695990849465
1768731605188,126,-2,-1.6811596797988748,-1.39300103233993,-1.522907220196497
1768731605192,127,-1,-0.9309613411856114,-0.6302872762262344,-0.7759426204598131
1768731605196,127,-1,-0.2725516355229475,-0.3624471924085891,-0.1189082425343813
1768731605200,128,0,0.1562758871596792,0.4052247249410535,0.3102479280849082
1768731605203,128,0,0.3193596510827335,0.4689746279287075,0.4739714846787951
1768731605207,128,0,0.2908807389052398,0.5902912979275613,0.4448924323642653
1768731605212,128,0,0.1984329420871442,0.3671167913647903,0.3505898611908874
1768731605216,127,-1,0.1241371691914924,-0.3499718285653592,0.2746572179124126
1768731605220,128,0,0.0417468238220229,0.3990840517053993,0.1917679841098195
1768731605224,128,0,-0.1378987098247788,0.4446633718873752,0.0120750742474405
1768731605227,127,-1,-0.4450302935379588,-0.3691400502738531,-0.2954280147526416
1768731605232,127,-1,-0.7822123150896246,-0.7118864362601033,-0.6326981687256688
1768731605236,126,-2,-0.9912319064186136,-1.2326333267400007,-0.8406363946481291
1768731605240,127,-1,-0.9878616639516548,-0.7684748481082464,-0.8357340638893762
1768731605244,127,-1,-0.8265096377505963,-0.3468471984291437,-0.6741742365913794
1768731605248,127,-1,-0.643574757716255,-0.6186382193642974,-0.4927229548218214
1768731605251,127,-1,-0.5522397013238161,-0.4518995677873693,-0.4026586349699931
1768731605256,127,-1,-0.5818103762341655,-0.4927041188268324,-0.4311759841671501
1768731605260,127,-1,-0.6828432231106422,-0.5526558235001697,-0.5288813409876337
1768731605264,127,-1,-0.7640289662902993,-0.511956784550815,-0.606508340811725
1768731605268,127,-1,-0.7354283759219785,-0.5114455799764019,-0.57589626994472
1768731605272,127,-1,-0.5570028994480466,-0.5163765269555218,-0.3969820173850584
1768731605275,127,-1,-0.2799529973294486,-0.468086596863084,-0.1198703737184482
1768731605280,128,0,-0.0411657568416644,0.4210452494578369,0.1192899490375476
1768731605284,128,0,0.0092826416500021,0.52590909973643,0.1708058332795244
1768731605288,127,-1,-0.198872391451193,-0.573260918232106,-0.0349296524725065
1768731605292,127,-1,-0.6150206918355959,-0.4445314834557754,-0.4470648660199776
1768731605296,127,-1,-1.0975578677389617,-0.556034007954306,-0.9251421565006648
1768731605299,126,-2,-1.481246898372961,-1.522234394394641,-1.3054761866692095
1768731605304,126,-2,-1.6524745121121722,-1.478805947739249,-1.474620578722832
1768731605308,126,-2,-1.6096295427628264,-1.6208425219355953,-1.4299520641398142
1768731605312,126,-2,-1.467041161634831,-1.3630005696214922,-1.2853405005237024
1768731605316,127,-1,-1.3773367244577617,-0.679911930060535,-1.1938124016966076
1768731605320,126,-2,-1.4206142764018386,-1.3919192590735858,-1.2351296890780952
1768731605323,126,-2,-1.5536543746960307,-1.61066248030919,-1.3644436847186137
1768731605328,126,-2,-1.6545111304767577,-1.4900564404416698,-1.4589880512113558
1768731605332,126,-2,-1.599980337915461,-1.512123958051788,-1.3975083925542644
1768731605336,127,-1,-1.3028813538730732,-0.5338506718213829,-1.0959407523655105
1768731605340,127,-1,-0.7201019196080083,-0.5337876646164599,-0.5117655994755086
1768731605344,127,-1,0.1127161820248637,-0.4835302535193535,0.3220730971795783
1768731605347,129,1,1.0368800024164049,1.3987095718473246,1.249466672435574
1768731605352,130,2,1.809658410236364,2.5556471346281566,2.027370880549956
1768731605356,130,2,2.2495483929899156,2.4228407832037395,2.472516059106618
1768731605360,130,2,2.3655969265826418,2.4807464958246976,2.5935598328568323
1768731605364,130,2,2.3358344682740304,2.532163721828957,2.5695358825355097
1768731605368,130,2,2.349521250901638,2.314417686120681,2.5898520785693098
1768731605371,130,2,2.4589811280945333,2.7027536870786815,2.7051186297746983
1768731605376,131,3,2.5626226221250628,3.2033580252640257,2.811985265739155
1768731605380,130,2,2.5064103061832914,2.7798383489622767,2.7572376758268753
1768731605384,130,2,2.192319115009011,2.157044371212914,2.446190279430005
1768731605388,129,1,1.6134904573598492,1.7112844305193209,1.8743982076538797
1768731605392,129,1,0.83738632385045,1.2788538234020632,1.1078769637136268
1768731605395,128,0,-0.0106377474779686,0.6245366184431478,0.2681508745963858
1768731605400,127,-1,-0.7746678549607988,-0.5925007641847659,-0.490876896185304
1768731605404,126,-2,-1.3481660421749453,-1.5449402848447753,-1.0612123321626803
1768731605408,126,-2,-1.7695953646812912,-1.5367011825318286,-1.478894280468369
1768731605412,126,-2,-2.2221680814517963,-1.5571954351672468,-1.926394216392711
1768731605416,125,-3,-2.894627798599642,-2.459517969593552,-2.5928837721382036
1768731605419,124,-4,-3.8127283479731378,-3.5482465589709378,-3.503920579899442
1768731605424,123,-5,-4.79751390909878,-4.581803735657435,-4.480048194657608
1768731605428,122,-6,-5.585892323952592,-5.537523642104771,-5.259318761968487
1768731605432,122,-6,-6.001020030811444,-5.575175685886735,-5.667760598760334
1768731605436,122,-6,-6.037359731884138,-5.384128146153741,-5.701336783402186
1768731605440,122,-6,-5.824990488408711,-5.6564753499026885,-5.487345428119079
1768731605443,122,-6,-5.5330957807292425,-5.4466223521909845,-5.189527501883763
1768731605448,123,-5,-5.278763506812461,-4.7529637224053625,-4.9223684393962746
1768731605452,123,-5,-5.0734616222719096,-4.34384945026093,-4.701274779966743
1768731605456,123,-5,-4.836605052650349,-4.589101734702467,-4.45391428421542
1768731605460,123,-5,-4.493028211128847,-4.464625027232405,-4.111135430236757
1768731605464,124,-4,-4.0876180651931815,-3.615027710063328,-3.7156227328155143
1768731605467,124,-4,-3.767466554425627,-3.6829184966549593,-3.403361458661432
1768731605472,124,-4,-3.5325038274030773,-3.357781429075009,-3.161086822603301
1768731605476,126,-2,-2.857416857810615,-1.5933565781400207,-2.458972892629162
1768731605480,128,0,-0.5129433420980198,0.5800611626717794,-0.077713923307882
1768731605484,133,5,5.042862946545247,5.309416870810127,5.505710449900588
1768731605488,142,14,14.641297605215255,14.36383825144378,15.108085576415688
1768731605491,154,26,27.251246771773335,26.601383811458213,27.69908838840627
1768731605496,167,39,39.58292723833844,39.5004374101585,40.004773139090425
1768731605500,176,48,47.06985135181977,48.43613665856474,47.47802353801077
1768731605504,175,47,45.96637668555516,47.50784667428568,46.382504684751055
1768731605508,165,37,35.385043810891496,36.88901956338786,35.82591887082089
1768731605511,146,18,17.91162984786442,19.269503343078473,18.3829663003996
1768731605515,124,-4,-1.7207927472604467,-4.406509848285751,-1.2215730212507054
1768731605520,105,-23,-19.0369169296939,-21.35415157379435,-18.51807400196883
1768731605524,101,-27,-31.61985969652621,-27.83003346953502,-31.095709981216032
1768731605528,90,-38,-39.20713851054857,-36.668575152638915,-38.69275665735939
1768731605532,85,-43,-42.51476088888887,-43.180844278564535,-42.013767234786734
1768731605535,85,-43,-42.156653054342826,-42.03224163851243,-41.65673240503923
1768731605539,89,-39,-38.50576189001992,-38.639493878129656,-37.99057305351819
1768731605544,96,-32,-32.200127419139825,-31.740905612554265,-31.664649993829077
1768731605548,104,-24,-24.49728247117953,-23.47413128350975,-23.949532869751085
1768731605552,111,-17,-17.04570133311194,-16.656833873422478,-16.49560710629174
1768731605556,117,-11,-11.245455516335324,-10.340477617502271,-10.695122262402425
1768731605559,121,-7,-7.677221192524094,-6.59250681739082,-7.121134558546503
1768731605563,122,-6,-5.992896184323861,-5.689643908834182,-5.424151840827862
1768731605568,122,-6,-5.325683765107803,-5.508302188442366,-4.741123283664585
1768731605572,123,-5,-4.908968007891225,-4.649450053880081,-4.310878132599487
1768731605576,124,-4,-4.452594950623587,-3.285274955740858,-3.847377874098225
1768731605580,125,-3,-4.0595472246265745,-2.7802512879431274,-3.453434726219262
1768731605583,124,-4,-3.8784626769526263,-3.4071547935308084,-3.272371342075091
1768731605587,124,-4,-3.8670589768196417,-3.840654052141127,-3.2555184631441603
1768731605592,124,-4,-3.833502010102384,-3.2638256270922885,-3.209718182615584
1768731605596,125,-3,-3.611918761434721,-2.724100657986479,-2.9740735117299733
1768731605600,125,-3,-3.159294766980006,-2.3661961868031174,-2.5114265582297506
1768731605604,126,-2,-2.528315443500026,-1.7873102787249433,-1.875429424615907
1768731605607,126,-2,-1.8111200149558933,-1.4844492917661234,-1.1544784247471012
1768731605611,127,-1,-1.1192174157469537,-0.5752959138247333,-0.4565187087638602
1768731605616,128,0,-0.5707706821866694,0.5053294007677008,0.1003621068961673
1768731605620,128,0,-0.2477901524902424,0.4374753216881302,0.4321292371767393
1768731605624,128,0,-0.1517317485173861,0.3639018387541211,0.5361776675799611
1768731605628,128,0,-0.2072436833099882,0.437128596140688,0.4881616680826834
1768731605631,128,0,-0.3083222307326498,0.4289072856043301,0.3944740065411372
1768731605635,128,0,-0.3592189402203267,0.545214016520568,0.3508235537020957
1768731605640,128,0,-0.2885465747724951,0.3166962571973448,0.4287819720740675
1768731605644,128,0,-0.0539507621030017,0.5557499157467864,0.6711042642544085
1768731605648,129,1,0.3495447636560804,1.2059367244564374,1.082473800758534
1768731605652,129,1,0.8858168403462381,1.689291948436474,1.625703557313301
1768731605655,130,2,1.48332099845936,2.2346042511866626,2.2287128184139
1768731605659,130,2,2.043450952263319,2.6297388348878155,2.7938456573268144
1768731605664,131,3,2.4567152986771874,3.2411841708342313,3.2132811954392113
1768731605668,131,3,2.6449781173255986,3.5296330984205393,3.409609145282479
1768731605672,131,3,2.623873369506577,3.3648881476195145,3.3974788637765188
1768731605676,131,3,2.5359233177411933,3.5195686897294127,3.317628229767557
1768731605679,131,3,2.599967176988648,3.3576377653169525,3.3880248139742712
1768731605683,131,3,2.981548464981416,3.481106776240275,3.774953658165956
1768731605688,132,4,3.671414462404752,4.353017188028824,4.470353255626755
1768731605692,133,5,4.482531096879025,5.476993524939094,5.287360738001878
1768731605696,134,6,5.187631098296806,6.448763980006269,5.998172788283934
1768731605700,134,6,5.683722216292811,6.353490186551502,6.499974090694657
1768731605703,134,6,6.036296017360398,6.534048007745047,6.859123615611075
1768731605707,135,7,6.377754986496033,7.270572479591824,7.207963328178848
1768731605712,135,7,6.777418103277928,7.576425762239656,7.614334884008274
1768731605716,136,8,7.205246202718036,8.326852478955198,8.047119342571467
1768731605720,136,8,7.594425585816615,8.468727401608165,8.440455813002643
1768731605724,136,8,7.917288468305657,8.41380295323632,8.768611806718177
1768731605727,137,9,8.206583533904965,9.389911355888998,9.06478197930706
1768731605732,137,9,8.521703902960246,9.459592296448797,9.38670368708256
1768731605736,137,9,8.893726434499559,9.422396353475817,9.763622348994671
1768731605740,138,10,9.28278424537246,10.375676001790756,10.155675986133936
1768731605744,138,10,9.577897980892113,10.499466744941028,10.453754640805537
1768731605748,138,10,9.653848731405663,10.288784185050678,10.534556138775493
1768731605751,138,10,9.462008077734488,10.589441234010229,10.349462768257396
1768731605756,138,10,9.095980156548537,10.241783693502756,9.99018019185858
1768731605760,137,9,8.766751603171741,9.577037070759054,9.666013464552371
1768731605764,137,9,8.671394710149343,9.283779657854875,9.57418862919655
1768731605768,137,9,8.837958545616596,9.491724393895836,9.743899605772285
1768731605772,138,10,9.08468436306027,10.419382087415292,9.993906458019662
1768731605775,138,10,9.147941283819986,10.36168905681664,10.060490381355311
1768731605780,137,9,8.87212910614934,9.488227434783798,9.78829204736956
1768731605784,137,9,8.295682012407099,9.32705019524704,9.21615096706982
1768731605788,136,8,7.575584685784091,8.463070452205471,8.500699739344853
1768731605792,135,7,6.841241039662585,7.439762362538176,7.7702640909516765
1768731605796,135,7,6.1125813835972815,7.336963977728584,7.044137974729796
1768731605799,134,6,5.340023801504657,6.530614927237833,6.273506523912478
1768731605804,133,5,4.5090600436285335,5.229738602499485,5.4454849244322405
1768731605808,132,4,3.7025971827840034,4.607548301818234,4.643573618670935
1768731605812,132,4,3.065537077043901,4.233409689904308,4.011183513094485
1768731605816,131,3,2.701165056565239,3.594352198258171,3.6494787347537145
1768731605820,131,3,2.5724947090145127,3.2423348413965463,3.5210376422978533
1768731605823,131,3,2.4812345204404926,3.509878551376656,3.4291865673425295
1768731605828,131,3,2.1623548860772885,3.339476518026488,3.1109429496937637
1768731605832,130,2,1.4545376846283542,2.4487779419742,2.4058899059933525
1768731605836,129,1,0.4305278415963198,1.4449301008719737,1.386117821828296
1768731605840,128,0,-0.6192469695770848,0.3099464712769078,0.3404434284208661
1768731605844,127,-1,-1.3523444588713125,-0.4959752208791321,-0.390115589512658
1768731605847,127,-1,-1.579325399851295,-0.7242764937148329,-0.6164544622846407
1768731605852,127,-1,-1.366316262240148,-0.4351171183402582,-0.4040034776289505
1768731605856,128,0,-0.9661218141993,0.2999734474469409,-0.0045775944991953
1768731605860,128,0,-0.636934903891657,0.4651544319809538,0.3243708630216464
1768731605864,128,0,-0.4915359239262433,0.3230255768958248,0.4704025520477752
1768731605868,128,0,-0.4834712354616792,0.4424036565512541,0.4798504838836943
1768731605871,128,0,-0.512369753053203,0.4053473038333813,0.4525892109768192
1768731605876,128,0,-0.536791057221949,0.4504486079890103,0.4294586463376062
1768731605880,128,0,-0.5973435200237687,0.3371770951096992,0.3692514229323919
1768731605884,128,0,-0.7446839885297951,0.4028769494989684,0.2208382635078958
1768731605888,128,0,-0.9536944222817494,0.3850717124358098,0.0096921216885205
1768731605892,127,-1,-1.1185040502477857,-0.5744389094396514,-0.1567296991109096
1768731605895,127,-1,-1.141411462229314,-0.5401216625370768,-0.1793185454806922
1768731605900,128,0,-1.0196965572098673,0.3188848494112022,-0.0561508825392219
1768731605904,128,0,-0.828746958836919,0.3957707665709167,0.1348913226985388
1768731605908,128,0,-0.6256709348980334,0.4121127081797298,0.3354704633465516
1768731605912,128,0,-0.3989257616486492,0.3553908587667286,0.5586783693930348
1768731605916,128,0,-0.1272842483476426,0.5662810892749918,0.8280684361622097
1768731605919,129,1,0.1336649222673684,1.1763267305329348,1.0883769044374856
1768731605924,129,1,0.2575072014914721,1.548840268480292,1.2115071937590371
1768731605928,129,1,0.1513953040723208,1.2581526321959138,1.103301314188963
1768731605932,128,0,-0.1547247525177595,0.4725175239989854,0.7941715612126902
1768731605936,128,0,-0.5290864394593249,0.4928759607761983,0.4170740066693265
1768731605940,128,0,-0.8428395617058362,0.1740466307558035,0.1012016588229639
1768731605943,127,-1,-1.0547388306902716,-0.3725037032949697,-0.1128274804157127
1768731605948,128,0,-1.2068176318212964,0.1060293056863953,-0.2677221516928145
1768731605952,127,-1,-1.3515736876060176,-0.3175194504183458,-0.4160237763360513
1768731605956,127,-1,-1.488792249567214,-0.7821624298088274,-0.5570359061225673
1768731605960,127,-1,-1.571461091386943,-0.5232329144398093,-0.6433412038641755
1768731605964,127,-1,-1.567659936091129,-0.6909392818549924,-0.6430280029991873
1768731605967,127,-1,-1.5128335803589288,-0.5856313874209363,-0.5917519620516415
1768731605972,127,-1,-1.500715337303189,-0.5945289415681672,-0.5834744315920631
1768731605976,127,-1,-1.6169448777989015,-0.5710307077627221,-0.7041017196863395
1768731605980,127,-1,-1.8694971974102088,-0.6874750683340312,-0.961612468604128
1768731605984,126,-2,-2.1788016654963624,-1.5769828849664682,-1.2758303849741768
1768731605988,126,-2,-2.440144094178628,-1.6729613945472497,-1.5413944937945707
1768731605991,126,-2,-2.5973910403156,-1.510739259254474,-1.7024932860204074
1768731605996,126,-2,-2.654254970935108,-1.689486498866256,-1.7639388156045128
1768731606000,126,-2,-2.6230345332701175,-1.5363776352910263,-1.7385094942141028
1768731606004,126,-2,-2.4827655289622834,-1.769737255686605,-1.604458181463965
1768731606008,126,-2,-2.1993397968540074,-1.4592951133590686,-1.3267121467390783
1768731606011,127,-1,-1.7793393864939144,-0.7355347589547652,-0.9120029073486694
1768731606015,127,-1,-1.2900673001899694,-0.4853242074840123,-0.4285969224409905
1768731606020,128,0,-0.8215498924018073,0.2792185301662493,0.0331605123656263
1768731606024,128,0,-0.4306747923691507,0.3869727719818786,0.4172400028631723
1768731606028,128,0,-0.1172341063182952,0.3906843896705576,0.7246503128180742
1768731606032,129,1,0.1620106622436836,1.4014617041896684,0.9981238739860404
1768731606035,129,1,0.4666209793942837,1.371997206765076,1.296109577300727
1768731606039,129,1,0.8452888296730395,1.421685276696327,1.6672781589792642
1768731606044,130,2,1.3061095969771428,2.241718102776985,2.120870057800973
1768731606048,130,2,1.80033336807565,2.5285544133191484,2.608708510857068
1768731606052,131,3,2.2435499094130327,3.2425984561724133,3.045346172699798
1768731606056,131,3,2.5615217826205297,3.5560196405336812,3.355024700002145
1768731606059,131,3,2.713651347667303,3.1962208192249815,3.4970216929817037
1768731606063,131,3,2.6729947448838653,3.498214332183026,3.446116238713358
1768731606068,131,3,2.4023040320052926,3.2366656424858875,3.1672124719370203
1768731606072,130,2,1.8800717272738696,2.528309167198614,2.639426729107968
1768731606076,130,2,1.1703182912481056,2.297052829547748,1.9250754396502368
1768731606080,129,1,0.4567954598349979,1.4054363082748629,1.2050660692471482
1768731606083,128,0,-0.0376104119433901,0.341053682765237,0.7005524759966192
1768731606087,128,0,-0.2254673458326167,0.315572199912144,0.4996572921553174
1768731606092,128,0,-0.2814169555937844,0.5177899798166689,0.4303250264988236
1768731606096,128,0,-0.5737189674863008,0.2365564445225103,0.1271138022410221
1768731606100,127,-1,-1.4055156959524884,-0.4638240570327179,-0.7119154517998094
1768731606104,126,-2,-2.750018911268124,-1.8639589918227208,-2.0613921205828416
1768731606107,124,-4,-4.20286830593185,-3.4595616679347163,-3.520036313393483
1768731606111,123,-5,-5.228639944517657,-4.727790752322412,-4.554761527446027
1768731606116,122,-6,-5.5458326219155,-5.517540619628793,-4.884296849733103
1768731606120,123,-5,-5.350291880442725,-4.672394197696773,-4.7033914066179054
1768731606124,124,-4,-5.168554813669248,-3.701616740376213,-4.53697197461188
1768731606128,123,-5,-5.434464208772826,-4.592936144373409,-4.816150178610567
1768731606131,122,-6,-6.138737299171302,-5.666061661818078,-5.5281651615274745
1768731606135,121,-7,-6.845651142980509,-6.521174717343776,-6.23653955133193
1768731606140,121,-7,-7.045368274946745,-6.74022432691019,-6.436750763593083
1768731606144,122,-6,-6.539485386089445,-5.553603209387426,-5.93961226195838
1768731606148,123,-5,-5.576201836597482,-4.806443530144154,-4.99878583041475
1768731606152,123,-5,-4.672946737912429,-4.416697173968039,-4.127081103304036
1768731606155,124,-4,-4.246027691544093,-3.807160579420378,-3.727662419642902
1768731606159,124,-4,-4.212250861975611,-3.472262486263868,-3.7045120030911938
1768731606164,125,-3,-3.7327106784184063,-2.792896855518079,-3.215703443270246
1768731606168,127,-1,-1.2982973953345094,-0.6060722812338264,-0.7623981147675505
1768731606172,133,5,4.689815362253053,5.439414283931219,5.235968410293244
1768731606176,143,15,14.925299738396866,15.274509885028216,15.458464489794386
1768731606179,155,27,28.223643876294897,27.51159682190716,28.71982066868025
1768731606183,169,41,41.23920862272526,41.16821643342168,41.68798469711045
1768731606188,178,50,49.36729732545925,50.47778177664766,49.77662637002908
