timestamp_ms,ecg_u8_raw,ecg_counts_raw_int,ecg_counts_filt_monitor,ecg_counts_filt_diagnostic,ecg_counts_filt_st
1770453885432,128,0,0.584185399575777,-0.951854998621875,-0.9934752955764384
1770453885436,128,0,0.7101963270437524,-1.0296986706048208,-0.863078313432027
1770453885440,128,0,0.7142242272563204,-0.8977044545971129,-0.8539060119523071
1770453885444,128,0,0.6670835324383231,-0.8399740441402399,-0.8957142268440167
1770453885448,128,0,0.6254668773982172,-1.0220383265892603,-0.9324792714033726
1770453885452,128,0,0.6047153465136283,-1.011032852520908,-0.948848123088114
1770453885456,128,0,0.5898978994833504,-0.9801953127598102,-0.9593251076636012
1770453885460,128,0,0.5730410218375076,-0.9376160708929124,-0.97166706508454
1770453885464,128,0,0.5845133237321637,-0.8052000481516068,-0.9554186994047816
1770453885468,128,0,0.6834395591073925,-1.0664652286663077,-0.8512012627485567
1770453885472,128,0,0.906176175190504,-0.9125316623514588,-0.6227359268056761
1770453885476,129,1,1.22075233545795,-0.0629503019646999,-0.3029491098772647
1770453885480,129,1,1.535122157471384,0.1475660041225268,0.0152133204989057
1770453885484,129,1,1.746560512667388,0.1008027785151104,0.229721760850136
1770453885488,129,1,1.7790947650556603,0.0345421461720503,0.2664747543402723
1770453885492,129,1,1.591258620548487,0.0111254104157425,0.0847583915674066
1770453885496,129,1,1.1833307075065749,0.0524824290961776,-0.3165083484953692
1770453885500,128,0,0.6127427647149888,-0.979011360262244,-0.8816205301720047
1770453885504,127,-1,-0.0195148625650948,-1.768610742170846,-1.509707349763559
1770453885508,127,-1,-0.6290014375240048,-2.094071591181724,-2.1151482790561955
1770453885512,126,-2,-1.2044667236758813,-2.836823504217901,-2.68586967258025
1770453885516,126,-2,-1.7975714302053818,-3.052437885640108,-3.273737095851638
1770453885520,125,-3,-2.45037914021212,-3.886268866196577,-3.921365339378461
1770453885524,124,-4,-3.1319816136678336,-4.849271134173701,-4.598033443409872
1770453885528,124,-4,-3.744849207035381,-5.037383116882095,-5.206017461894299
1770453885532,123,-5,-4.192297056873994,-5.8308250130562,-5.648341043357103
1770453885536,123,-5,-4.44472800595383,-6.066635840948946,-5.895307697321208
1770453885540,123,-5,-4.5470680473534095,-5.808995815080869,-5.992184976278582
1770453885544,123,-5,-4.563121236556315,-5.989086196733219,-6.003330133242601
1770453885548,123,-5,-4.512850338972887,-5.853358581712312,-5.948699057821917
1770453885552,123,-5,-4.369187027857382,-6.010201037088234,-5.800417807829077
1770453885556,123,-5,-4.118582461026742,-5.853825284339357,-5.544319033848728
1770453885560,124,-4,-3.814677043326757,-4.992268802462071,-5.234579450932414
1770453885564,124,-4,-3.558755958501635,-4.840170732426529,-4.973559029133178
1770453885568,124,-4,-3.4253628470735253,-4.969755015780331,-4.835946287135666
1770453885572,124,-4,-3.4123604525655096,-4.890554491071258,-4.8185954463814085
1770453885576,124,-4,-3.459903900814948,-4.928204843019155,-4.860762345821215
1770453885580,124,-4,-3.506665476847369,-4.919129758756004,-4.901301935265664
1770453885584,124,-4,-3.526253749957585,-4.9022097508674385,-4.914754849134582
1770453885588,124,-4,-3.522914268612812,-4.912915891152505,-4.906158861492216
1770453885592,124,-4,-3.508227849657084,-4.908880097354662,-4.887252758476414
1770453885596,124,-4,-3.4890278374851076,-4.894242106399501,-4.864381980816132
1770453885600,124,-4,-3.4744302338445965,-4.929299138769869,-4.845759028485635
1770453885604,124,-4,-3.4838719979918475,-4.9064234515073615,-4.84999092676296
1770453885608,124,-4,-3.533702071974502,-4.883677814758281,-4.893339605069362
1770453885612,124,-4,-3.60394703558201,-4.9318592976765325,-4.956743837275868
1770453885616,124,-4,-3.6198762298876472,-4.822364763051526,-4.9667226166813485
1770453885620,124,-4,-3.4876366334754954,-5.005183026322345,-4.829961889958298
1770453885624,124,-4,-3.1778918267618144,-4.8239890471489915,-4.516640975320396
1770453885628,125,-3,-2.789164388117457,-3.952620033678523,-4.1243685547426185
1770453885632,125,-3,-2.5165304230984114,-3.848171063201847,-3.847494309619159
1770453885636,125,-3,-2.5276485571244764,-3.858448891598277,-3.85334967327104
1770453885640,125,-3,-2.836264630796143,-3.976437660151441,-4.155876372383527
1770453885644,124,-4,-3.273945145989716,-4.8429571205988555,-4.5873551065816125
1770453885648,124,-4,-3.5857002465144205,-4.939856891138286,-4.8935057067724825
1770453885652,124,-4,-3.582121019349591,-4.8119092717125564,-4.88492948963159
1770453885656,124,-4,-3.241328214017007,-4.876056028562559,-4.539223787936857
1770453885660,125,-3,-2.691624581313655,-3.9288453972303623,-3.984671136406881
1770453885664,126,-2,-2.0941602287369654,-2.904852183864117,-3.383105068952875
1770453885668,126,-2,-1.5284269904063164,-2.870418186070269,-2.814033027378555
1770453885672,126,-2,-0.9849495848969518,-2.847565300040338,-2.266621251822893
1770453885676,127,-1,-0.4572431290929915,-1.818626722026469,-1.7332888033750184
1770453885680,128,0,-0.0082134340600237,-0.9575514035345296,-1.277765914780897
1770453885684,128,0,0.2809642697062977,-0.897996854111873,-0.982946714731586
1770453885688,128,0,0.4188033058083364,-0.8312011187218828,-0.8407041317206951
1770453885692,128,0,0.5310104676544529,-0.907705033572585,-0.724156396822576
1770453885696,128,0,0.7614922606548702,-0.678266131228825,-0.488533427436318
1770453885700,129,1,1.141150821294671,-0.1387112790506677,-0.10369369538552
1770453885704,129,1,1.5517631673919967,0.3498254464990011,0.3107220102031101
1770453885708,130,2,1.815848157148597,0.8823531468034613,0.5772915196829218
1770453885712,129,1,1.8255278024047985,0.4475336100972953,0.5902424155663748
1770453885716,129,1,1.6020463575937236,-0.0491405756952887,0.372740001814666
1770453885720,129,1,1.2609965507394083,0.2672647770779552,0.0395121319936364
1770453885724,129,1,0.9375310916932104,-0.0470924620371548,-0.2773335517185491
1770453885728,128,0,0.7186461384705183,-0.7185251954729561,-0.4926746099741921
1770453885732,128,0,0.5914032343148232,-0.8855724078138488,-0.6183344679307421
1770453885736,128,0,0.4278728358796648,-0.7526141492603825,-0.7798047282093271
1770453885740,128,0,0.0471921557926837,-0.9549932229471252,-1.1566327286477305
1770453885744,127,-1,-0.6568433751620266,-1.871775821175071,-1.8553090546526383
1770453885748,126,-2,-1.6143513763814672,-2.8176194914671617,-2.806863412454637
1770453885752,125,-3,-2.59560336222576,-3.811964805859745,-3.7823561419561367
1770453885756,124,-4,-3.3431485230511413,-4.772387732830362,-4.524888900781146
1770453885760,124,-4,-3.7227395751264023,-4.944402415693304,-4.900558674576699
1770453885764,124,-4,-3.783061225566512,-4.840567361985292,-4.958012949518928
1770453885768,124,-4,-3.6906500592349527,-4.8384602172591205,-4.863148785624826
1770453885772,124,-4,-3.6044696715446474,-4.763731549733835,-4.773902848707673
1770453885776,124,-4,-3.589994906442697,-4.809710012980707,-4.755105134330279
1770453885780,124,-4,-3.622778587808158,-4.897966394771142,-4.7827056377779105
1770453885784,124,-4,-3.6521705823629302,-4.85868725794661,-4.807271606927937
1770453885788,124,-4,-3.657594374607592,-4.800403234567188,-4.80917822531511
1770453885792,124,-4,-3.6545810970669095,-4.7743388475488775,-4.803573507645498
1770453885796,124,-4,-3.6621505006151263,-4.7870044377079175,-4.80779584046569
1770453885800,124,-4,-3.675172100145865,-4.9044849418810665,-4.81523783838672
1770453885804,124,-4,-3.6711367612247394,-4.840248195753372,-4.804061247979448
1770453885808,124,-4,-3.6416043750436646,-4.772507950888527,-4.769075083342182
1770453885812,124,-4,-3.6126610011847458,-4.808863450073728,-4.7399522019995715
1770453885816,124,-4,-3.621058403919262,-4.696286602610108,-4.753717505403212
1770453885820,124,-4,-3.630434095262628,-5.025555556866266,-4.769159337148448
1770453885824,124,-4,-3.3958742141840053,-4.660142235477972,-4.5338257384823155
1770453885828,126,-2,-2.3297248464694658,-2.9530242697230675,-3.4553614016469187
1770453885832,128,0,0.5103518347730587,-0.5798215219921796,-0.594108087099738
1770453885836,134,6,6.164043730085792,5.086830769241679,5.079760060846767
1770453885840,143,15,15.20595396524821,14.219393742706682,14.129517818374197
1770453885844,154,26,27.083623754384313,25.12340807270822,25.99786556170888
1770453885848,167,39,39.77437643995534,38.27732562235412,38.66799010904559
1770453885852,178,50,50.156974844735394,49.24934844082683,49.03176914305211
1770453885856,183,55,55.14371551980181,54.193375988661,54.013089406482784
1770453885860,182,54,53.09171813764504,53.16204634605257,51.972109329796496
1770453885864,173,45,44.6790933940738,44.114846521682736,43.581296087385184
1770453885868,159,31,32.62771515022051,30.327475387891003,31.553128827018387
1770453885872,147,19,20.361842915276355,18.24925667849176,19.30315259262418
1770453885876,138,10,10.430159774561083,9.218109720356733,9.37435320013608
1770453885880,132,4,3.664096958640104,3.2428261945143544,2.5980224589956693
1770453885884,128,0,-0.5561751011824558,-0.9670823570369712,-1.6384776597146269
1770453885888,124,-4,-3.365536598482109,-4.535491278545268,-4.458868199288901
1770453885892,122,-6,-5.575822924267353,-6.922749818927315,-6.667851290794331
1770453885896,120,-8,-7.404771441343762,-8.592935503628416,-8.485219959645402
1770453885900,119,-9,-8.715111238660148,-9.904433795257646,-9.78198844677375
1770453885904,118,-10,-9.399985124776808,-10.807628723419787,-10.458559977042665
1770453885908,118,-10,-9.582768337440552,-10.612748651928216,-10.640355424941816
1770453885912,119,-9,-9.534630378183614,-9.925737255560106,-10.596058555314338
1770453885916,118,-10,-9.460244440051488,-10.488874971952702,-10.525806885705231
1770453885920,118,-10,-9.387670669108314,-11.065696391357154,-10.453684903244673
1770453885924,118,-10,-9.25285833765126,-10.531112210548851,-10.314842538807005
1770453885928,119,-9,-9.0461259533242,-9.91012893604277,-10.102597930851278
1770453885932,119,-9,-8.84178848761531,-9.622165217792976,-9.895072360010763
1770453885936,119,-9,-8.699161826793578,-9.722676316579491,-9.7524174650684
1770453885940,119,-9,-8.576441955632106,-9.894848890826967,-9.63049475618547
1770453885944,119,-9,-8.361744267867131,-9.547439237551297,-9.415146678671572
1770453885948,120,-8,-7.978593980895203,-8.998757963998177,-9.030048892397568
1770453885952,120,-8,-7.452875846884233,-8.407406899588368,-8.50265776463095
1770453885956,121,-7,-6.888001853429996,-7.988016496906542,-7.937123805458729
1770453885960,121,-7,-6.386197983107962,-7.571507525929416,-7.435117882017934
1770453885964,122,-6,-5.983624188634068,-6.824201032692112,-7.0321345359423235
1770453885968,122,-6,-5.640270093786624,-6.7565831849799025,-6.688055143969276
1770453885972,122,-6,-5.28507480791319,-6.555845355161974,-6.331898990816708
1770453885976,123,-5,-4.879398310595361,-5.892170864393956,-5.925105839107664
1770453885980,123,-5,-4.4441964629549835,-5.571219067568672,-5.489012209269085
1770453885984,124,-4,-4.026408274915578,-4.8384062611138265,-5.071097292819751
1770453885988,124,-4,-3.6424568287031898,-4.6965793102843545,-4.687761730770483
1770453885992,124,-4,-3.262412810889978,-4.602415060987836,-4.308300961232635
1770453885996,125,-3,-2.8506899238238823,-3.835440843061482,-3.89643822981663
1770453886000,125,-3,-2.4123413215506084,-3.570927980314526,-3.457396212528336
1770453886004,126,-2,-1.9899024311870583,-2.8406524994602735,-3.034413557170687
1770453886008,126,-2,-1.6170470468158338,-2.6252764002000104,-2.661581289821397
1770453886012,126,-2,-1.2838179374730392,-2.701637372514279,-2.3289186195064087
1770453886016,127,-1,-0.9498745722167092,-1.6824969270728585,-1.9959445299689436
1770453886020,127,-1,-0.5899398984368496,-1.7054538773226429,-1.6370752790132566
1770453886024,127,-1,-0.2283646973026798,-1.680781023277932,-1.2761390756722928
1770453886028,128,0,0.0714928231666875,-0.7220634114953207,-0.9763716750686344
1770453886032,128,0,0.264573945656159,-0.6384667989983601,-0.7834406995430159
1770453886036,128,0,0.3808827949114396,-0.6770706092242814,-0.6678439301997039
1770453886040,128,0,0.5154424321957292,-0.7163300892703535,-0.534259588824507
1770453886044,128,0,0.7449334748915033,-0.6078019826259531,-0.3056426898645461
1770453886048,129,1,1.0508863472074697,0.2149673552823545,-0.0008958854853349
1770453886052,129,1,1.330569608483896,0.4579793228744635,0.2767249581080833
1770453886056,129,1,1.4834650507084248,0.2411766479494801,0.4273078934392571
1770453886060,129,1,1.4880980669729336,0.3963181277356629,0.4306537158943271
1770453886064,129,1,1.409830205083479,0.325454825089402,0.3523396989830738
1770453886068,129,1,1.351857764102072,0.2731525522307305,0.2942571210992459
1770453886072,129,1,1.3927428746290489,0.4791582616457905,0.3336673758156783
1770453886076,129,1,1.540674105009827,0.1866062136145754,0.4788504591185312
1770453886080,129,1,1.7230513488658217,0.5344715848058859,0.6582365587117156
1770453886084,130,2,1.8245807151870648,1.1830291103421144,0.7572370537889674
1770453886088,129,1,1.7585854824397993,0.4568580664292603,0.6892229456133783
1770453886092,129,1,1.5198541239461072,0.3227971383456198,0.4488317349179163
1770453886096,129,1,1.1764371810180674,0.3618478376210916,0.1039802100685609
1770453886100,128,0,0.8114480309814767,-0.6100258638897276,-0.2624740228292925
1770453886104,128,0,0.4654324329284254,-0.6338220105275868,-0.610453795974051
1770453886108,128,0,0.122378201839627,-0.704938194076415,-0.9564213383815948
1770453886112,127,-1,-0.2588009741547455,-1.471241857259238,-1.341341919287406
1770453886116,127,-1,-0.7043941326094273,-1.845027496158526,-1.7906148321950004
1770453886120,126,-2,-1.2122837498186685,-2.338452701878028,-2.3012186698111377
1770453886124,126,-2,-1.760799804698289,-2.91845917942849,-2.8515494103767316
1770453886128,125,-3,-2.314367575850971,-3.341572542101716,-3.407033546402627
1770453886132,125,-3,-2.819807026242606,-3.837573881664732,-3.915342907886538
1770453886136,124,-4,-3.2132891672455575,-4.442508559201411,-4.312487052673296
1770453886140,124,-4,-3.450071639228879,-4.696902350677865,-4.552904540859276
1770453886144,124,-4,-3.5353926124850132,-4.567731590050961,-4.641396948201566
1770453886148,124,-4,-3.5227888014885713,-4.599212383291173,-4.631842946699939
1770453886152,124,-4,-3.4775567627753947,-4.613697567780031,-4.590093980662625
1770453886156,124,-4,-3.439817487508237,-4.576596322508124,-4.556392135634958
1770453886160,124,-4,-3.418406685625267,-4.594868492635026,-4.539193508756383
1770453886164,124,-4,-3.4114688639300925,-4.59152316098316,-4.536125320192235
1770453886168,124,-4,-3.423943012687921,-4.572886872885906,-4.551908307400082
1770453886172,124,-4,-3.4595929259800133,-4.580375534071726,-4.590638100594994
1770453886176,124,-4,-3.495720204627629,-4.6046024756454464,-4.63027813607264
1770453886180,124,-4,-3.4736937099317133,-4.52215915679269,-4.612524753366635
1770453886184,124,-4,-3.331148393830541,-4.649263484424101,-4.474631360469285
1770453886188,124,-4,-3.059454087291666,-4.4612738955347915,-4.20742686082482
1770453886192,125,-3,-2.7310286319097656,-3.669864412524701,-3.883394369791051
1770453886196,125,-3,-2.4584436579821496,-3.4781148647335476,-3.6155262939686543
1770453886200,125,-3,-2.3162763322960345,-3.626004353826041,-3.4782901810602365
1770453886204,125,-3,-2.2975683655587433,-3.515473142980156,-3.4640964056820627
1770453886208,125,-3,-2.337738317400416,-3.5530708091494665,-3.5081728405848396
1770453886212,125,-3,-2.3717208991579177,-3.558444064173084,-3.546112274023188
1770453886216,125,-3,-2.3719174067500477,-3.5331137759387468,-3.5510758066561863
1770453886220,125,-3,-2.3476580147761053,-3.5672588931068745,-3.5324040913593167
1770453886224,125,-3,-2.3220048445006647,-3.5189200185230356,-3.5124751361743347
1770453886228,125,-3,-2.3098790477329683,-3.5334803085833464,-3.5055772450116285
1770453886232,125,-3,-2.3101223947836065,-3.534340940221912,-3.51053688683751
1770453886236,125,-3,-2.310858679327608,-3.5222256238266176,-3.5159844455742157
1770453886240,125,-3,-2.300979508078484,-3.5538957260250417,-3.511303770586738
1770453886244,125,-3,-2.279897650832778,-3.494076013248113,-3.4959499691287803
1770453886248,125,-3,-2.259665747707656,-3.5253589079071053,-3.481599152414635
1770453886252,125,-3,-2.256840991805363,-3.5135541508718844,-3.484441952150541
1770453886256,125,-3,-2.276616373638986,-3.4910493400652176,-3.509685773965822
1770453886260,125,-3,-2.2985624726466596,-3.5775809371740657,-3.5371700644527406
1770453886264,125,-3,-2.2774994231140573,-3.415218266876674,-3.521768794985314
1770453886268,125,-3,-2.165914208384497,-3.582465070175619,-3.4157428693848284
1770453886272,125,-3,-1.9437649915001665,-3.4222143294151923,-3.199130301395303
1770453886276,126,-2,-1.6273981529555193,-2.525184426625435,-2.888888013169541
1770453886280,126,-2,-1.2486352392942863,-2.545525756718437,-2.5170902173554435
1770453886284,126,-2,-0.831525032342962,-2.374311276339869,-2.10693261066643
1770453886288,127,-1,-0.3933011149768752,-1.6240597042294436,-1.674583746118224
1770453886292,127,-1,0.0447358996914929,-1.3213495511667368,-1.241549114544686
1770453886296,128,0,0.4643565820923845,-0.6017290499809624,-0.8273932902434806
1770453886300,128,0,0.8657644281978274,-0.4287599332468665,-0.4327547614376728
1770453886304,128,0,1.25665092728372,-0.4520800602907813,-0.0494182337303925
1770453886308,129,1,1.6156102108648207,0.4673575748362646,0.3022879617239353
1770453886312,129,1,1.8759023294393775,0.6566337062571916,0.5561224336066999
1770453886316,129,1,1.961084552215092,0.4122985078682295,0.6353129351152598
1770453886320,129,1,1.8466638863586569,0.6550542298445805,0.5146417535717616
1770453886324,129,1,1.5911776359999534,0.4331743796174034,0.2522329162650287
1770453886328,128,0,1.301917840490742,-0.331589980983332,-0.0442080899213019
1770453886332,128,0,1.055288292018525,-0.5521967101912619,-0.2975320401521097
1770453886336,128,0,0.840932732705332,-0.296646071851244,-0.518141832600926
1770453886340,128,0,0.5859838304080772,-0.6298201747739733,-0.779806193348481
1770453886344,127,-1,0.2338877069103014,-1.216744052825712,-1.139611968081713
1770453886348,127,-1,-0.2073841490165722,-1.6784859129248209,-1.5890161759640828
1770453886352,126,-2,-0.6932065244590551,-2.153569843192002,-2.082395243996554
1770453886356,126,-2,-1.2035502220743564,-2.6579723256774765,-2.5993849711147936
1770453886360,125,-3,-1.762196256033104,-3.232717835004109,-3.164406147462824
1770453886364,125,-3,-2.389124759338264,-3.551596201001185,-3.798344033783295
1770453886368,124,-4,-3.0375725043832444,-4.3534782395170994,-4.454548690887561
1770453886372,123,-5,-3.5914545195064207,-5.394942020940876,-5.016095654669577
1770453886376,123,-5,-3.9392286216435655,-5.43280671112771,-5.370792254968967
1770453886380,123,-5,-4.055736840528603,-5.348900575879881,-5.4939872016527875
1770453886384,123,-5,-4.01378083383808,-5.455348287322195,-5.459522640102768
1770453886388,123,-5,-3.923333095512013,-5.362281520114736,-5.377635074664196
1770453886392,123,-5,-3.862541574377466,-5.395940913262871,-5.325730493091935
1770453886396,123,-5,-3.852926888241917,-5.37274467974224,-5.324427335353113
1770453886400,123,-5,-3.8767726827489497,-5.3659856918601285,-5.355553055761824
1770453886404,123,-5,-3.904178919768406,-5.405852697913061,-5.389088709286968
1770453886408,123,-5,-3.908422837385208,-5.357307375842215,-5.398439001047916
1770453886412,123,-5,-3.873713851442851,-5.387071493156127,-5.368662133536026
1770453886416,123,-5,-3.807641170527536,-5.333312175186366,-5.309367145105514
1770453886420,123,-5,-3.7528766127393935,-5.35728083312331,-5.265668616057488
1770453886424,123,-5,-3.766935854532402,-5.382666250989809,-5.295688219671284
1770453886428,123,-5,-3.835627484208498,-5.324485886824953,-5.381781792139744
1770453886432,123,-5,-3.723438738680318,-5.406693744265233,-5.281439386333789
1770453886436,124,-4,-2.830563497628053,-4.2648758371030215,-4.388779694283209
1770453886440,127,-1,-0.1847930988438175,-1.3674621842574868,-1.7323115533205329
1770453886444,132,4,5.301523290854126,3.652615705097228,3.7659918669400785
1770453886448,141,13,14.28059326870106,12.730999481210842,12.744863429793629
1770453886452,153,25,26.29933306884099,24.52575145987204,24.743770621055
1770453886456,165,37,39.391694117195215,36.90260201595975,37.802079379314065
1770453886460,177,49,50.35056788913656,48.44457352347871,48.72788216923029
1770453886464,183,55,55.82510450947268,54.92638633367935,54.1843460465155
1770453886468,182,54,53.851610988819935,53.402811410981826,52.21159934788464
1770453886472,172,44,44.95494844754015,43.91581478290939,43.32803116400334
1770453886476,158,30,32.02348416089548,29.488505066221553,30.41132191372801
1770453886480,144,16,18.901017896275768,15.941770091670673,17.29577470492521
1770453886484,135,7,8.551361604691841,6.5098704548146085,6.9394298482343775
1770453886488,129,1,1.9573990784406183,0.9003074163512137,0.3249998280052915
1770453886492,126,-2,-1.6748712516004858,-2.4793181024187265,-3.3348204716429155
1770453886496,123,-5,-3.807773578810336,-5.133716439938204,-5.491331708800298
1770453886500,121,-7,-5.491123204630166,-7.380322373484047,-7.185797878862231
1770453886504,119,-9,-6.987980658435694,-9.206208589064117,-8.68114978352447
1770453886508,118,-10,-8.100442157646553,-10.256998821474555,-9.787468772713137
1770453886512,118,-10,-8.689752708378421,-10.326869769145745,-10.37577707073518
1770453886516,118,-10,-8.904500465255325,-10.162596373116791,-10.59920063264195
1770453886520,118,-10,-9.024565012665184,-10.418123958483458,-10.734502587379284
1770453886524,117,-11,-9.188955391957522,-11.061985865248383,-10.913470606133028
1770453886528,117,-11,-9.307302674239589,-11.423253363074004,-11.04062576737939
1770453886532,117,-11,-9.20687480970158,-11.030321841244607,-10.943839358537897
1770453886536,118,-10,-8.831390085717567,-10.457632199330872,-10.57146808307622
1770453886540,118,-10,-8.299392251932026,-10.063839974735757,-10.046099148424052
1770453886544,119,-9,-7.798535434652451,-9.40418946251484,-9.555694165328145
1770453886548,119,-9,-7.441276893254967,-9.028838296871683,-9.209683627780077
1770453886552,119,-9,-7.21367150012093,-9.354716364769605,-8.990660080114488
1770453886556,119,-9,-7.036802047882123,-9.1055711569165,-8.818888167563472
1770453886560,120,-8,-6.848834517791242,-8.35351541623676,-8.635059668540379
1770453886564,120,-8,-6.619391474059934,-8.123460057122271,-8.411939518032073
1770453886568,120,-8,-6.3151675233154965,-8.20837186854914,-8.11659083747471
1770453886572,120,-8,-5.899392611201762,-8.156329466976597,-7.709941469715439
1770453886576,121,-7,-5.379835920247246,-7.230344509495212,-7.198063836257683
1770453886580,122,-6,-4.829719726299638,-6.209820227582211,-6.654821598332057
1770453886584,122,-6,-4.334908518836984,-6.235830133008294,-6.16719247676747
1770453886588,122,-6,-3.922097791006813,-6.012813373934803,-5.761449574325739
1770453886592,123,-5,-3.544611204707976,-5.33660772163222,-5.3898935684456974
1770453886596,123,-5,-3.127895472657451,-4.962095449883398,-4.978369711788059
1770453886600,124,-4,-2.6226066244462416,-4.492870524480164,-4.4792523369397355
1770453886604,124,-4,-2.032467949018162,-3.8604945424455273,-3.897261353256989
1770453886608,125,-3,-1.4185738071759622,-3.3655084042681236,-3.292449752441618
1770453886612,125,-3,-0.8829258124242079,-2.916195734826276,-2.7646877927268534
1770453886616,126,-2,-0.5223643602967221,-2.3327283573393864,-2.4097388014890555
1770453886620,126,-2,-0.3593336574187858,-2.119064189095768,-2.251025132300379
1770453886624,126,-2,-0.2961707132589677,-2.1371243752236375,-2.1927236320833625
1770453886628,126,-2,-0.1525198058332395,-2.0921395553457156,-2.0552695311166103
1770453886632,126,-2,0.2126134371201015,-2.0737806105938463,-1.6970308189337764
1770453886636,127,-1,0.7836355951597509,-1.1911109871944496,-1.132831088302171
1770453886640,128,0,1.3864907068858845,-0.1687103862950425,-0.5367236457970754
1770453886644,128,0,1.8159334691920817,-0.0772173574961083,-0.1140501211011921
1770453886648,128,0,1.9817650758682368,-0.0701973151768082,0.0455818931889513
1770453886652,128,0,1.9500112276882895,-0.0608704429599364,0.0088668390431994
1770453886656,128,0,1.8625806774381208,-0.1667116169901745,-0.0826292477859051
1770453886660,128,0,1.823971918262864,-0.1389160784823075,-0.1256367983583168
1770453886664,128,0,1.848803086342548,-0.0609075081506576,-0.1064336255703353
1770453886668,128,0,1.8915507483883935,-0.017025207845795,-0.0702557335617137
1770453886672,128,0,1.9107320786475832,-0.0743082088157165,-0.0574497260920559
1770453886676,128,0,1.9064686549719512,-0.115059593764647,-0.0669544946795748
1770453886680,128,0,1.908537215653722,-0.1409709507460472,-0.0689913148894296
1770453886684,128,0,1.9382767978787017,-0.014922416479888,-0.0430020394682746
1770453886688,128,0,1.9819161019416,0.0241666058210399,-0.0035759054919415
1770453886692,128,0,1.99287031530491,-0.106388192965434,0.0023999432175474
1770453886696,128,0,1.9145587309853591,0.0032766915801274,-0.0814018275355554
1770453886700,128,0,1.7046282486266362,-0.269285539798286,-0.2966841755042808
1770453886704,127,-1,1.346205287764073,-0.7774760190061933,-0.6595390804065382
1770453886708,127,-1,0.84620303375021,-1.1909016486116015,-1.1627648487024065
1770453886712,126,-2,0.2346587862386067,-1.8214163242126276,-1.7770647578512435
1770453886716,126,-2,-0.4270805300657649,-2.2433400411180724,-2.4422750315695403
1770453886720,125,-3,-1.04801664303721,-2.9981287184332537,-3.067587565818327
1770453886724,124,-4,-1.5441662249735872,-3.944922429847794,-3.5678977895855795
1770453886728,124,-4,-1.8930165997292412,-4.023760103277564,-3.91985694944446
1770453886732,124,-4,-2.1461890318763306,-3.8648932087382777,-4.1758139466536175
1770453886736,124,-4,-2.374336337561845,-4.235555724443383,-4.407576444187284
1770453886740,123,-5,-2.601173770275968,-4.887335439615994,-4.638557326964175
1770453886744,123,-5,-2.7988756265443486,-5.050286224975425,-4.839494726202645
1770453886748,123,-5,-2.936471210143522,-4.836935941878069,-4.978857442034504
1770453886752,123,-5,-3.010569086912879,-4.99422913924268,-5.054271182211243
1770453886756,123,-5,-3.025712587419473,-5.090310514403828,-5.071490998730463
1770453886760,123,-5,-2.96476514514603,-4.930183635643985,-5.013405766315932
1770453886764,123,-5,-2.7989358358259815,-5.015264691171913,-4.850320357918227
1770453886768,123,-5,-2.5315197924943016,-4.757433127841904,-4.584963341395427
1770453886772,124,-4,-2.223295180611019,-4.063733175087777,-4.278457820275493
1770453886776,124,-4,-1.964739000928556,-3.9423869929945945,-4.0217704291592815
1770453886780,124,-4,-1.8189913777075783,-4.0375344395578345,-3.87780662918677
1770453886784,124,-4,-1.7882288751424062,-3.8605117217109206,-3.848152525115897
1770453886788,124,-4,-1.8252228068191323,-3.843243349322885,-3.8855957909769496
1770453886792,124,-4,-1.86964659794628,-3.942381859105176,-3.930469522360203
1770453886796,124,-4,-1.8812644812036936,-3.9847498928438454,-3.942995956392906
1770453886800,124,-4,-1.855890958743624,-3.9645089105260753,-3.9187930673478775
1770453886804,124,-4,-1.8191625156797688,-3.864182829982404,-3.883008416419639
1770453886808,124,-4,-1.8017632090267697,-3.7969114744944905,-3.8660184700826488
1770453886812,124,-4,-1.8135654961444232,-3.920584367427197,-3.877683981579496
1770453886816,124,-4,-1.837422847411093,-3.9635239916597738,-3.9011089712635982
1770453886820,124,-4,-1.8454491715007448,-3.915675900087776,-3.9088272039831673
1770453886824,124,-4,-1.8200999701002352,-3.8848738800362224,-3.8834808451979663
1770453886828,124,-4,-1.7630846814459435,-3.690514941643123,-3.826308169696652
1770453886832,124,-4,-1.6904499187522115,-3.993162487791364,-3.7526566946041338
1770453886836,124,-4,-1.6180750485401267,-3.8179159086445127,-3.678565745898714
1770453886840,125,-3,-1.5419193061208412,-3.018229055973607,-3.6010273100733032
1770453886844,124,-4,-1.431930038778059,-3.72287606602716,-3.490391733449521
1770453886848,124,-4,-1.2630981163325656,-3.8028148506802486,-3.320725414865417
1770453886852,125,-3,-1.0629509431967925,-2.802811009240793,-3.118741723014482
1770453886856,125,-3,-0.9119964609200132,-2.9808662334874247,-2.96550568366663
1770453886860,125,-3,-0.8768614230809946,-2.7740324033086,-2.9285669937128853
1770453886864,125,-3,-0.9436829462588736,-2.9207428552998995,-2.993761687492606
1770453886868,124,-4,-1.02748998153756,-3.5592325095135267,-3.07500131538389
1770453886872,125,-3,-1.0452855670412644,-2.964512033780191,-3.0891495410899883
1770453886876,125,-3,-0.9710167549725665,-2.793494032430009,-3.01137426345385
1770453886880,125,-3,-0.8247822475036586,-2.867811060806293,-2.8626738538039964
1770453886884,125,-3,-0.6308399038288668,-2.7896937651635554,-2.6666945099761414
1770453886888,125,-3,-0.3980096947528483,-2.626780527637786,-2.4311296128570854
1770453886892,126,-2,-0.1258312759232863,-1.8469749021654545,-2.155279569190951
1770453886896,126,-2,0.1902775503082755,-1.853020730666759,-1.8349779429906223
1770453886900,126,-2,0.559798357210447,-1.730995515202324,-1.4609088251685454
1770453886904,127,-1,0.9918327581381388,-0.8868290771221898,-1.024020631923054
1770453886908,127,-1,1.4853940456778636,-0.451528284785669,-0.5257755584875814
1770453886912,128,0,2.022598908794216,-0.0036431473612235,0.0154286823895264
1770453886916,128,0,2.5608241586630673,0.4106938765311403,0.5571783182020171
1770453886920,129,1,3.025517771386118,1.0302305150376254,1.0257798095028077
1770453886924,129,1,3.3232500811473416,1.44102887981683,1.3285292131322417
1770453886928,129,1,3.3855201861511803,1.2540596883629829,1.396907293885217
1770453886932,129,1,3.219100092445554,1.350908376881791,1.2369775935969924
1770453886936,129,1,2.9185692299397368,1.1287958225168035,0.9426330222824022
1770453886940,128,0,2.6153264112477923,0.3637162865827195,0.6452645864717754
1770453886944,128,0,2.3884478602325583,0.182411640644563,0.4243194435653987
1770453886948,128,0,2.2084432368720437,0.5536590133571302,0.2502992715114767
1770453886952,128,0,1.967485660797557,0.1268611635574164,0.0151156431820813
1770453886956,127,-1,1.5693291548210413,-0.6052980282289162,-0.3772445562307016
1770453886960,127,-1,0.9980106104057908,-0.7972564682863759,-0.9420387971610656
1770453886964,126,-2,0.3165435512723892,-1.659546831679332,-1.6158612059946114
1770453886968,125,-3,-0.3846885382329399,-2.4797827795347156,-2.3086924274591625
1770453886972,125,-3,-1.0376769568807958,-2.848187697217192,-2.953378272874709
1770453886976,124,-4,-1.609362405132464,-3.491630735476707,-3.5175441203673965
1770453886980,124,-4,-2.082820890586233,-3.9041605822890686,-3.984141058258624
1770453886984,123,-5,-2.441197464365392,-4.450107564979347,-4.335391233488906
1770453886988,123,-5,-2.6752592552770667,-4.667800300823016,-4.561249319469338
1770453886992,123,-5,-2.7976445354492525,-4.574919462906959,-4.674552876836964
1770453886996,123,-5,-2.8353694101351476,-4.70485973154973,-4.703279733502586
1770453887000,123,-5,-5.2315364674128615,-1.915834623551224,-0.5240519254979037
1770453887004,123,-5,-5.163264956548489,-1.7577114733588737,-0.4600846685220692
1770453887008,123,-5,-4.994225967043327,-1.9319655618347895,-0.2973935032102041
1770453887012,123,-5,-4.830011171807184,-1.666931329663649,-0.1389798537344948
1770453887016,124,-4,-4.7805058787337185,-1.0767275159386624,-0.0924059352546041
1770453887020,123,-5,-4.8845537576540945,-1.6801803505140696,-0.1957171836267592
1770453887024,123,-5,-5.07427840387129,-2.0364573541176187,-0.3827393147451048
1770453887028,123,-5,-5.216923299218184,-1.738539708619925,-0.5251110722774222
1770453887032,123,-5,-5.206903904478669,-1.8658515530304585,-0.521882567085965
1770453887036,123,-5,-5.034943020098168,-1.984246846618199,-0.3641313335732675
1770453887040,123,-5,-4.759654777620029,-1.7389730017532186,-0.1044202261091151
1770453887044,124,-4,-4.3384541856227985,-1.137473235305266,0.3088421707759425
1770453887048,125,-3,-3.3653849621856606,0.3970837442218986,1.286980565263918
1770453887052,128,0,-0.91154201885728,2.881439450922127,3.756193356283516
1770453887056,132,4,4.2659160198220984,7.269569488834788,8.949214910927536
1770453887060,141,13,13.052587553363727,15.960150947041342,17.739459184606268
1770453887064,153,25,25.12145036127426,28.07540499350168,29.793232775923197
1770453887068,166,38,38.45264152427009,41.193751880550494,43.09505873172713
1770453887072,178,50,49.70465513710006,52.962363360145,54.3173063786654
1770453887076,184,56,55.4574362701048,59.20505062890885,60.05418711803048
1770453887080,183,55,53.77467701804854,57.849237986008056,58.374522388263635
1770453887084,174,46,45.206666251755166,49.15377704354883,49.82271019044457
1770453887088,160,32,32.564552362980805,35.00322574930366,37.198747884072525
1770453887092,146,18,19.525501971557176,21.14438288945674,24.169820218225546
1770453887096,137,9,8.91924281106806,12.029502209697975,13.55985034757094
1770453887100,131,3,1.7534217112415602,5.984403651111463,6.376534949642526
1770453887104,126,-2,-2.5658316064150917,1.0170792784960416,2.0330268331579777
1770453887108,123,-5,-5.247612753936393,-1.958670488677492,-0.6687598840490088
1770453887112,121,-7,-7.199707774800311,-3.933356814088227,-2.6288627214211084
1770453887116,119,-9,-8.721199797665596,-5.992843391083652,-4.147048146712226
1770453887120,118,-10,-9.7566441908949,-7.000065383703945,-5.1754039726169525
1770453887124,118,-10,-10.291599497518146,-7.070878067642934,-5.70790542494673
1770453887128,118,-10,-10.50951134173497,-6.896563228875169,-5.9319719536174285
1770453887132,118,-10,-10.65201121083482,-7.088629036767446,-6.0869227291547015
1770453887136,117,-11,-10.81504375518191,-7.870874448811878,-6.262386982215452
1770453887140,117,-11,-10.920199297119789,-8.200072650723959,-6.374776107604124
1770453887144,117,-11,-10.863826230853858,-7.876504740190084,-6.320576785246743
1770453887148,118,-10,-10.650799018626811,-7.180025157514623,-6.109355033296307
1770453887152,118,-10,-10.372586420363325,-6.822003275581948,-5.836695147699844
1770453887156,118,-10,-10.091554152178096,-7.224120141069433,-5.5645388304146515
1770453887160,118,-10,-9.786610799620222,-6.887698817809104,-5.268246861833748
1770453887164,119,-9,-9.410191715715518,-6.228216418131242,-4.89806893867379
1770453887168,119,-9,-8.966510043369276,-5.9070294969567465,-4.45936192806305
1770453887172,120,-8,-8.517084986546712,-5.095619433840917,-4.0158727435324195
1770453887176,120,-8,-8.122766506081707,-5.055096278012898,-3.628887162415942
1770453887180,120,-8,-7.796417985021501,-5.07336269301465,-3.3099688081679415
1770453887184,121,-7,-7.505638356501388,-4.121381521727087,-3.025842323883904
1770453887188,121,-7,-7.202533889805949,-4.050298136655176,-2.729117254382663
1770453887192,121,-7,-6.848246397668238,-3.989566637457618,-2.381671311037618
1770453887196,122,-6,-6.426379001235531,-3.2346724194722736,-1.967003327062556
1770453887200,122,-6,-5.946938655025567,-2.91550892500779,-1.494593519823863
1770453887204,123,-5,-5.435974887300126,-2.389362607560283,-0.9904706624125044
1770453887208,123,-5,-4.915249011899213,-1.754113119464813,-0.4769784299785191
1770453887212,124,-4,-4.3907143571270435,-1.4036284922574114,0.0395397337589151
1770453887216,124,-4,-3.8632772609294905,-0.8149405207134672,0.558679688900853
1770453887220,125,-3,-3.3507856285199344,-0.4228662694490288,1.0636188154581108
1770453887224,125,-3,-2.8908835045507844,0.0490803012467329,1.5170523466193897
1770453887228,126,-2,-2.5078953570174054,0.8258826938438809,1.8937409136876096
1770453887232,126,-2,-2.1719019240158053,0.8773102443946681,2.2223965505108896
1770453887236,126,-2,-1.8053369549591556,0.9672026456510768,2.58042808650488
1770453887240,127,-1,-1.3522947126115608,1.6130274192255545,3.024668619497159
1770453887244,127,-1,-0.8492374146700341,2.069286623787153,3.519538746694936
1770453887248,128,0,-0.4168665904300674,2.6805621204017194,3.944398997189633
1770453887252,128,0,-0.1666015298434174,3.036986301472506,4.187330443258717
1770453887256,128,0,-0.1046822740697066,2.736336011099863,4.241650387163865
1770453887260,128,0,-0.1250035169810526,2.7525074464479022,4.213340731966063
1770453887264,128,0,-0.0997857477830564,2.937110895783405,4.230324414289134
1770453887268,128,0,0.012594357629514,2.6910445964329135,4.334454895238267
1770453887272,128,0,0.1393249283358733,3.081824498961389,4.452934347158022
1770453887276,129,1,0.1725184338828857,3.5628569664628182,4.477654420647613
1770453887280,128,0,0.0856635028228403,2.906625721000845,4.3821955315404
1770453887284,128,0,-0.0249655900454619,2.709777053950686,4.263460861001217
1770453887288,128,0,-0.0174417832072685,2.867664172248989,4.263692745656876
1770453887292,128,0,0.1746961320714573,2.902905866012616,4.448524841476703
1770453887296,129,1,0.4914977752788652,3.645114094564801,4.756714077069997
1770453887300,129,1,0.8017857001629405,3.8223236916917154,5.056952939116193
1770453887304,129,1,0.9981253773736276,3.67046300255543,5.243304163705726
1770453887308,129,1,1.0461995037060572,3.924053729723175,5.28301155751704
1770453887312,129,1,0.9690641822217696,3.759683965632035,5.198955414000137
1770453887316,129,1,0.8076631896928752,3.769426545885511,5.030421918429125
1770453887320,129,1,0.5935219373368883,3.632971274232309,4.80776764998337
1770453887324,128,0,0.3334259337079368,2.7961370154919325,4.538171433356174
1770453887328,128,0,0.0018683170548207,2.7632659014906613,4.197093609017218
1770453887332,128,0,-0.4441063639350292,2.8751162978304365,3.741952505100526
1770453887336,127,-1,-1.0263942937765689,1.611195251090429,3.150882709330186
1770453887340,126,-2,-1.7172482046523998,0.7307905146763425,2.4517664691000696
1770453887344,126,-2,-2.44603966194909,0.6542064009714409,1.715026346134498
1770453887348,125,-3,-3.1262362431973054,-0.1744816720343476,1.0265645240529766
1770453887352,124,-4,-3.6816221537676217,-1.173459567030867,0.4623402942759111
1770453887356,124,-4,-4.069172979991581,-1.4404298980003851,0.0656760428760399
1770453887360,124,-4,-4.289919093833701,-1.2130873370470736,-0.1642337631943453
1770453887364,124,-4,-4.37490354776869,-1.52165811636213,-0.2583108297396819
1770453887368,123,-5,-4.360780744755049,-1.99243707689578,-0.2528675181611961
1770453887372,124,-4,-4.280914718961697,-1.4284707559539485,-0.1812102518557776
1770453887376,124,-4,-4.169115290989673,-1.209458211488338,-0.0778771166537934
1770453887380,124,-4,-4.058736221971202,-1.506794389307778,0.0230613933174022
1770453887384,124,-4,-3.9787436409272177,-1.2965383363572986,0.0930080024985322
1770453887388,124,-4,-3.95324859844124,-1.2349933654250569,0.1090503628267718
1770453887392,124,-4,-3.994362092267183,-1.2686339944212617,0.0598787921528913
1770453887396,124,-4,-4.081782268001314,-1.3546813120098038,-0.0346288631300761
1770453887400,124,-4,-4.148776068369472,-1.4813572077803712,-0.1091373498621843
1770453887404,124,-4,-4.104011134754531,-1.3155395737256654,-0.0735020497926086
1770453887408,124,-4,-3.8938196273597656,-1.3203484864539297,0.1261615982443586
1770453887412,124,-4,-3.566654055254509,-1.1675909182645894,0.4428845380020485
1770453887416,125,-3,-3.2757431005183193,-0.544381902409043,0.7246185156295781
1770453887420,125,-3,-3.187044692746574,-0.3030223690567548,0.8051330054762467
1770453887424,125,-3,-3.346719989322113,-0.5943623478429505,0.6372783921284184
1770453887428,124,-4,-3.625232354761235,-1.051518332982296,0.35035896191228
1770453887432,124,-4,-3.8051018766051143,-1.501666432483308,0.1624126659440745
1770453887436,124,-4,-3.744917402323954,-1.2481941512144663,0.2148192978926171
1770453887440,125,-3,-3.4735897581623263,-0.6242992569631571,0.4775085943375707
1770453887444,125,-3,-3.13840077378166,-0.3776279685856765,0.8023798891172638
1770453887448,125,-3,-2.875195469539534,-0.2369981234246151,1.0546757446405677
1770453887452,125,-3,-2.7297277685566104,-0.452475134020679,1.190795817591726
1770453887456,125,-3,-2.6789535832270945,-0.2568663430389172,1.2344518797843715
1770453887460,126,-2,-2.6902374136963596,0.2576041907877432,1.2165374676700027
1770453887464,125,-3,-2.7449919674011247,-0.2463312621377117,1.1535218378242835
1770453887468,125,-3,-2.8261956557719343,-0.4498699634558524,1.0622801272645193
1770453887472,125,-3,-2.9111672691056647,-0.2658787269385592,0.9671920301164924
1770453887476,125,-3,-2.9815891818590203,-0.5019103395687227,0.8881254307392501
1770453887480,125,-3,-3.028594866805592,-0.5489290409316022,0.8338602535896715
1770453887484,125,-3,-3.0398760649897807,-0.4687006735888708,0.8152115088406133
1770453887488,125,-3,-2.985523861515267,-0.2895922117326858,0.8607657822691919
1770453887492,125,-3,-2.8308418984850947,-0.4531541431422312,1.005511903053029
1770453887496,125,-3,-2.578261943364331,-0.3896350385696971,1.2485795228012675
1770453887500,126,-2,-2.2941221886595224,0.3180411128512109,1.5245743516271644
1770453887504,126,-2,-2.0704609087509462,0.5915534955103529,1.7407457032973754
1770453887508,126,-2,-1.9396006417745444,0.6460459499007525,1.8635425345567904
1770453887512,126,-2,-1.828758500645749,0.5195896795630137,1.965634574742233
1770453887516,126,-2,-1.6149292394912678,0.6276107846515095,2.1709503330248485
1770453887520,127,-1,-1.2345111779381177,1.2090746328329574,2.543572827167827
1770453887524,127,-1,-0.7395961747879174,1.699374000118257,3.030694420160675
1770453887528,128,0,-0.2474384609024182,2.4802485683498183,3.514133753656233
1770453887532,128,0,0.1595609029029137,2.6392984498595498,3.911724481015704
1770453887536,128,0,0.4816958905793946,2.4684865676924748,4.224984969077019
1770453887540,129,1,0.7632675545637253,3.27004564507383,4.498921665135999
1770453887544,129,1,1.0264840044711203,3.670819639341495,4.7551949442365515
1770453887548,129,1,1.248637779062315,3.391942245096961,4.970096407100877
1770453887552,129,1,1.390734031519412,3.772991487395431,5.1040849449826755
1770453887556,130,2,1.436505615204361,4.189120050565451,5.140994163578185
1770453887560,129,1,1.4009229432244723,3.5625039676314114,5.096457944383133
1770453887564,129,1,1.2996147578396593,3.293780856093051,4.986877003844493
1770453887568,129,1,1.1152305490730756,3.7715452573643335,4.794998511759679
1770453887572,129,1,0.8088361499180394,3.3283768956579856,4.481338131660166
1770453887576,128,0,0.3713403784249789,2.580225819133144,4.036489260209994
1770453887580,128,0,-0.1452070898079502,2.125759323002006,3.5125855624959805
1770453887584,127,-1,-0.6548161628565912,1.6714357416326258,2.9954098183560096
1770453887588,127,-1,-1.097431786167886,1.391067311749833,2.5445685680975085
1770453887592,126,-2,-1.480897752306479,0.6367480352432204,2.152382653855069
1770453887596,126,-2,-1.8741559607183336,0.2465509588729023,1.7507319290275218
1770453887600,126,-2,-2.349608034912407,0.3709746988474225,1.2678116364759129
1770453887604,125,-3,-2.9083634978061004,-0.5765214848024114,0.7025048827659717
1770453887608,124,-4,-3.4523729074775997,-1.4369117981295834,0.1524884022495634
1770453887612,124,-4,-3.841273590583591,-1.5233616989883436,-0.2426762151647279
1770453887616,124,-4,-3.993214784950845,-1.7074801585420465,-0.402301545123483
1770453887620,124,-4,-3.945372151914056,-1.679254019921245,-0.3640346211619141
1770453887624,124,-4,-3.8282644576012217,-1.5905879914280077,-0.2570848582078011
1770453887628,124,-4,-3.7769371871978743,-1.4498311177743672,-0.2139327209017973
1770453887632,124,-4,-3.840929288492275,-1.5366217590917988,-0.2823879122657584
1770453887636,124,-4,-3.9525733490135746,-1.7912814795189949,-0.3958072423168333
1770453887640,124,-4,-3.9800983745342617,-1.6091979274676442,-0.4261149446143999
1770453887644,124,-4,-3.84140117233407,-1.714213530110179,-0.2950844259232548
1770453887648,124,-4,-3.6063271094216423,-1.3754134605434007,-0.0735567383456943
1770453887652,124,-4,-3.491039423583183,-1.5779440264417948,0.0250400191722741
1770453887656,124,-4,-3.673687100503779,-1.9471562345765483,-0.1727040811782951
1770453887660,125,-3,-3.971296119293351,-0.3260873961687686,-0.4788014003306582
1770453887664,125,-3,-3.5887122467427335,-1.2268907244025973,-0.0940324102834821
1770453887668,124,-4,-1.2151276327023974,-0.7080152175148111,2.2918604020395597
1770453887672,134,6,4.450966508837263,7.568886275963202,7.971000935539385
1770453887676,142,14,13.9746892507116,16.960472739590404,17.4940646561243
1770453887680,154,26,26.601884941431564,27.672660457938683,30.09981037947315
1770453887684,167,39,40.096499185390165,41.770914821828846,43.56030062378344
1770453887688,179,51,51.19597803445112,53.274661603897265,54.62997310670068
1770453887692,185,57,56.717391669434846,59.39981639459741,60.13837106014339
1770453887696,184,56,54.94272624177509,58.2133349797239,58.36820779016728
1770453887700,175,47,46.5203275122266,49.15191990942773,49.95980993443152
1770453887704,161,33,34.22101710953294,35.464260816924515,37.67422510439396
1770453887708,148,20,21.584763187264727,22.35017733728957,25.043911000500305
1770453887712,139,11,11.28431101127644,13.456009034828885,14.73726080164104
1770453887716,133,5,4.223425741211855,7.061445131422532,7.658297890099176
1770453887720,128,0,-0.2123474101416995,2.341219584290954,3.198930583361043
1770453887724,125,-3,-3.1828808755276574,-0.7543962632074521,0.2091064253001633
1770453887728,122,-6,-5.507973700828316,-3.5745361691138893,-2.1241990086368725
1770453887732,120,-8,-7.392224763236216,-5.608761400890425,-4.006261390215086
1770453887736,119,-9,-8.709334365356865,-7.002853002393372,-5.317432723459264
1770453887740,118,-10,-9.417318173955088,-7.492991102436632,-6.023347772606276
1770453887744,119,-9,-9.711892353504638,-7.053726150814519,-6.323838489566743
1770453887748,118,-10,-9.859873468967852,-7.268290242012451,-6.484227801604934
1770453887752,118,-10,-9.96853299820137,-8.047294064305692,-6.605758629557854
1770453887756,117,-11,-9.95999600083115,-8.570779978941406,-6.6046091891424075
1770453887760,118,-10,-9.749073597718445,-7.921691144318754,-6.394965253658787
1770453887764,119,-9,-9.38874009249251,-6.706864333117745,-6.034899551436842
1770453887768,119,-9,-9.017598411561568,-6.590630548255422,-5.668265198711927
1770453887772,119,-9,-8.704295555791255,-6.906854511187968,-5.363734589141247
1770453887776,119,-9,-8.3948479947739,-6.627039927770862,-5.063006782788791
1770453887780,120,-8,-8.014183162215847,-6.007774287626312,-4.687687334733825
1770453887784,120,-8,-7.580360545009584,-5.536924208871348,-4.25670661444436
1770453887788,121,-7,-7.192731947023579,-4.9008384140814485,-3.8726114125012985
1770453887792,121,-7,-6.917061317246334,-4.597635369288377,-3.6027970429771305
1770453887796,121,-7,-6.70665746557808,-5.023192205152828,-3.399193442852581
1770453887800,121,-7,-6.448174764703284,-4.621738331319495,-3.146188124734837
1770453887804,122,-6,-6.075759455576868,-3.934950761549103,-2.7775817790744184
1770453887808,122,-6,-5.626613855450869,-3.5900295347694824,-2.3323173678086246
1770453887812,123,-5,-5.187423864743405,-2.903845929473897,-1.8985538460097175
1770453887816,123,-5,-4.8028845056620115,-2.845206612638618,-1.5204123160830043
1770453887820,123,-5,-4.444480648759281,-2.7389033733759613,-1.1676046814746033
1770453887824,124,-4,-4.055899632961374,-1.9421840479800472,-0.783011991050949
1770453887828,124,-4,-3.6095983591229466,-1.5280355768654323,-0.3400148325617347
1770453887832,125,-3,-3.1165295318548076,-1.1210462010684776,0.1490438677468164
1770453887836,125,-3,-2.597842713893683,-0.5767194976975758,0.6625789399612965
1770453887840,126,-2,-2.0637069461924025,-0.1247360747975616,1.1910346465769148
1770453887844,126,-2,-1.5213906789349545,0.4780060188534341,1.7280320617391045
1770453887848,127,-1,-0.9958674530996828,0.9701566802527806,2.2490973434797055
1770453887852,127,-1,-0.5327716110962364,1.3380467180914488,2.708402192540857
1770453887856,128,0,-0.17082519102472,1.931872424538326,3.0664980315260917
1770453887860,128,0,0.0955504799625219,2.3034982647739164,3.328473371588321
1770453887864,128,0,0.3212248020161538,2.061968504342992,3.5495732100465975
1770453887868,128,0,0.5649073223124772,2.292324607940118,3.789161857627171
1770453887872,129,1,0.833332150039642,3.0178715744562363,4.0537793861163
1770453887876,129,1,1.074812562744423,3.1514475156379924,4.290865897276889
1770453887880,129,1,1.2274222716933043,3.1093450268073033,4.438302087761506
1770453887884,129,1,1.2683320707802592,3.179562314405648,4.474217904758428
1770453887888,129,1,1.222404767048768,3.1600763861102257,4.424452535895496
1770453887892,129,1,1.1408754513753407,3.0766412332551174,4.340070804753689
1770453887896,129,1,1.081921348506978,3.057436454730157,4.278163852992644
1770453887900,129,1,1.1017520500971425,3.1846584704163696,4.294154590781698
1770453887904,129,1,1.2407108020840698,3.058531472161645,4.4286177453302
1770453887908,129,1,1.4978114467202193,3.249106827868631,4.681261684943696
1770453887912,130,2,1.815869635707829,3.923597334903292,4.995144074180811
1770453887916,130,2,2.102243265631741,4.1674432043142104,5.277472919339303
1770453887920,130,2,2.27375345279995,4.071467919827121,5.445187121404164
1770453887924,130,2,2.287897122721855,4.097404970440077,5.4560326471913925
1770453887928,130,2,2.143205332504019,4.217736632442049,5.308219636530124
1770453887932,130,2,1.862998610777472,3.831806319940446,5.024394487765539
1770453887936,129,1,1.4766552534443655,3.2905515733450024,4.633914082952856
1770453887940,129,1,1.002108576219463,2.8716879336934533,4.155460616319901
1770453887944,128,0,0.4409192014336429,2.2934263443758676,3.591048582285986
1770453887948,128,0,-0.2014367955536976,1.9683206671692783,2.9456919011889013
1770453887952,127,-1,-0.8860484830396753,1.0090348434536405,2.2576285783595207
1770453887956,126,-2,-1.54045291764707,0.1138100749527402,1.5993286276676904
1770453887960,126,-2,-2.099606995084942,-0.0199249865591533,1.036392597635976
1770453887964,125,-3,-2.549333982038749,-0.8045025257466754,0.5833528352844639
1770453887968,125,-3,-2.925051161217018,-1.0216891708134457,0.2046179069167077
1770453887972,125,-3,-3.264662118084792,-1.017973338378933,-0.1380639580539115
1770453887976,124,-4,-3.563806285453696,-1.916125346129615,-0.440429981129768
1770453887980,124,-4,-3.7804528392794223,-2.0147892637274105,-0.6604122748803929
1770453887984,124,-4,-3.883102484183736,-1.829006281279148,-0.7666382502129161
1770453887988,124,-4,-3.891220118111132,-2.0698467978392134,-0.7785872099810334
1770453887992,124,-4,-3.868300213171448,-1.9920063136946389,-0.7592409979599666
1770453887996,124,-4,-3.874245031327571,-1.987868823399818,-0.7679249293548085
1770453888000,124,-4,-3.9140445714252072,-1.9854558995592495,-0.8098457093448852
1770453888004,124,-4,-3.9230603756724953,-1.8611673545976457,-0.8212405788274295
1770453888008,124,-4,-3.8113136023215586,-2.1259694497771413,-0.7126777267103801
1770453888012,124,-4,-3.545167250660907,-1.9406632581587688,-0.450353960077642
1770453888016,125,-3,-3.198058359038002,-1.1043960269465338,-0.107298189996049
1770453888020,125,-3,-2.91279391007253,-0.8816783694413877,0.1741208696201475
1770453888024,125,-3,-2.7981064003156293,-1.0019961226091838,0.2857810690671425
1770453888028,125,-3,-2.8478075613838403,-1.0342090029037532,0.2341638549538121
1770453888032,125,-3,-2.9470146502486365,-1.0828505459318527,0.1334000612020773
1770453888036,125,-3,-2.953239657958828,-0.9925453095750106,0.1247164059737815
1770453888040,125,-3,-2.792337622937042,-1.0307538911178329,0.2819434317130003
1770453888044,125,-3,-2.508973872745999,-0.8573684845656526,0.561314330589366
1770453888048,126,-2,-2.2354447345499793,-0.2602633404386918,0.8313445893583804
1770453888052,126,-2,-2.091495615748765,0.1313790944615598,0.9722537501475546
1770453888056,126,-2,-2.0911513082308573,-0.2818936981286883,0.9698613113239194
1770453888060,125,-3,-2.142384775274209,-0.73519996349167,0.916377877162344
1770453888064,126,-2,-2.1395666831124043,-0.2032139369497483,0.9172034609640024
1770453888068,126,-2,-2.053442621453695,0.039835335917286,1.0007107521295866
1770453888072,126,-2,-1.9369387054880096,-0.1975460096301983,1.1136173514828127
1770453888076,126,-2,-1.8619624837660536,-0.0153626604894383,1.1848787877527114
1770453888080,126,-2,-1.8581456039195177,0.0127400797590931,1.1858666319050015
1770453888084,126,-2,-1.898558859538984,-0.0422790364729488,1.1433797723733077
1770453888088,126,-2,-1.9299835540891728,-0.1061013034688408,1.1096436205208182
1770453888092,126,-2,-1.9197784615857731,-0.153791035090567,1.116687373095937
1770453888096,126,-2,-1.8845698075294404,-0.0369967221220849,1.1482669930155918
1770453888100,126,-2,-1.875907146079788,-0.0352898525388969,1.153678037330259
1770453888104,126,-2,-1.928437829019572,-0.0069909436122546,1.0986827834799466
1770453888108,126,-2,-2.0103323389688432,-0.1884855036091238,1.0147889230037015
1770453888112,126,-2,-2.0228962959718952,-0.1354817821529533,1.0001415181144533
1770453888116,126,-2,-1.8629186815225764,-0.044250797288549,1.1577064840696607
1770453888120,126,-2,-1.506290731715782,-0.1130992734273685,1.5114486881505744
1770453888124,127,-1,-1.040017782777297,1.0970669496883974,1.973984064641459
1770453888128,128,0,-0.6052261182790046,1.6159561852722848,2.404230947604974
1770453888132,127,-1,-0.2976273928328276,1.042169633222492,2.707761491213021
1770453888136,128,0,-0.1112040534032536,1.747097627168119,2.892155984662293
1770453888140,128,0,0.0431479459006158,2.0335646250296304,3.046335636576211
1770453888144,128,0,0.2809943014434537,1.9662606202368496,3.2836931780496315
1770453888148,129,1,0.6886479145016182,2.6455264314279843,3.688511977569483
1770453888152,129,1,1.2761411372269338,3.049747297545245,4.27100628540078
1770453888156,130,2,1.9460772694753796,3.6198501034966206,4.935904947696355
1770453888160,130,2,2.507856332029037,4.208168993192576,5.494347305143645
1770453888164,131,3,2.7615819748332804,4.696085679941528,5.746012066363756
1770453888168,131,3,2.6188079297513944,4.906331956564227,5.60086628273106
1770453888172,130,2,2.1646193970402785,3.762678025097511,5.14367130137929
1770453888176,129,1,1.590723967214707,2.809694820104442,4.567328043874905
1770453888180,129,1,1.0533731052331423,3.0745976258124195,4.028518121328105
1770453888184,129,1,0.593329604263598,2.699883196144263,3.5665896985268333
1770453888188,128,0,0.1788114380057836,1.9634256571370343,3.1484304908387863
1770453888192,128,0,-0.2102051898542551,1.6082213010969495,2.7547059128856866
1770453888196,127,-1,-0.5633911737689337,0.9421773533599844,2.397552336951404
1770453888200,127,-1,-0.8891110373991928,0.9099678888922488,2.0692767456180805
1770453888204,127,-1,-1.2479728558799217,0.8095806964433802,1.7082605980069292
1770453888208,126,-2,-1.7174407908947926,-0.1280428535709059,1.2358324077092693
1770453888212,126,-2,-2.319820864135407,-0.3872314686971707,0.6296891104519942
1770453888216,125,-3,-2.984360134546921,-1.062871226866894,-0.0382931623974367
1770453888220,124,-4,-3.5791268381842203,-2.167858129617572,-0.6351814336935702
1770453888224,124,-4,-3.9856850427084503,-2.112254202582729,-1.0429054903787114
1770453888228,124,-4,-4.156236533673079,-2.2198354960395266,-1.2153806493458663
1770453888232,124,-4,-4.1186743828412915,-2.373017129164815,-1.181932796192724
1770453888236,124,-4,-3.950114233038524,-2.054489349253629,-1.0191916043579656
1770453888240,124,-4,-3.754808766665035,-2.301656038089919,-0.8293645159248566
1770453888244,124,-4,-3.6431294999692865,-1.9333109942361235,-0.7212193088679244
1770453888248,125,-3,-3.683450557690992,-1.4641362607901338,-0.7631499715447874
1770453888252,124,-4,-3.840707852337452,-2.154060327283672,-0.9209487484828308
1770453888256,124,-4,-3.97065382976539,-2.297627380153165,-1.051040085607566
1770453888260,124,-4,-3.913235597137292,-2.1483160918314965,-0.9943161440797366
1770453888264,124,-4,-3.6291166266871624,-2.058319891180433,-0.7135076434026866
1770453888268,125,-3,-3.2592377273548023,-1.4105601434200927,-0.351821969535699
1770453888272,125,-3,-3.028235315504935,-1.1883222301300402,-0.1336676492044495
1770453888276,125,-3,-3.0194507655801295,-1.3480812703193938,-0.1377485749514932
1770453888280,125,-3,-2.9383982837735108,-1.1315385783096272,-0.0621013203938112
1770453888284,126,-2,-2.005622106264836,-0.0982541556867477,0.8778301563138378
1770453888288,129,1,0.915128394708379,2.5922226472701806,3.815471520207916
1770453888292,135,7,6.920876257951273,8.826679234987997,9.836370709206502
1770453888296,145,17,16.477564127429744,18.56663523084204,19.393214821343047
1770453888300,156,28,28.834811945163413,29.940310228846716,31.73099885885356
1770453888304,169,41,41.77319527007534,42.785706509334574,44.63895897063983
1770453888308,180,52,52.0199770702851,53.68324925070963,54.86003991514644
1770453888312,185,57,56.41089630183913,58.68493994414304,59.2411994515809
1770453888316,183,55,53.357760231382656,56.630242729203545,56.1949377601525
1770453888320,172,44,43.761636496783275,45.81529254945954,46.61537430927268
1770453888324,157,29,30.671843336812227,30.84674033781412,33.54288988786488
1770453888328,145,17,17.793058853283622,18.63130318379267,20.673869736007227
1770453888332,136,8,7.781048371162616,9.74322744816353,10.658032930171824
1770453888336,130,2,1.3833809971007458,3.581964996632474,4.242792283395665
1770453888340,126,-2,-2.220312272131025,-0.1310113832769124,0.615519137771662
1770453888344,124,-4,-4.377208989984388,-2.2921183244730416,-1.559635032063416
1770453888348,122,-6,-6.039560929733213,-4.266928886092695,-3.2276921715002063
1770453888352,120,-8,-7.4739509038454255,-6.416265362815718,-4.656294258173369
1770453888356,119,-9,-8.54778585904085,-7.266277344787603,-5.720479885143626
1770453888360,119,-9,-9.159179820187788,-7.291941554259736,-6.327327448551069
1770453888364,119,-9,-9.414288521153123,-7.202116710771875,-6.587626490173681
1770453888368,119,-9,-9.504268787981127,-7.371491125368777,-6.689829755616999
1770453888372,118,-10,-9.528755573888263,-8.383633053196853,-6.7259706116147875
1770453888376,118,-10,-9.481146022071917,-8.28971466852984,-6.683724852617789
1770453888380,119,-9,-9.35720942364139,-7.304691743629785,-6.559813330305596
1770453888384,119,-9,-9.20885997753405,-7.232156566964869,-6.411527313604085
1770453888388,119,-9,-9.081092970782532,-7.359403137721845,-6.287424533654361
1770453888392,119,-9,-8.940340600256073,-7.466221056904683,-6.1528928047816605
1770453888396,119,-9,-8.698613015418022,-7.192919760652848,-5.917099128250035
1770453888400,120,-8,-8.303027333002001,-6.474299517711153,-5.526107650923938
1770453888404,120,-8,-7.788907668347001,-6.040835202649373,-5.016118620651278
1770453888408,121,-7,-7.25104225017803,-5.633693937073809,-4.482725015574306
1770453888412,121,-7,-6.771683743327699,-5.1909349841907755,-4.00808605611601
1770453888416,122,-6,-6.366183746875397,-4.524339594806447,-3.607221335440179
1770453888420,122,-6,-5.981307312601182,-4.169923453651019,-3.226727890951763
1770453888424,122,-6,-5.546454594282924,-4.341651185751643,-2.7959695731429695
1770453888428,123,-5,-5.038795920967237,-3.4258639045599417,-2.292544953957573
1770453888432,124,-4,-4.502297152621001,-2.3534281091273246,-1.7612306136235398
1770453888436,124,-4,-4.002634019633474,-2.488576020615218,-1.2676832305183892
1770453888440,124,-4,-3.5710337914856356,-2.1364973290910547,-0.8417438527828645
1770453888444,125,-3,-3.193036472526509,-1.4790604300170234,-0.4678184760012938
1770453888448,125,-3,-2.832458282488052,-1.2787365949291425,-0.110543748716835
1770453888452,126,-2,-2.4492393115527165,-0.5578394251127285,0.2682696707552461
1770453888456,126,-2,-2.0073086868748646,-0.3039151035471383,0.7042185407007517
1770453888460,126,-2,-1.4968660608605906,-0.3438718007337848,1.2085514014764849
1770453888464,127,-1,-0.96108626802587,0.6919905702667428,1.7393137734683042
1770453888468,128,0,-0.4803020056928175,1.5186858477107663,2.215579814570148
1770453888472,128,0,-0.1075075477205582,1.6042653437817285,2.583233400604199
1770453888476,128,0,0.1760827871665217,1.5211859642864622,2.861256634256677
1770453888480,128,0,0.4282221297068627,1.7902309811806427,3.108321604386237
1770453888484,129,1,0.6751671060155389,2.531794930199309,3.350579106379049
1770453888488,129,1,0.8877256164659257,2.6399154106892126,3.5578697023530568
1770453888492,129,1,1.0213052894239765,2.461562079331796,3.6854127574850986
1770453888496,129,1,1.063164128434157,2.6342495833151767,3.721373567544857
1770453888500,129,1,1.0408573203388416,2.6516207073698324,3.693952129272084
1770453888504,129,1,0.9996641108660174,2.618578235164077,3.647992923949196
1770453888508,129,1,0.9766121429227184,2.548034732637458,3.619719084610922
1770453888512,129,1,0.9846416178482594,2.5014804588591346,3.62185334479082
1770453888516,129,1,1.0103818442986965,2.5968904896049607,3.6414323139816225
1770453888520,129,1,1.0276399852841254,2.6301531494136694,3.652747421088372
1770453888524,129,1,1.0202305439386987,2.6214332066847397,3.639824431716411
1770453888528,129,1,0.996572161436608,2.510991959985464,3.6109770028190376
1770453888532,129,1,0.9827052043651754,2.5089494976094473,3.591854496376867
1770453888536,129,1,0.999494800691688,2.57798593049134,3.6028445640518467
1770453888540,129,1,1.042527981906791,2.593634269546649,3.6394449357815457
1770453888544,129,1,1.0779301225200109,2.64877072608792,3.6683349534347904
1770453888548,129,1,1.0556931715735514,2.436054488219661,3.640185013083341
1770453888552,129,1,0.9356157131945452,2.566892975052288,3.5147981377521416
1770453888556,129,1,0.7129067193627787,2.4999002361602054,3.286728716454365
1770453888560,128,0,0.420331845597034,1.619191022791682,2.9882221825031547
1770453888564,128,0,0.0952397332686378,1.615668542285289,2.65667742506461
1770453888568,128,0,-0.2627629414996859,1.419142639246175,2.292037944173191
1770453888572,127,-1,-0.6990330137576088,0.5697805419756046,1.849236865383081
1770453888576,127,-1,-1.2622145909880789,0.4761628986137778,1.2797996160904694
1770453888580,126,-2,-1.9469344305001952,-0.401329309874574,0.5891220712894478
1770453888584,125,-3,-2.670125490877656,-1.3850353658605346,-0.139869791030903
1770453888588,125,-3,-3.304126865128691,-1.622935293235455,-0.7797213821108668
1770453888592,124,-4,-3.744795806554945,-2.394888464870655,-1.2264090548603814
1770453888596,124,-4,-3.965642563834868,-2.5999003676890027,-1.4534889581805004
1770453888600,124,-4,-4.0200723297064815,-2.333296853803434,-1.5144990406015917
1770453888604,124,-4,-3.994328061611245,-2.5074521305511728,-1.4958141678229788
1770453888608,124,-4,-3.9532941656272023,-2.521535222086973,-1.462101208799024
1770453888612,124,-4,-3.9228831084375657,-2.514183220784735,-1.4386931295055092
1770453888616,124,-4,-3.910645852363581,-2.5248995591871175,-1.432717592986993
1770453888620,124,-4,-3.9265841108112456,-2.4120694498058683,-1.4543631296411634
1770453888624,124,-4,-3.973974278767488,-2.4831889246108605,-1.5075685384319444
1770453888628,124,-4,-4.022914362469368,-2.5646321695455625,-1.562974893942382
1770453888632,124,-4,-4.0068186868195195,-2.489891974039676,-1.5539182448368587
1770453888636,124,-4,-3.8632266211298143,-2.5911884759342008,-1.4173793894822744
1770453888640,124,-4,-3.591293741372599,-2.3513600876884584,-1.1522274267669026
1770453888644,125,-3,-3.2693124688774433,-1.597092099630632,-0.8371540236297488
1770453888648,125,-3,-3.0064995919271844,-1.4607941583694046,-0.5817822665382257
1770453888652,125,-3,-2.86984571638267,-1.6270864200782136,-0.4526580398673046
1770453888656,125,-3,-2.8515098979225773,-1.4806071663675069,-0.4410521596030312
1770453888660,125,-3,-2.8947580021068644,-1.4852713898944654,-0.4901206134228939
1770453888664,125,-3,-2.940488723070226,-1.5117304668583715,-0.5417116320159439
1770453888668,125,-3,-2.955035376737304,-1.5414555131915266,-0.5631475958857783
1770453888672,125,-3,-2.9340479673649984,-1.5989426979766994,-0.550133161279672
1770453888676,125,-3,-2.895742617502841,-1.5086925648909233,-0.5200761629549451
1770453888680,125,-3,-2.8699919350896086,-1.5092282749616712,-0.5019610345595531
1770453888684,125,-3,-2.8814743399065423,-1.510443522019305,-0.5201852790889641
1770453888688,125,-3,-2.929322888911516,-1.5570001203732171,-0.5743608832375551
1770453888692,125,-3,-2.975212332376201,-1.625488315248958,-0.626944354654051
1770453888696,125,-3,-2.9544661981543445,-1.483282922286976,-0.6135529630053278
1770453888700,125,-3,-2.8136576685583305,-1.5944357927586683,-0.480241780064305
1770453888704,125,-3,-2.55416647037481,-1.42972261850479,-0.2278048345185941
1770453888708,126,-2,-2.2434101468393504,-0.674948103325919,0.0760070132239087
1770453888712,126,-2,-1.9752356352321232,-0.5200958658357935,0.3363804507563865
1770453888716,126,-2,-1.8119957129218591,-0.6198256297234694,0.490752741989902
1770453888720,126,-2,-1.7617665520720014,-0.4916189184280988,0.5322026475600277
1770453888724,126,-2,-1.8006338978024354,-0.5597769713877996,0.4860859727880955
1770453888728,126,-2,-1.8968579786909645,-0.5757130118666987,0.3843121634242266
1770453888732,126,-2,-2.0007056419324094,-0.6193155934902346,0.2751515780937268
1770453888736,126,-2,-2.0207577003566524,-0.5693721253440545,0.2482122980414156
1770453888740,126,-2,-1.84320079443637,-0.5486173511108969,0.4168754633465665
1770453888744,126,-2,-1.4135372943004367,-0.5593757194227806,0.8368828170284415
1770453888748,127,-1,-0.8162446961981327,0.4198848316480075,1.4252040393968946
1770453888752,128,0,-0.2538393846005526,1.3668224127964443,1.979667807195813
1770453888756,128,0,0.0910574262321308,1.408214590096893,2.3172827256700317
1770453888760,128,0,0.2006050628778211,1.4659999794266434,2.420074701244794
1770453888764,128,0,0.2396685707060717,1.3518242393328306,2.452858764412696
1770453888768,128,0,0.4258865873690447,1.5249003675539332,2.632594340140234
1770453888772,129,1,0.8598555030008055,2.208319684643727,3.058832202357378
1770453888776,129,1,1.4464757195216849,2.597148448902545,3.6361474487292105
1770453888780,130,2,1.956172358735473,3.197552579814806,4.135799526602602
1770453888784,130,2,2.1714441659198513,3.630637642253691,4.341614884013756
1770453888788,130,2,2.012598135867356,3.166772488132799,4.1748339948544615
1770453888792,129,1,1.5610544069897303,2.595620803793631,3.716920249621212
1770453888796,129,1,0.9799045500019062,2.16010158892922,3.1300060830019776
1770453888800,128,0,0.4066144845452851,1.629224779714686,2.5500613416986178
1770453888804,128,0,-0.1033305916621076,1.147717409814655,2.031610444914097
1770453888808,127,-1,-0.5643492034882627,0.6383846478683526,1.56063447667516
1770453888812,127,-1,-1.018190848469084,0.0981823258188403,1.0968172277837789
1770453888816,126,-2,-1.5006362142694791,-0.3520174796365909,0.60562398015202
1770453888820,126,-2,-2.025545964977473,-0.8908967064552251,0.0733073702314834
1770453888824,125,-3,-2.5751537685437538,-1.3769563966858267,-0.4832239807363709
1770453888828,125,-3,-3.095296068672401,-1.835268915036067,-1.0106753171437104
1770453888832,124,-4,-3.509603430240591,-2.483956434926778,-1.4329022314946362
1770453888836,124,-4,-3.75770945642076,-2.732567662172606,-1.6894015167509613
1770453888840,124,-4,-3.834180979648997,-2.6039900921599473,-1.7747731118447718
1770453888844,124,-4,-3.795352504164392,-2.630248128049399,-1.7453495926715688
1770453888848,124,-4,-3.72798506648497,-2.6667548582820766,-1.687293926181786
1770453888852,124,-4,-3.703979400675789,-2.6152976498811538,-1.671621956403165
1770453888856,124,-4,-3.746205512734575,-2.6591182969561813,-1.7211552456464343
1770453888860,124,-4,-3.8154017128652735,-2.689285851576159,-1.7977689257940357
1770453888864,124,-4,-3.824472245382999,-2.5788145552462525,-1.8153895189787872
1770453888868,124,-4,-3.6871094106755113,-2.746246027959197,-1.687087736757122
1770453888872,124,-4,-3.386374370704286,-2.541152896177864,-1.3940989695142427
1770453888876,125,-3,-3.0147194178257206,-1.755521960950479,-1.0282531832660275
1770453888880,125,-3,-2.739380892316748,-1.6313082073896,-0.7590970293121195
1770453888884,125,-3,-2.704442299042311,-1.646161212697006,-0.7346102488089699
1770453888888,125,-3,-2.934542949499704,-1.7322107846214827,-0.9810375773255444
1770453888892,124,-4,-3.28852584227247,-2.536135751514797,-1.3535422071295375
1770453888896,124,-4,-3.439628711485398,-2.8237306974104897,-1.517807129919272
1770453888900,125,-3,-2.823967532879356,-1.5453965743153568,-0.9041061389028248
1770453888904,128,0,-0.5808364477248218,1.2078690647329218,1.3472249928794415
1770453888908,132,4,4.344722223831426,5.430814918837465,6.282759135635903
1770453888912,140,12,12.755654173818913,13.274380764013372,14.694148271892836
1770453888916,152,24,24.487532590409803,25.34554482916077,26.409574647259568
1770453888920,165,37,37.849724666264976,38.28348712821556,39.74058255659972
1770453888924,177,49,49.74895296635179,50.30920936200372,51.60571961356336
1770453888928,185,57,56.703708119937694,58.36466585719691,58.5376899597655
1770453888932,185,57,56.37880904244296,58.2042529622676,58.20842164234397
1770453888936,177,49,48.80099384909447,50.43433067086022,50.64087064696307
1770453888940,164,36,36.44803879229762,37.07734511956395,38.30219295149092
1770453888944,149,21,23.047439525713393,22.55021460411737,24.909259217110503
1770453888948,139,11,11.78920011417549,12.123871801988114,13.645801498394093
1770453888952,132,4,4.069543877918066,5.476110353694171,5.907574981090175
1770453888956,128,0,-0.5408111873460903,1.1839907667951175,1.2707281557182264
1770453888960,125,-3,-3.3314458165559353,-1.7330156076022811,-1.5448845331694336
1770453888964,122,-6,-5.360302999929724,-4.645815265769849,-3.5886669452347375
1770453888968,120,-8,-6.9863153998723995,-6.77995808347603,-5.217379331772764
1770453888972,119,-9,-8.118710416553219,-7.572782921130108,-6.345896323624323
1770453888976,119,-9,-8.708352008805518,-7.820682150144067,-6.934274825706298
1770453888980,119,-9,-8.96686407712936,-7.713296796038408,-7.200165447352462
1770453888984,119,-9,-9.19637685332168,-7.705521481494642,-7.444648507615641
1770453888988,118,-10,-9.509457985816628,-8.790263512918266,-7.773858160858159
1770453888992,117,-11,-9.764593447863128,-9.533564093787993,-8.040202757083488
1770453888996,118,-10,-9.762259005373592,-8.927969605122005,-8.043384161454707
1770453889000,118,-10,-9.469263964080268,-8.543044750676899,-7.754579005033966
1770453889004,119,-9,-9.044055881510593,-7.975094181119739,-7.336950073782815
1770453889008,119,-9,-8.671462192215133,-7.487132492186862,-6.975945002635497
1770453889012,119,-9,-8.401811286223433,-7.920661372065668,-6.718508955058431
1770453889016,119,-9,-8.148466411735413,-7.524965980720953,-6.474541250461642
1770453889020,120,-8,-7.812570523880074,-6.947851061779187,-6.14508167711637
1770453889024,120,-8,-7.385576540502918,-6.63787475444307,-5.7244891486505
1770453889028,121,-7,-6.935005357621697,-5.774254035898793,-5.282865164207851
1770453889032,121,-7,-6.517775591417626,-5.754252108118805,-4.876737785110566
1770453889036,121,-7,-6.12952710940956,-5.618564932741704,-4.499075180833201
1770453889040,122,-6,-5.7344738538982565,-4.93975438091652,-4.112228332953505
1770453889044,122,-6,-5.32029128351379,-4.618036224462028,-3.704837742555556
1770453889048,123,-5,-4.906115707158567,-3.841713765686749,-3.298552707681056
1770453889052,123,-5,-4.505815396828779,-3.707112379540189,-2.908309498872628
1770453889056,123,-5,-4.107703136960373,-3.673185051813588,-2.5209050275473093
1770453889060,124,-4,-3.6994345374664976,-2.9251590210811327,-2.1218625234690376
1770453889064,124,-4,-3.2944748164245916,-2.618130355991781,-1.724410507241087
1770453889068,125,-3,-2.9102665123912956,-1.906250109324832,-1.3476358054861626
1770453889072,125,-3,-2.520762877087079,-1.6132815627784387,-0.966793451226998
1770453889076,125,-3,-2.055602678402569,-1.8364308376107823,-0.5111235949831894
1770453889080,126,-2,-1.4677539282996677,-0.7419765272311585,0.0674668860478311
1770453889084,127,-1,-0.8009860297286346,0.1533795665900148,0.7254006048937951
1770453889088,127,-1,-0.1786037188645234,0.3201615674931826,1.338800718270286
1770453889092,128,0,0.2816133660173801,1.1306519314952928,1.7896932500387237
1770453889096,128,0,0.5483043915783493,1.4172447100984251,2.047322191941299
1770453889100,128,0,0.685990949367017,0.9426666071577714,2.176869316122346
1770453889104,128,0,0.7953099568186608,1.4965026613665584,2.2787323208687016
1770453889108,129,1,0.9435041813333732,1.9201634688883464,2.419089744677407
1770453889112,128,0,1.1378832016235574,1.542834059657809,2.604500268083077
1770453889116,129,1,1.343155063950553,1.9833368266353857,2.7999722576048307
1770453889120,129,1,1.5128846831385685,2.326774669221701,2.9599516546719973
1770453889124,129,1,1.6141479031358068,2.1329087314912285,3.052191368690373
1770453889128,129,1,1.6392643784868666,2.218812618813625,3.0691602109384863
1770453889132,129,1,1.606179486864987,2.28507044617,3.0284066026529395
1770453889136,129,1,1.5536900935570734,2.1715087643735527,2.968035938117099
1770453889140,129,1,1.532727276024488,2.1466304683817397,2.938592226655507
1770453889144,129,1,1.5864363101113887,2.279280509854985,2.98352477597165
1770453889148,129,1,1.7199834541935328,2.057983999701154,3.1085151603697367
1770453889152,129,1,1.882666572504192,2.4419445075139063,3.2627380643964847
1770453889156,130,2,1.9870243979989448,2.9895163069498016,3.3580950490447097
1770453889160,129,1,1.955313410295895,2.293065451653617,3.316840166468786
1770453889164,129,1,1.7528478411017487,2.142563264831958,3.1053170898217184
1770453889168,129,1,1.3878716817207606,2.132427515050303,2.7326613274666895
1770453889172,128,0,0.8992119875975372,1.4122663503305934,2.237309034371117
1770453889176,128,0,0.3520187128959987,0.9357522517530406,1.6830781462325772
1770453889180,127,-1,-0.1714734447185023,0.3930722057858413,1.1512039436497965
1770453889184,127,-1,-0.6062877652423782,-0.0412221739255405,0.7068546863411123
1770453889188,126,-2,-0.9523430810321976,-0.6464543961028952,0.3512024280993659
1770453889192,126,-2,-1.2908704080146964,-0.8593483211255453,0.0039016576685941
1770453889196,126,-2,-1.7343948317696387,-0.7865594056868108,-0.4475696760749104
1770453889200,125,-3,-2.3343105028834295,-1.9151570049669768,-1.0550800081208105
1770453889204,124,-4,-3.0232707617572494,-2.7559821859787066,-1.7516219436010032
1770453889208,124,-4,-3.647197335850769,-2.9440199834280305,-2.3832454691695366
1770453889212,123,-5,-4.06253447833312,-3.5806929858925565,-2.8063663596531976
1770453889216,123,-5,-4.223091175396672,-4.073710424710045,-2.974726470958431
1770453889220,123,-5,-4.193070795026054,-3.645786702166871,-2.9528215855113333
1770453889224,124,-4,-4.079167418370496,-3.0439350521846347,-2.8477869106209517
1770453889228,123,-5,-3.944830448963566,-3.687003138337414,-2.7226176427333324
1770453889232,123,-5,-3.7902215400325594,-3.829488004974387,-2.576165986687051
1770453889236,124,-4,-3.605861289755404,-2.8745141457390107,-2.398500006117445
1770453889240,124,-4,-3.4205919595283554,-2.82039860220171,-2.219671640059621
1770453889244,124,-4,-3.2853909676662387,-2.9354536142944063,-2.0920633509044655
1770453889248,124,-4,-3.2254507137512185,-2.7584554413451605,-2.0409176096241155
1770453889252,124,-4,-3.223207783006812,-2.8262013777187156,-2.0476088773276913
1770453889256,124,-4,-3.244550186312557,-2.857577349792545,-2.07701708570917
1770453889260,124,-4,-3.271305278468485,-2.8769786539106312,-2.1107379801126185
1770453889264,124,-4,-3.303581848988465,-2.8797073923707,-2.149493485317292
1770453889268,124,-4,-3.3309422885238993,-2.834449201556232,-2.18383071278266
1770453889272,124,-4,-3.307936668598222,-2.766032879973173,-2.1687596017392075
1770453889276,124,-4,-3.1735634272425624,-2.9416761039754427,-2.042702491277456
1770453889280,124,-4,-2.9104370841551424,-2.799475340523526,-1.7873722725048076
1770453889284,125,-3,-2.584613180798801,-1.9802839441389128,-1.468756384424356
1770453889288,125,-3,-2.312096647361324,-1.7370493428025269,-1.2035582453994165
1770453889292,125,-3,-2.174315467663548,-1.8896725692240208,-1.0734880184077782
1770453889296,125,-3,-2.163964428441144,-1.8334847361562097,-1.0706715500388966
1770453889300,125,-3,-2.2090250692280344,-1.9250371294256896,-1.1225853670031714
1770453889304,125,-3,-2.240926597426946,-1.880425534133648,-1.161002823465311
1770453889308,125,-3,-2.239304470544262,-1.8221522176600735,-1.1663039917953857
1770453889312,125,-3,-2.223724520156049,-1.8495792321968432,-1.1582491112022026
1770453889316,125,-3,-2.2167174081230914,-1.8599499096448189,-1.158833866412766
1770453889320,125,-3,-2.219077126044371,-1.949328715799167,-1.1683217361009215
1770453889324,125,-3,-2.214797597369664,-1.852267203461464,-1.1708213897187916
1770453889328,125,-3,-2.1928626702037417,-1.858881429046243,-1.155810074125399
1770453889332,125,-3,-2.1638743635008133,-1.844931732979852,-1.1340090623031165
1770453889336,125,-3,-2.1587918084197155,-1.845293909772773,-1.1359816581665665
1770453889340,125,-3,-2.2086059502869744,-2.0382314186958586,-1.192467651582474
1770453889344,125,-3,-2.3145858409579523,-1.7217136722039723,-1.30499223328388
1770453889348,125,-3,-2.432897848870161,-2.043696858563712,-1.4299445264829576
1770453889352,124,-4,-2.4974500692492128,-2.643843468290193,-1.5010591123575705
1770453889356,125,-3,-2.4690488129475603,-2.0714973181499285,-1.479176814242411
1770453889360,125,-3,-2.3608451134156603,-1.8479947823391267,-1.3779649081211582
1770453889364,125,-3,-2.212112705908579,-1.8968923512986289,-1.2366879333419556
1770453889368,125,-3,-2.0445286855722227,-1.9019986299658256,-1.0759370701294877
1770453889372,125,-3,-1.847843436309638,-1.7762284970275428,-0.8846889973384706
1770453889376,126,-2,-1.594223436752318,-0.9789803308980431,-0.6360691440674882
1770453889380,126,-2,-1.2551687361672397,-0.9514781504798836,-0.3032900311095075
1770453889384,126,-2,-0.8193532121468206,-0.8008335897712895,0.1247121425354227
1770453889388,127,-1,-0.3189375308677795,-0.0092829041571209,0.6173442500606932
1770453889392,127,-1,0.160393282396567,0.3228950992209332,1.090448172784983
1770453889396,128,0,0.5207405481532177,0.8889182184543589,1.44592199896547
1770453889400,128,0,0.7286396489354741,1.1712143205979038,1.6487675450213706
1770453889404,128,0,0.854427013279524,1.071789009796297,1.7683104383889034
1770453889408,128,0,1.017584435393817,1.0895106754901105,1.9246144052446272
1770453889412,128,0,1.2718426788538355,1.2467338799968748,2.172597337205476
1770453889416,129,1,1.5399650479392823,1.8870223850554568,2.4351242312514834
1770453889420,129,1,1.6741168457090676,2.231790848625559,2.5633721518681076
1770453889424,129,1,1.5897412449679338,1.9318717999944195,2.4724179906471715
1770453889428,128,0,1.336851099666548,1.2855791972676558,2.2133196130317314
1770453889432,128,0,1.038310803915711,0.96945554695622,1.909861504975104
1770453889436,128,0,0.7691788500449501,1.1895215605031138,1.6362810721835586
1770453889440,128,0,0.5038110726064009,0.8892509941701894,1.365278207916505
1770453889444,127,-1,0.1667446250599805,0.3020293925482775,1.0211659745903416
1770453889448,127,-1,-0.2852837503872464,-0.1187063906043039,0.5622946818312649
1770453889452,126,-2,-0.8290392116649804,-0.6395620840509633,0.0133837976861732
1770453889456,126,-2,-1.398170629594337,-1.2332291541912972,-0.5595758280785441
1770453889460,125,-3,-1.9264374567201556,-1.6907592957781814,-1.092054716655415
1770453889464,125,-3,-2.378850107042542,-2.0967995307271217,-1.5502721186839588
1770453889468,124,-4,-2.762344630027655,-2.770211826812212,-1.9407830065697032
1770453889472,124,-4,-3.115273443296584,-2.9599232659624857,-2.300519748318218
1770453889476,124,-4,-3.4744181544021275,-3.0104811930201745,-2.665033648418506
1770453889480,123,-5,-3.832740147887957,-3.8270854997012704,-3.027034940769405
1770453889484,123,-5,-4.120268853498778,-4.048772596726671,-3.317476524446662
1770453889488,123,-5,-4.232364102827697,-3.7442641972770168,-3.433345021125077
1770453889492,123,-5,-4.097438483766085,-4.087780501921644,-3.304157898983607
1770453889496,123,-5,-3.747259019256988,-3.856566427501418,-2.9612906289307843
1770453889500,124,-4,-3.3373004294892885,-2.9926402712726725,-2.558700599713482
1770453889504,124,-4,-3.079165872665255,-2.898874685065865,-2.3064582599365058
1770453889508,124,-4,-3.110695689732239,-2.870061316107006,-2.3415085322659692
1770453889512,124,-4,-3.398606266668446,-3.039176130737586,-2.6305675132060684
1770453889516,123,-5,-3.7624393047793543,-3.884312483821473,-2.9945810107768978
1770453889520,123,-5,-4.013172639117177,-4.003585608434328,-3.247653617100722
1770453889524,123,-5,-4.094853836517505,-3.847157792559924,-3.337331815090522
1770453889528,123,-5,-4.1002769842790725,-3.9597345713867345,-3.3569847394120025
1770453889532,123,-5,-4.119937112569161,-3.951938664086293,-3.3922520187519596
1770453889536,123,-5,-3.9995244302486386,-4.0125631674381985,-3.28040814121734
1770453889540,124,-4,-3.146343370248609,-2.875272530190146,-2.4228924857658245
1770453889544,127,-1,-0.5330755225327684,0.0402515445494433,0.205350938040941
1770453889548,132,4,4.990039190234237,5.135688537831106,5.743620811712622
1770453889552,141,13,14.08226528072202,13.96115294772554,14.838618635377872
1770453889556,153,25,26.22054614028925,26.032936014421768,26.96104062370079
1770453889560,166,38,39.34231942374304,39.10103304414058,40.053400009852474
1770453889564,177,49,50.20939418876023,50.03985385662269,50.89132147924568
1770453889568,183,55,55.54689616970947,56.12767879374743,56.21354671205178
1770453889572,182,54,53.50790402386562,54.89351499369218,54.17822021800338
1770453889576,172,44,44.65925871804791,45.05915780826116,45.34705586457561
1770453889580,158,30,31.81541047923704,31.043342927521735,32.523508861352816
1770453889584,145,17,18.71668392338672,18.126720522160184,19.436732000973613
1770453889588,135,7,8.32011206079771,8.070273565053778,9.03705090966571
1770453889592,129,1,1.7199510464038306,1.9711198887564985,2.419459590335186
1770453889596,126,-2,-1.7676087258605593,-0.998483459328825,-1.0919070256664352
1770453889600,124,-4,-3.6270413088334834,-2.936116790643016,-2.970635731654042
1770453889604,122,-6,-5.056779643050495,-4.897533053856105,-4.4073875660162
1770453889608,120,-8,-6.456291051002012,-6.948592118883305,-5.801224271456692
1770453889612,119,-9,-7.622633821371391,-8.017811526685406,-6.956193698134164
1770453889616,119,-9,-8.27025823281545,-8.015504592945627,-7.596614073241988
1770453889620,119,-9,-8.381587433512685,-7.923537140686113,-7.71101004704575
1770453889624,119,-9,-8.195056352368717,-7.910530953281944,-7.5361138535454355
1770453889628,119,-9,-7.989557225005316,-7.959037507176575,-7.343302915843379
1770453889632,119,-9,-7.918567970847395,-8.03026428386822,-7.2790750850881905
1770453889636,119,-9,-7.992872056706876,-8.009241058911083,-7.352942926689209
1770453889640,119,-9,-8.138975200763111,-7.9354471850709185,-7.495744259776203
1770453889644,119,-9,-8.23894778643227,-7.886466844836151,-7.594921504672355
1770453889648,119,-9,-8.149255654452865,-8.017070843198816,-7.508855983215294
1770453889652,119,-9,-7.752360636389032,-7.971072860808888,-7.11793508651896
1770453889656,120,-8,-7.041581748329115,-7.109619782146508,-6.412472466574843
1770453889660,121,-7,-6.159640666767811,-5.793952560090076,-5.534021953444027
1770453889664,122,-6,-5.328773988317359,-5.063932966716563,-4.705390505885722
1770453889668,122,-6,-4.71681812551489,-4.816500815785664,-4.095230128533523
1770453889672,123,-5,-4.348326557206166,-4.234724010916137,-3.728621813482709
1770453889676,123,-5,-4.123434655369412,-3.838634865881976,-3.5060812678024984
1770453889680,123,-5,-3.9165956224081446,-4.070234239065548,-3.302002185110993
1770453889684,123,-5,-3.674623801604617,-3.7833545932988346,-3.0626423807499883
1770453889688,124,-4,-3.437675650316845,-3.086109358515524,-2.8279001781895845
1770453889692,124,-4,-3.2661266730967435,-3.031158649920709,-2.6585950954300284
1770453889696,124,-4,-3.144378393211647,-3.0119691801477932,-2.539450817981128
1770453889700,124,-4,-2.965665254201652,-2.9360601997562026,-2.3631951755830967
1770453889704,124,-4,-2.6240380486013875,-2.877102748436726,-2.0232960024440745
1770453889708,125,-3,-2.122409545872366,-2.0256679680086256,-1.523193051814815
1770453889712,126,-2,-1.5817833132319563,-1.1076754479944677,-0.9850690241212844
1770453889716,126,-2,-1.1410644742181364,-0.9405001484930936,-0.5477870344589317
1770453889720,126,-2,-0.8519716585485931,-1.0230337626166683,-0.2613626506491875
1770453889724,126,-2,-0.6649019888011786,-0.7636753286865461,-0.0750323470504854
1770453889728,127,-1,-0.4918228718178812,-0.1854998876772287,0.0980140716071971
1770453889732,127,-1,-0.2685493361199552,0.0615887365336949,0.3198453239731882
1770453889736,127,-1,0.0200292328520217,-0.1331820930514116,0.6053823544892074
1770453889740,127,-1,0.3375212346837574,0.1801447829745139,0.9200249894820588
1770453889744,128,0,0.6135992982386091,1.0294393889847342,1.1946609119110558
1770453889748,128,0,0.7920759159848002,1.0051765273885098,1.3724053789580726
1770453889752,128,0,0.8808270808206562,0.8463610083677797,1.459875698867906
1770453889756,128,0,0.9473175194894792,1.1043511999246332,1.524378237336907
1770453889760,128,0,1.0528066135911116,0.8960842151351294,1.6280259338791687
1770453889764,128,0,1.190576791455666,1.3636870063306483,1.764742707577208
1770453889768,129,1,1.2954176341859605,1.6120993033451931,1.8690006831586712
1770453889772,128,0,1.3178528627072676,1.257513922163216,1.8904426245740005
1770453889776,129,1,1.2870844288619974,1.6809301268183332,1.8578771652434751
1770453889780,128,0,1.2928724152365352,1.2935634160669047,1.8617702473661284
1770453889784,128,0,1.3953072288032466,1.009265936668771,1.9632650371247269
1770453889788,129,1,1.5514146830477304,1.887346486339375,2.119300552310379
1770453889792,129,1,1.6424587385231266,2.0648086838764863,2.209832562977916
1770453889796,129,1,1.5804752735781336,1.7621548088947296,2.14620161252119
1770453889800,128,0,1.3780927900897335,1.3158475803116536,1.9420642186872048
1770453889804,128,0,1.1066812650809583,0.8847095169340804,1.670035724380162
1770453889808,128,0,0.8010215554517405,1.0577230501586978,1.3644441692092766
1770453889812,128,0,0.4244149720957117,0.8813798836478002,0.9871518532732516
1770453889816,127,-1,-0.0766100790504833,-0.0910921264724096,0.4845537118225445
1770453889820,126,-2,-0.7015244485619936,-0.7610780626784637,-0.1413699943026953
1770453889824,126,-2,-1.3793656801228866,-1.1498314906333449,-0.8187905460877429
1770453889828,125,-3,-2.004898035668601,-1.822421966552191,-1.4434745146747456
1770453889832,125,-3,-2.4905476440142698,-2.3223493727828597,-1.929333198834852
1770453889836,124,-4,-2.81097350281173,-2.815806472551611,-2.2511793642899094
1770453889840,124,-4,-3.022008102799595,-3.086738617388259,-2.4638530519458297
1770453889844,124,-4,-3.2291324805475483,-2.8217205204087303,-2.6720260162482967
1770453889848,124,-4,-3.5095949749382855,-3.159750986074054,-2.9527050897094145
1770453889852,123,-5,-3.846225494330616,-4.001286508467036,-3.2886515619326286
1770453889856,123,-5,-4.133846640325088,-4.106175642462591,-3.5749914149756963
1770453889860,123,-5,-4.252171758457785,-3.8366123568800297,-3.692412708126633
1770453889864,123,-5,-4.1442394497986825,-4.058778575697339,-3.58478154945145
1770453889868,123,-5,-3.851827486161503,-3.950235306763568,-3.2935766744304655
1770453889872,124,-4,-3.496135159371188,-3.1881395596823308,-2.939001278045515
1770453889876,124,-4,-3.214191977138863,-2.938254462885538,-2.657493240066237
1770453889880,124,-4,-3.0845673164358587,-2.997871287402647,-2.527641840624528
1770453889884,124,-4,-3.09273203614819,-2.929390401219132,-2.535053255249854
1770453889888,124,-4,-3.160731349279141,-3.06780689834973,-2.601870285189454
1770453889892,124,-4,-3.21200254160929,-3.0910647406638088,-2.6518646093311142
1770453889896,124,-4,-3.2170748876303112,-3.004699560787668,-2.656210473041128
1770453889900,124,-4,-3.191822183375081,-2.968402950929353,-2.6312829779175835
1770453889904,124,-4,-3.16559591271891,-2.944406020034438,-2.606154996108301
1770453889908,124,-4,-3.156955601881158,-3.0809745084744016,-2.5982746413981936
1770453889912,124,-4,-3.1732629363521228,-3.0698285317259644,-2.613952183542751
1770453889916,124,-4,-3.2153567543932255,-3.0146096517958085,-2.6541150200685286
1770453889920,124,-4,-3.2650423552730503,-2.9880688150673596,-2.701781395434154
1770453889924,124,-4,-3.268375241941392,-2.902391797499481,-2.7040768877971795
1770453889928,124,-4,-3.1535030042939267,-3.1675586447865713,-2.589062610010717
1770453889932,124,-4,-2.890942747521304,-2.9530445884765104,-2.326524050511341
1770453889936,125,-3,-2.543250833496617,-2.143549133582135,-1.9787400410416671
1770453889940,125,-3,-2.2431332659059775,-1.8679926013835115,-1.6785278379112882
1770453889944,125,-3,-2.1085896409178675,-2.0052409040068895,-1.5435545770398065
1770453889948,125,-3,-2.167215887139049,-2.1205108136486546,-1.60082247355143
1770453889952,125,-3,-2.34519056362236,-1.9461539038754867,-1.7766555511845905
1770453889956,125,-3,-2.517269570989582,-2.212748348161859,-1.946728521140269
1770453889960,124,-4,-2.5810573381636077,-2.735129469990831,-2.009367469690104
1770453889964,125,-3,-2.5133730705468795,-2.196566060637471,-1.9414219888111357
1770453889968,125,-3,-2.3731667033560795,-1.9020978351967468,-1.8013687607584137
1770453889972,125,-3,-2.2495809013800216,-2.186182958636758,-1.67755236377055
1770453889976,125,-3,-2.1990520621626444,-1.9736235262102224,-1.6256889473138716
1770453889980,125,-3,-2.218533518027221,-1.9485452129161431,-1.6428546599288718
1770453889984,125,-3,-2.262874312794727,-2.039848978609239,-1.684974539580543
1770453889988,125,-3,-2.284229528153085,-2.008584508978012,-1.7052031679874124
1770453889992,125,-3,-2.2678418086137913,-2.1356732036154087,-1.6886769843760838
1770453889996,125,-3,-2.242800206352486,-1.983114184678788,-1.6634307947676517
1770453890000,125,-3,-2.255596104264101,-1.9507195765093035,-1.6750235138263592
1770453890004,125,-3,-2.3187032434877555,-2.0637255493334825,-1.7359210013029365
1770453890008,125,-3,-2.3740259638618575,-1.955423803323252,-1.788800414386527
1770453890012,125,-3,-2.310648145937298,-2.231426864728357,-1.723549835030941
1770453890016,125,-3,-2.0358214637940515,-1.8570655208853948,-1.4476479622728933
1770453890020,126,-2,-1.5484713719237655,-1.0754348785450212,-0.9596159844652248
1770453890024,126,-2,-0.9539081115909628,-0.9787367112069272,-0.3642131856827957
1770453890028,127,-1,-0.4004115727678896,0.0155723269374665,0.1904155245385235
1770453890032,128,0,0.0194712169240094,0.7140640730464285,0.6115696729715823
1770453890036,127,-1,0.3242035407847305,0.2838191789714539,0.9179386465507262
1770453890040,128,0,0.6052071059423787,0.7006718653529478,1.2014145342962117
1770453890044,128,0,0.931375070409726,1.3074204485906753,1.5305374661285571
1770453890048,129,1,1.2886567620286753,1.6787019345854022,1.8899517142199629
1770453890052,129,1,1.601713664556889,2.0673629422642414,2.2035534475857625
1770453890056,129,1,1.7941188075287289,1.9602815611591815,2.395770132854296
1770453890060,129,1,1.8215651929775225,1.949594128531936,2.423829891295749
1770453890064,129,1,1.6689132184828974,2.1489353190452296,2.2731687676492287
1770453890068,129,1,1.345906471973031,1.7211353724404468,1.9529324491949216
1770453890072,128,0,0.8965393804284486,1.136035116394258,1.506384183231679
1770453890076,128,0,0.399966389213873,0.8156473672096523,1.0123468177188275
1770453890080,127,-1,-0.0562029302982693,0.1319105299491529,0.5580962201058517
1770453890084,127,-1,-0.417985440274318,-0.0533805794916593,0.1972084554897151
1770453890088,127,-1,-0.6949749414760328,-0.0920323178829836,-0.079613417188896
1770453890092,126,-2,-0.9606781083488724,-1.006631380758762,-0.3446434470812232
1770453890096,126,-2,-1.3166258207418502,-1.0899218148856176,-0.6985437826038083
1770453890100,126,-2,-1.823283555869987,-0.9150400426949816,-1.2023958909802035
1770453890104,125,-3,-2.434510096282973,-2.070349554256499,-1.8111826932017632
1770453890108,124,-4,-3.0031305924357565,-3.0306307440690867,-2.377809259229957
1770453890112,124,-4,-3.378174627298911,-3.084530621454613,-2.75074841476944
1770453890116,124,-4,-3.513467397366474,-3.008417893928415,-2.88401942083352
1770453890120,124,-4,-3.485569909432795,-2.988260597573165,-2.8549104994421093
1770453890124,124,-4,-3.415378274037846,-3.0180297952895714,-2.7841671030995574
1770453890128,124,-4,-3.379886319326713,-3.066880074059105,-2.7475908989338813
1770453890132,124,-4,-3.3873493479596135,-3.0619625721029737,-2.7526757314476753
1770453890136,124,-4,-3.4110309189819885,-3.0232486384412067,-2.773425945342583
1770453890140,124,-4,-3.429818900161292,-2.97994904818564,-2.7901851580217008
1770453890144,124,-4,-3.440595364682389,-3.021283534191899,-2.8002294334305144
1770453890148,124,-4,-3.447597960766991,-3.0699144160612652,-2.806385691329887
1770453890152,124,-4,-3.4515053717345245,-3.0534479230366607,-2.807383316507711
1770453890156,124,-4,-3.449617948585932,-3.038550975885319,-2.8002892019355796
1770453890160,124,-4,-3.44269767071387,-2.961841890033714,-2.7884723794586503
1770453890164,124,-4,-3.4395060629759673,-3.033929165851191,-2.7846817513309765
1770453890168,124,-4,-3.4486390426106492,-3.0717047613486113,-2.799384507214526
1770453890172,124,-4,-3.438788442192271,-3.0296721011794663,-2.7981474185985777
1770453890176,124,-4,-3.245093750895573,-3.0928921523224324,-2.608786317420912
1770453890180,125,-3,-2.430271458677602,-1.875076729301288,-1.787441912207416
1770453890184,128,0,-0.1890538857889572,0.8579202594874262,0.4713695427620807
1770453890188,132,4,4.5354419891254,5.06201048150627,5.216761306202928
1770453890192,140,12,12.59277034941517,12.829093168511244,13.28658369946808
1770453890196,151,23,23.920738687836213,24.066744055725923,24.6104575133678
1770453890200,164,36,36.98653460030337,36.95587255749949,37.65701029705125
1770453890204,176,48,48.85989260046602,49.0461539124484,49.50698159592056
1770453890208,184,56,56.13841550524243,56.840620600308405,56.771484121338325
1770453890212,185,57,56.41390738722955,58.03759426579702,57.04981470406268
1770453890216,178,50,49.498989888766744,50.79859925773198,50.15288567118401
1770453890220,164,36,37.61600224504276,37.22887778007957,38.294809817318
1770453890224,151,23,24.33755889889169,23.748361048562614,25.0376058646436
1770453890228,140,12,12.903762370728558,13.221061693534772,13.612180687862878
1770453890232,133,5,4.948298656338309,5.649257944881321,5.64889821171133
1770453890236,128,0,0.2978178327980156,1.2826014687665577,0.9801038101479308
1770453890240,126,-2,-2.280385279262471,-1.313713728595359,-1.6148949296379935
1770453890244,123,-5,-4.057530612756785,-3.689017996493861,-3.3971711616854847
1770453890248,122,-6,-5.7015165677106285,-5.397509146587094,-5.033203738219609
1770453890252,120,-8,-7.24127906826328,-6.7041750127571955,-6.5588124527765235
1770453890256,119,-9,-8.429629196860782,-8.349748814111914,-7.735635441511686
1770453890260,118,-10,-9.122963041795852,-8.698118833506724,-8.424914916389106
1770453890264,119,-9,-9.410912397398391,-8.270970327956162,-8.715638055864598
1770453890268,118,-10,-9.491110233638638,-8.899955102602483,-8.801193536730262
1770453890272,118,-10,-9.487887872210806,-9.098563034644592,-8.801105146018454
1770453890276,118,-10,-9.404535796717004,-9.034107266293985,-8.716257820608753
1770453890280,118,-10,-9.215826177190998,-8.931769521521451,-8.522848301380382
1770453890284,119,-9,-8.960303912136553,-8.118235638597476,-8.263144461798529
1770453890288,119,-9,-8.7255251419946,-8.000369671964283,-8.027198806597319
1770453890292,119,-9,-8.56217895482265,-8.030070139566725,-7.86480596197765
1770453890296,119,-9,-8.437594393627428,-8.050658240270725,-7.740497808926862
1770453890300,119,-9,-8.274699407615177,-7.959091023710266,-7.575886624459467
1770453890304,120,-8,-8.019628533385932,-7.067373100324126,-7.318484043801059
1770453890308,120,-8,-7.668022508505462,-7.073544149506948,-6.9657687566815945
1770453890312,120,-8,-7.248525337113257,-6.92496139337686,-6.5462651836994485
1770453890316,121,-7,-6.8024151645188144,-6.149338371905299,-6.099762235027913
1770453890320,121,-7,-6.370816309907941,-5.878153415705244,-5.666845733009703
1770453890324,122,-6,-5.975948027763004,-5.143556260392554,-5.270734735100564
1770453890328,122,-6,-5.605195101007428,-5.006505166693788,-4.899650106886807
1770453890332,122,-6,-5.22568048935509,-4.958056340408484,-4.5201116289736065
1770453890336,123,-5,-4.823917584692715,-4.132691753330409,-4.117534230793352
1770453890340,123,-5,-4.42197574940945,-3.8705676236131503,-3.7140227729258126
1770453890344,124,-4,-4.041060173562146,-3.203597360554588,-3.3318743023462347
1770453890348,124,-4,-3.653538389404781,-2.8798894314478476,-2.9440445125356733
1770453890352,124,-4,-3.1916815628700146,-3.1274282993384954,-2.4822124445196305
1770453890356,125,-3,-2.617490426108689,-1.917967750119289,-1.90769914524148
1770453890360,126,-2,-1.9780658431320604,-1.1071124534950267,-1.2678265531925486
1770453890364,126,-2,-1.380990165168454,-0.9862886691885496,-0.6706861571907252
1770453890368,127,-1,-0.9123168035376724,-0.0445245244287031,-0.2021088526632013
1770453890372,127,-1,-0.5759185891986105,0.0008034919024528,0.1347415403908822
1770453890376,127,-1,-0.3025214237149483,-0.011051282535436,0.409240531244968
1770453890380,128,0,-0.0094788752785861,0.9614097273418668,0.703233010253645
1770453890384,128,0,0.3412267769716656,0.950647192920164,1.054016833983836
1770453890388,128,0,0.722184597254591,1.034935350734743,1.4343977080746848
1770453890392,129,1,1.0613423122912236,1.9338861277176216,1.773009610684127
1770453890396,129,1,1.2902354448443496,2.0471398885882985,2.001669726787908
1770453890400,129,1,1.3893299250520197,1.9038448308814595,2.1007216244715408
1770453890404,129,1,1.3950544728178456,2.0052627129510707,2.1065057959910862
1770453890408,129,1,1.364285012369371,1.9960889356734763,2.0758705841969456
1770453890412,129,1,1.3332928696044883,1.9822807748213984,2.0449664397667813
1770453890416,129,1,1.30849046080491,2.0004135469897837,2.020059044060671
1770453890420,129,1,1.2888558236973882,1.9483857918349623,2.0000702780527915
1770453890424,129,1,1.2894915949382069,1.953175313831181,2.0001544801662328
1770453890428,129,1,1.338118575094612,2.079664527615811,2.048173045596712
1770453890432,129,1,1.4445505499764797,1.8804489287254391,2.1540134261742927
1770453890436,129,1,1.5741231182246342,2.1408472217373427,2.282824635104401
1770453890440,130,2,1.6587041602199613,2.762170133331054,2.366352612246009
1770453890444,129,1,1.6401860809452196,2.186780603929019,2.347024918981989
1770453890448,129,1,1.5029759043294173,1.810925521157268,2.2099501325761777
1770453890452,129,1,1.2683241840609216,2.2053109879088124,1.9758552746925937
1770453890456,129,1,0.9680032506501004,1.773514684109239,1.6748538243787363
1770453890460,128,0,0.6198547554244342,1.1601069404310929,1.3241166105685165
1770453890464,128,0,0.2070865573519116,0.7809489567161139,0.9083851522374616
1770453890468,127,-1,-0.3257825086507172,0.222104794643096,0.3742444897871251
1770453890472,127,-1,-1.0301656856143069,-0.1790928651247805,-0.329532591919313
1770453890476,126,-2,-1.8742236597254391,-0.8697714557283409,-1.1728403344598086
1770453890480,125,-3,-2.7056751092896474,-2.1540519173290456,-2.0049408436150173
1770453890484,124,-4,-3.3265030223070196,-2.9530370304958953,-2.6277832114447413
1770453890488,124,-4,-3.639916886032587,-2.973902931921786,-2.9436756858350703
1770453890492,124,-4,-3.73543079957706,-3.0391172033641203,-3.0416008421606295
1770453890496,124,-4,-3.819406039949084,-2.9363569768351616,-3.1278167082270314
1770453890500,124,-4,-4.043451688311533,-3.136936267181854,-3.3536039818606165
1770453890504,123,-5,-4.380881020270863,-3.938735511687262,-3.6917738615977966
1770453890508,123,-5,-4.655586965653141,-4.002815945412407,-3.966399007722059
1770453890512,123,-5,-4.690863234612601,-3.997271909459672,-4.001996268892539
1770453890516,123,-5,-4.45014537238111,-3.956266113264373,-3.763358364700966
1770453890520,124,-4,-4.062645297196069,-3.1220155609725557,-3.379830866661736
1770453890524,124,-4,-3.7279202865604177,-2.933176905321176,-3.0494773979238485
1770453890528,124,-4,-3.5832107786882643,-3.039451669589123,-2.907555537939042
1770453890532,124,-4,-3.629140853874951,-2.919095493889888,-2.9540645161170502
1770453890536,124,-4,-3.7488841589075865,-3.058352391732909,-3.0735954733513378
1770453890540,124,-4,-3.790113301256708,-2.9809501606210382,-3.115844577714447
1770453890544,124,-4,-3.656672194499884,-3.0870097076727303,-2.9853023698473433
1770453890548,124,-4,-3.363393098087785,-2.8813491121568253,-2.695845917343087
1770453890552,125,-3,-3.021712201765193,-2.061344925520465,-2.357756057800793
1770453890556,125,-3,-2.7605316924703724,-1.9194019836496925,-2.099523710917193
1770453890560,125,-3,-2.6405469355366664,-2.092097333864764,-1.9819260509716825
1770453890564,125,-3,-2.6314283364238222,-1.9921011336804224,-1.9748816344456888
1770453890568,125,-3,-2.6615443212211325,-1.9624417379440264,-2.007235051484639
1770453890572,125,-3,-2.683582942211198,-1.987311273619036,-2.03213242670284
1770453890576,125,-3,-2.697660892543647,-1.96409677334872,-2.049590914013011
1770453890580,125,-3,-2.723321135420672,-2.039752113706335,-2.078551726888694
1770453890584,125,-3,-2.7548213492602103,-2.0497470220757137,-2.112885770380909
1770453890588,125,-3,-2.7420648479548584,-1.8925677982982905,-2.102731197667988
1770453890592,125,-3,-2.6185165902603886,-2.0695464575365845,-1.9820784989027445
1770453890596,125,-3,-2.3596677580879835,-1.846527051769483,-1.726785545533656
1770453890600,126,-2,-2.022791123607088,-1.1485768719778906,-1.394148180651825
1770453890604,126,-2,-1.726318561432665,-0.9538758852985074,-1.1021373961783376
1770453890608,126,-2,-1.5793414088424318,-0.9591510559958772,-0.9590496985524188
1770453890612,126,-2,-1.6149292719619843,-1.038932362847635,-0.9975977042238552
1770453890616,126,-2,-1.772470994682158,-0.819799710270575,-1.1577416085204328
1770453890620,126,-2,-1.9380367590700296,-1.192994372222131,-1.326386358335116
1770453890624,125,-3,-2.020408221424386,-1.895126792998334,-1.412604914100693
1770453890628,126,-2,-2.0134295480930637,-1.0044414339335468,-1.4101509744100569
1770453890632,126,-2,-1.9929514063814389,-1.019515448419689,-1.3947142857456685
1770453890636,125,-3,-2.048862818083848,-1.775563348726049,-1.455704212630061
1770453890640,126,-2,-2.213072247142738,-1.2780367603017488,-1.624320511572559
1770453890644,125,-3,-2.439017123670175,-1.7507775237241718,-1.853788990771787
1770453890648,125,-3,-2.634566598344829,-2.2127721301912935,-2.0525523083777495
1770453890652,125,-3,-2.7143789923045314,-1.7448969081189958,-2.136072438705999
1770453890656,125,-3,-2.637704674950688,-2.066221056842258,-2.0640271448436143
1770453890660,125,-3,-2.4145147911706113,-1.9663131257757285,-1.8463666780819177
1770453890664,126,-2,-2.0822941060808393,-1.0394182247026271,-1.5201930197392146
1770453890668,126,-2,-1.673457496420841,-0.9669400590974604,-1.1170300935546122
1770453890672,126,-2,-1.2005842086117138,-0.9406029234597382,-0.6484171351146442
1770453890676,127,-1,-0.666466727556692,0.1254841151923349,-0.1172501690974812
1770453890680,128,0,-0.0761264994249837,0.854622919433146,0.469687374088616
1770453890684,128,0,0.5618941681040304,1.161695849621616,1.1021295806292808
1770453890688,129,1,1.2222591320343708,1.8009876113390522,1.7551108372605837
1770453890692,129,1,1.8272943460276063,2.33337222276393,2.3530732955145712
1770453890696,130,2,2.2345907717994713,2.8412984868938738,2.7550823608816266
1770453890700,130,2,2.300017438135945,3.164403849837739,2.816346113887147
1770453890704,130,2,1.9903214094915525,2.86842194216756,2.5019339280880675
1770453890708,129,1,1.4405621524734231,2.0534791838308823,1.946411017496735
1770453890712,128,0,0.8786017412511258,1.1535279742815727,1.3787286696985523
1770453890716,128,0,0.4666654456494956,0.9495762190467004,0.9619096709835152
1770453890720,128,0,0.2035315706746114,1.174217634760362,0.6938066210427127
1770453890724,128,0,-0.0268547261115075,0.7767705558419742,0.4568564541774766
1770453890728,127,-1,-0.3260099838825446,0.2239949744133236,0.1496224044091856
1770453890732,127,-1,-0.7075327863740659,-0.0700786237949038,-0.2396024684937283
1770453890736,126,-2,-1.1340226311230297,-0.7918283568592295,-0.6718154403088787
1770453890740,126,-2,-1.5909894952906032,-1.067460762775864,-1.133111029350586
1770453890744,126,-2,-2.097168364885991,-0.9784418896490136,-1.6443409451044366
1770453890748,125,-3,-2.643983026725394,-1.9887329408066647,-2.198052360437709
1770453890752,124,-4,-3.152387684764181,-2.8952445025785605,-2.7141157572163745
1770453890756,124,-4,-3.513308938336394,-2.9175060640984714,-3.0818108538404343
1770453890760,124,-4,-3.671217056556205,-2.9675944533605523,-3.245501939740128
1770453890764,124,-4,-3.661986398102285,-3.0170834307042997,-3.2423128635288885
1770453890768,124,-4,-3.5768323180268284,-2.9674741577579433,-3.1643444699498584
1770453890772,124,-4,-3.4998063901194274,-2.905179952197979,-3.09535343295008
1770453890776,124,-4,-3.4729647437691926,-2.9102804150136476,-3.076551533937287
1770453890780,124,-4,-3.4994878037941124,-2.963139217309123,-3.110560455534796
1770453890784,124,-4,-3.5594997127278267,-2.986176460881438,-3.1773740466322096
1770453890788,124,-4,-3.6144361319135023,-3.001367251568292,-3.238340793563615
1770453890792,124,-4,-3.604259856365932,-2.8580171993707535,-3.233171970643248
1770453890796,124,-4,-3.4648756189317766,-2.9703217250735503,-3.0979957102211175
1770453890800,124,-4,-3.1773749788681966,-2.8718542698716187,-2.8157781030790283
1770453890804,125,-3,-2.8127829164775613,-2.0680803690014677,-2.460895216630028
1770453890808,125,-3,-2.5109746973794493,-1.8855309292970612,-2.17506108671796
1770453890812,125,-3,-2.366927201539201,-2.0087306782379253,-2.049911648435213
1770453890816,125,-3,-2.2563756968752893,-1.77038346407535,-1.952954645226331
1770453890820,126,-2,-1.671731307119622,-1.1191987590295898,-1.3693085886364136
1770453890824,128,0,0.3294258881239855,1.2730330570849713,0.642820781470971
1770453890828,133,5,4.931277579804024,5.732486823267813,5.25743559128293
1770453890832,140,12,13.038336799338897,13.433478892428043,13.365513225249188
1770453890836,152,24,24.542816021619934,24.766845119122465,24.852186479939224
1770453890840,164,36,37.77382822957528,37.370410858217035,38.05143471330432
1770453890844,177,49,49.63124764177959,49.815121553880026,49.87639324236194
1770453890848,185,57,56.63084081749693,58.15886817963371,56.855299993014256
1770453890852,185,57,56.477525145583385,58.02945247240442,56.6979526178689
1770453890856,177,49,49.26159583230134,50.06673472764055,49.491405510287464
1770453890860,164,36,37.453462130416106,37.14449634138898,37.697692873466465
1770453890864,151,23,24.633687378021634,23.975890241138625,24.88709290136596
1770453890868,141,13,13.770754158507284,14.145034007548494,14.019705600853364
1770453890872,134,6,6.119987141870277,7.036987794713569,6.349079316804568
1770453890876,129,1,1.2756909658212177,2.125699244915579,1.4764800479287217
1770453890880,126,-2,-1.9303596239408345,-0.9207067501810728,-1.7545220532320691
1770453890884,123,-5,-4.456942762403546,-3.997531353367924,-4.293879484437548
1770453890888,120,-8,-6.61933242975684,-6.832428740566218,-6.4565463761268145
1770453890892,119,-9,-8.27212664884192,-8.016976005166564,-8.104587707486985
1770453890896,118,-10,-9.244688560155408,-8.734100742562541,-9.076772457961502
1770453890900,118,-10,-9.608614151789126,-9.125287434130946,-9.449604572200132
1770453890904,118,-10,-9.630864464937996,-8.725006535649145,-9.48786248269046
1770453890908,118,-10,-9.567725869694849,-9.1517613409355,-9.441184641348457
1770453890912,117,-11,-9.532121843140256,-9.648339058346734,-9.416941777424128
1770453890916,118,-10,-9.517556593047711,-9.080843428356811,-9.408293161918587
1770453890920,118,-10,-9.48648891171817,-8.81076742079362,-9.3817891231819
1770453890924,118,-10,-9.410854308998282,-8.964059596095371,-9.313288197374495
1770453890928,118,-10,-9.259199169261068,-8.990621441094456,-9.17171515930815
1770453890932,118,-10,-8.99172640303593,-8.686739921143422,-8.915122019786903
1770453890936,119,-9,-8.58667357865911,-8.13581038821947,-8.520129466034497
1770453890940,119,-9,-8.067102937405974,-7.64553785809604,-8.00990727192113
1770453890944,120,-8,-7.499514219931742,-7.197749875908761,-7.451672090570274
1770453890948,120,-8,-6.966400511677043,-6.696017201241175,-6.928088360479097
1770453890952,121,-7,-6.528981077050441,-5.979413840462292,-6.500018534407153
1770453890956,121,-7,-6.1974779733661975,-5.850487037301556,-6.177399384420189
1770453890960,121,-7,-5.9257559961530015,-5.871682294062658,-5.914319782106594
1770453890964,122,-6,-5.635417440890886,-5.024617838008857,-5.63297444945828
1770453890968,122,-6,-5.25684847912853,-4.787698045305302,-5.263968860433504
1770453890972,122,-6,-4.768491644961221,-4.930698915993084,-4.78528928103161
1770453890976,123,-5,-4.2124277048953545,-3.843011907849155,-4.238745948272491
1770453890980,124,-4,-3.665532196595933,-2.8800080748124675,-3.701664930202854
1770453890984,124,-4,-3.180978003061805,-3.024549288898972,-3.227356140064765
1770453890988,124,-4,-2.756921309353027,-2.730460274685445,-2.8130486239524193
1770453890992,125,-3,-2.361939818260063,-2.0267495376784392,-2.426618793358567
1770453890996,125,-3,-1.9739301353279917,-1.6863756451452558,-2.046868221015197
1770453891000,126,-2,-1.5805732918392716,-1.05470493923279,-1.6629394931214838
1770453891004,126,-2,-1.1573489049612649,-0.8192000316742516,-1.2501970579309192
1770453891008,126,-2,-0.6751053094299505,-0.9178913450220696,-0.7779027142278756
1770453891012,127,-1,-0.1373929842359316,0.1456083071711531,-0.2489124608707618
1770453891016,128,0,0.4082030333804471,1.198297349436563,0.2879838242969512
1770453891020,128,0,0.9063896480695832,1.0250915208243372,0.776294782129725
1770453891024,128,0,1.3275446525630623,1.1762006942332572,1.1869214560159018
1770453891028,129,1,1.657007138811455,2.0434469778104356,1.5064639146660372
1770453891032,129,1,1.872413919144892,2.228771264425523,1.7128608718882186
1770453891036,129,1,1.9559403205212005,2.1080765174999323,1.7876818926748503
1770453891040,129,1,1.9300432474383056,2.1560995988828573,1.752844876902229
1770453891044,129,1,1.8705211849035304,2.049456134003612,1.684001942571348
1770453891048,129,1,1.8763447860001017,2.179570397147858,1.6802794159280814
1770453891052,129,1,2.014699235833562,2.105253462802507,1.809271580290736
1770453891056,129,1,2.2788885473390934,2.2442316380884657,2.064525179055165
1770453891060,130,2,2.5933441617164203,3.055800123991861,2.3700099160006323
1770453891064,130,2,2.8667744958205064,3.1567737543990724,2.633700564976577
1770453891068,130,2,3.046905469304256,3.074012976016542,2.8034687853481
1770453891072,130,2,3.125168138390498,3.2354907614765924,2.871914339875075
1770453891076,130,2,3.097932743613021,3.1041039171132736,2.8362618672375977
1770453891080,130,2,2.9434002373524217,3.253463698372954,2.674134583647483
1770453891084,130,2,2.649026887964374,2.948919077727968,2.371561219009523
1770453891088,129,1,2.252809433904481,2.3069041583017538,1.9658599674961073
1770453891092,129,1,1.83481560890817,2.004698460121329,1.537893131899702
1770453891096,128,0,1.4500920063376754,1.341237969378703,1.1439631518782805
1770453891100,128,0,1.0691974664658763,1.0679659188616537,0.7547589245151607
1770453891104,128,0,0.5985367549785959,1.1153831400174736,0.2755501355872534
1770453891108,127,-1,-0.0285619434476518,0.2079676448137473,-0.3610574353913307
1770453891112,126,-2,-0.7815350451825616,-0.968143832081664,-1.1235736931550333
1770453891116,125,-3,-1.5547873106778072,-1.583514381283324,-1.9049879243176808
1770453891120,125,-3,-2.2494719493212134,-2.0757576889851563,-2.606599990128624
1770453891124,124,-4,-2.8238254831253697,-2.6322210959294323,-3.188356949691557
1770453891128,124,-4,-3.276187245085785,-3.0892733495493374,-3.649793456442016
1770453891132,123,-5,-3.607826198075293,-3.634815670598789,-3.991468333664482
1770453891136,123,-5,-3.8182946140479825,-3.9078599244869783,-4.211248765328473
1770453891140,123,-5,-3.92570712381755,-3.7592825993959313,-4.326472925565565
1770453891144,123,-5,-3.9679010509500863,-3.865100046196827,-4.375716746915932
1770453891148,123,-5,-3.970693180941279,-3.912636412825531,-4.385973899165834
1770453891152,123,-5,-3.91935817063952,-3.72446471433773,-4.342820642228105
1770453891156,123,-5,-3.773909575439562,-3.891775519755035,-4.205584040945959
1770453891160,123,-5,-3.521438339241737,-3.687733411539976,-3.960778768411324
1770453891164,124,-4,-3.2124598848842503,-2.9514084545920447,-3.659329448367513
1770453891168,124,-4,-2.9391826052526113,-2.7842164167153176,-3.3942314836459673
1770453891172,124,-4,-2.7754350451684218,-2.8515945437499193,-3.239170149288951
1770453891176,124,-4,-2.7366715605608363,-2.766987622535493,-3.2084466008085455
1770453891180,124,-4,-2.7874250652045145,-2.783104636268809,-3.2658058491691206
1770453891184,124,-4,-2.870391548634766,-2.836507157560173,-3.3545537975756368
1770453891188,124,-4,-2.9239128888362735,-2.868479247200117,-3.4144375616020652
1770453891192,124,-4,-2.8887960732772053,-2.760871771777298,-3.3869437595788505
1770453891196,124,-4,-2.7266652436368277,-2.855910206217863,-3.232957402951831
1770453891200,124,-4,-2.4509024535816284,-2.671304240538396,-2.9646477708674057
1770453891204,125,-3,-2.136422916519704,-1.922658698490057,-2.656655874240138
1770453891208,125,-3,-1.880749655107247,-1.754717974171074,-2.407278159266115
1770453891212,125,-3,-1.7414797434000029,-1.8660805857273104,-2.274792362214819
1770453891216,125,-3,-1.7077996315504564,-1.7508347332865366,-2.2482086312826333
1770453891220,125,-3,-1.7288404892189286,-1.7565843367277791,-2.2759500484855892
1770453891224,125,-3,-1.7631065331733489,-1.8143742188995633,-2.3159903604514605
1770453891228,125,-3,-1.7992181599350652,-1.8250132429586936,-2.3570933956334907
1770453891232,125,-3,-1.834244785524274,-1.792928678718508,-2.3972413110951023
1770453891236,125,-3,-1.8401726057215184,-1.8146367745437575,-2.4094294683520956
1770453891240,125,-3,-1.7646178280169686,-1.686624256315279,-2.341144822390225
1770453891244,125,-3,-1.5821292239059668,-1.841129000423117,-2.1654202387491894
1770453891248,125,-3,-1.3509482051121031,-1.7887696880702242,-1.9393290010093611
1770453891252,126,-2,-1.1974191372505474,-0.792513575847476,-1.790110723927766
1770453891256,126,-2,-1.211211727799365,-0.836391632817298,-1.809234663586634
1770453891260,125,-3,-1.3492558871623754,-1.632817834453911,-1.9535355104825272
1770453891264,125,-3,-1.4651378929471992,-1.869784161754474,-2.0745443207411416
1770453891268,125,-3,-1.4443068702915376,-1.7492547599700958,-2.056890823703972
1770453891272,126,-2,-1.2964267619957064,-0.7941932038044834,-1.9122662548323304
1770453891276,126,-2,-1.1127242194378926,-0.8479406509430079,-1.7340774765014435
1770453891280,125,-3,-0.963011983623016,-1.5766724792036753,-1.5913990115290373
1770453891284,126,-2,-0.8575313282643079,-0.9274699928394524,-1.491802618247564
1770453891288,126,-2,-0.7862129060577725,-0.6585998934965227,-1.4239105787725714
1770453891292,126,-2,-0.7517799521239207,-0.8806435987398356,-1.3915695222202524
1770453891296,126,-2,-0.7503802127690069,-0.7323314018190428,-1.3927528278442431
1770453891300,126,-2,-0.7384309551304564,-0.6714688989801161,-1.3846531020098825
1770453891304,126,-2,-0.6416712460474586,-0.8306552406135537,-1.2925792353919832
1770453891308,126,-2,-0.4096822038824245,-0.7159212776039516,-1.0653028362515506
1770453891312,127,-1,-0.0637139116514132,0.1673160062336007,-0.7234697860338941
1770453891316,127,-1,0.3140450445280001,0.2769693880329913,-0.3488636485549437
1770453891320,127,-1,0.6460605405673814,0.3035695436243784,-0.0189388106839394
1770453891324,128,0,0.9255927667263046,1.243208687463643,0.2588986289693205
1770453891328,128,0,1.2273135670501252,1.1910743870780212,0.5582802555446724
1770453891332,128,0,1.6427932420687703,1.3057899620736624,0.970580290079934
1770453891336,129,1,2.177478970241901,2.1494966968350884,1.502148688554693
1770453891340,129,1,2.69541716331819,2.458741787697466,2.017642652002537
1770453891344,130,2,2.9819927619685735,3.100061455264142,2.301754435460856
1770453891348,130,2,2.8937645131362055,3.3468665731945184,2.210250351429633
1770453891352,129,1,2.466337051549087,2.1799159547282843,1.7797324719759071
1770453891356,128,0,1.876544457320048,1.2686561543071688,1.1891736944389946
1770453891360,128,0,1.301274371146691,1.404842365492422,0.6157383590991601
1770453891364,128,0,0.8185561713311648,1.1115742458198097,0.134695467540697
1770453891368,127,-1,0.4258621125489011,0.4253497192474755,-0.2595290615670462
1770453891372,127,-1,0.1020269636834345,0.0690463378314829,-0.5881011793765927
1770453891376,126,-2,-0.1886320674377949,-0.570255068015979,-0.8837565311767577
1770453891380,126,-2,-0.5364005692981733,-0.7573884582556012,-1.233860089847922
1770453891384,126,-2,-1.069179930540594,-0.7142164220543221,-1.7656152237040557
1770453891388,125,-3,-1.840498770783524,-1.6895030550665109,-2.5337107080748025
1770453891392,124,-4,-2.7218283658278355,-2.8412225556042343,-3.411385461202748
1770453891396,123,-5,-3.4342957397030864,-3.5914418134249013,-4.1217312950166365
1770453891400,123,-5,-3.7357910968633785,-3.7874988727183783,-4.424303861539754
1770453891404,123,-5,-3.631801450165901,-3.60433526331417,-4.324396702815396
1770453891408,123,-5,-3.440476734511683,-3.7965157724114897,-4.137456090429324
1770453891412,123,-5,-3.628551496470744,-3.697952105265237,-4.3271721070331886
1770453891416,123,-5,-4.485083501760013,-3.7255046176437,-5.181885453732663
1770453891420,121,-7,-5.8437973122682125,-5.666363854765794,-6.536617652717629
1770453891424,119,-9,-7.0891133345639945,-7.686628266305556,-7.776914582092609
1770453891428,119,-9,-7.495722729515287,-7.685234237101837,-8.17804719207399
1770453891432,120,-8,-6.67293245876413,-6.7804064650643845,-7.350768996525208
1770453891436,122,-6,-4.78916525884658,-4.619521667188928,-5.465736956278662
1770453891440,125,-3,-2.448459936345164,-1.755799157892052,-3.127658060582532
1770453891444,126,-2,-0.3733291020597034,-0.5814066334069881,-1.056743934018145
1770453891448,127,-1,0.8641653781651031,0.2319562452143668,0.1781505224790334
1770453891452,128,0,0.972890543521544,1.3030038127922254,0.2869215953301371
1770453891456,127,-1,0.0141837003519285,0.3301458184725607,-0.6699862327948032
1770453891460,125,-3,-1.517556447303496,-1.7144367704037058,-2.1980209208051775
1770453891464,124,-4,-2.6649676146617427,-2.546296131009291,-3.3378713710134074
1770453891468,125,-3,-2.144001222937479,-1.8375108314019677,-2.8046039586223257
1770453891472,128,0,1.3008387523347418,1.4488926785404548,0.6545136929282145
1770453891476,135,7,8.381959670156904,8.18341824786573,7.746154655188366
1770453891480,145,17,18.77472676894137,18.48429398616281,18.140202012324465
1770453891484,158,30,30.90133017370435,31.287456135261163,30.257486389012396
1770453891488,169,41,42.19178384032606,42.319140903785694,41.5329925613037
1770453891492,176,48,49.819251846424336,49.31244492852809,49.14904990881308
1770453891496,179,51,51.67830636196461,52.292714468892946,51.00786976818632
1770453891500,175,47,47.22334164030518,48.3874760531859,46.565848148661445
1770453891504,164,36,37.760654424944434,37.3952477164934,37.125837956539414
1770453891508,152,24,25.97768279606185,25.214954597532117,25.36801101326247
1770453891512,142,14,14.891919854987236,15.489724262152365,14.300531888038524
1770453891516,134,6,6.735918713930872,7.105558317645859,6.14887386740856
1770453891520,128,0,2.2835049892406696,1.7061701296580996,1.6871953993767177
1770453891524,128,0,0.8418052866984711,1.055565954545023,0.2305294944358769
1770453891528,128,0,0.8344006280357177,1.614230811406395,0.2127048160464446
1770453891532,128,0,0.6731382190563129,1.052101035443088,0.0529335697888635
1770453891536,126,-2,-0.5098044261952053,-0.4345151444141919,-1.114881300742126
1770453891540,124,-4,-2.6113548268098175,-2.7156977493762176,-3.1928862359728596
1770453891544,122,-6,-4.838240915745766,-4.5487397569365,-5.3983439362127905
1770453891548,121,-7,-6.291898986018752,-5.689407805835122,-6.841952936025944
1770453891552,120,-8,-6.541657018590989,-6.714227667904046,-7.093820012524473
1770453891556,120,-8,-5.919832718667145,-6.527895084155287,-6.478570000006263
1770453891560,122,-6,-5.373288231663659,-4.698140425476912,-5.934383508093006
1770453891564,122,-6,-5.906077672829989,-4.453059726736305,-6.461924777268681
