timestamp_ms,ecg_u8_raw,ecg_counts_raw_int,ecg_counts_filt_monitor,ecg_counts_filt_diagnostic,ecg_counts_filt_st
1768735315420,130,2,4.160495382012053,5.9222799856311665,4.802204279657825
1768735315424,130,2,4.249148810129048,6.112400388532469,4.898443083774411
1768735315428,131,3,4.508497709416891,6.757238777637872,5.1661950408211625
1768735315432,131,3,4.809720117211905,7.054305644975846,5.474747451321742
1768735315436,131,3,5.03737697412044,7.025618550587827,5.708039351603562
1768735315440,131,3,5.1403445358573485,7.124238292052632,5.816410687090059
1768735315444,131,3,5.101194281750834,6.947796655056182,5.784265647514478
1768735315448,131,3,4.88907007837876,6.905280527103239,5.580860244027998
1768735315452,131,3,4.475804507709656,6.9559508150726925,5.176497103549003
1768735315456,130,2,3.904955244583953,6.081911033396921,4.61358292390367
1768735315460,129,1,3.321312765866446,5.088767516303772,4.037358493388802
1768735315464,129,1,2.9019310065209742,4.96224501097927,3.625846718645872
1768735315468,129,1,2.7411152254478472,4.931412500288949,3.473299829658085
1768735315472,129,1,2.793036357235273,4.925310962109121,3.5330374531174766
1768735315476,129,1,2.913796901065657,5.133656952292738,3.6608336808753816
1768735315480,129,1,2.955899065457019,5.004249982519944,3.709818778581644
1768735315484,129,1,2.841830098190784,5.05530910470144,3.603376236706455
1768735315488,129,1,2.5778654832574066,4.855249536627154,3.3482438890772683
1768735315492,128,0,2.2177652840881787,4.0041112328656965,2.997885604112346
1768735315496,128,0,1.818495617338384,4.076133021851263,2.6081950250352164
1768735315500,128,0,1.42655975553705,4.02765927009619,2.2246099816790426
1768735315504,127,-1,1.0898072738494848,3.0497042204599936,1.8952110194077096
1768735315508,127,-1,0.8550607814636484,2.8635313163172222,1.6683136440312287
1768735315512,127,-1,0.7403814675250497,3.024800574743182,1.5629212949997215
1768735315516,127,-1,0.7202458989622418,3.035603951638743,1.552705009136247
1768735315520,127,-1,0.7493083294880409,3.080592605855033,1.5908933540766557
1768735315524,127,-1,0.7937453121197233,2.9751336635903476,1.6434448472631589
1768735315528,127,-1,0.8283784830413194,2.970091981562324,1.6862494262291874
1768735315532,127,-1,0.8105159565566928,2.915974582188685,1.6774118117696415
1768735315536,127,-1,0.6816072977494678,3.1478558357371957,1.5579957906495732
1768735315540,127,-1,0.4152689961960965,2.9665937724866716,1.30099974169736
1768735315544,126,-2,0.0632337928118944,2.076444279065814,0.9584804817501552
1768735315548,126,-2,-0.2588821580895799,1.8973467060633928,0.6466974815315177
1768735315552,126,-2,-0.437987469552864,1.980383475455898,0.4782761910464073
1768735315556,126,-2,-0.4217961390275164,2.093958113066911,0.5042320121995703
1768735315560,126,-2,-0.2344975216043099,2.023273956363868,0.7000494097652945
1768735315564,126,-2,0.0371168064054063,2.0026641020929357,0.980021127948378
1768735315568,127,-1,0.2739296871291377,3.005089732378695,1.2261421178315708
1768735315572,127,-1,0.3732838131810931,2.8453738863030695,1.3358488375004978
1768735315576,126,-2,0.2989285021091419,2.2633095719838336,1.2722968070383116
1768735315580,127,-1,0.0954865057861595,2.823004650644467,1.0795146657868726
1768735315584,126,-2,-0.1451409268419763,2.22732545067896,0.8491901041931286
1768735315588,126,-2,-0.3400482461939278,1.7579190160422158,0.6644514904935421
1768735315592,126,-2,-0.4545720104456519,2.1312489051170527,0.5602058802006867
1768735315596,126,-2,-0.4968223776739116,1.9610592301210272,0.5282305993813936
1768735315600,126,-2,-0.4768659746379942,2.1224735027531643,0.558360138543715
1768735315604,126,-2,-0.3772659517715712,1.954054266760092,0.6683708257532792
1768735315608,126,-2,-0.1690704419184714,1.9796898798644804,0.8874962057693516
1768735315612,127,-1,0.1485906236031291,2.9876111738967603,1.216231447106472
1768735315616,127,-1,0.5321838618464466,3.0393699447912113,1.6105380686189803
1768735315620,127,-1,0.9126711795567256,3.099269762302492,2.0015587982433987
1768735315624,128,0,1.2256307179205126,3.939044701723506,2.3253965941156824
1768735315628,128,0,1.4331886426124445,4.011109672701677,2.544188054291331
1768735315632,128,0,1.532318087917698,3.9544537825925055,2.654449233650671
1768735315636,128,0,1.5460187883637628,4.088143155106632,2.6789462217604907
1768735315640,128,0,1.5036015325135752,4.036296337857957,2.647262950598765
1768735315644,128,0,1.4302452496403202,4.012941735353424,2.5850961568100885
1768735315648,128,0,1.3573437844134513,3.925009231940378,2.5242157423232023
1768735315652,128,0,1.3383490923765116,4.056776940200612,2.5180086644081214
1768735315656,128,0,1.4410171849667075,3.991311648047702,2.6335712418964
1768735315660,128,0,1.704369061283436,4.1246881136722,2.9088435490459252
1768735315664,129,1,2.0845023512448835,4.93037899111118,3.2991960831003664
1768735315668,129,1,2.4328589560427476,5.00078460038199,3.656727282189728
1768735315672,129,1,2.5345335160266877,4.98993947920388,3.768527338373547
1768735315676,129,1,2.2006567966906525,5.070636259919974,3.447297036821552
1768735315680,128,0,1.377552743241106,4.0218177912465345,2.6387202131288845
1768735315684,127,-1,0.2092462165944706,3.0479116411984974,1.4844987404420495
1768735315688,126,-2,-1.0095627865176922,1.8647002154189036,0.2778526096486207
1768735315692,124,-4,-1.991255433961245,0.1570838717594593,-0.6927758224930711
1768735315696,124,-4,-2.622350836176872,-0.1162523468337619,-1.312277155551724
1768735315700,124,-4,-2.996075225438226,0.2420975758806416,-1.6736500578531164
1768735315704,124,-4,-3.2715515690080945,-0.2145858038817913,-1.9368336738905272
1768735315708,123,-5,-3.497558603947846,-0.8319124608269344,-2.150492985957831
1768735315712,123,-5,-3.583120389917256,-1.169659030668536,-2.2226398472214197
1768735315716,123,-5,-3.436906201168268,-0.792498327856697,-2.0621869134744504
1768735315720,124,-4,-3.1162769354604496,-0.0547998186671976,-1.7285911700880103
1768735315724,124,-4,-2.829621811119472,0.036928386693539,-1.4317355803180474
1768735315728,124,-4,-2.793837386411501,-0.0052643607334026,-1.3869525675961616
1768735315732,124,-4,-3.0750121702272386,-0.0892718588564926,-1.6564686830535145
1768735315736,123,-5,-3.5310673246351265,-0.7876588492057359,-2.0955133758413305
1768735315740,123,-5,-3.8819187133696738,-1.1620621495860637,-2.42554684920266
1768735315744,123,-5,-3.851060936125746,-0.7401069074952935,-2.3757156164346163
1768735315748,124,-4,-3.299168364605439,-0.3157768160801302,-1.8126050266944815
1768735315752,124,-4,-2.28942115155588,0.3051881982405229,-0.800554109705037
1768735315756,126,-2,-1.0411379943835466,1.7400885475029826,0.4468644077069825
1768735315760,127,-1,0.256426984869281,3.3505820495429504,1.7502325429667993
1768735315764,129,1,1.7280844081140645,4.734951912629845,3.2418320887853085
1768735315768,131,3,4.025092602548642,7.216439289265114,5.5719458390101195
1768735315772,136,8,8.221367694455186,11.794790883257566,9.804243785385989
1768735315776,142,14,15.24980771928332,18.20177243254146,16.8582709526898
1768735315780,151,23,25.034271672891236,26.950217166449868,26.65000595333793
1768735315784,162,34,35.82750700347098,38.088755126851254,37.43412553956863
1768735315788,172,44,44.367656105694344,47.93429222072057,45.95905833443861
1768735315792,175,47,47.06840471900547,50.99314476164305,48.65258814251102
1768735315796,169,41,41.73771865896194,45.01454530790154,43.33425839919306
1768735315800,156,28,28.85032838451211,32.04826234601251,30.48093512095476
1768735315804,139,11,11.5903770880505,15.000534981473832,13.266939931439437
1768735315808,121,-7,-5.415421027695091,-2.95573466904853,-3.697166618913567
1768735315812,108,-20,-18.019700837282272,-16.073347064133518,-16.276996959421297
1768735315816,103,-25,-24.12852607711794,-20.84730093921145,-22.382302394561357
1768735315820,104,-24,-24.158077446678604,-20.105185678127818,-22.422854729101644
1768735315824,107,-21,-20.301544513948052,-16.813822815164627,-18.578376012239648
1768735315828,112,-16,-15.215753839373344,-12.16511257114065,-13.491926658806667
1768735315832,116,-12,-10.91112822938912,-7.891787028289745,-9.168254872712764
1768735315836,119,-9,-8.277577153426238,-5.0419909298854195,-6.503186768288135
1768735315840,120,-8,-7.213104100706707,-3.959729108004467,-5.406896096899723
1768735315844,120,-8,-7.077703324773123,-3.9125640992283537,-5.248444879007737
1768735315848,120,-8,-7.182291070008049,-4.097516497195841,-5.33984542827654
1768735315852,120,-8,-7.10838721162538,-3.920227906457117,-5.258076797424024
1768735315856,121,-7,-6.775087369519949,-3.0503804478397676,-4.917029274268899
1768735315860,121,-7,-6.309865775448301,-2.931093274725047,-4.441004746084234
1768735315864,121,-7,-5.873046456537819,-2.9406169590705993,-3.9894286089528928
1768735315868,122,-6,-5.55837498869612,-2.0716273449042517,-3.657143854058607
1768735315872,122,-6,-5.384251344083954,-1.9395208408200375,-3.46493891876403
1768735315876,122,-6,-5.323301422061664,-2.068993252281522,-3.3874774894143247
1768735315880,122,-6,-5.331721372516182,-1.875165555552465,-3.381266945595302
1768735315884,122,-6,-5.370427507644415,-2.0202847494998872,-3.406041275485991
1768735315888,122,-6,-5.415711933678967,-1.977206035931378,-3.4367663791890064
1768735315892,122,-6,-5.45594176365824,-2.028814578022722,-3.4614170698428115
1768735315896,122,-6,-5.478887560110663,-2.030892899029703,-3.468368604274143
1768735315900,122,-6,-5.463595716786144,-1.8420719557546272,-3.4375112875032623
1768735315904,122,-6,-5.38897008634387,-2.1320497829804053,-3.348036588178009
1768735315908,122,-6,-5.254187087448679,-1.7782029004743531,-3.1986768112501567
1768735315912,123,-5,-5.088399742697871,-1.3143529668127614,-3.017814319628985
1768735315916,122,-6,-4.9330142824841605,-1.6905795523797695,-2.84639705604104
1768735315920,123,-5,-4.806299053622419,-1.2252541637936774,-2.7030693778628425
1768735315924,123,-5,-4.679755554007411,-0.7173908966582934,-2.5603160599209347
1768735315928,123,-5,-4.494491907507301,-1.2016454936671923,-2.3598290386715224
1768735315932,123,-5,-4.218719120450295,-0.9136978162749668,-2.069493918922227
1768735315936,124,-4,-3.8998989453205417,-0.0602048467580398,-1.7361099276633052
1768735315940,124,-4,-3.64994153872747,0.0883705087388926,-1.4710717492032466
1768735315944,124,-4,-3.5618989250230135,0.0403212434952231,-1.366994062259178
1768735315948,124,-4,-3.6301424838772096,-0.0182760497316416,-1.418245999779668
1768735315952,124,-4,-3.7435306097154624,-0.0719679807589055,-1.51468126217527
1768735315956,124,-4,-3.756515602372268,0.0721694863798809,-1.512016459138236
1768735315960,124,-4,-3.5901007290430083,-0.0395565747828077,-1.331188322073387
1768735315964,124,-4,-3.297432091947333,0.1891355857762717,-1.023891065272847
1768735315968,125,-3,-3.038906990760668,0.8196319127675391,-0.7496125286758308
1768735315972,125,-3,-2.9640701864759427,1.0799135408285814,-0.658658147485436
1768735315976,125,-3,-3.085397734219492,0.9150040682935718,-0.764503697194657
1768735315980,124,-4,-3.2644419785190206,0.1079078409561011,-0.9282475690081736
1768735315984,124,-4,-3.3355823603445023,0.0637408314829093,-0.9831838677823306
1768735315988,125,-3,-3.2455057063389243,0.9246553894446764,-0.8762474487977414
1768735315992,125,-3,-3.0665605008872454,0.98369042159004,-0.6811690574389195
1768735315996,125,-3,-2.8871383738479164,0.9935378918987308,-0.4867876075101268
1768735316000,125,-3,-2.715527939854497,1.0416287778878055,-0.300308238348892
1768735316004,125,-3,-2.498473207143756,1.1180580112128626,-0.06758859127733
1768735316008,126,-2,-2.21594309440945,1.8635339819868433,0.2308547937108285
1768735316012,126,-2,-1.9415867366949369,2.0558580501630432,0.520447992907572
1768735316016,126,-2,-1.810239864071584,1.89600874078255,0.6665530812819187
1768735316020,126,-2,-1.923055724079074,2.171237444996194,0.5690395639732851
1768735316024,126,-2,-2.2633664361196613,1.9424007166424189,0.2450650317204549
1768735316028,125,-3,-2.686401244005123,1.065950740622899,-0.16112785524672
1768735316032,125,-3,-2.9994276248904765,0.8243224714353365,-0.4577670516749498
1768735316036,125,-3,-3.081689703257526,1.1521076974467843,-0.5247165328028006
1768735316040,125,-3,-2.9570583852543457,0.8992152256950128,-0.3856690060429361
1768735316044,125,-3,-2.7681899391595413,1.2145759921365866,-0.1824720150890695
1768735316048,126,-2,-2.67663522094119,1.7948203893001446,-0.0759637841709812
1768735316052,125,-3,-2.764926286296897,1.0678019840248574,-0.1486227634824004
1768735316056,125,-3,-3.009994227495542,0.9374138682686848,-0.3778841995969013
1768735316060,125,-3,-3.3375641360715993,1.0762791164569414,-0.6899546792874391
1768735316064,124,-4,-3.7020752329250186,0.0696954286520408,-1.039273864295365
1768735316068,124,-4,-4.120751139103486,-0.1060107185869729,-1.4428241330433775
1768735316072,124,-4,-4.631962169276918,0.0124530754371701,-1.9389912053213707
1768735316076,123,-5,-5.217500883827148,-1.0589133507889077,-2.509627872746493
1768735316080,122,-6,-5.772092334984221,-1.8884317704028564,-3.049151834786983
1768735316084,122,-6,-6.163301306262061,-1.9979807407142487,-3.4249399483391167
1768735316088,122,-6,-6.328448031011524,-2.0392689723673514,-3.574830764311367
1768735316092,122,-6,-6.316280463399906,-2.043264605613058,-3.548186133680262
1768735316096,122,-6,-6.242940358985912,-2.0189114498368355,-3.4609100046960317
1768735316100,122,-6,-6.210072967906951,-1.920232787005017,-3.4138391438880955
1768735316104,122,-6,-6.2489531389344375,-1.9814417128734665,-3.437963054968612
1768735316108,122,-6,-6.318967666956593,-2.076919288615406,-3.4931954648510173
1768735316112,122,-6,-6.347846464159448,-1.9786821981431195,-3.507747500595366
1768735316116,122,-6,-6.278301363561988,-2.114382806181264,-3.424048689548167
1768735316120,122,-6,-6.08527248070463,-1.79671948973147,-3.2164268743771256
1768735316124,123,-5,-5.751588220219356,-1.1396068271543442,-2.867684348050415
1768735316128,123,-5,-5.2304916062808875,-0.91937237885932,-2.3317255473692846
1768735316132,124,-4,-4.4473141379902685,-0.1241758382023601,-1.534479501651463
1768735316136,125,-3,-3.361757874914673,1.0025119431578875,-0.4356436541474062
1768735316140,126,-2,-2.04427662732686,2.128351741526358,0.8947214818260165
1768735316144,128,0,-0.6868061920658972,3.858615492967951,2.265031068036663
1768735316148,129,1,0.4846242704614436,5.157094371738701,3.4495599637195467
1768735316152,130,2,1.337675840540737,5.705836331254284,4.316384262881481
1768735316156,130,2,1.9008825868168089,6.261174359405246,4.8941838807641265
1768735316160,131,3,2.3203826408942176,6.778572674839762,5.328416613266471
1768735316164,131,3,2.748018747743961,7.258169502756431,5.769832573481089
1768735316168,132,4,3.2451902811495623,7.722293656062185,6.279511072820008
1768735316172,132,4,3.759927225491541,8.152028025397218,6.806252523734493
1768735316176,133,5,4.181315725355435,8.825932166321145,7.239973912426688
1768735316180,133,5,4.428889625644001,9.167647041949513,7.500238399125935
1768735316184,133,5,4.509952205109095,8.909350671791119,7.593967319314281
1768735316188,133,5,4.499086467725386,8.995348291534807,7.595703916855244
1768735316192,133,5,4.462122095747964,8.97417370748521,7.571504179107572
1768735316196,133,5,4.4018559888068856,8.885812648783547,7.524048862858728
1768735316200,133,5,4.280843370422417,9.228213459366035,7.415384737657509
1768735316204,133,5,4.093970692630942,8.708587283956644,7.240168697807197
1768735316208,132,4,3.908280493687791,8.305986150006532,7.06588388486344
1768735316212,133,5,3.822282443207521,8.572467456963087,6.991628152061034
1768735316216,132,4,3.8838371953409574,8.339987240172473,7.065259303858151
1768735316220,133,5,4.048495576401247,8.744622932984738,7.241741076465737
1768735316224,133,5,4.217247957208938,9.178959473279033,7.421608794959536
1768735316228,133,5,4.314393437403206,8.860613624586847,7.529388155369238
1768735316232,133,5,4.33232580154856,8.955749950304313,7.558063105734845
1768735316236,133,5,4.310769458919509,9.025526011583583,7.547531285064466
1768735316240,133,5,4.284659300460465,8.965882649606696,7.532343263872517
1768735316244,133,5,4.256103749079306,9.037697398157777,7.514328488016788
1768735316248,133,5,4.211298459318031,8.927787964850268,7.479932215615952
1768735316252,133,5,4.159176107164686,8.925023052283455,7.438466017641571
1768735316256,133,5,4.151696320937786,9.033801308011297,7.4418342954777055
1768735316260,133,5,4.2599476728360255,8.939231995078643,7.56061219854394
1768735316264,133,5,4.515824842558662,9.090030379277444,7.826109754599682
1768735316268,134,6,4.864360741076873,9.82995777108325,8.183180367224256
1768735316272,134,6,5.172237039990173,10.060569230720144,8.4990974684912
1768735316276,134,6,5.295124095506888,9.848299487998236,8.630621027328443
1768735316280,134,6,5.161821862845485,10.148163021282832,8.507126921719555
1768735316284,134,6,4.823180812883611,9.85671384755384,8.178944746381653
1768735316288,133,5,4.431337038932915,9.050863349388614,7.797211827552435
1768735316292,133,5,4.151535630889114,8.865272922660548,7.526543026455087
1768735316296,133,5,4.059920358211707,8.988483606646799,7.442966807394416
1768735316300,133,5,4.101927859889133,9.058069926921432,7.492174297684041
1768735316304,133,5,4.14043089146635,8.888467624680146,7.537585161269077
1768735316308,133,5,4.0519566705165975,9.049817967392077,7.456311575162423
1768735316312,133,5,3.800266411636933,8.844575117925302,7.212431689139612
1768735316316,132,4,3.4423746592632853,7.981078301542631,6.862942041125184
1768735316320,132,4,3.0747170572104308,8.101509811118557,6.503936897227438
1768735316324,132,4,2.769207164641254,7.782945160859847,6.206684793154326
1768735316328,131,3,2.546568036105775,7.210222605577858,5.991215519778233
1768735316332,132,4,2.3922325358534233,7.627560640712993,5.8427274358490715
1768735316336,131,3,2.2828003956857055,7.220378953195014,5.738462299283514
1768735316340,131,3,2.191833003532678,6.838482358512211,5.653198721843678
1768735316344,131,3,2.0790337112440755,7.034274670115307,5.547257554413938
1768735316348,131,3,1.8974572958341505,6.98194317607299,5.372946277618935
1768735316352,131,3,1.632521350519394,6.798216229884056,5.114456812158549
1768735316356,130,2,1.3324434077168132,6.107366897935906,4.819754625152223
1768735316360,130,2,1.083376944098998,5.865898090519605,4.575741105110387
1768735316364,130,2,0.9450990217619106,6.066949744249898,4.442775825457916
1768735316368,130,2,0.911426485287658,5.89604231993775,4.414553868252907
1768735316372,130,2,0.9300527547360136,5.9063638257083655,4.438417780653809
1768735316376,130,2,0.953538750757692,5.988795486239452,4.466735720101763
1768735316380,130,2,0.970529151813058,5.952171077383904,4.4880589600299725
1768735316384,130,2,0.9931157016726232,5.9924938102591305,4.514543838991076
1768735316388,130,2,1.0168597836814848,5.951442313840127,4.542113924159461
1768735316392,130,2,0.9953280768800647,5.852553774457485,4.524666603803502
1768735316396,130,2,0.8637165746589057,6.040673500056403,4.397219049679856
1768735316400,130,2,0.6011763756690067,5.869316181034974,4.13849923281456
1768735316404,129,1,0.2721355269834589,5.081263373459117,3.8129688662100896
1768735316408,129,1,-0.0054950261625681,4.845977695505862,3.5389118410075366
1768735316412,129,1,-0.1444588289286614,4.9604355017988855,3.4034677751947817
1768735316416,129,1,-0.1469986701823904,4.924062053968218,3.4037232298704714
1768735316420,129,1,-0.0890995684029047,4.970671014396881,3.4634131036475733
1768735316424,129,1,-0.054539929713492,4.977558065117146,3.499380583803208
1768735316428,129,1,-0.0775860694861545,4.9316014018726015,3.478223115701268
1768735316432,129,1,-0.1292524241507309,4.87586981532041,3.4291725853763584
1768735316436,129,1,-0.1429201864039047,4.9930625183364645,3.418437663876697
1768735316440,129,1,-0.0554668165821139,4.8992180434581485,3.50855362634601
1768735316444,129,1,0.1607076881547404,5.031218923257722,3.7265924469548706
1768735316448,130,2,0.4902679961875771,5.879934443305411,4.056891748228875
1768735316452,130,2,0.8881954003060106,5.90917119578211,4.45472432338696
1768735316456,130,2,1.293587602199411,5.961607997021724,4.860113510965934
1768735316460,131,3,1.6367214508730508,6.909852401639888,5.20402147915625
1768735316464,131,3,1.8561145844815847,7.020278255261282,5.424739819578826
1768735316468,131,3,1.9307658114341233,6.863614619862626,5.500530842656031
1768735316472,131,3,1.900123285203661,6.948183496246162,5.470267230759727
1768735316476,131,3,1.84710857433256,6.876251774809349,5.416722407084199
1768735316480,131,3,1.8544135314824703,7.0186601324834825,5.423064170496941
1768735316484,131,3,1.964229586340888,6.873868828348419,5.532463416887036
1768735316488,131,3,2.1669404675508708,7.021856386626048,5.735730488103995
1768735316492,132,4,2.428117358123763,7.776297707559652,5.997420267881774
1768735316496,132,4,2.7300958348922935,8.034991847519748,6.298444644877421
1768735316500,132,4,3.0735558402477645,7.853583275949826,6.639551645948068
1768735316504,132,4,3.4168768401614034,8.021681017259823,6.980512453422196
1768735316508,133,5,3.621295778666057,8.867461901772028,7.183210349089578
1768735316512,133,5,3.4966013240288785,8.925662493552881,7.0567170295114545
1768735316516,132,4,2.9369075196284946,7.871126155200446,6.49478046738088
1768735316520,131,3,2.021103988865218,7.013781628128015,5.577248053266361
1768735316524,130,2,0.9800225965373248,5.83457064475251,4.535707581792033
1768735316528,129,1,0.0651185949181425,5.0432178641219965,3.620544949525592
1768735316532,129,1,-0.5696071920875907,4.764096789585533,2.9838104064719637
1768735316536,128,0,-0.9049611333634902,4.010118732898725,2.644256171617911
1768735316540,128,0,-1.027891003704624,3.888859457318411,2.516552210909568
1768735316544,128,0,-1.076992709049307,3.91295097559756,2.463728443153578
1768735316548,128,0,-1.1803962415721223,3.961340276218713,2.357489479964308
1768735316552,128,0,-1.4003273219760826,3.84867481734004,2.134439988969824
1768735316556,127,-1,-1.7160627333926586,2.9106695913145706,1.8150695691659375
1768735316560,127,-1,-2.0606273223224587,2.991613178335804,1.4673292592240803
1768735316564,127,-1,-2.3750773815077193,2.766311570462021,1.150747175345682
1768735316568,126,-2,-2.6270582645929252,2.109985004535117,0.8966226543870044
1768735316572,127,-1,-2.7874819748611124,2.693706349343855,0.7320734922731071
1768735316576,126,-2,-2.8128666250122447,2.0791911177927447,0.6997825815242555
1768735316580,126,-2,-2.6733818597208963,1.7828212874226153,0.8313025999392336
1768735316584,127,-1,-2.4013456490507705,2.9737093835690627,1.0976879980165533
1768735316588,127,-1,-2.0907586147214214,2.8721281105391125,1.4073005936336858
1768735316592,127,-1,-1.8212809797452547,2.938413376266806,1.6790696436072907
1768735316596,128,0,-1.5676450653028282,3.8570674467317554,1.9325867252116489
1768735316600,128,0,-1.1894652649327946,3.9381824296679313,2.3020414717913416
1768735316604,128,0,-0.533875606511035,3.843261224336142,2.9397066390141946
1768735316608,129,1,0.4449391789560045,4.937948654695677,3.899024898926693
1768735316612,131,3,1.7305341076294714,6.933608480650051,5.1748596520600305
1768735316616,133,5,3.528219426267454,8.81230123199357,6.978849314583578
1768735316620,136,8,6.574265408433352,12.017798493399624,10.042754503216983
1768735316624,142,14,12.051200587950357,17.68326252635714,15.535760651845854
1768735316628,149,21,20.8566978712997,25.134808426706524,24.342022594290498
1768735316632,160,32,32.50559997900466,35.710015006802486,35.97101855643198
1768735316636,173,45,44.461046174846885,49.06943624460914,47.89110601675623
1768735316640,183,55,52.662793390617395,58.74112805454836,56.05523701848264
1768735316644,183,55,53.27216425453001,58.880511624960185,56.64071960594753
1768735316648,174,46,44.70431412224304,49.925429252160576,48.07363511032463
1768735316652,158,30,28.68517747515288,33.80709145170757,32.07789904054281
1768735316656,138,10,9.642472153934358,14.020397876958937,13.065613113605648
1768735316660,121,-7,-7.242677354627411,-3.230553117334079,-3.801976439285277
1768735316664,110,-18,-18.232899233281923,-14.060123891583771,-14.799371069283056
1768735316668,107,-21,-22.31343926026174,-17.126881287981444,-18.909536187083415
1768735316672,109,-19,-21.003722820189452,-15.121808305133744,-17.638078114319175
1768735316676,112,-16,-17.05249577247381,-12.072178777732988,-13.716861663802664
1768735316680,116,-12,-12.938142664221107,-8.188213116567923,-9.61389090943985
1768735316684,119,-9,-9.99199895921366,-5.116131751496154,-6.6618464463869875
1768735316688,120,-8,-8.385042332255466,-4.137864949986418,-5.0423460318738105
1768735316692,121,-7,-7.663385245753364,-3.0901521227252204,-4.313650433314115
1768735316696,122,-6,-7.32401166923443,-2.128170797326257,-3.9791679281384287
1768735316700,122,-6,-7.097780981864083,-2.132770585277694,-3.7679951835574346
1768735316704,122,-6,-6.9282417085135695,-2.1807544781132946,-3.616535183532159
1768735316708,122,-6,-6.8346785843090725,-2.1023783264259768,-3.5371234899133404
1768735316712,122,-6,-6.822541586497465,-2.126942448757608,-3.5327444307281146
1768735316716,122,-6,-6.870460121258345,-2.1061300153159785,-3.584319224871608
1768735316720,122,-6,-6.942674172116245,-2.149182938673655,-3.660243893914473
1768735316724,122,-6,-6.9901836213312425,-2.1974863208893676,-3.714375944002087
1768735316728,122,-6,-6.951767129875909,-2.085398692476083,-3.685627641488753
1768735316732,122,-6,-6.781224999701783,-2.182408475580437,-3.5258379284879884
1768735316736,122,-6,-6.493374347050822,-2.0303781778154044,-3.247705628862307
1768735316740,123,-5,-6.179092570236537,-1.255420236039936,-2.941537105448784
1768735316744,123,-5,-5.951230974892161,-1.0836461772167674,-2.72115886023777
1768735316748,123,-5,-5.8542413289089135,-1.2437203030396633,-2.6320882896739484
1768735316752,123,-5,-5.82204308645017,-1.019406278807904,-2.6082807789486453
1768735316756,123,-5,-5.731820581075825,-1.2171540659462932,-2.5262803311587065
1768735316760,123,-5,-5.509740693372163,-1.0715004579934333,-2.312121978805926
1768735316764,124,-4,-5.193215800465451,-0.2701165954499176,-2.004069056699464
1768735316768,124,-4,-4.896144579181084,-0.0943854105325927,-1.7168419851616872
1768735316772,124,-4,-4.717408406556923,-0.1621868756391937,-1.548751543554379
1768735316776,124,-4,-4.679778177624406,-0.1078644658723102,-1.5207979662493811
1768735316780,124,-4,-4.739181000065435,-0.1769223347536908,-1.5877523617070617
1768735316784,124,-4,-4.828147761239186,-0.1873403046102573,-1.6830010574454208
1768735316788,124,-4,-4.88157011855781,-0.1856239784666891,-1.7436454273642583
1768735316792,124,-4,-4.839917946412881,-0.0871539154971103,-1.7115900412540053
1768735316796,124,-4,-4.663631421649163,-0.1964282918955291,-1.5465072012421173
1768735316800,124,-4,-4.370406961991602,-0.0972754440092145,-1.2639541597463748
1768735316804,125,-3,-4.052750790377883,0.7101450012968944,-0.9551087386695736
1768735316808,125,-3,-3.8275251878662617,0.9195676847233276,-0.7373974288527696
1768735316812,125,-3,-3.740524809574078,0.7714120062890113,-0.6580938238235854
1768735316816,125,-3,-3.716697172856227,0.9565428949438785,-0.6429722546723804
1768735316820,125,-3,-3.6183530378551776,0.7083963022978019,-0.5540650627319448
1768735316824,125,-3,-3.369164273081708,0.9026368540986875,-0.3144120889273178
1768735316828,126,-2,-3.029696491953292,1.721620911813437,0.0156348255466896
1768735316832,126,-2,-2.7493017232042987,1.93970150459702,0.2866432088776904
1768735316836,126,-2,-2.636196117172198,1.8071950428313808,0.3905417047644568
1768735316840,126,-2,-2.664221536724493,1.793787863974396,0.3537711383977631
1768735316844,126,-2,-2.6955422005865923,1.8425607382520273,0.3141176441516693
1768735316848,126,-2,-2.5932706197136532,1.726844680139402,0.4080773187569302
1768735316852,126,-2,-2.32764997678115,1.970270809162475,0.6649940169047719
1768735316856,127,-1,-1.9912852301565167,2.732919055527411,0.9919906784472892
1768735316860,127,-1,-1.716835079043762,2.8694162962848035,1.2564561001470904
1768735316864,127,-1,-1.5745441931196904,2.731063213644054,1.3887067192378764
1768735316868,127,-1,-1.539669289146814,2.832108158762608,1.414271735261341
1768735316872,127,-1,-1.5457419838866266,2.8524663233182084,1.3999832045292382
1768735316876,127,-1,-1.558972399874171,2.8421302515235527,1.3792328989810452
1768735316880,127,-1,-1.6019822464642002,2.7398058886041032,1.328385797683286
1768735316884,127,-1,-1.7140337989897807,2.84575408998283,1.2071429206205049
1768735316888,127,-1,-1.8981230450396605,2.694922802474771,1.01247192532791
1768735316892,126,-2,-2.118405385250208,1.987174269714696,0.7816666993117269
1768735316896,126,-2,-2.355133786168764,1.6898068654506728,0.5361015699926324
1768735316900,126,-2,-2.6468092294478662,1.872020471536186,0.2370936673072534
1768735316904,126,-2,-3.0505970837395058,1.7080086017199223,-0.1743403720337324
1768735316908,125,-3,-3.554993994843225,0.7947189298619635,-0.6877580182902234
1768735316912,124,-4,-4.055699525425094,-0.0866497213084307,-1.197996427355683
1768735316916,124,-4,-4.438880168063806,-0.2989496743620754,-1.5901091505079226
1768735316920,124,-4,-4.683885728680089,-0.1165711786583507,-1.8437199870237015
1768735316924,124,-4,-4.875209559632639,-0.3469471523861629,-2.044075796456683
1768735316928,123,-5,-5.121072138832942,-1.140566707865868,-2.2991122818285987
1768735316932,123,-5,-5.464958343645097,-1.1696873990580017,-2.6515352619071866
1768735316936,123,-5,-5.858201547897742,-1.2525701241522724,-3.0527951346463205
1768735316940,122,-6,-6.19959726790391,-2.1642822931064427,-3.4024596999678187
1768735316944,122,-6,-6.41013420029063,-2.329130464001707,-3.62174992151407
1768735316948,122,-6,-6.490313453883557,-2.1406501926202024,-3.710768982767693
1768735316952,122,-6,-6.509311269830254,-2.2109928755639676,-3.7384651670894535
1768735316956,122,-6,-6.528097062802971,-2.2158373673687053,-3.7659449101192344
1768735316960,122,-6,-6.526322604833763,-2.232130480264123,-3.7728182094056906
1768735316964,122,-6,-6.40650790651207,-2.270502045879614,-3.6611851234715793
1768735316968,122,-6,-6.07532373821747,-2.2019325657735145,-3.337583556976231
1768735316972,123,-5,-5.523897764122373,-1.1795775542863227,-2.7938758524148604
1768735316976,124,-4,-4.830964827081868,-0.2497821339912778,-2.1096939060794435
1768735316980,124,-4,-4.095868475608412,-0.2346944348545485,-1.384156293717091
1768735316984,125,-3,-3.376234288657415,0.7339959107691745,-0.673598986762751
1768735316988,126,-2,-2.681935415718472,1.769188183334676,0.0130106024040996
1768735316992,126,-2,-2.009150070247265,1.834381089929368,0.6790161056867896
1768735316996,127,-1,-1.3695557987041829,2.7164299616729384,1.3113103572920402
1768735317000,128,0,-0.7903042339755615,3.7899524451492415,1.8817599583926583
1768735317004,128,0,-0.2964062163746717,3.680056794786595,2.3660091237068475
1768735317008,128,0,0.0963814048069813,3.827599391150086,2.7500713887682178
1768735317012,129,1,0.3756672491957085,4.734538754718656,3.022364219710744
1768735317016,129,1,0.5408465481127211,4.821908198809899,3.1811290367740237
1768735317020,129,1,0.6275639538963209,4.640845979768081,3.2604091571028655
1768735317024,129,1,0.7047057219357118,4.852997714574159,3.328908947841337
1768735317028,129,1,0.8215034375267525,4.5958242542217915,3.4368845044852656
1768735317032,129,1,0.9540029586130032,4.980011068807088,3.5610831330950585
1768735317036,130,2,1.019573466145092,5.541049034838069,3.618771989769641
1768735317040,129,1,0.9572367093088224,4.909751814186896,3.5489142230613613
1768735317044,129,1,0.7953901623181547,4.58994400412959,3.3801330765438475
1768735317048,129,1,0.6428640904561873,4.797785937626147,3.220902188064045
1768735317052,129,1,0.6179819395769721,4.8036590492074325,3.188576371198676
1768735317056,129,1,0.7738289184352414,4.651334077443029,3.336010434245137
1768735317060,129,1,1.0646519023154175,4.847667942101287,3.618424033977793
1768735317064,130,2,1.375293554367192,5.58600935146419,3.9214608618142854
1768735317068,130,2,1.6053160195917122,5.811103472390097,4.144328939557864
1768735317072,130,2,1.7479292069981862,5.749185102781357,4.279625620276773
1768735317076,130,2,1.886698823974436,5.693072555359319,4.411100263797941
1768735317080,130,2,2.104455418444223,5.810445033534389,4.621998561100323
1768735317084,131,3,2.3944454490558535,6.577921956040551,4.90516206146223
1768735317088,131,3,2.664389551447837,6.832284855930116,5.167492455488208
1768735317092,131,3,2.8224924107501974,6.674811111474807,5.317267687732523
1768735317096,131,3,2.8524402630169132,6.777938712877278,5.339260774312075
1768735317100,131,3,2.8112951829703854,6.694756114206832,5.2913351589031015
1768735317104,131,3,2.7704733414199225,6.672301425842303,5.244504911002852
1768735317108,131,3,2.7641626720553307,6.737260167028811,5.2318717930554755
1768735317112,131,3,2.7834527909446156,6.728451331969896,5.243886594088434
1768735317116,131,3,2.8045849031818046,6.733960666200171,5.257093035721905
1768735317120,131,3,2.81573124855608,6.697553668817333,5.260466607866396
1768735317124,131,3,2.8203543262393245,6.665289074249767,5.2579999162462405
1768735317128,131,3,2.824088962105575,6.7159611727509665,5.255209378274739
1768735317132,131,3,2.825960920419975,6.740732521559417,5.250620842802078
1768735317136,131,3,2.8235225887622573,6.699880214177138,5.24145208637502
1768735317140,131,3,2.8220005889088102,6.714675412639595,5.233013970892031
1768735317144,131,3,2.83266890451029,6.631976680537753,5.236831929688976
1768735317148,131,3,2.8591266938435824,6.713744964925294,5.256509486533018
1768735317152,131,3,2.8851857160801204,6.760387159397117,5.275552386389725
1768735317156,131,3,2.878227109319196,6.613610552928646,5.2611614906841755
1768735317160,131,3,2.807591456474873,6.843880640603525,5.183124452887165
1768735317164,131,3,2.663458923667646,6.415461755039453,5.032495976242348
1768735317168,130,2,2.4632816725486544,5.969800116396053,4.826942952670628
1768735317172,131,3,2.2477320426794107,6.441108390886738,4.605983993937373
1768735317176,130,2,2.071144880904329,5.949310692735732,4.422512212919482
1768735317180,130,2,1.977087826657292,5.471213541378786,4.32020699266644
1768735317184,130,2,1.9575806422595328,5.7732598982713785,4.292775861134311
1768735317188,130,2,1.9346002983798896,5.598044451015223,4.263444062153395
1768735317192,130,2,1.8083975456636063,5.77079213559678,4.131879629848215
1768735317196,130,2,1.5492894574978906,5.647652992766631,3.8669551898960575
1768735317200,129,1,1.2413637639442965,4.702957151967548,3.552297322260306
1768735317204,129,1,1.0168729300177393,4.562455910011126,3.320933240011666
1768735317208,129,1,0.933951695114566,4.753036308393382,3.2316077750809105
1768735317212,129,1,0.919532251555212,4.6164847121554295,3.2107998587955384
1768735317216,129,1,0.8375480943856253,4.794651702550477,3.1217285625400546
1768735317220,129,1,0.6154078596281305,4.529703744194135,2.892128079069144
1768735317224,128,0,0.306191805426919,3.707153009034259,2.576362360970375
1768735317228,128,0,0.0344181550773742,3.583830549537424,2.29956468183132
1768735317232,128,0,-0.109644483377138,3.76277044783661,2.1508169616531965
1768735317236,128,0,-0.1244939308918205,3.6593611394370615,2.1297466098258795
1768735317240,128,0,-0.0700466910292034,3.6315978899257737,2.176054079267825
1768735317244,128,0,-0.0106653731287333,3.5943168338117486,2.2270090180872764
1768735317248,128,0,0.0162394742805389,3.6371868227390114,2.247124748848567
1768735317252,128,0,0.0021490044598154,3.7225731430213584,2.228204148898014
1768735317256,128,0,-0.0367064247652773,3.670278475991989,2.1850484361586657
1768735317260,128,0,-0.0636929604887762,3.627664332890326,2.152526953211933
1768735317264,128,0,-0.0406316611341497,3.553716234957258,2.1682103091402074
1768735317268,128,0,0.0362940582371361,3.640526073805973,2.2368707247822126
1768735317272,128,0,0.1108458689312619,3.72228580233336,2.3039276882715978
1768735317276,128,0,0.0872498482915327,3.637278593152824,2.2744994273422927
1768735317280,128,0,-0.0988482536425329,3.6887406148968833,2.0835450331853034
1768735317284,128,0,-0.4074487509710659,3.4102698420410964,1.7695884113111902
1768735317288,127,-1,-0.6921263701326685,2.7932558722681464,1.4784276698120014
1768735317292,127,-1,-0.7945517154089967,2.517143327217131,1.3690939228925514
1768735317296,127,-1,-0.6655135231866218,2.86335617106593,1.491605179232308
1768735317300,128,0,-0.3980746232471558,3.44879787397175,1.7527601690376255
1768735317304,128,0,-0.1357504698996356,3.6004386701669517,2.008559877527663
1768735317308,128,0,0.0538402237982604,3.6057210442158025,2.191619664482224
1768735317312,128,0,0.2159382402031705,3.627231550287629,2.347803107096779
1768735317316,128,0,0.4307700319027253,3.809487211433588,2.5571072949964297
1768735317320,129,1,0.71134689428471,4.430369100076508,2.831400813723149
1768735317324,129,1,0.978354871988307,4.645223107438284,3.0908393277300785
1768735317328,129,1,1.1268015511413978,4.494744829075511,3.2315122678849653
1768735317332,129,1,1.119598506882313,4.717097932767661,3.217952608246187
1768735317336,129,1,1.035750680855956,4.735829090671237,3.1295430385544667
1768735317340,129,1,1.039612066112575,4.43623610850492,3.1294352128937364
1768735317344,129,1,1.2833633522200474,4.694273807741997,3.3681501778553153
1768735317348,130,2,1.797547929078379,5.330413678711511,3.875286939721645
1768735317352,130,2,2.443414119861328,5.927952511786463,4.512364673677132
1768735317356,131,3,2.9677600213987905,6.4698971565947785,5.02753400938137
1768735317360,131,3,3.132879809342765,6.700937521810989,5.184849639131324
1768735317364,131,3,2.843683523907943,6.426462739795911,4.890366374117873
1768735317368,130,2,2.1961510294808497,5.5044122338659465,4.239651095318302
1768735317372,129,1,1.4224346541645445,4.805338575684951,3.462776737142613
1768735317376,129,1,0.7699301343515332,4.4999852916307805,2.8048128986862055
1768735317380,128,0,0.3790558666522855,3.743095309083308,2.4057233297656877
1768735317384,128,0,0.2149996381797863,3.3006612483114406,2.2325133694472097
1768735317388,128,0,0.092047064366326,3.62763784284173,2.101517109157254
1768735317392,128,0,-0.2041996721251611,3.6497019126079033,1.7987724107630378
1768735317396,127,-1,-0.7642313460019006,2.620864696608426,1.23310793861425
1768735317400,126,-2,-1.4892957774089526,1.6594153644581675,0.5028199604891934
1768735317404,126,-2,-2.1698006714634097,1.2966727847514088,-0.1826765250563085
1768735317408,125,-3,-2.6355753089353264,0.6530588978767606,-0.6537801817795621
1768735317412,125,-3,-2.850620058661883,0.5492960579985158,-0.8752964607006173
1768735317416,125,-3,-2.892295492182516,0.7613017398782156,-0.9246938054862476
1768735317420,125,-3,-2.861957650488661,0.4811352427350193,-0.9022756455592936
1768735317424,125,-3,-2.8185904715011194,0.4488216074072033,-0.8656543923358151
1768735317428,125,-3,-2.7803391385136633,0.4736893431660451,-0.8328307101201542
1768735317432,125,-3,-2.7601392727353384,0.6658030346037531,-0.8182619551123813
1768735317436,125,-3,-2.7770168576259184,0.7036185658773824,-0.8424955107848837
1768735317440,125,-3,-2.8305868999668955,0.4565718396362848,-0.9044513026419532
1768735317444,125,-3,-2.8755258843911173,0.5152816740164043,-0.9559016572169958
1768735317448,125,-3,-2.827527072972483,0.2961031282841349,-0.9103935351555456
1768735317452,125,-3,-2.5925181244280413,0.8644656323533315,-0.6757634227811677
1768735317456,126,-2,-2.093208837161311,1.490929577509721,-0.1806151649147527
1768735317460,126,-2,-1.2822920902848274,1.6529543349158766,0.6169770933468111
1768735317464,128,0,-0.1365850546643651,3.304041826216574,1.7412446624349038
1768735317468,129,1,1.3977607903994274,4.453280807886466,3.255690149518548
1768735317472,131,3,3.5395618289511184,6.654571764239818,5.3921389157329225
1768735317476,135,7,6.838920840286608,10.781086226691851,8.706085327223558
1768735317480,140,12,12.203376064101056,15.242129197828882,14.094787081979248
1768735317484,149,21,20.559230905373074,24.820876132039203,22.46332951752395
1768735317488,161,33,32.07234180250357,35.76588735621627,33.962153302915446
1768735317492,169,41,45.23794515171714,45.42885906007432,47.090193972202066
1768735317496,184,56,56.571783408921064,58.92206187160206,58.38191134891999
1768735317500,191,63,61.60740005075824,67.13432565084022,63.38914041495006
1768735317504,187,59,57.0722220882855,61.83468757535101,58.84757524580215
1768735317508,171,43,42.97573569536781,46.66478439613581,44.76563497347654
1768735317512,150,22,23.05712869545315,25.52179898404549,24.87444636615858
1768735317516,129,1,3.102461951492508,4.687487108291132,4.945694598608579
1768735317520,115,-13,-11.819487846612684,-9.41253955651814,-9.968148679562429
1768735317524,109,-19,-19.455671711387104,-15.718353402106745,-17.622663308375795
1768735317528,108,-20,-20.677721445483986,-16.60888298444042,-18.883039482454027
1768735317532,110,-18,-18.185733329267972,-14.370878804836844,-16.43069488075568
1768735317536,113,-15,-14.730797463764262,-11.436526752216544,-12.997996210602846
1768735317540,115,-13,-11.969419586598606,-9.367150448724562,-10.234865258074224
1768735317544,117,-11,-10.33594627978772,-7.757899439978059,-8.584421869396563
1768735317548,118,-10,-9.5645658131685,-6.575510140770466,-7.797745217256166
1768735317552,119,-9,-9.243599656528716,-5.453630886942528,-7.476077312896618
1768735317556,119,-9,-9.065723494935108,-5.405446195856958,-7.312648180224299
1768735317560,118,-10,-8.84630064298896,-6.415889386985305,-7.11266004674994
1768735317564,119,-9,-8.513276107261389,-5.71758845570706,-6.7933193643720315
1768735317568,120,-8,-8.116441883982095,-4.59249967964883,-6.401914650492964
1768735317572,120,-8,-7.775751161131199,-4.512852590951675,-6.0634018602824575
1768735317576,120,-8,-7.56474314135178,-4.349959193621736,-5.856395500691199
1768735317580,120,-8,-7.441643836192097,-4.541228422196055,-5.739591993949197
1768735317584,120,-8,-7.299863852026455,-4.56698370852832,-5.604339007406527
1768735317588,121,-7,-7.071180779229129,-3.7725909388997554,-5.381834683849195
1768735317592,121,-7,-6.769013185258954,-3.3464088398656995,-5.086675594325836
1768735317596,121,-7,-6.450291381030677,-3.5689249464005086,-4.776006680821624
1768735317600,121,-7,-6.164385823886785,-3.3503180782589483,-4.497548814411524
1768735317604,122,-6,-5.9367051540575675,-2.7626736676972157,-4.275444847440186
1768735317608,122,-6,-5.767289812111304,-2.6105569826790194,-4.1106582887555465
1768735317612,122,-6,-5.6228750029431,-2.4940914506909606,-3.971836848230359
1768735317616,122,-6,-5.445564268950903,-2.50972755282846,-3.8017055786225353
1768735317620,122,-6,-5.198254915258017,-2.39581499614951,-3.5620834413322497
1768735317624,123,-5,-4.911275451921822,-1.7739593202974655,-3.2820004505939124
1768735317628,123,-5,-4.672251767290127,-1.5758293164211974,-3.048854966283637
1768735317632,123,-5,-4.554042156606937,-1.5685930863659934,-2.93628453227908
1768735317636,123,-5,-4.543990442375721,-1.4712084014451698,-2.932454416016363
1768735317640,123,-5,-4.544513902823104,-1.4725961759649224,-2.939731483026232
1768735317644,123,-5,-4.453214239404712,-1.7164628529836836,-2.854865450723814
1768735317648,123,-5,-4.25387567931614,-1.6381655897716016,-2.66123562773237
1768735317652,124,-4,-4.02773709835793,-0.5207232648100981,-2.4409227662026782
1768735317656,124,-4,-3.868087793561341,-0.5697197064718731,-2.288099738801255
1768735317660,123,-5,-3.789869346533568,-1.4006188298625115,-2.2170976557946873
1768735317664,124,-4,-3.733441429550133,-0.8223406527960573,-2.1669676253381716
1768735317668,124,-4,-3.6462120207332473,-0.5297463276202294,-2.0850796609351256
1768735317672,124,-4,-3.54015604076618,-0.6609029975470557,-1.9846248038105032
1768735317676,124,-4,-3.470271340103933,-0.4498949033191821,-1.9212719701047385
1768735317680,124,-4,-3.4730013462875524,-0.5660758859744832,-1.9308263460014856
1768735317684,124,-4,-3.5292132062489614,-0.6876051576189224,-1.9932899270669036
1768735317688,124,-4,-3.5754940992138837,-0.6642637352039822,-2.0452623610219947
1768735317692,124,-4,-3.5446453269151945,-0.5576748224940524,-2.020142749739076
1768735317696,124,-4,-3.4045258984937754,-0.573537051010403,-1.8860319254347304
1768735317700,124,-4,-3.172929023990388,-0.4809299070653572,-1.6605119424710295
1768735317704,125,-3,-2.898711969774142,0.1850265430974569,-1.392401398049686
1768735317708,125,-3,-2.6211500005357067,0.4763546275347114,-1.1211160316233038
1768735317712,125,-3,-2.345392867778284,0.2542376993897459,-0.8515712608605321
1768735317716,125,-3,-2.0619638062193184,0.6101383126344655,-0.573912954272906
1768735317720,126,-2,-1.7853476084166593,1.2770946626883362,-0.3028836111939572
1768735317724,126,-2,-1.560438936444669,1.3981376988377625,-0.0840031445433289
1768735317728,126,-2,-1.4286821392539928,1.274035764741226,0.0413538645826896
1768735317732,126,-2,-1.3948723625010389,1.40492689619888,0.0691750559270181
1768735317736,126,-2,-1.4252852645355871,1.4658843765153478,0.0335498274095873
1768735317740,126,-2,-1.4691082079971436,1.3352292335065892,-0.0152909474175655
1768735317744,126,-2,-1.4837462074427346,1.35075669895365,-0.0355350349556888
1768735317748,126,-2,-1.454999047780425,1.2950327866661755,-0.0130926098736996
1768735317752,126,-2,-1.4057182339496788,1.362855288671779,0.0297222743630534
1768735317756,126,-2,-1.383665549378989,1.4937691910138096,0.0456743017792917
1768735317760,126,-2,-1.428643052151148,1.230305957990291,-0.0049361337599707
1768735317764,126,-2,-1.5388142465626322,1.4626336175103185,-0.1203574307993471
1768735317768,126,-2,-1.6660505402750216,1.1590345257045382,-0.252405757429301
1768735317772,125,-3,-1.7513712164462425,0.4687216982019242,-0.3422698996594682
1768735317776,126,-2,-1.7721877212299428,1.386158678801654,-0.3682530136478323
1768735317780,126,-2,-1.758541869282209,1.246130566483426,-0.3612367644081606
1768735317784,125,-3,-1.77191217637382,0.4771386201880916,-0.3820508043682573
1768735317788,126,-2,-1.875459459941537,1.086303804273049,-0.4919911845956104
1768735317792,125,-3,-2.1083950587463405,0.5612613461967597,-0.7292793446599388
1768735317796,125,-3,-2.454340511110563,0.2140550002073,-1.0785873834161654
1768735317800,125,-3,-2.817540925430828,0.414477783302873,-1.4459723635258916
1768735317804,124,-4,-3.0501465121804774,-0.732980010348129,-1.6842188936452391
1768735317808,124,-4,-3.040071589462152,-0.721292085502184,-1.6805107435176128
1768735317812,125,-3,-2.7929291655391593,0.3814706189677164,-1.4396015408843976
1768735317816,125,-3,-2.4245969309923785,0.2993961286723192,-1.0769699308457354
1768735317820,125,-3,-2.0638410368603157,0.3591221374936224,-0.7211686061152003
1768735317824,126,-2,-1.7517089987265613,1.2394388172834845,-0.4133106700906788
1768735317828,126,-2,-1.4208763745600796,1.3317035670198951,-0.0866659740833468
1768735317832,126,-2,-0.967400329720125,1.269851291868795,0.3619998023981401
1768735317836,127,-1,-0.3560057954061109,2.4051820163342628,0.967752553545724
1768735317840,128,0,0.3292093262426472,3.196384901114518,1.646945837188981
1768735317844,128,0,0.935214341195734,3.3979267492257166,2.2473652464005784
1768735317848,129,1,1.3514367653779744,4.13857242701962,2.658970981621487
1768735317852,129,1,1.5903501880582862,4.449058292060975,2.8939913644105224
1768735317856,129,1,1.7707867567192084,4.172695645717548,3.070489639271324
1768735317860,129,1,2.01410777330511,4.41267211384103,3.309168090696476
1768735317864,130,2,2.33721841452497,5.144581615715323,3.62679190809817
1768735317868,130,2,2.633765276092444,5.386760204936049,3.917545073740735
1768735317872,130,2,2.7582724979486177,5.171721275965701,4.036834927731349
1768735317876,130,2,2.6412388135830565,5.404268489100859,3.915499376445628
1768735317880,130,2,2.3452830166835428,5.16122550272081,3.615620980723854
1768735317884,129,1,2.020459886810645,4.339872656362708,3.2866774570449735
1768735317888,129,1,1.7903845081762189,4.221254523040107,3.0522938000068685
1768735317892,129,1,1.661260201376996,4.263297019947469,2.9187251037990976
1768735317896,129,1,1.53728139483013,4.3253409785766355,2.7898202057273673
1768735317900,129,1,1.3290436047000125,4.159448108927645,2.576157475536432
1768735317904,128,0,1.0462847769212051,3.354574649966574,2.288379072710601
1768735317908,128,0,0.7853541501526314,3.1547297792577575,2.023709318714527
1768735317912,128,0,0.6368281192961638,3.327311921177794,1.8722493607304744
1768735317916,128,0,0.6138603084929399,3.210622183625551,1.8457066910492408
1768735317920,128,0,0.6602630637992237,3.2499358571907813,1.8871778253835385
1768735317924,128,0,0.7085834023019288,3.245614900713367,1.9299837344812216
1768735317928,128,0,0.7255477850171462,3.220431456358712,1.9421157748215323
1768735317932,128,0,0.7162028105990278,3.256482896861326,1.929050979740068
1768735317936,128,0,0.7013226749219059,3.222023679556574,1.910958876814743
1768735317940,128,0,0.6954577627091236,3.230754203279563,1.9015579437068784
1768735317944,128,0,0.6999363720668064,3.226372275207144,1.9018816512438723
1768735317948,128,0,0.7082664498856893,3.219575349861511,1.9057460140586255
1768735317952,128,0,0.7143210828731733,3.2276762266605874,1.9074907930171685
1768735317956,128,0,0.7164006911285612,3.213054627790924,1.9056310386072728
1768735317960,128,0,0.7163026955501086,3.215201200853018,1.901856940780985
1768735317964,128,0,0.7164073341782875,3.212927919732772,1.8983156197651931
1768735317968,128,0,0.7178098598791282,3.2092304708563875,1.8959620144111555
1768735317972,128,0,0.7202827234532807,3.20700683453951,1.894592772199532
1768735317976,128,0,0.7230558607175919,3.199141524872525,1.8935458554522664
1768735317980,128,0,0.7254127754196534,3.2005666808614945,1.892175923426686
1768735317984,128,0,0.7270055107820382,3.201046391609363,1.8901251841170523
1768735317988,128,0,0.7280611807701551,3.1958620417778127,1.8875814217131637
1768735317992,128,0,0.7292439284767696,3.188974646724353,1.885202534550947
1768735317996,128,0,0.7310142089944324,3.1833310782848954,1.8834665117152736
1768735318000,128,0,0.7331065951443692,3.186196458508932,1.882090819652949
1768735318004,128,0,0.734905275505932,3.189846500542532,1.8803991207810504
1768735318008,128,0,0.7363351927154637,3.180950634552803,1.8782901810385688
1768735318012,128,0,0.7379250953434503,3.17226278179368,1.876372797734266
1768735318016,128,0,0.7397172343884539,3.166433702065668,1.874826363455072
1768735318020,128,0,0.7406767576376057,3.1715791383995966,1.872659584956306
1768735318024,128,0,0.7401267057432914,3.179919373474552,1.8690514538452856
1768735318028,128,0,0.7398159774826574,3.1636621260306104,1.8655103251956024
1768735318032,128,0,0.7431764827723575,3.1578656358984647,1.8653562628966147
1768735318036,128,0,0.7508878945377575,3.14775243555796,1.869445930207436
1768735318040,128,0,0.7572326994598552,3.156241704885064,1.872447547358664
1768735318044,128,0,0.7533381452194067,3.173666922554758,1.8657696761075673
1768735318048,128,0,0.7374165334826887,3.139647168217427,1.8474845827055753
1768735318052,128,0,0.7229225279153519,3.1510305735136157,1.8304907061046227
1768735318056,128,0,0.7326730462421176,3.12366595252221,1.8370859064885388
1768735318060,128,0,0.7763153777164034,3.1379885953526285,1.8769879958609008
1768735318064,128,0,0.8259141733805725,3.1844099839879574,1.9229297879149552
1768735318068,128,0,0.8157883016608709,3.0787417487274538,1.909796678230642
1768735318072,128,0,0.6814803107118717,3.204650311801529,1.7729973261454874
1768735318076,128,0,0.4166374133195555,3.0125312872347636,1.5056884946581883
1768735318080,127,-1,0.0959321196912448,2.233068610396627,1.1824457546842602
1768735318084,127,-1,-0.1681267748587849,2.053010853686429,0.9160025465465738
1768735318088,127,-1,-0.3019933641353314,2.1855403557437296,0.7797606365675613
1768735318092,127,-1,-0.3127045238566,2.0711516338122755,0.766192843493148
1768735318096,127,-1,-0.2641327468730469,2.1049697710247837,0.8113753472125271
1768735318100,127,-1,-0.2211374850351233,2.124456600496713,0.8510767904026248
1768735318104,127,-1,-0.2117355044411034,2.107978139916807,0.8578743436719303
1768735318108,127,-1,-0.2266800044139436,2.1249927500980372,0.8409219369105658
1768735318112,127,-1,-0.2426883141581269,2.079573199886011,0.8229173178718725
1768735318116,127,-1,-0.2456533952599491,2.0828345640576735,0.8175591934882831
1768735318120,127,-1,-0.2386408071373336,2.10433392795833,0.8218966684812876
1768735318124,127,-1,-0.233635112695505,2.1001001317721357,0.8243416460682294
1768735318128,127,-1,-0.2372355083555742,2.1028984740087875,0.8185025775714676
1768735318132,127,-1,-0.2435091328222672,2.070787761478124,0.8101146805570909
1768735318136,127,-1,-0.2403845313121722,2.060378016216227,0.810869562539565
1768735318140,127,-1,-0.2240718383444316,2.095155737936597,0.8244419935053933
1768735318144,127,-1,-0.2080770386152935,2.077001996404633,0.8376925742581807
1768735318148,127,-1,-0.2157133967291156,2.093237490623184,0.827838735278853
1768735318152,127,-1,-0.2568071019188869,2.0590976653840385,0.7851517030091215
1768735318156,127,-1,-0.3042067542738761,2.0238258221164114,0.7362796038530501
1768735318160,127,-1,-0.2939055035568671,2.1217280234380924,0.7447019884312285
1768735318164,127,-1,-0.1620474673608798,1.9919741285941797,0.87432018963707
1768735318168,127,-1,0.1004097520817693,2.1741527325114536,1.1345331065714737
1768735318172,128,0,0.4236526644874498,2.927309864930133,1.4555329052000516
1768735318176,128,0,0.6970810203203772,3.137413214085252,1.726492649406655
1768735318180,128,0,0.84118623419002,2.9726367246939462,1.8681151685527415
1768735318184,128,0,0.8506973616259154,3.097049702571239,1.875677334246504
1768735318188,128,0,0.7816246131943931,3.0580123344713437,1.8052516318373817
1768735318192,128,0,0.710340120444891,2.976691418957647,1.732667551234729
1768735318196,128,0,0.7023788075695587,3.1055821954801943,1.7231475657444535
1768735318200,128,0,0.7999579335415743,2.930109565150963,1.819200137526663
1768735318204,128,0,1.0193457828459054,3.1368400411601263,2.0372426316919827
1768735318208,129,1,1.3530451713248866,3.96957714693264,2.36927000004078
1768735318212,129,1,1.7708707915266424,4.026869921888558,2.784707676910688
1768735318216,129,1,2.209407684006422,4.057770114585324,3.2206282732763087
1768735318220,130,2,2.560718595214047,4.897161047427121,3.5697986787063805
1768735318224,130,2,2.697300306478036,5.195182008255925,3.7047558301833896
1768735318228,130,2,2.540896687493532,4.799085384821484,3.54704021703054
1768735318232,129,1,2.1195040891221177,4.254895360313339,3.124860602215017
1768735318236,129,1,1.5532814723761006,3.713164091230019,2.5584368314782027
1768735318240,128,0,0.97885189973137,3.281450810099255,1.9835243829345728
1768735318244,128,0,0.4741658056490929,2.7225992348256236,1.476959068640718
1768735318248,127,-1,0.030797679063893,2.2689050326108497,1.030423027661449
1768735318252,127,-1,-0.4227338354718628,1.7608775362700309,0.573930111736376
1768735318256,126,-2,-0.9651161673215324,1.141715122660953,0.0301318597555504
1768735318260,126,-2,-1.6176685166287008,0.8685899993191466,-0.6224405513704128
1768735318264,125,-3,-2.30654877738123,0.0349582761422357,-1.311138572254726
1768735318268,124,-4,-2.8897729960281686,-1.0038659328049286,-1.8949114213316989
1768735318272,124,-4,-3.245263351352322,-1.062068266913026,-2.2519000196139305
1768735318276,124,-4,-3.353807188103605,-1.007471018722624,-2.3626530420202982
1768735318280,124,-4,-3.305978245131784,-1.0713844267374588,-2.317017966359524
1768735318284,124,-4,-3.231602271879577,-1.009372569284977,-2.243747426062088
1768735318288,124,-4,-3.2150027978922755,-1.0312174352596748,-2.226871761648288
1768735318292,124,-4,-3.256410936228214,-1.0407892386446085,-2.2680898554776543
1768735318296,124,-4,-3.2937816236517414,-1.0836482875972333,-2.307484765457471
1768735318300,124,-4,-3.2605356528690455,-1.0158984035454472,-2.278509304472939
1768735318304,124,-4,-3.1379843812117416,-1.1020963355463067,-2.159180561379495
1768735318308,124,-4,-2.9603448345732524,-0.9667055176979202,-1.9797519783748168
1768735318312,125,-3,-2.755973240066363,-0.1430620383355925,-1.768556659158114
1768735318316,125,-3,-2.47073339112664,-0.0130652525163643,-1.477159579880588
1768735318320,125,-3,-1.967810417757017,-0.1200033063972036,-0.9765550453973096
1768735318324,126,-2,-1.14404716057928,0.9639053829017225,-0.1666418039858248
1768735318328,127,-1,-0.0561759349485795,1.95022990135466,0.9023749417989227
1768735318332,128,0,1.1362242458406009,2.8740882838448276,2.0846107870966213
1768735318336,130,2,2.4948715341223515,4.98569128554481,3.452522480803835
1768735318340,133,5,4.703467966916572,7.799848772124701,5.687378038691724
1768735318344,137,9,9.112318497425344,12.04952415002305,10.123696118511374
1768735318348,144,16,17.06056777421066,18.814091820263076,18.082540635734063
1768735318352,154,26,28.623171308777632,28.982307363315,29.630899232376866
1768735318356,168,40,41.602909163650686,42.873878441918606,42.57775777291789
1768735318360,180,52,51.7668426130713,54.85320307296213,52.70604904958668
1768735318364,183,55,54.612329664303346,57.98109288603404,55.53075761665317
1768735318368,176,48,47.774163524289506,50.77017845274205,48.69782503823534
1768735318372,160,32,32.54160378215191,34.95096756317665,33.49478183070587
1768735318376,140,12,13.436817539578788,14.828847562452957,14.428869065236585
1768735318380,122,-6,-3.936874542128439,-3.103684161902166,-2.916924827695677
1768735318384,111,-17,-15.468337021953856,-13.972436076487504,-14.44575724360138
1768735318388,108,-20,-20.039280745308183,-17.29765520067135,-19.039667282729788
1768735318392,109,-19,-19.267165668795663,-15.941076559485358,-18.30236932230881
1768735318396,112,-16,-15.978740164442431,-13.417795419250895,-15.040751653406035
1768735318400,114,-14,-12.57240904266808,-10.870136374306378,-11.639433537325072
1768735318404,117,-11,-10.194220414786477,-8.279724208804462,-9.245320952574804
1768735318408,118,-10,-8.878344458427755,-7.014040695402692,-7.9062170502883
1768735318412,119,-9,-8.179158231010678,-6.249725537545517,-7.19207665915456
1768735318416,120,-8,-7.72080831522238,-5.1900403194750435,-6.733878314844526
1768735318420,120,-8,-7.385459579264002,-5.09078784121154,-6.409220063217273
1768735318424,120,-8,-7.210171843345068,-5.141041254394771,-6.244957945764774
1768735318428,120,-8,-7.21611753724035,-5.104127961931481,-6.254828591968615
1768735318432,120,-8,-7.328630539959412,-5.271924717308088,-6.363965477660144
1768735318436,120,-8,-7.406366745811559,-5.145853940816222,-6.436105407902196
1768735318440,120,-8,-7.319796219846326,-5.234646031097857,-6.346693085276608
1768735318444,120,-8,-7.019567194970042,-4.971967491522838,-6.047529706689866
1768735318448,121,-7,-6.560214126626441,-4.330673950841449,-5.590900321723252
1768735318452,121,-7,-6.0666131575944355,-4.05874066600262,-5.098986228295581
1768735318456,122,-6,-5.6577588134683205,-3.4302523112957175,-4.689906812791743
1768735318460,122,-6,-5.374030244563178,-2.972075387636248,-4.404852643934726
1768735318464,122,-6,-5.163506217145368,-3.272805994127891,-4.192925094004952
1768735318468,122,-6,-4.943184017421357,-3.0525569298125936,-3.971652467632392
1768735318472,123,-5,-4.682079657492108,-2.36300918885165,-3.71042963182755
1768735318476,123,-5,-4.42886171691381,-2.202303255120429,-3.4580775940233033
1768735318480,123,-5,-4.264418509938986,-2.1969369061189212,-3.294754700402665
1768735318484,123,-5,-4.232374538658398,-2.11570042507424,-3.262741783284906
1768735318488,123,-5,-4.306492795938002,-2.2011957728764906,-3.335295007507108
1768735318492,123,-5,-4.407023707529876,-2.286774916412817,-3.433822034932005
1768735318496,123,-5,-4.443582774083493,-2.3011514451329527,-3.4696546047765975
1768735318500,123,-5,-4.361383946441364,-2.1473993527786575,-3.388313952222172
1768735318504,123,-5,-4.174959151348396,-2.1811525953958903,-3.202795787480341
1768735318508,123,-5,-3.968527549095305,-2.1700456745292973,-2.995868226984058
1768735318512,124,-4,-3.843185479426265,-1.362240903747978,-2.869161317258155
1768735318516,124,-4,-3.832990207727571,-1.2632813297494794,-2.8583218449891956
1768735318520,123,-5,-3.868572122083207,-2.2327881766160043,-2.894168545521824
1768735318524,123,-5,-3.843062346998395,-2.108789353262442,-2.868470896866506
1768735318528,124,-4,-3.7194031651967263,-1.289134346946308,-2.7435242605741603
1768735318532,124,-4,-3.5575691034081345,-1.2749549095420083,-2.5803223970525297
1768735318536,124,-4,-3.4333664588427424,-1.3920258107056958,-2.4557590862973826
1768735318540,124,-4,-3.34823027547989,-1.1368665975530794,-2.370978700302483
1768735318544,124,-4,-3.230676309401291,-1.243024950274017,-2.253385665404636
1768735318548,124,-4,-3.0208872731282916,-1.1895880807476926,-2.0426653847609577
1768735318552,125,-3,-2.743770170879032,-0.4153650062022342,-1.7643458814443562
1768735318556,125,-3,-2.494304910543653,-0.2728974839572404,-1.5142886511934326
1768735318560,125,-3,-2.3521365437696575,-0.3166538852145555,-1.3721616556002234
1768735318564,125,-3,-2.311699812769695,-0.0618808110903068,-1.331548598489628
1768735318568,125,-3,-2.291722474896318,-0.4623013469626582,-1.3105325719750618
1768735318572,125,-3,-2.206587202960198,-0.1296541757556255,-1.223854752250292
1768735318576,126,-2,-2.030133542072389,0.3720344929941115,-1.0462525886312115
1768735318580,125,-3,-1.803622549304427,0.0278869571929711,-0.8193924150618006
1768735318584,126,-2,-1.5960509223457373,0.5504509337844086,-0.6119317423849493
1768735318588,126,-2,-1.4563378486140746,0.8728703658426382,-0.4722618560734315
1768735318592,126,-2,-1.3906898846806877,0.514628003369082,-0.4062355148491072
1768735318596,126,-2,-1.3751885638165058,0.6675545202490865,-0.3897624315577934
1768735318600,126,-2,-1.3853101959272025,0.7418225472488538,-0.3984501473517878
1768735318604,126,-2,-1.4101604685873916,0.7434013363132799,-0.4218807149124677
1768735318608,126,-2,-1.4409215940339737,0.6999511993908976,-0.4517072079517514
1768735318612,126,-2,-1.457236831138477,0.585821899241139,-0.4676822799949609
1768735318616,126,-2,-1.4370411765906448,0.6217435380745475,-0.4475020759729005
1768735318620,126,-2,-1.3840415529022834,0.7059742123794726,-0.3944564106676829
1768735318624,126,-2,-1.34293163468765,0.7782515948553499,-0.3528049817056202
1768735318628,126,-2,-1.380342223650335,0.5969499410525652,-0.3890570683193775
1768735318632,126,-2,-1.538415451743181,0.6654351662555489,-0.5458175669202334
1768735318636,126,-2,-1.7952230587971114,0.5029509389735107,-0.8017874949622608
1768735318640,125,-3,-2.0718838077008503,-0.2150562554066581,-1.0780677953007454
1768735318644,125,-3,-2.2928933106800913,-0.3251762017497315,-1.2985296600418386
1768735318648,125,-3,-2.449770860293654,-0.3599349682936674,-1.454466270110714
1768735318652,125,-3,-2.602236540053519,-0.3953429427763808,-1.606174890754675
1768735318656,125,-3,-2.8117209328454233,-0.4879894173912653,-1.8155258907913931
1768735318660,124,-4,-3.0764257496134935,-1.2366787972335236,-2.0801968748752326
1768735318664,124,-4,-3.333105978148634,-1.3745217247943486,-2.336136910334746
1768735318668,124,-4,-3.5128970383708937,-1.319028535008255,-2.5145945943333965
1768735318672,124,-4,-3.5850630554513283,-1.5152417526391897,-2.585717001301958
1768735318676,124,-4,-3.551862439666023,-1.3482532465498842,-2.55214010751765
1768735318680,124,-4,-3.4181733920707185,-1.4551673434073131,-2.418160536509865
1768735318684,124,-4,-3.1753406906240778,-1.167407126457206,-2.174586475053684
1768735318688,125,-3,-2.8089256524431345,-0.5946825843367267,-1.8073514970379296
1768735318692,125,-3,-2.316031155221662,-0.2645571805023694,-1.3142012429677652
1768735318696,126,-2,-1.7209637192133385,0.3761031122344023,-0.719221547260894
1768735318700,126,-2,-1.082225088996726,0.775967139841629,-0.0800911721378661
1768735318704,127,-1,-0.4756063491788476,1.5669894979526855,0.5274853501890626
1768735318708,128,0,0.0519051850419629,2.6052472099141744,1.0557241321696316
1768735318712,128,0,0.520448824624363,2.526708051952647,1.524511100214933
1768735318716,128,0,0.995226627722554,2.52783110905395,1.9997816484329625
1768735318720,129,1,1.5147508371103915,3.618749935938444,2.520254663598546
1768735318724,130,2,2.0495547885974004,4.643320729367103,3.05550164147163
1768735318728,130,2,2.5351808784887777,4.514220561424544,3.5406432433300647
1768735318732,130,2,2.9276201815188676,4.568617607182959,3.9328045585052966
1768735318736,131,3,3.2182431507882696,5.463051334668224,4.224311776460256
1768735318740,131,3,3.416796074206385,5.638131854713524,4.424100052850293
1768735318744,131,3,3.538442679692,5.568718948248817,4.545999268422252
1768735318748,131,3,3.593693485859767,5.577301163037129,4.600637817353244
1768735318752,131,3,3.570255805858818,5.430788944207245,4.576935546845096
1768735318756,131,3,3.4301276614148857,5.618304455430493,4.437324288542364
1768735318760,131,3,3.1469130676758943,5.379567082097933,4.154609342183745
1768735318764,130,2,2.754742713489218,4.847877762735258,3.762333928477341
1768735318768,130,2,2.3478922437449894,4.202066920736759,3.355333116274921
1768735318772,129,1,2.018841967750631,3.815309146880772,3.026782412690861
1768735318776,130,2,1.797509026408504,4.166494370953636,2.8061773798685543
1768735318780,129,1,1.6541550138102152,3.806833574422126,2.662781395514984
1768735318784,129,1,1.5511494150406993,3.3880037653407946,2.558831858370983
1768735318788,129,1,1.4786944471243917,3.5931959547674106,2.485424705207574
1768735318792,129,1,1.4443610355756122,3.4291277758623964,2.4509105840137257
1768735318796,129,1,1.4447962482250734,3.450149566351453,2.4518469771245957
1768735318800,129,1,1.4579459140068842,3.567280301821469,2.465523373497196
1768735318804,129,1,1.4615075438270988,3.506439909535563,2.4690828580031177
1768735318808,129,1,1.453438011049942,3.505480551034835,2.460384578213049
1768735318812,129,1,1.4500334348631136,3.4161595149899817,2.456020173054296
1768735318816,129,1,1.4625251259842345,3.461381746305015,2.467640918233943
1768735318820,129,1,1.4778996062738263,3.5089037889308003,2.4825329515472734
1768735318824,129,1,1.467686804243792,3.520191180264348,2.4722553785007357
1768735318828,129,1,1.4208806573770705,3.4689629724447753,2.4255002448930933
1768735318832,129,1,1.371039110614609,3.3787831361549268,2.3753544805966027
1768735318836,129,1,1.3874970757396548,3.4940381808360352,2.3909647735552735
1768735318840,129,1,1.52811794024627,3.4098620780121784,2.5305696491931142
1768735318844,129,1,1.7874640727680422,3.607905685649338,2.7892209308840457
1768735318848,130,2,2.088880320092079,4.321142911828987,3.0901592064368604
1768735318852,130,2,2.3360819088418374,4.489632702050523,3.336537272520008
1768735318856,130,2,2.4795093732260547,4.349234740051537,3.4786435737581596
1768735318860,130,2,2.5331460817818745,4.500885011267389,3.531008329536694
1768735318864,130,2,2.5302825577162413,4.504743255494191,3.527437236052621
1768735318868,130,2,2.472350852001619,4.341697981675184,3.469107296579156
1768735318872,130,2,2.3284549460270485,4.474708365073304,3.3243287373403163
1768735318876,130,2,2.08455721273093,4.283069922096279,3.078746328022996
1768735318880,129,1,1.7853051619913098,3.564101075188713,2.777739127581273
1768735318884,129,1,1.5189798898549438,3.3756681521672,2.510565130980389
1768735318888,129,1,1.359702447549732,3.4372333375534914,2.351240802103087
1768735318892,129,1,1.324926595198858,3.339990384777038,2.3159755891357685
1768735318896,129,1,1.379889487698898,3.3793928653473007,2.3690137086625827
1768735318900,129,1,1.4669798791950404,3.4366840407011505,2.4531420926357805
1768735318904,129,1,1.525339469807625,3.449407952627535,2.5088833494102856
1768735318908,129,1,1.4972632784391555,3.3214789700427745,2.4794537257465254
1768735318912,129,1,1.343261307087677,3.4155897847968353,2.3249473399959006
1768735318916,129,1,1.0721669375582303,3.2700407271142327,2.053088596722342
1768735318920,128,0,0.7560910319478249,2.5097081303448476,1.73547563659874
1768735318924,128,0,0.4975892897980127,2.3257449041172613,1.4750247809970125
1768735318928,128,0,0.3649285868933964,2.4023212118364494,1.3404095678995107
1768735318932,128,0,0.3518754414953611,2.2927963749840403,1.325335373894017
1768735318936,128,0,0.395968400134211,2.367185620717008,1.3671693963909193
1768735318940,128,0,0.4329022698128928,2.3752624070880435,1.4017205876004684
1768735318944,128,0,0.4384503185570507,2.399173575724825,1.4050565666297437
1768735318948,128,0,0.4290049046234212,2.3003836549616015,1.3937686276868808
1768735318952,128,0,0.4288520736120207,2.321846884876523,1.3920884944126246
1768735318956,128,0,0.4369880188181985,2.3610178595887725,1.398622275125403
1768735318960,128,0,0.423208522851549,2.277134166885122,1.3825711280992634
1768735318964,128,0,0.3543999804902924,2.522954110116251,1.310583433541574
1768735318968,128,0,0.2216298058551347,2.048540644168189,1.174351144657935
1768735318972,127,-1,0.0403205145955836,1.60373887936463,0.9903257466673324
1768735318976,128,0,-0.1678243953947791,2.000010718550909,0.7805048188130177
1768735318980,127,-1,-0.3795417100957583,1.6228465558234184,0.567385462406951
1768735318984,127,-1,-0.5565812339917395,1.137323710193726,0.3882834259241032
1768735318988,127,-1,-0.6450164950702532,1.343464213157434,0.2968916411550735
1768735318992,127,-1,-0.6069952410596333,1.3411738597088187,0.3315282734816367
1768735318996,127,-1,-0.4628471126286063,1.1327557089026938,0.4724142154333255
1768735319000,127,-1,-0.2998359041952656,1.56639483605673,0.6323149006479265
1768735319004,128,0,-0.2246220440543495,2.038124553916622,0.7042241346588851
1768735319008,127,-1,-0.2889447896758154,1.4762726177678689,0.6365246821439348
1768735319012,127,-1,-0.452666022619598,1.115225409176455,0.4700674573262535
1768735319016,127,-1,-0.6143745596419575,1.3383369623976744,0.3064749168153249
1768735319020,127,-1,-0.6732664280553629,1.344274618969575,0.2456805454854784
1768735319024,127,-1,-0.5721870155082767,1.1718407632877446,0.3438266423182625
1768735319028,127,-1,-0.3102462458314672,1.3515689988969497,0.6016711699264718
1768735319032,128,0,0.063816113434481,2.1414806846331436,0.9711387082352902
1768735319036,128,0,0.4719148311414247,2.315811709720966,1.3749923240901931
1768735319040,128,0,0.8362593735542891,2.313324003754788,1.735899668905454
1768735319044,129,1,1.110911130442937,3.1477161216119685,2.007613346851062
1768735319048,129,1,1.307094546213481,3.362156545578933,2.2007077677527453
1768735319052,129,1,1.4943755477348564,3.0285730200798886,2.3847374505833674
1768735319056,129,1,1.7607616037416536,3.462054349259928,2.6482833603588127
1768735319060,130,2,2.15166716464073,4.0652987454984455,3.036653026506386
1768735319064,130,2,2.6373711650690033,4.40091597912507,3.518896867059226
1768735319068,131,3,3.1297277566843804,5.033297348425015,4.005931480122976
1768735319072,131,3,3.517964989496903,5.32255077060006,4.387864073855658
1768735319076,131,3,3.690442910053541,5.135085378713424,4.555198831354575
1768735319080,131,3,3.552698660233902,5.3318485800348965,4.41459416522657
1768735319084,131,3,3.072193233601485,5.121680469048009,3.932352505964616
1768735319088,130,2,2.3335857134772233,4.223494037442687,3.1911457377964663
1768735319092,129,1,1.5325932149349168,3.142714474921823,2.3860896097754765
1768735319096,128,0,0.869954382103028,2.216084094511278,1.7187761696219277
1768735319100,128,0,0.4177085445273251,2.2660044969896695,1.2618587601970708
1768735319104,128,0,0.0813529509916513,2.099340972787465,0.9205358320691766
1768735319108,127,-1,-0.304472497906789,1.2457574918939698,0.5293180154341068
1768735319112,127,-1,-0.8365155317490651,1.0430681731320393,-0.0076875696538465
1768735319116,126,-2,-1.4788955399449053,0.2943719924553489,-0.6535815244886334
1768735319120,125,-3,-2.111529755575262,-0.8833535382523521,-1.288595381538566
1768735319124,125,-3,-2.628374178817614,-0.7698517913185521,-1.8085954646012288
1768735319128,125,-3,-2.995883120964072,-0.9285559218725364,-2.181676951509413
1768735319132,124,-4,-3.241877641174242,-1.8300338743442923,-2.434758688105311
1768735319136,124,-4,-3.4143285992731993,-1.8675831477598912,-2.6128381380646464
1768735319140,124,-4,-3.548661794420613,-1.7832513783134107,-2.7496725514182536
1768735319144,124,-4,-3.643460062152261,-1.9100790557171492,-2.8458115227326606
1768735319148,124,-4,-3.6473623395653383,-1.8073870609764553,-2.853738681287226
1768735319152,124,-4,-3.486893501790286,-2.0164988702609707,-2.7015828164679867
1768735319156,124,-4,-3.140057273323879,-1.7069939368103575,-2.3644766732182654
1768735319160,125,-3,-2.6919503627413537,-1.0141101048212269,-1.922182706607946
1768735319164,125,-3,-2.291102079592615,-0.709845042380016,-1.5203434987981328
1768735319168,126,-2,-2.0102103532003905,-0.0353464641729042,-1.2350267207562478
1768735319172,126,-2,-1.7322099332292331,0.1560147589161298,-0.9575564502697658
1768735319176,126,-2,-1.2010300004975218,0.0865371340678673,-0.4385874474364493
1768735319180,127,-1,-0.2355980361564096,1.1061038938880197,0.5051338536792753
1768735319184,128,0,1.0964802214996572,2.1801142454744604,1.8177765611418604
1768735319188,130,2,2.6029497473190477,3.9901415006011134,3.320065157606214
1768735319192,133,5,4.414428775081601,7.155804795366464,5.145650854821423
1768735319196,136,8,7.383361633847797,9.979079696650418,8.13646936029313
1768735319200,140,12,12.872280998686946,14.184930721635173,13.63844600475449
1768735319204,148,20,21.725446550195564,22.067258225114177,22.48447219715295
1768735319208,159,31,32.99052989950351,33.047197078478156,33.72216398384127
1768735319212,171,43,43.47215107352736,45.125388477184984,44.16621561605629
1768735319216,178,50,48.82587140477535,51.90185470745413,49.48754908992433
1768735319220,174,46,45.77833120920464,48.226360712704754,46.42716174433471
1768735319224,162,34,34.09691403548905,35.87657799734868,34.758379615462765
1768735319228,144,16,16.97929477773892,18.19147984516202,17.671255141503387
1768735319232,126,-2,-0.4273186516065443,-0.0725429505454853,0.2943990002727092
1768735319236,113,-15,-13.453152933040212,-12.85456688858354,-12.721380070883509
1768735319240,108,-20,-19.83498121151922,-18.000851677432383,-19.120501457071335
1768735319244,108,-20,-20.16212414765623,-17.913710995112933,-19.48396247993063
1768735319248,111,-17,-16.87574654176305,-15.075916025668338,-16.23420073091341
1768735319252,115,-13,-12.683886193515894,-10.879807759246994,-12.062177916734813
1768735319256,118,-10,-9.373304045367824,-8.109527347855398,-8.749482909474574
1768735319260,119,-9,-7.492889732639777,-6.793671045624154,-6.853454001825528
1768735319264,121,-7,-6.740419798372405,-5.18074038435427,-6.08680833471958
1768735319268,121,-7,-6.554657722447724,-4.850145498174706,-5.899270124801293
1768735319272,121,-7,-6.512894351482235,-5.172736877220074,-5.8686415280565365
1768735319276,121,-7,-6.437191483323123,-4.82293995154035,-5.808945818137468
1768735319280,121,-7,-6.322230800783619,-5.135652784969097,-5.706217277815025
1768735319284,121,-7,-6.218486930952794,-4.883604869521962,-5.608256311938996
1768735319288,122,-6,-6.144151562414833,-4.178594845744405,-5.5363543951957315
1768735319292,121,-7,-6.061259529094911,-4.932080115742757,-5.456359783034565
1768735319296,121,-7,-5.922147326996716,-5.047664071178302,-5.321674988922782
1768735319300,122,-6,-5.734165462363734,-4.0091186824462435,-5.138975490077535
1768735319304,122,-6,-5.561579535569852,-4.000202666221471,-4.97224150965869
1768735319308,122,-6,-5.453662173323215,-4.171788619088101,-4.870775863684784
1768735319312,122,-6,-5.383294025762919,-3.919426576909145,-4.806734655564095
1768735319316,122,-6,-5.270890296654868,-4.1637876514084455,-4.6994328275990345
1768735319320,122,-6,-5.066335995387839,-3.8943238192073384,-4.498779760234665
1768735319324,123,-5,-4.796604354977415,-3.173558140755118,-4.233281598573824
1768735319328,123,-5,-4.532069128858874,-3.0612544087284452,-3.974693775925469
1768735319332,123,-5,-4.320928088877847,-3.0279932489816295,-3.770660134474109
1768735319336,123,-5,-4.170359263120945,-3.1667022815655184,-3.626473382439299
1768735319340,123,-5,-4.080898141203193,-2.871979738575107,-3.5418095476047866
1768735319344,124,-4,-4.06893982378942,-2.3024707055841995,-3.5340696184067086
1768735319348,123,-5,-4.140860653446216,-2.9202075643132543,-3.6107975517482
1768735319352,123,-5,-4.261104575167121,-3.251106197109328,-3.73632968423052
1768735319356,123,-5,-4.3655713505919636,-2.9710012500354,-3.846015400165147
1768735319360,123,-5,-4.407434826610604,-3.1267559018508013,-3.8932781614405343
1768735319364,123,-5,-4.3867006945907665,-3.100008510938461,-3.8786535593720255
1768735319368,123,-5,-4.343311862414445,-3.12502437839382,-3.841657805091848
1768735319372,123,-5,-4.327393568683625,-3.143765538147669,-3.831226809965439
1768735319376,123,-5,-4.363481614369114,-3.0705792800585243,-3.871417029101284
1768735319380,123,-5,-4.422657352078117,-3.143885710215946,-3.9342792620719584
1768735319384,123,-5,-4.424482239819268,-3.064214045343094,-3.9407842404597666
1768735319388,123,-5,-4.28599519799541,-3.2410454418351726,-3.8083322444474863
1768735319392,123,-5,-3.995815193017931,-3.0466833996581655,-3.5246862533827965
1768735319396,124,-4,-3.648186973915413,-2.232826370074204,-3.183082869556971
1768735319400,124,-4,-3.3883048687241506,-2.036135126427586,-2.9283222460435443
1768735319404,124,-4,-3.302100821319094,-2.195183715152318,-2.8464896656494214
1768735319408,124,-4,-3.3451565840750734,-2.1727133785614554,-2.893665600280873
1768735319412,124,-4,-3.3746321217707567,-2.136135711439547,-2.9276542158240173
1768735319416,124,-4,-3.2598024973750346,-2.234236247236425,-2.8180348538614233
1768735319420,124,-4,-2.9839783423870267,-2.0407495262985247,-2.5478366958321876
1768735319424,125,-3,-2.6556423782749454,-1.266960849352648,-2.2251140317568967
1768735319428,125,-3,-2.4160337281208513,-1.0991934208221243,-1.990946617654947
1768735319432,125,-3,-2.319639854529232,-1.300084614679979,-1.8997413258855087
1768735319436,125,-3,-2.292869997853421,-1.0968952698590142,-1.877654859165896
1768735319440,125,-3,-2.206084598309059,-1.2503748802061816,-1.7949016764600894
1768735319444,125,-3,-1.9897808823580063,-1.0830424459422936,-1.5824400729352543
1768735319448,126,-2,-1.6888797853802473,-0.3126592808254878,-1.2861726136854554
1768735319452,126,-2,-1.4132620556895283,-0.1520664464061307,-1.0165096049137552
1768735319456,126,-2,-1.2436621146046518,-0.2800859784447782,-0.8533827010700257
1768735319460,126,-2,-1.1864694172110757,-0.1506078121881118,-0.8015887695635318
1768735319464,126,-2,-1.2063351052302638,-0.1866076415619884,-0.8250632069485426
1768735319468,126,-2,-1.2817463220196352,-0.2870959309763976,-0.903385412449403
1768735319472,126,-2,-1.418872782329615,-0.1719147875526943,-1.0446110871008265
1768735319476,126,-2,-1.6213915374287922,-0.3727099273610008,-1.2530424557797926
1768735319480,125,-3,-1.868303472396008,-1.0591498354723583,-1.506262204589726
1768735319484,125,-3,-2.132715799695304,-1.3656884207843376,-1.7755628324727928
1768735319488,125,-3,-2.40923944744691,-1.1113083925137093,-2.0554807520181835
1768735319492,125,-3,-2.701530259007945,-1.4069428847150074,-2.3511717571767967
1768735319496,124,-4,-2.9838620475970075,-2.1922900528636777,-2.6379752568308943
1768735319500,124,-4,-3.19696660587975,-2.2828124798234386,-2.85629728498212
1768735319504,124,-4,-3.295115174255101,-2.206047237035099,-2.9595613050694913
1768735319508,124,-4,-3.2934500032588225,-2.2932789484667495,-2.9624446638793915
1768735319512,124,-4,-3.2642331666125823,-2.2675559050827614,-2.9372227536692956
1768735319516,124,-4,-3.284094023139616,-2.391460631347077,-2.9609703227566695
1768735319520,124,-4,-3.375385555881574,-2.1314572436221653,-3.0566877702905275
1768735319524,124,-4,-3.4898516535198363,-2.419189536602486,-3.1761696069300007
1768735319528,123,-5,-3.553785809447727,-3.105911761822239,-3.24485246377127
1768735319532,124,-4,-3.5359454361344613,-2.4997511618004724,-3.230831851582489
1768735319536,124,-4,-3.4637723776101104,-2.2079617176646376,-3.1620719027788304
1768735319540,124,-4,-3.3641736473749657,-2.376429787190512,-3.066367872138524
1768735319544,124,-4,-3.1994868497859965,-2.219529451720607,-2.90601438948962
1768735319548,124,-4,-2.881669304622984,-2.336002021708881,-2.5923775355110346
1768735319552,125,-3,-2.354128765792666,-1.3408423928959663,-2.0689541855237654
1768735319556,126,-2,-1.653131357458366,-0.3673345616013783,-1.372549424141431
1768735319560,126,-2,-0.8909760108682572,-0.3366084237425748,-0.6151792674345375
1768735319564,127,-1,-0.1839191742870285,0.7661162239957386,0.0878905964672809
1768735319568,128,0,0.417707830904344,1.5702092345077148,0.6865299266151452
1768735319572,128,0,0.954268986690451,1.749188751276037,1.2201155676902484
1768735319576,129,1,1.5167519802836709,2.472132194082124,1.7787783947337243
1768735319580,129,1,2.1591898199675033,2.779703333395702,2.416765295498185
1768735319584,130,2,2.8303528696943663,3.602388762912295,3.0835122904650767
1768735319588,131,3,3.3945580385867413,4.68653633852292,3.6435953885593
1768735319592,131,3,3.7347260896592864,4.598301004520279,3.979942116194752
1768735319596,131,3,3.844928370918835,4.55243553247349,4.086771407537562
1768735319600,131,3,3.82671342467702,4.67722158131988,4.065584179054973
1768735319604,131,3,3.7987561476899825,4.609213962671133,4.0344989231410455
1768735319608,131,3,3.804970617073547,4.6869239847643325,4.036918914554444
1768735319612,131,3,3.7946255403000655,4.51983591213571,4.0222624405194995
1768735319616,131,3,3.6826076599241673,4.606722507514885,3.9059981317565855
1768735319620,131,3,3.4376804214036407,4.551830256079812,3.657387273970469
1768735319624,130,2,3.1245953340851593,3.688672579191441,3.3414367317769536
1768735319628,130,2,2.861006135879127,3.553236111968204,3.075629371789557
1768735319632,130,2,2.7259661000633426,3.6431972111886575,2.938147168339173
1768735319636,130,2,2.7023434652145006,3.387266543430104,2.9107654042178837
1768735319640,130,2,2.698876615224247,3.775949019958248,2.902158254530653
1768735319644,130,2,2.6214017005564165,3.3551498479860253,2.8196254884212166
1768735319648,129,1,2.4311884486170925,2.880870811269184,2.626116811047777
1768735319652,130,2,2.1614381172665373,3.258808865211412,2.354904995184385
1768735319656,129,1,1.9027264864127271,2.710398197385622,2.0949768169488907
1768735319660,129,1,1.7676387947100165,2.433948497689226,1.957432455724126
1768735319664,129,1,1.8344828323627216,2.600047183548075,2.0204635767720247
1768735319668,129,1,2.0924329469493914,2.644368145157137,2.2740112058053925
1768735319672,130,2,2.434902913711073,3.391042315713096,2.612168419421688
1768735319676,130,2,2.720234397990076,3.597296087944763,2.893760183135189
1768735319680,130,2,2.8574689224203844,3.429096992145137,3.0283227373598427
1768735319684,130,2,2.851634052245722,3.606164849561072,3.02092061164743
1768735319688,130,2,2.7824940570933507,3.5472013847592985,2.950371269868771
1768735319692,130,2,2.742381001562523,3.4671896565005813,2.9077332535289973
1768735319696,130,2,2.774616774775143,3.4744758706465104,2.936089828888554
1768735319700,130,2,2.843718927638891,3.4952470793608135,3.0010416739883334
1768735319704,130,2,2.855713977205271,3.4910941046418684,3.009756267928738
1768735319708,130,2,2.725256333764294,3.6087563495321073,2.876901942087276
1768735319712,130,2,2.4483965573636595,3.3595890127575525,2.597802675854228
1768735319716,129,1,2.1180943954091394,2.5453129467689024,2.265109713362808
1768735319720,129,1,1.8588289724157985,2.36339649245523,2.0035403569312535
1768735319724,129,1,1.7358931536508304,2.571603774819218,1.8783610264496664
1768735319728,129,1,1.7234619332841796,2.481052205207588,1.8633146350664629
1768735319732,129,1,1.7519183539735037,2.4415105843276352,1.888688916870949
1768735319736,129,1,1.7754159367663405,2.432620659472179,1.9091431736280904
1768735319740,129,1,1.794404378366561,2.400494134689542,1.925597111255568
1768735319744,129,1,1.8247912460361664,2.489620358118497,1.9538840194148548
1768735319748,129,1,1.854692538377401,2.5109863946151876,1.9817124881822907
1768735319752,129,1,1.833019584389309,2.369917587896274,1.9576449083846277
1768735319756,129,1,1.7029631121277364,2.472674119162893,1.8247522852591769
1768735319760,129,1,1.4539357050801858,2.2837081623864925,1.5727508590815622
1768735319764,128,0,1.144490398174019,1.5619247041419362,1.2609649534069511
1768735319768,128,0,0.8706645242960775,1.382433344696285,0.9859687271838068
1768735319772,128,0,0.7070371107459531,1.4638962068333925,0.8217222569317864
1768735319776,128,0,0.6723201834447321,1.3388519853935434,0.7854414416381688
1768735319780,128,0,0.7364852310565129,1.353765024474718,0.846244796786457
1768735319784,128,0,0.8418631433203583,1.4411774259994827,0.9473152407406322
1768735319788,128,0,0.913913640176089,1.4459624737862693,1.0159912720138602
1768735319792,128,0,0.8735730409795347,1.360655512669899,0.9742874238603842
1768735319796,128,0,0.675358981212184,1.4092571648280408,0.775895377783888
1768735319800,128,0,0.359644404681176,1.20614593020588,0.4593959930622098
1768735319804,127,-1,0.062804190258043,0.5584784082508105,0.1604272725907767
1768735319808,127,-1,-0.0565073080456464,0.2441403554192707,0.0385806104088561
1768735319812,127,-1,0.067525944692006,0.5533510684986886,0.1607483638424898
1768735319816,128,0,0.3563127511059567,1.1549269481915865,0.4480766292492044
1768735319820,128,0,0.6530557433768398,1.4143805957970188,0.7427416484399465
1768735319824,128,0,0.8419502699475541,1.3050634113285553,0.9287485150649366
1768735319828,128,0,0.9067853471005608,1.4045915173986965,0.9909039142730052
1768735319832,128,0,0.889388935901329,1.3998436865797923,0.9720876480446924
1768735319836,128,0,0.8129086603429438,1.2037109959983552,0.8953401371072607
1768735319840,128,0,0.6582126282762293,1.3842853033294236,0.7403119985800044
1768735319844,128,0,0.4116169155396073,1.2215676945433889,0.4922020098593256
1768735319848,127,-1,0.1188037904081139,0.4706013731354064,0.1967966077657592
1768735319852,127,-1,-0.1271998876879878,0.2624041713109593,-0.0517674011146431
1768735319856,127,-1,-0.2582021980125788,0.3077827468293743,-0.1844176247411031
1768735319860,127,-1,-0.2854761152040954,0.2351085437693867,-0.2125305610595149
1768735319864,127,-1,-0.2770141283822875,0.3135191636810912,-0.2048328088849946
1768735319868,127,-1,-0.2797215533632003,0.3260204977596266,-0.2087988672166378
1768735319872,127,-1,-0.2649895832869309,0.350753616142605,-0.1957150384623203
1768735319876,127,-1,-0.1549701163693548,0.1765764007179306,-0.0871212813945523
1768735319880,127,-1,0.0913370611673999,0.3206890679078884,0.1582652278089622
1768735319884,128,0,0.4176471567455849,1.1732694985383332,0.4835750518294153
1768735319888,128,0,0.7007783239977741,1.4161145213460375,0.76495457483657
1768735319892,128,0,0.8432922027647172,1.204784832111364,0.9053828511897368
1768735319896,128,0,0.8382476646032646,1.2747067382692068,0.8990672243749771
1768735319900,128,0,0.7567754544082527,1.1821904953080211,0.8174124012624264
1768735319904,128,0,0.690848755263416,1.2315736034423246,0.7513385512247337
1768735319908,128,0,0.7072142152170738,1.3534450037719683,0.766700856225478
1768735319912,128,0,0.8310189749180555,1.1602310939931662,0.8891423678460113
1768735319916,128,0,1.0485224087991478,1.334727156537015,1.1058685246259676
1768735319920,129,1,1.3242396956204516,2.010523942419433,1.381167164915989
1768735319924,129,1,1.627551046668295,2.3927472958784053,1.6833906337100086
1768735319928,129,1,1.9405462600230423,2.126525428930299,1.9945926325215388
1768735319932,129,1,2.227224687725893,2.3235364224328854,2.2799118138245897
1768735319936,130,2,2.4031684103247533,3.1642250273761334,2.455535767582341
1768735319940,130,2,2.3661972790350685,3.054448156643537,2.4186235149735316
1768735319944,129,1,2.0754761661192003,2.3914373893275993,2.127597700414261
1768735319948,129,1,1.5936795711690197,1.983162382240662,1.6452176101354303
1768735319952,128,0,1.040615920202383,1.4964659680468977,1.091665146360757
1768735319956,128,0,0.5015150422390684,0.8750168091747583,0.5521280539108671
1768735319960,127,-1,-0.0254881877135322,0.328808125703635,0.0244176693189932
1768735319964,127,-1,-0.600255839185146,0.0748209138032023,-0.5513987111905125
1768735319968,126,-2,-1.2606149530997266,-0.7867503226256729,-1.2127133238758478
1768735319972,125,-3,-1.963741267886954,-1.730759084674904,-1.916067217660185
1768735319976,125,-3,-2.5986548576667996,-2.029066664244362,-2.5502987930326753
1768735319980,124,-4,-3.0552606885414657,-2.7345899007435315,-3.0059279786520925
1768735319984,124,-4,-3.291195608367766,-2.980473891454528,-3.241634220203645
1768735319988,124,-4,-3.3477907685143857,-2.7169210669134487,-3.2993780338386896
1768735319992,124,-4,-3.3124140470302006,-2.900328137494113,-3.2659840744541713
1768735319996,124,-4,-3.265387939457951,-2.9015860969077933,-3.220137762963847
1768735320000,124,-4,-3.2511950240453853,-2.89971282123895,-3.204956172859438
1768735320004,124,-4,-3.2786011200747147,-2.897170169220843,-3.229795590009602
1768735320008,124,-4,-3.327831230777745,-2.799399721580186,-3.2774503088712565
1768735320012,124,-4,-3.355617882772739,-2.9250574244318246,-3.306839862311046
1768735320016,124,-4,-3.313170651204264,-2.8903486661573243,-3.2682060734035305
1768735320020,124,-4,-3.1820632293116455,-2.9912358739439315,-3.1390121596911453
1768735320024,124,-4,-2.9929101330327867,-2.8358366667316472,-2.9463494296328796
1768735320028,125,-3,-2.783130129526686,-1.9163729802086544,-2.7289360285926736
1768735320032,125,-3,-2.5152411921139852,-1.8548099508470384,-2.455596538710351
1768735320036,125,-3,-2.0528110764826226,-2.02874937921536,-1.9963565249524935
1768735320040,126,-2,-1.256408974953937,-0.8914654927903878,-1.2121893162405395
1768735320044,127,-1,-0.1125634138837528,0.0022914097783059,-0.0816853169879658
1768735320048,128,0,1.2917112650510003,1.2038239350966682,1.3196861904776471
1768735320052,131,3,3.0351687406408514,3.9865491033534903,3.0764785859501
1768735320056,134,6,5.683424199761586,7.055989451957652,5.748379292158788
1768735320060,138,10,10.259063989935878,10.988563427018748,10.343919846891474
1768735320064,144,16,17.577584963660303,17.05914409569587,17.66640048985636
1768735320068,153,25,27.200479217479504,26.110705764236663,27.274417696248506
1768735320072,164,36,36.80759729460462,37.032589152175845,36.85477420535636
1768735320076,171,43,42.74951428499011,43.96264297201877,42.77095685773429
1768735320080,170,42,41.75220730526012,43.002970688564616,41.762391852179235
1768735320084,161,33,32.804877781512,33.95672353073309,32.82593131399297
1768735320088,145,17,17.984315415305495,18.105235682623416,18.034980876138228
1768735320092,128,0,1.6190456742153687,0.9794300088243376,1.7038235693809876
1768735320096,115,-13,-11.722592253300654,-11.980186865051936,-11.616847923027448
1768735320100,108,-20,-19.219866683168277,-19.036782472029543,-19.116678417405744
1768735320104,107,-21,-20.679098476463828,-20.01324612061932,-20.598679023758123
1768735320108,110,-18,-18.00734492000685,-16.97195468253122,-17.955425788302506
1768735320112,114,-14,-13.834116547022512,-13.055979400419414,-13.80010571286238
1768735320116,117,-11,-10.19928786147623,-9.984185771521194,-10.163943353102836
1768735320120,119,-9,-7.961724800118924,-8.12250283704529,-7.90891137628888
1768735320124,120,-8,-6.9862177480335745,-6.949647740173865,-6.911627760691017
1768735320128,121,-7,-6.7040669159565915,-6.132199096744618,-6.615860598445001
1768735320132,121,-7,-6.5930574684911445,-5.933225079226374,-6.504453042168805
1768735320136,121,-7,-6.383062214525327,-6.168644299865719,-6.30270914402886
1768735320140,121,-7,-6.046899074470175,-5.95750741351027,-5.974501033863498
1768735320144,122,-6,-5.697975381956111,-5.175284700857568,-5.6275062250379015
1768735320148,122,-6,-5.465099690825401,-4.964234355310966,-5.391008451975278
1768735320152,122,-6,-5.3903476541018485,-5.165944325001232,-5.310834889585538
1768735320156,122,-6,-5.400037854178692,-4.985588744961336,-5.31610553747901
1768735320160,122,-6,-5.363037770640495,-5.170514763086114,-5.276214051734359
1768735320164,122,-6,-5.18414889884017,-5.039134330359313,-5.0955172023232755
1768735320168,123,-5,-4.856489868635523,-4.12405596456385,-4.766865184855488
1768735320172,123,-5,-4.444779114350746,-4.106606974133641,-4.354598232596759
1768735320176,123,-5,-4.036254982571696,-4.050783282476383,-3.945106062738399
1768735320180,124,-4,-3.704876741849759,-3.184968535967387,-3.6117406963069185
1768735320184,124,-4,-3.494755650296157,-3.05509011960619,-3.398887837469859
1768735320188,124,-4,-3.410253957553372,-3.187987281517488,-3.3115109863901173
1768735320192,124,-4,-3.4168682967317867,-3.081736688998255,-3.3152966411347555
1768735320196,124,-4,-3.460571172260339,-3.137656724048322,-3.356200594546499
1768735320200,124,-4,-3.4946462025800415,-3.137822739363766,-3.3877832321908854
1768735320204,124,-4,-3.496971266869598,-3.1537971199327535,-3.3883021989014037
1768735320208,124,-4,-3.4733458001813253,-3.157423524213007,-3.363416395557475
1768735320212,124,-4,-3.4506812722445352,-3.1521212661866524,-3.339228865996396
1768735320216,124,-4,-3.4607080471680725,-3.138745850310798,-3.346641479166651
1768735320220,124,-4,-3.514386644406454,-3.159486398393007,-3.3966062358964733
1768735320224,124,-4,-3.5785120795608307,-3.212194944541546,-3.4568427928203933
1768735320228,124,-4,-3.5783848197475128,-3.129719535178028,-3.4536605926468
1768735320232,124,-4,-3.441948549777071,-3.2631003251072404,-3.315182791569544
1768735320236,124,-4,-3.163783077672207,-3.055908725971915,-3.0353943014301805
1768735320240,125,-3,-2.832330780206534,-2.302990758216967,-2.702112850465603
1768735320244,125,-3,-2.5807925728674155,-2.1171938239390276,-2.448215784115861
1768735320248,125,-3,-2.491436732170545,-2.275297354835704,-2.3557786641508405
1768735320252,125,-3,-2.532137336270214,-2.19679825074416,-2.392686677124219
1768735320256,125,-3,-2.577486695826572,-2.145326294282492,-2.433961873164536
1768735320260,125,-3,-2.497851881692113,-2.300974121453266,-2.3506108553903404
1768735320264,125,-3,-2.251453799389451,-2.121413838766624,-2.101345861047254
1768735320268,126,-2,-1.9129705007013735,-1.3713088465852614,-1.7610192646854106
1768735320272,126,-2,-1.6178540283604843,-1.1229782135894473,-1.4646343109743851
1768735320276,126,-2,-1.4691407444152076,-1.2979257254555048,-1.3139866667266191
1768735320280,126,-2,-1.480572971810043,-1.1916643285911963,-1.3216639647554311
1768735320284,126,-2,-1.585493788533854,-1.2694319051066114,-1.4213398957309475
1768735320288,126,-2,-1.6819991047855432,-1.3137645425251927,-1.5129389385503806
1768735320292,126,-2,-1.6775811836980818,-1.1850650625036,-1.5054534503226018
1768735320296,126,-2,-1.525264417071179,-1.3461188470403425,-1.3514872505473303
1768735320300,126,-2,-1.2498512127763028,-1.1382324220672628,-1.0741221037952453
1768735320304,127,-1,-0.9422907349470117,-0.4197851643906101,-0.7632791135849988
1768735320308,127,-1,-0.7056242462483264,-0.1944555292713103,-0.5225104684587272
1768735320312,127,-1,-0.5859861753647968,-0.3623309824923861,-0.398982805222787
1768735320316,127,-1,-0.5532621615285627,-0.2426870704004993,-0.3629343800986615
1768735320320,127,-1,-0.5531874139075779,-0.2552803231797576,-0.3597343124840313
1768735320324,127,-1,-0.5788596575227527,-0.4148387509689351,-0.3820922688427155
1768735320328,127,-1,-0.6888045857586875,-0.1843151746931361,-0.4885520452790133
1768735320332,127,-1,-0.951997024615936,-0.4885994923096577,-0.7483020572096051
1768735320336,126,-2,-1.3731493497763765,-1.12296643743474,-1.1660291874032258
1768735320340,126,-2,-1.8725038458214296,-1.4597524849476202,-1.661713591714594
1768735320344,125,-3,-2.3413973551371816,-2.2586369493798917,-2.1266706789300387
1768735320348,125,-3,-2.7211220851139823,-2.385144692762993,-2.502615555029183
1768735320352,125,-3,-3.0336339352550006,-2.3495665629318223,-2.811840530428797
1768735320356,124,-4,-3.344007232098249,-3.300236612164367,-3.119144790405698
1768735320360,124,-4,-3.6957922999344026,-3.357317186938973,-3.467568939852411
1768735320364,124,-4,-4.072292291082876,-3.4007449842669732,-3.8403358141989177
1768735320368,123,-5,-4.407919426056706,-4.31777728741263,-4.172061725724941
1768735320372,123,-5,-4.6389413583061305,-4.444616973034979,-4.3990516915535585
1768735320376,123,-5,-4.752830913235146,-4.272281219416184,-4.508856867963926
1768735320380,123,-5,-4.7902202101783855,-4.433099795844474,-4.542542248405961
1768735320384,123,-5,-4.796142973480806,-4.395323705200212,-4.545477957789539
1768735320388,123,-5,-4.770787692224131,-4.352274170093909,-4.517406314388993
1768735320392,123,-5,-4.669873469406486,-4.50059958359312,-4.413008104267979
1768735320396,123,-5,-4.449306371343944,-4.216647374296418,-4.18769484225372
1768735320400,124,-4,-4.101171270556842,-3.6082443274902976,-3.8344163380205414
1768735320404,124,-4,-3.6428310814686498,-3.212059691709584,-3.3720230481023132
1768735320408,125,-3,-3.0820116880689503,-2.644950681716059,-2.8086394949289284
1768735320412,125,-3,-2.412597615150928,-2.211837441956035,-2.1368705013096463
1768735320416,126,-2,-1.652873519292276,-1.5993453016603456,-1.3735287303096344
1768735320420,127,-1,-0.8723683427573883,-0.262500703267901,-0.5882608601535937
1768735320424,128,0,-0.1569937049468277,0.3868900480775439,0.1315807730851144
1768735320428,128,0,0.459717003853143,0.689934635865896,0.7516363053373644
1768735320432,129,1,1.019733254506018,1.4287487396639946,1.3146351732060038
1768735320436,129,1,1.5866909907064053,1.662561310410994,1.885355773120258
1768735320440,130,2,2.1741281218544395,2.4491903811010927,2.4772601335563733
1768735320444,131,3,2.7343653999550535,3.60465730917087,3.041614126399045
1768735320448,131,3,3.2118125163744833,3.441501007632497,3.522412885303394
1768735320452,131,3,3.5908248511904164,3.603018805617379,3.904702879813475
1768735320456,132,4,3.8877938072892926,4.448676509367255,4.205383384141461
1768735320460,132,4,4.111654930894438,4.564744025015292,4.43298897574322
1768735320464,132,4,4.241898721851861,4.490517969545216,4.566621837930099
1768735320468,132,4,4.23931783472802,4.46508579030206,4.567386405448004
1768735320472,132,4,4.078736095732241,4.562017390256396,4.410488403124463
1768735320476,132,4,3.7860355151647,4.385904237288092,4.1217422417222505
1768735320480,131,3,3.449209238962192,3.5977385057903524,3.789005244326391
1768735320484,131,3,3.1794621697741525,3.3918889213956342,3.523436747309541
1768735320488,131,3,3.0452388030400543,3.534499440695158,3.393091880425749
1768735320492,131,3,3.036453107967577,3.424707995708779,3.3872847437063403
1768735320496,131,3,3.086666365819764,3.459544951205973,3.439675201282544
1768735320500,131,3,3.1255038831758735,3.4741831312497027,3.4809911946431877
1768735320504,131,3,3.1180868039408183,3.4511075074892794,3.477465879606438
1768735320508,131,3,3.073948533942996,3.448451840528424,3.4385177649591836
1768735320512,131,3,3.032372279390517,3.430062072285121,3.401998126191673
1768735320516,131,3,3.0347203743934648,3.4122452296874592,3.4077641237247196
1768735320520,131,3,3.091253716304066,3.4428153553436407,3.4659463761061913
1768735320524,131,3,3.156611525135554,3.4565788359426,3.5326391010473897
1768735320528,131,3,3.1391112369100043,3.3698167416379605,3.5178239957648576
1768735320532,131,3,2.95977215701796,3.4790833310808087,3.3428211698013897
1768735320536,131,3,2.633506966688243,3.267717506379791,3.021470857789283
1768735320540,130,2,2.2997994875893473,2.5612963225627774,2.692179493798757
1768735320544,130,2,2.1488378011363203,2.2577641644463236,2.5448458344908653
1768735320548,130,2,2.2830886160110335,2.5485842302676875,2.6819155443287066
1768735320552,131,3,2.6303411429643035,3.220185843289414,3.031074763712025
1768735320556,131,3,2.9857956621909443,3.486766014860965,3.3879623691289806
1768735320560,131,3,3.1451422789175214,3.273701778593701,3.549406186103405
1768735320564,131,3,3.0242066312117184,3.4895581832753564,3.431919113705554
1768735320568,131,3,2.6918988468239458,3.27271947739632,3.1038472284069973
1768735320572,130,2,2.3107834643813043,2.418153281866565,2.7267548589836847
1768735320576,130,2,2.0304521418076025,2.2629648381234375,2.449865119369901
1768735320580,130,2,1.9057626074615204,2.411685032189743,2.3281671116893605
1768735320584,130,2,1.895538505935389,2.3261228537775542,2.3204923266847075
1768735320588,130,2,1.929185994630672,2.357341544364728,2.356136666274834
1768735320592,130,2,1.969093867032559,2.3044982566174883,2.3976794139291338
1768735320596,130,2,2.0119419601529343,2.2856455103861477,2.44240392771991
1768735320600,130,2,2.043185038807092,2.366145545190107,2.4763756889701476
1768735320604,130,2,2.0088561321116902,2.28162836615329,2.445620324512432
1768735320608,130,2,1.848982262009324,2.3860992480130747,2.289360463619083
1768735320612,130,2,1.566401903145761,2.18944207348249,2.009556050888877
1768735320616,129,1,1.253417003436411,1.3645890144941983,1.6984880875696673
1768735320620,129,1,1.0298443441687266,1.2059807504556592,1.4767165687636492
1768735320624,129,1,0.9400981254361506,1.408562229830115,1.3891570665062754
1768735320628,129,1,0.9105479716264988,1.1932584932919867,1.3619154742453852
1768735320632,129,1,0.8141116489325182,1.3425276061189977,1.26744438382326
1768735320636,129,1,0.5835631163938083,1.1480917150690049,1.0386312881008857
1768735320640,128,0,0.2688201682759105,0.3473313637940498,0.7260177967530959
1768735320644,128,0,-0.009955357714661,0.229133810463737,0.4500028088845347
1768735320648,128,0,-0.1618576466846001,0.3040426305396626,0.3008347217541365
1768735320652,128,0,-0.1846833925067669,0.2008152820546809,0.2799192027921811
1768735320656,128,0,-0.1441956482187417,0.221427504853561,0.3215972328629652
1768735320660,128,0,-0.1098476654436846,0.2156569385382662,0.3572339605106955
1768735320664,128,0,-0.1069880854615965,0.291645729729296,0.3619077684115717
1768735320668,128,0,-0.1159356435953595,0.2071571040531012,0.3549206479429125
1768735320672,128,0,-0.1090604987051148,0.220877504535391,0.3634301405268192
1768735320676,128,0,-0.0923620726412057,0.1923031849840835,0.3815121747624774
1768735320680,128,0,-0.1136476657928342,0.1121968926099041,0.3616725670484884
1768735320684,128,0,-0.2224582769186733,0.4175255472409167,0.2543535121822082
1768735320688,128,0,-0.4120332270612421,-0.0583646483782773,0.0661276475099141
1768735320692,127,-1,-0.6016388249136508,-0.4764383504602487,-0.1221167740338777
1768735320696,128,0,-0.6871397354614592,-0.2380384721520525,-0.205883397201247
1768735320700,127,-1,-0.6198901839640545,-0.4767197475830294,-0.1366588595385314
1768735320704,128,0,-0.4425595382111609,-0.0723404646680099,0.0420500013901339
1768735320708,128,0,-0.2516063017251835,0.3801880359871734,0.2330692471025426
1768735320712,128,0,-0.1263379953428882,0.0653126398946941,0.3575754559120963
1768735320716,128,0,-0.0903034981433188,0.1064844117479486,0.3935768373623667
1768735320720,128,0,-0.1256157418371839,0.1789565087129414,0.3600316011035169
1768735320724,128,0,-0.2005145217808086,0.1367269064549074,0.288011762520723
1768735320728,128,0,-0.270484577206333,0.1979949853959901,0.2202158035704591
1768735320732,128,0,-0.2681020898002023,0.1490983826626757,0.2230095583564781
1768735320736,128,0,-0.126616460421715,-0.0127667422014239,0.3637829072013516
1768735320740,128,0,0.1601488602860794,0.2243633627103105,0.6500070170539451
1768735320744,129,1,0.5029594824825429,1.0201678889101495,0.9928974659349608
1768735320748,129,1,0.7633974283194264,1.2896650829101548,1.2536523012945644
1768735320752,129,1,0.8541692512512251,1.003964515138509,1.3448108214951304
1768735320756,129,1,0.8053569217457041,1.0553680545408606,1.2966938129895127
1768735320760,129,1,0.7428737623669834,1.1162705629212992,1.235127494321418
1768735320764,129,1,0.8053951208720338,1.0091257187658282,1.2982738006483163
1768735320768,129,1,1.0643348866628126,1.3418859911890997,1.5573532275192965
1768735320772,130,2,1.4934863680241277,1.8303472826087537,1.986527706152497
1768735320776,130,2,1.9961613905244784,2.2283757265504303,2.489288762601258
1768735320780,131,3,2.4630243010670556,2.8279566039066695,2.955748193200741
1768735320784,131,3,2.8161000709033637,3.2381060382983327,3.3073827882246367
1768735320788,131,3,3.007216702898533,3.1142017671811373,3.496623026327272
1768735320792,131,3,2.9847979029883662,2.936270031005654,3.4733521530871743
1768735320796,131,3,2.686733979782593,3.1611628582477183,3.17611466211694
1768735320800,131,3,2.0975170835075807,2.699460104948975,2.5884403885529217
1768735320804,129,1,1.3218495736629472,1.4253361749923426,1.8135235620149253
1768735320808,129,1,0.5753396913761895,0.7921462341380641,1.0663297185520086
1768735320812,128,0,0.0596620228980592,0.2764277875977385,0.5489678177453627
1768735320816,128,0,-0.1869093649222941,-0.2700107822174229,0.3004575225463035
1768735320820,128,0,-0.3275718837720596,0.0430773397044732,0.1579750837755877
1768735320824,128,0,-0.6038346178373304,0.0857158524948853,-0.1198736643490385
1768735320828,127,-1,-1.14526906626701,-0.9996778937472924,-0.6622846556274888
1768735320832,126,-2,-1.8723317892155105,-1.8801375327412733,-1.3893212225235445
1768735320836,126,-2,-2.5678569699806695,-2.286871966477122,-2.0843388632642825
1768735320840,125,-3,-3.04186255682677,-2.927249853130587,-2.558755292712579
1768735320844,125,-3,-3.249058382815663,-3.047946899153243,-2.7680620883987266
1768735320848,125,-3,-3.2820678287608818,-2.8695555824698764,-2.803900890793097
1768735320852,125,-3,-3.2721355037806044,-3.07353794988018,-2.7956577275397754
1768735320856,125,-3,-3.2885250384741913,-3.1757077310957955,-2.81211676917178
1768735320860,125,-3,-3.3074549608734505,-3.098010660927736,-2.831455641173029
1768735320864,125,-3,-3.257358294233617,-2.9414154819981007,-2.784509696859832
1768735320868,125,-3,-3.096943414187396,-3.00083447768426,-2.6294161755668526
1768735320872,125,-3,-2.8660860729135793,-2.991596571208148,-2.4019134297303606
1768735320876,126,-2,-2.6594412545164605,-2.348588559404829,-2.1929406267860614
1768735320880,126,-2,-2.52202107222801,-1.9752183155315344,-2.049091231734216
1768735320884,126,-2,-2.3512198507532767,-2.138265509294451,-1.874986474291252
1768735320888,126,-2,-1.925246294131242,-1.820045064250149,-1.456143620802077
1768735320892,127,-1,-1.0760267914239183,-1.228136457199755,-0.62449947660312
1768735320896,128,0,0.1542513966293257,-0.2080815645576654,0.5877038272862851
1768735320900,130,2,1.5987938367746397,1.8518334583674856,2.02761187179588
1768735320904,132,4,3.3396091312523537,3.949049712991328,3.7837879921764626
1768735320908,135,7,6.077286240059141,7.095110163644016,6.5485978452974605
1768735320912,140,12,11.009584875229972,11.774640191297166,11.500891413378897
1768735320916,146,18,18.970700640886317,17.73101926240158,19.458381726972384
1768735320920,156,28,29.232028200569314,27.81903732986772,29.690168123214683
1768735320924,167,39,38.927933709753546,39.004293633011656,39.34470915470202
1768735320928,173,45,43.91218172935051,44.906570736236006,44.29817522655531
1768735320932,170,42,40.87871503126181,42.027341801594055,41.26133234879558
1768735320936,159,31,29.50854636740484,30.170852354530165,29.91505349544896
1768735320940,142,14,13.141514401726033,14.435394466940906,13.58285494865429
1768735320944,125,-3,-2.695913930747494,-3.806950175897776,-2.228405381300889
1768735320948,110,-18,-13.150528683272734,-17.139505202687637,-12.676977007505178
1768735320952,113,-15,-16.469467782062832,-15.95369536894692,-16.012421002996227
1768735320956,117,-11,-14.380012560826769,-10.887031476357096,-13.95710034041923
1768735320960,119,-9,-10.34417326149589,-9.547585787964458,-9.958465762265106
1768735320964,120,-8,-7.212900968815405,-7.99743814941307,-6.846896501324614
1768735320968,121,-7,-5.980088327390128,-6.918157948490497,-5.605246524668494
1768735320972,122,-6,-6.093764243860352,-6.419741703422103,-5.691854073951905
1768735320976,122,-6,-6.532620767322443,-6.275884702527306,-6.108821442061453
1768735320980,122,-6,-6.645774933227257,-6.35584534715704,-6.22124301735508
1768735320984,122,-6,-6.349012910722093,-6.109574495267184,-5.94212034159746
1768735320988,122,-6,-5.876390912380481,-5.965698477568373,-5.490661290656163
1768735320992,123,-5,-5.469225694206283,-5.432960551777174,-5.095716723148923
1768735320996,123,-5,-5.230105512063002,-5.27916921538361,-4.857774501578442
1768735321000,123,-5,-5.146509505783143,-5.420991744798948,-4.770169443608006
1768735321004,123,-5,-5.170309415070087,-5.063204614950287,-4.791664688785534
1768735321008,123,-5,-5.254186367053031,-5.116571248000227,-4.878094928286646
1768735321012,123,-5,-5.335589405178168,-5.37331730956512,-4.965777223456169
1768735321016,123,-5,-5.328586267388275,-5.338267759044447,-4.965665200593902
1768735321020,123,-5,-5.166951983704759,-5.439517769181047,-4.80932337134658
1768735321024,123,-5,-4.865692201267216,-5.05193800618848,-4.511895212032495
1768735321028,124,-4,-4.528754021244185,-4.2509563304487665,-4.178848990038714
1768735321032,124,-4,-4.280702082339422,-4.293240036758589,-3.935437059395705
1768735321036,124,-4,-4.181701062506066,-4.470142580298614,-3.840899181892677
1768735321040,124,-4,-4.198466331736278,-4.328592938056248,-3.8610564035318657
1768735321044,124,-4,-4.240723226202306,-4.238103740041261,-3.906375670071068
1768735321048,124,-4,-4.222040121411398,-4.127161306380425,-3.891929018068854
1768735321052,124,-4,-4.111279213936683,-4.512786698848795,-3.786869134896544
1768735321056,124,-4,-3.956843108478436,-4.267327986142192,-3.638498988718202
1768735321060,125,-3,-3.861574571459898,-3.579611841800051,-3.548638357484664
1768735321064,124,-4,-3.906822055599264,-4.0437355860106505,-3.5984649485356344
1768735321068,124,-4,-4.078637305201651,-4.395120674229297,-3.7743144666920534
1768735321072,124,-4,-4.263203036271034,-4.3395260395170645,-3.962761029667962
1768735321076,124,-4,-4.319645794353973,-4.450996001555357,-4.023367639441653
1768735321080,124,-4,-4.173618600495936,-4.470475886675684,-3.882092078642138
1768735321084,124,-4,-3.864337436692161,-4.15537668794931,-3.578296218807258
1768735321088,125,-3,-3.5139599796501324,-3.421299871426473,-3.2341971153150264
1768735321092,125,-3,-3.2448320458093893,-3.334922542188708,-2.9717383209439903
1768735321096,125,-3,-3.111889649063654,-3.546331000409382,-2.844739369573971
1768735321100,125,-3,-3.098480958202035,-3.3754580503013427,-2.835651476960774
1768735321104,125,-3,-3.15562993843082,-3.3279632231412877,-2.896121320896342
1768735321108,125,-3,-3.230044498651984,-3.3242148242165013,-2.974694441819909
1768735321112,125,-3,-3.2650794826000995,-3.4922534797541194,-3.0158406581951533
1768735321116,125,-3,-3.2078379812428404,-3.4568301659828475,-2.9657650333799483
1768735321120,125,-3,-3.0431477762669847,-3.4656128021152237,-2.80744636845455
1768735321124,125,-3,-2.8204705644681236,-3.3401615333268757,-2.589801384714633
1768735321128,126,-2,-2.6245418629637656,-2.343498240172058,-2.3988501107439784
1768735321132,126,-2,-2.502714729098207,-2.5853706707797355,-2.2830442874011374
1768735321136,125,-3,-2.428640607714371,-3.374969096061988,-2.215375858988334
1768735321140,126,-2,-2.3478437242907737,-2.6111199201038517,-2.140251138691602
1768735321144,126,-2,-2.246657248730122,-2.242314884179751,-2.044334586022933
1768735321148,126,-2,-2.1603128198786083,-2.5226351274964953,-1.9640005900044128
1768735321152,126,-2,-2.122842617889344,-2.4676501751721576,-1.9333318112099176
1768735321156,126,-2,-2.128324018966413,-2.534000723503228,-1.9453159190574925
1768735321160,126,-2,-2.140702028891762,-2.5156588266324658,-1.963276818530072
1768735321164,126,-2,-2.129100262713331,-2.3756220985586145,-1.9569370404714777
1768735321168,126,-2,-2.0943689535881385,-2.47774522826006,-1.9281183152554549
1768735321172,126,-2,-2.0759030489788213,-2.5706603965941115,-1.9165816503604924
1768735321176,126,-2,-2.140657474972122,-2.463697332531722,-1.9889702394517483
1768735321180,126,-2,-2.3557508473913735,-2.674269960570959,-2.2117518100572013
1768735321184,125,-3,-2.7529311136780374,-3.2206737927496167,-2.6158941354115
1768735321188,125,-3,-3.3035409763268384,-3.7640706723906128,-3.1722133106260477
1768735321192,124,-4,-3.918192425485793,-4.294259276635955,-3.791632151003916
1768735321196,124,-4,-4.472522225313947,-4.8244098698577,-4.350960078373972
1768735321200,123,-5,-4.85485696618321,-5.353424515680665,-4.739733283076155
1768735321204,123,-5,-5.024466406581247,-5.572285409047535,-4.917572095284192
1768735321208,123,-5,-5.050171599849258,-5.540860549915369,-4.952555389744974
1768735321212,123,-5,-5.091374781138867,-5.497476913649262,-5.0026526213036355
1768735321216,123,-5,-5.313560848961388,-5.770836724162197,-5.232057498205154
1768735321220,122,-6,-5.780335963985275,-6.35152703942671,-5.704249296396977
1768735321224,122,-6,-6.389636422022925,-6.733721353664467,-6.3185310534449926
1768735321228,121,-7,-6.903531260676179,-7.365870211273736,-6.838644743737267
1768735321232,121,-7,-7.070165748345868,-7.801763196781997,-7.0130061603046565
1768735321236,121,-7,-6.771866907813559,-7.465867587011989,-6.722765582115565
1768735321240,122,-6,-6.093676467004172,-6.724550336084193,-6.052159436481612
1768735321244,123,-5,-5.248002780502316,-5.422660409330941,-5.214265904686478
1768735321248,124,-4,-4.412042961643893,-4.718162812091078,-4.387099339144049
1768735321252,124,-4,-3.624303410870445,-4.570009773832584,-3.608369318589477
1768735321256,125,-3,-2.829042857226442,-3.6808511917975624,-2.8206383180531605
1768735321260,126,-2,-1.997259008842541,-2.63617701312527,-1.9947135247525836
1768735321264,127,-1,-1.1752980633376335,-1.4940708046726288,-1.1788037852280768
1768735321268,128,0,-0.4135573884801276,-0.7646192915752339,-0.4249429165421678
1768735321272,128,0,0.3197717214274065,-0.5582820270043538,0.2992349901999948
1768735321276,129,1,1.1204169410695697,0.243427189335593,1.091207670150266
1768735321280,130,2,2.037560494001381,1.3634911265827343,2.0007173190418226
1768735321284,131,3,2.992173620386276,2.501545606533064,2.9476300692358888
1768735321288,132,4,3.8088836948035816,3.1229911016529575,3.75551037868541
1768735321292,132,4,4.328556122057684,3.55138788845455,4.265545322671017
1768735321296,133,5,4.504636501797799,4.012499534980787,4.432473554653855
1768735321300,132,4,4.416372994743249,3.5710388154539956,4.336556817577581
1768735321304,132,4,4.204309417974743,3.2383806552597054,4.118081294993761
1768735321308,132,4,3.989353080304144,3.3085931994497386,3.896295695253652
1768735321312,132,4,3.837190133504268,3.3544342207162163,3.735156814526099
1768735321316,132,4,3.771681864240029,3.0726598652193875,3.658719342643294
1768735321320,131,3,3.7904657088718463,2.541070924725881,3.6668492415452714
1768735321324,132,4,3.861417144758596,3.12627570808735,3.729205204088804
1768735321328,132,4,3.934342972107374,3.447596227730692,3.794912430494613
1768735321332,132,4,3.988101025484446,3.085172773091548,3.8407792048973977
1768735321336,132,4,4.064749813294599,3.3283196721544632,3.9080225806703695
1768735321340,132,4,4.233261330430952,3.2036579193506713,4.066667525124945
1768735321344,132,4,4.505009642019968,3.4020865094802537,4.3292861063837
1768735321348,133,5,4.790846982864119,4.144615871535768,4.606429397318369
1768735321352,133,5,4.954023681389087,4.295244569800684,4.760185274645333
1768735321356,133,5,4.908092658886093,4.089267547097302,4.703973275227604
1768735321360,132,4,4.658642898086292,3.3602279393051067,4.444530054494194
1768735321364,132,4,4.258231456501108,3.1846313847175995,4.0350442718464725
1768735321368,132,4,3.7454550277440952,3.320805185919461,3.513292292585998
1768735321372,131,3,3.140089453145953,2.053452576760125,2.8981931078817693
1768735321376,130,2,2.481445655160253,1.2785307665130168,2.22947072313935
1768735321380,130,2,1.8527598366871705,1.1189324354251318,1.5911773210229296
1768735321384,129,1,1.3675255251491722,0.3257330319300642,1.0967129509421714
1768735321388,129,1,1.1293734023491635,0.1770689203523683,0.8490431501002853
1768735321392,129,1,1.1819914428737317,0.1016262041614852,0.8916353535385355
1768735321396,129,1,1.4730660323892455,0.2121783577948124,1.1723382261972162
1768735321400,130,2,1.8654598763534973,1.088666445919919,1.5539410083865786
1768735321404,130,2,2.2017060415017977,1.30715602874945,1.878946262398236
1768735321408,130,2,2.3761028576055874,1.1375543148540763,2.0423361080829334
1768735321412,130,2,2.3599942400414373,1.0893150657053354,2.0162949045636926
1768735321416,130,2,2.180420276904089,1.1703905083105886,1.82757248984718
1768735321420,130,2,1.8957464435446925,1.0467189980844631,1.533268481325313
1768735321424,129,1,1.5864792320415877,0.3109787947300793,1.213274484817456
1768735321428,129,1,1.3381996792701991,0.0606401959598148,0.9538854831862148
1768735321432,129,1,1.2067551485251569,0.136371342020438,0.8117931794304734
1768735321436,129,1,1.1941835460756962,0.042980337451185,0.7888339756530031
1768735321440,129,1,1.2592112488517306,0.120988777343105,0.8429135402977498
1768735321444,129,1,1.3466382726926849,0.1736507991301705,0.91860570554801
1768735321448,129,1,1.404614714148364,0.144609545291654,0.9647711434494904
1768735321452,129,1,1.384853242079902,-0.0003512134726539,0.9338850403178068
1768735321456,129,1,1.2493747287926251,0.1143395131837592,0.7878801663472125
1768735321460,129,1,0.9977491671272554,-0.0117988682071343,0.5256749727481052
1768735321464,128,0,0.6896853366305578,-0.7537003210886126,0.2067318694230052
1768735321468,128,0,0.4250552831116525,-0.9782043663516132,-0.0688081136315248
1768735321472,128,0,0.2851844041474186,-0.9372508116815256,-0.2196591164701169
1768735321476,128,0,0.2842487129357234,-1.007153046710464,-0.2322270457202542
1768735321480,128,0,0.3686943810666735,-0.950679477749353,-0.1603197913169026
1768735321484,128,0,0.4555925923290526,-0.8750059713133369,-0.0861453298262863
1768735321488,128,0,0.4766871569070694,-0.904205156359976,-0.076902659696658
1768735321492,128,0,0.4072403171508216,-1.0873519373514011,-0.1571339881000752
1768735321496,128,0,0.2762411208129868,-0.8949578454650593,-0.2987294487443523
1768735321500,128,0,0.1545351678790245,-1.1487912749986149,-0.4317303432387103
1768735321504,127,-1,0.1155347635282948,-1.707352893942811,-0.4827540746240113
1768735321508,128,0,0.1851746391791491,-1.1488539571777707,-0.4254530100309593
1768735321512,128,0,0.3228656159963294,-0.8881039860960145,-0.300245131806388
1768735321516,128,0,0.4544485540762912,-1.1579578183541288,-0.1811856611719123
1768735321520,128,0,0.526013579069113,-0.9508377429689164,-0.1218452078040946
1768735321524,128,0,0.5321747736318656,-0.9429652963106816,-0.1274332403486591
1768735321528,128,0,0.5057823220395821,-1.0104338931652408,-0.1654510396852753
1768735321532,128,0,0.4873023998247081,-1.0351267945296403,-0.1959235038127436
1768735321536,128,0,0.4968619021527498,-1.1193980209153622,-0.1988150121604366
1768735321540,128,0,0.5251298106511685,-1.002811116929381,-0.1831866755881337
1768735321544,128,0,0.5479337574939688,-0.980318751774429,-0.1729545950909335
1768735321548,128,0,0.5518958974627465,-1.0201741195420064,-0.1814107685711364
1768735321552,128,0,0.547162286405255,-1.0795451125350284,-0.198435133301584
1768735321556,128,0,0.5547796731364752,-1.1457818954337289,-0.2031293366778072
1768735321560,128,0,0.5822479410590784,-1.0210052904122668,-0.1882709762679796
1768735321564,128,0,0.6129856578963127,-1.027662574081752,-0.1706008574449793
1768735321568,128,0,0.6205905273547193,-1.037070475047407,-0.1762545826931401
1768735321572,128,0,0.5950577755211689,-1.0996356924933008,-0.2146748866635152
1768735321576,128,0,0.5601470859144373,-1.2164450758055283,-0.2618031365668215
1768735321580,128,0,0.5701478663901044,-0.9763436515210387,-0.2636537089754058
1768735321584,128,0,0.6857783645446343,-1.1516894363561252,-0.1601657091776167
1768735321588,128,0,0.938533018231559,-0.9728807089650752,0.0796382768659202
1768735321592,129,1,1.302961658507136,-0.1861166434888739,0.4302858671208183
1768735321596,129,1,1.6971488757769468,-0.2566930267169491,0.8104075465217293
1768735321600,129,1,2.016190840158684,0.0982601723824938,1.1158053049406211
1768735321604,130,2,2.185427487167356,0.6064981218649583,1.2720436155297632
1768735321608,129,1,2.208282534537179,0.3216848012927729,1.28226193996479
1768735321612,130,2,2.176770147559433,0.3531600141507733,1.2383002246019377
1768735321616,129,1,2.227052866951142,0.243486071964283,1.2764312864249798
