timestamp_ms,ecg_u8_raw,ecg_counts_raw_int,ecg_counts_filt_monitor,ecg_counts_filt_diagnostic,ecg_counts_filt_st
1769169107020,64,-64,-62.869959005236865,-64.23085576109332,-63.7520733387613
1769169107024,69,-59,-57.85386242893202,-58.39480612658728,-58.75213898469531
1769169107028,79,-49,-48.080180620231886,-48.85219906019154,-48.98412350981356
1769169107032,91,-37,-36.248636801141906,-37.143667120896545,-37.14391179972874
1769169107036,102,-26,-24.685013744194688,-25.68870755086762,-25.56158315460568
1769169107040,112,-16,-14.984291105704202,-15.988375297716662,-15.839011566243668
1769169107044,119,-9,-7.897636565767927,-8.481457396173179,-8.733022615923543
1769169107048,124,-4,-3.402102969715881,-3.932723438066429,-4.223297331482377
1769169107052,126,-2,-0.9280900755710796,-1.9713919609295203,-1.7393589656883155
1769169107056,127,-1,0.2951824822540621,-0.8349711269000251,-0.5074727298810453
1769169107060,128,0,0.903498665604686,0.1710036527672134,0.1103502110035118
1769169107064,128,0,1.2376757195611274,0.4067134188914116,0.4547817076755994
1769169107068,129,1,1.4166379839151475,1.1115799004713909,0.6435870986380665
1769169107072,129,1,1.518112504216128,1.06427626831585,0.75475416772695
1769169107076,128,0,1.6733519734464513,0.1157215890322326,0.9212704104026566
1769169107080,129,1,2.006700871912439,1.2812247487203576,1.268052940131036
1769169107084,130,2,2.528907801861674,2.277462170870286,1.8038503897672784
1769169107088,130,2,3.1214136969406185,2.226116996190949,2.407805623837012
1769169107092,131,3,3.6214009266317486,2.9957290667401812,2.9173939225901293
1769169107096,131,3,3.9171711166416254,3.195391024053783,3.223388425379988
1769169107100,131,3,3.988844810751824,3.2206828269083725,3.3076817792614803
1769169107104,131,3,3.899373335576901,3.352132484555362,3.232578426049035
1769169107108,131,3,3.764310872946388,3.1123854097056607,3.111568926455971
1769169107112,131,3,3.711057452063076,3.1790185711734873,3.0707554537625183
1769169107116,131,3,3.828310781211544,3.0076605770637466,3.199281245738761
1769169107120,131,3,4.1245683934451165,3.4433252109293724,3.50687364428824
1769169107124,132,4,4.531344758046813,4.133113565282935,3.9256455720581087
1769169107128,132,4,4.962083046399883,4.298611067095245,4.368866055254253
1769169107132,133,5,5.3836073556645605,5.069295742926361,4.803320996750499
1769169107136,133,5,5.836567181303047,5.085467410284825,5.269989919373431
1769169107140,133,5,6.389475514983958,5.440856918107906,5.837077265073864
1769169107144,135,7,7.078580342136309,7.074902084577928,6.539446475421931
1769169107148,135,7,7.890684929688044,7.413145496222892,7.36302453049473
1769169107152,136,8,8.785591099796603,7.933232702438161,8.26891004716219
1769169107156,137,9,9.719473483611672,9.293936840282052,9.215651382666788
1769169107160,138,10,10.660656418106695,10.20977719450093,10.17220216350181
1769169107164,139,11,11.610915443308947,11.312342552886244,11.138355204300163
1769169107168,140,12,12.612632282494058,12.202612639323972,12.154026680935456
1769169107172,141,13,13.702127229319018,13.123528411804816,13.255068025138865
1769169107176,142,14,14.82226108433469,14.196531559607134,14.386031792908923
1769169107180,143,15,15.780611767842757,15.240301771503812,15.356435598036914
1769169107184,144,16,16.33080219028717,16.35437497335419,15.920487375481777
1769169107188,144,16,16.342703103110225,16.108020122616413,15.947441309691635
1769169107192,143,15,15.91984959937983,15.286437807899883,15.53994043857433
1769169107196,143,15,15.347427771382714,15.02545695834936,14.982368532707632
1769169107200,142,14,14.900187242013622,14.436888652411785,14.548855978279883
1769169107204,142,14,14.661156645228946,14.15400322543854,14.322404742489423
1769169107208,142,14,14.489772737042896,14.333945619149972,14.163222483101665
1769169107212,142,14,14.15535875213599,14.081873498700212,13.84170577114522
1769169107216,141,13,13.521620901063352,13.24509056698689,13.222160230095184
1769169107220,140,12,12.631496897822382,12.228711498424556,12.34720664963226
1769169107224,139,11,11.6310669169462,11.346240965944444,11.361898052990812
1769169107228,138,10,10.60990808786742,10.18546215140789,10.354827898139964
1769169107232,137,9,9.502709650320812,9.226028538390016,9.26041621453091
1769169107236,136,8,8.141551605016307,8.166434165444969,7.91127752429985
1769169107240,134,6,6.42030530290295,6.258894385431116,6.202371100588406
1769169107244,132,4,4.434991955996498,4.368364822912993,4.23103318104513
1769169107248,130,2,2.478776929928151,2.126870498060102,2.2912128207998395
1769169107252,128,0,0.8905607518760039,0.3576434922533534,0.7208870511543687
1769169107256,128,0,-0.1235603274919152,0.0258739965472131,-0.2766804643012592
1769169107260,127,-1,-0.5692155456547368,-0.5600016936151753,-0.70981562924684
1769169107264,127,-1,-0.6201666808090711,-0.83781376106651,-0.7519585202774529
1769169107268,127,-1,-0.5228086061707389,-0.6276746801120887,-0.645727301265527
1769169107272,127,-1,-0.5099407537501417,-0.8898220196167353,-0.6197968837479653
1769169107276,127,-1,-0.7230889451799785,-0.6948447861833731,-0.8149994696769836
1769169107280,127,-1,-1.1367673447996172,-0.8247305964263274,-1.209181151405652
1769169107284,126,-2,-1.5383765447921895,-1.5889333064056252,-1.593909331530269
1769169107288,126,-2,-1.6387969168218517,-1.8335638256604925,-1.6814768050652895
1769169107292,126,-2,-1.2912951018868242,-1.6960690744560665,-1.323394537077667
1769169107296,127,-1,-0.6561818060635494,-0.8342032662511716,-0.6775436937238316
1769169107300,128,0,-0.1386917585255285,0.3058222253702408,-0.1480529457877086
1769169107304,128,0,-0.1083106504163466,0.3108573518734363,-0.1041701882034806
1769169107308,127,-1,-0.6193016586146651,-0.7506071622364494,-0.5997695055432244
1769169107312,126,-2,-1.3674275659190074,-1.7441842037076782,-1.330823074940423
1769169107316,126,-2,-1.908844200368908,-1.7951786877244695,-1.85542180015246
1769169107320,126,-2,-1.9514323974003844,-1.6837616661368635,-1.8838009465518195
1769169107324,126,-2,-1.507413266098777,-1.6956163777744593,-1.428354096305747
1769169107328,127,-1,-0.8353603652093791,-0.7207437215312749,-0.7455226827522727
1769169107332,128,0,-0.2430823026682276,0.2325521652026531,-0.141208930078134
1769169107336,128,0,0.1071982791817978,0.2256994869814895,0.2225125189991871
1769169107340,128,0,0.2601583932123517,0.332142035779528,0.3897311056924821
1769169107344,128,0,0.3620179867361464,0.2937192807812052,0.5065290279260579
1769169107348,128,0,0.4945272962723979,0.3075452937980549,0.65438013763168
1769169107352,129,1,0.6081352630699242,1.2158203187795618,0.7824660235937502
1769169107356,129,1,0.6080125685225142,1.2544428163946506,0.7947536051638432
1769169107360,128,0,0.4794779734985326,0.3316794323131976,0.6772402327053946
1769169107364,128,0,0.3018103103407905,0.3014587959446177,0.5113598858657078
1769169107368,128,0,0.1407638006759084,0.3160304689042261,0.3640123027035824
1769169107372,128,0,-0.0440433876496828,0.2017053782666736,0.193769315321907
1769169107376,128,0,-0.3665731082871588,0.3145774009364923,-0.1149702646568797
1769169107380,127,-1,-0.8971091322565412,-0.7180807426154459,-0.6328004613368572
1769169107384,126,-2,-1.589311290684727,-1.6412010884899813,-1.3126005990386247
1769169107388,126,-2,-2.320651925616752,-1.7234161263201258,-2.0313839825167226
1769169107392,125,-3,-2.9985834731118333,-2.776299249343245,-2.6967143266803175
1769169107396,124,-4,-3.63533472765069,-3.6441343752540303,-3.320812027616597
1769169107400,124,-4,-4.329528356837246,-3.752817290337018,-4.002247341831698
1769169107404,123,-5,-5.165275989262511,-4.594879618731409,-4.825509343265191
1769169107408,122,-6,-6.110515689840555,-5.7605643206292125,-5.758827985061241
1769169107412,121,-7,-7.012355237018231,-6.752765466999122,-6.6487396054993635
1769169107416,120,-8,-7.705069354248627,-7.599191098563915,-7.328682469692608
1769169107420,120,-8,-8.130444714600495,-7.818624966349938,-7.740709374681517
1769169107424,120,-8,-8.352685854069584,-7.465265981627823,-7.950353339776367
1769169107428,120,-8,-8.463456871900949,-7.931694953672127,-8.050015862746104
1769169107432,119,-9,-8.489029922778883,-8.543984681203767,-8.065216978275851
1769169107436,120,-8,-8.393895437172532,-7.79083611370193,-7.959245391319042
1769169107440,120,-8,-8.156579548120503,-7.616157864291011,-7.710112804288805
1769169107444,120,-8,-7.824766030841332,-7.629074696285243,-7.365488026043188
1769169107448,121,-7,-7.497390775754508,-6.783542851634279,-7.024470009999074
1769169107452,121,-7,-7.257989525622556,-6.663600934640383,-6.771493028905333
1769169107456,121,-7,-7.121874055096962,-6.668329069724611,-6.623915809305997
1769169107460,121,-7,-7.038022033908766,-6.701520743529355,-6.532919466093847
1769169107464,121,-7,-6.920486813494255,-6.539588316048427,-6.412576016913041
1769169107468,122,-6,-6.636897247207226,-5.854586446321463,-6.12630966451275
1769169107472,122,-6,-5.917696031929566,-5.587609308015752,-5.397282211730331
1769169107476,124,-4,-4.249112919471649,-3.7121730368723407,-3.706872397471904
1769169107480,128,0,-0.8927687676917699,0.3509785025491274,-0.3201678588024232
1769169107484,133,5,4.827920398531534,5.459478794828387,5.427794718892984
1769169107488,141,13,12.9590667355253,13.110991347062486,13.570984847985343
1769169107492,150,22,22.2974495612082,22.53185221200234,22.902657660751895
1769169107496,158,30,30.18364507287878,30.10773436731435,30.771481069919957
1769169107500,161,33,33.125248851135765,33.60708492660087,33.69927001991179
1769169107504,158,30,28.226411631862256,30.15018135507404,28.801532226458413
1769169107508,144,16,14.775677677177434,16.413579979770674,15.369991168995108
1769169107512,123,-5,-4.979354355094241,-4.779512434588423,-4.352416971186376
1769169107516,101,-27,-26.48232834428339,-26.59026761460805,-25.819039035613716
1769169107520,83,-45,-44.66722848689083,-44.6111469297168,-43.97530957725705
1769169107524,72,-56,-55.89148959711704,-55.578715384217304,-55.187404761853955
1769169107528,70,-58,-58.98222757889059,-57.76330702625877,-58.283762470228645
1769169107532,74,-54,-55.04574546358012,-53.57380128071754,-54.36298389263669
1769169107536,82,-46,-46.46278193052707,-45.81249240714457,-45.79285370800568
1769169107540,92,-36,-35.80973752162745,-35.38618778920979,-35.13921202876017
1769169107544,103,-25,-25.19788297767647,-24.814197908534627,-24.511720034194543
1769169107548,112,-16,-16.0554640861957,-15.522443890024572,-15.3463538743851
1769169107552,120,-8,-9.123556050339673,-7.775142940596295,-8.394867300474596
1769169107556,124,-4,-4.512191073336713,-3.668579277753108,-3.772933678900838
1769169107560,126,-2,-1.8391560996425775,-1.4766964924328585,-1.0960621312739591
1769169107564,128,0,-0.4925034610071157,0.2398932590668197,0.2538238740971065
1769169107568,128,0,0.0773884075448831,0.5056455713785972,0.8300066473048222
1769169107572,129,1,0.2081213034526414,1.1966235749693377,0.968849562659792
1769169107576,129,1,0.0823046338845179,1.4012672345370552,0.8497989648404068
1769169107580,128,0,-0.1300088124042653,0.4386394894563729,0.6421889220580548
1769169107584,128,0,-0.2230214328821991,0.3354224404581299,0.5542401743419634
1769169107588,128,0,-0.0448137376250601,0.4606365520555919,0.7399305332740005
1769169107592,129,1,0.4037491115366762,1.2331028382513851,1.19707816534984
1769169107596,130,2,0.9948073939377706,2.434063576347359,1.794710975475275
1769169107600,130,2,1.5977631051081786,2.36574556194782,2.4014500300653765
1769169107604,130,2,2.1593468627965855,2.431589266577564,2.966568165080521
1769169107608,131,3,2.671070899412284,3.397140433820865,3.4839374904978166
1769169107612,132,4,3.1075151108591945,4.279640364080392,3.927394325016015
1769169107616,132,4,3.4359223274866846,4.483896996534649,4.261939031465128
1769169107620,132,4,3.67478396733697,4.2446889084637025,4.505510125634725
1769169107624,132,4,3.9082757663126753,4.628085162968354,4.743485196960967
1769169107628,133,5,4.23173932298204,5.154875180002929,5.071785514772465
1769169107632,133,5,4.690171876635411,5.588344849820316,5.534581371001701
1769169107636,134,6,5.263777520134318,6.205061973609239,6.111459034640236
1769169107640,134,6,5.89511502621636,6.509614655221593,6.745690656496253
1769169107644,135,7,6.529339572099781,7.402407549408802,7.383524042435395
1769169107648,136,8,7.151448405063396,8.335984843881507,8.010120200878069
1769169107652,136,8,7.804161678718947,8.499344122233408,8.667486917629558
1769169107656,137,9,8.564166902148004,9.276578997645924,9.431479777901409
1769169107660,138,10,9.481736042567023,10.486254396337914,10.351822633753574
1769169107664,139,11,10.528514955545734,11.39886323772748,11.40017758405055
1769169107668,140,12,11.596179342500482,12.354226010749844,12.469047784000043
1769169107672,141,13,12.5480149568125,13.53636913872431,13.422880281769588
1769169107676,142,14,13.290618745916884,14.239033710944302,14.168657548040589
1769169107680,142,14,13.822135822241846,14.561559650895934,14.703607257650788
1769169107684,143,15,14.224372256998963,15.297835003493349,15.108171659366835
1769169107688,143,15,14.597151591808547,15.470012656895918,15.481854507537744
1769169107692,143,15,14.973889486128472,15.481736368408578,15.85914305580151
1769169107696,144,16,15.283593304671816,16.27966539947428,16.170101882396246
1769169107700,144,16,15.402743241409834,16.596832360497082,16.290917915905098
1769169107704,144,16,15.261919291246771,16.174611753035673,16.151088028381153
1769169107708,143,15,14.9053713512295,15.694923645687082,15.794531363759909
1769169107712,143,15,14.437885252149949,15.20868177918158,15.3268396127902
1769169107716,142,14,13.910182701201872,14.648430399479748,14.799571942531315
1769169107720,142,14,13.263111779597818,14.197447757797166,14.153371762424758
1769169107724,141,13,12.392631687086018,13.59459666543448,13.28322923924489
1769169107728,140,12,11.27042446550595,12.288589571435995,12.160360282948798
1769169107732,138,10,9.991888687457571,10.628180792726605,10.880740693883515
1769169107736,137,9,8.697814030884402,9.286702126578582,9.58578748121063
1769169107740,136,8,7.452871958328332,8.526973715588058,8.339879081179538
1769169107744,135,7,6.208754145526238,7.3280511457835535,7.094140612390606
1769169107748,133,5,4.885684048300773,5.506489223694432,5.769091778242672
1769169107752,132,4,3.489898805418574,4.5135959149979,4.37183894722319
1769169107756,131,3,2.162672950497204,3.3445308072007083,3.0439332507419197
1769169107760,129,1,1.119622472228695,1.5546635536890512,2.0002869110998738
1769169107764,129,1,0.5229249472379989,1.2417439110797266,1.4019162544674846
1769169107768,129,1,0.3830549922969171,1.6731083850574169,1.2585826032436032
1769169107772,129,1,0.5647513754422349,1.3353760569659792,1.4356557314362617
1769169107776,129,1,0.8835819987718376,1.5615955220327902,1.7504724316846227
1769169107780,130,2,1.2140038063438443,2.3614390132440417,2.078706649942195
1769169107784,130,2,1.5393642787831363,2.3875632129215263,2.403050952766364
1769169107788,130,2,1.9204682240209117,2.6228160754376133,2.782447150078866
1769169107792,131,3,2.405945831815244,3.3311723753307145,3.264188433155428
1769169107796,131,3,2.947632804681243,3.6747021243942943,3.800289494632739
1769169107800,132,4,3.3910424544471622,4.181520013502886,4.237608681171706
1769169107804,132,4,3.562219832119372,4.63234499203854,4.403662916616201
1769169107808,132,4,3.395231686422029,4.356486381365826,4.233246325526361
1769169107812,131,3,3.0017422484741068,3.6488980250050376,3.8375678501416695
1769169107816,131,3,2.6211087592201037,3.373020684328251,3.4544320703510616
1769169107820,131,3,2.4809668072488367,3.486680530518914,3.3098549731643643
1769169107824,131,3,2.6618710308019766,3.348652832590391,3.4842049942771776
1769169107828,131,3,3.050647615460926,3.65507308884374,3.865706666048194
1769169107832,132,4,3.4128880314055556,4.389168810579385,4.2212923987718165
1769169107836,132,4,3.5456587356110236,4.642672922994947,4.348143105230203
1769169107840,132,4,3.40727109387698,4.232689430864565,4.204258012219286
1769169107844,131,3,3.1206385414380304,3.593901926233466,3.91277621377072
1769169107848,131,3,2.84941050810139,3.458770922808439,3.637326574467218
1769169107852,131,3,2.6662000840558124,3.574207704002182,3.449152067967161
1769169107856,131,3,2.5311856633224026,3.541366546421621,3.3067484003630576
1769169107860,131,3,2.373012872694092,3.2757582340103237,3.1391143393463343
1769169107864,130,2,2.1632717311423786,2.631392219912499,2.9204721914245435
1769169107868,130,2,1.9146229980006035,2.366211812522395,2.665565285647128
1769169107872,130,2,1.6423005861068858,2.7472576146509553,2.3887151556485007
1769169107876,130,2,1.3569742114667045,2.3755792558484536,2.0978736253328476
1769169107880,129,1,1.0813182690713845,1.4462762795306268,1.8143092687998248
1769169107884,129,1,0.8342951422240015,1.5068049983055092,1.5579222500368974
1769169107888,129,1,0.5810891562184151,1.4381855790035387,1.2955593209910894
1769169107892,128,0,0.2122616462424251,0.7722561396389318,0.9184934960608044
1769169107896,128,0,-0.4039012400555015,0.3263553627538257,0.2945402147662104
1769169107900,127,-1,-1.3258188244272286,-0.4446484765351122,-0.6355268017793096
1769169107904,126,-2,-2.4775326562767273,-1.6330205366507058,-1.7957980823064257
1769169107908,124,-4,-3.6814620295247016,-3.394031412417595,-3.007874464719471
1769169107912,123,-5,-4.764987226284848,-4.379894319720549,-4.098844501529358
1769169107916,123,-5,-5.646756568046662,-4.466632933565425,-4.988565852313314
1769169107920,122,-6,-6.332391025231925,-5.652766631585984,-5.683990039296011
1769169107924,121,-7,-6.853934363589605,-6.396520021449746,-6.216628087558276
1769169107928,121,-7,-7.236543715672445,-6.650500044529613,-6.609742319718432
1769169107932,120,-8,-7.511569181922445,-7.074942564955826,-6.8937928093867376
1769169107936,121,-7,-7.724400138425854,-6.75923508918452,-7.115161357327895
1769169107940,120,-8,-7.906313180414983,-7.307896696882942,-7.306455392026939
1769169107944,120,-8,-8.043295130860972,-7.767194721590983,-7.453776125416977
1769169107948,120,-8,-8.08380084943888,-7.2539669995743745,-7.50468329326091
1769169107952,120,-8,-7.980746571589433,-7.45887452012286,-7.411249648244353
1769169107956,120,-8,-7.731832316460135,-7.346798534049152,-7.17101678433877
1769169107960,121,-7,-7.392806277560744,-6.655480681554714,-6.840456620473635
1769169107964,121,-7,-7.061426087126929,-6.473992555842502,-6.518821449298496
1769169107968,121,-7,-6.843228419338481,-6.480442943317305,-6.313245429585524
1769169107972,121,-7,-6.805892010691323,-6.279419238241106,-6.291986028670423
1769169107976,121,-7,-6.91152360417079,-6.421552746522975,-6.415651255296173
1769169107980,121,-7,-6.91689052129756,-6.611661855011159,-6.437154496307709
1769169107984,122,-6,-6.275315149784442,-5.46820621923046,-5.80489707391727
1769169107988,124,-4,-4.136714302640126,-3.502892452041257,-3.665852486196066
1769169107992,128,0,0.4385592741435817,0.7598137087694252,0.916987486991102
1769169107996,136,8,8.016005263311838,8.633666069500153,8.49963949218286
1769169108000,146,18,18.20277357386873,18.2940484752696,18.677157977235904
1769169108004,157,29,29.226539976200705,29.71663243329957,29.671499670144595
1769169108008,166,38,37.99802702691591,38.233834455490715,38.40068778461218
1769169108012,167,39,40.85636266047618,40.07445659468398,41.220643170069465
1769169108016,164,36,34.91973824723169,36.29420641878061,35.26385746750458
1769169108020,149,21,19.566318729037754,21.641089285066247,19.911286982705448
1769169108024,125,-3,-2.7554140098244444,-2.645608975988673,-2.3960449749394384
1769169108028,100,-28,-27.060538755907245,-27.40495367046349,-26.68442886966385
1769169108032,79,-49,-47.6424323446152,-48.213652581701695,-47.25798466603945
1769169108036,67,-61,-60.241060292413096,-60.377914844225515,-59.864791397530915
1769169108040,65,-63,-63.39626198583034,-62.52123587138627,-63.04683195145732
1769169108044,70,-58,-58.406942070627494,-57.49276212587157,-58.09627304120395
1769169108048,80,-48,-48.21300162025571,-47.53015583175972,-47.939511568109126
1769169108052,91,-37,-36.02410869339698,-36.119028465591896,-35.77378974924609
1769169108056,103,-25,-24.376626994358524,-24.52233095942381,-24.132181402119976
1769169108060,113,-15,-14.798923204742168,-14.281648182639238,-14.550331589124214
1769169108064,120,-8,-7.8829200298012045,-7.786184701862407,-7.631714735396807
1769169108068,124,-4,-3.5081636378331926,-3.1920478141457727,-3.2634067735630534
1769169108072,127,-1,-1.1032333599222277,-0.4855325284902961,-0.8736550065671632
1769169108076,127,-1,0.0696439255026835,-0.167089113421532,0.2810700674560876
1769169108080,128,0,0.6411018958925725,0.4884555719526733,0.8366891608495828
1769169108084,129,1,0.9714254731108234,1.399040521275959,1.1540698077801828
1769169108088,129,1,1.1740357623707225,1.7307694394425288,1.34368263069547
1769169108092,129,1,1.2658365189155596,1.490221884689496,1.4206905142715225
1769169108096,128,0,1.285138419946234,0.9547167558591044,1.4251998387275369
1769169108100,129,1,1.2909631882367432,1.343002847118559,1.4188764667248486
1769169108104,129,1,1.3119525727926935,1.630984598716131,1.430145096811786
1769169108108,129,1,1.3502505211344706,1.4841700394610773,1.4581226785007828
1769169108112,129,1,1.4382017861463572,1.740444788874009,1.5327707894491538
1769169108116,129,1,1.654053502793437,1.723494298519666,1.7332342784880268
1769169108120,129,1,2.0474939118977487,1.5959954900719968,2.1121918126173576
1769169108124,130,2,2.5508310220031323,2.4298378420530486,2.603410537185344
1769169108128,131,3,2.998915019219534,3.6988650163064904,3.0401038821093347
1769169108132,131,3,3.2685262360971867,3.515449165930233,3.296886179285154
1769169108136,130,2,3.394786394773582,2.975426308046494,3.409221266548254
1769169108140,131,3,3.531685947212794,3.3588617152922224,3.533129353607118
1769169108144,131,3,3.801331852819767,3.705870692262664,3.79126247660982
1769169108148,132,4,4.19789961499743,4.45231288352043,4.176102482106174
1769169108152,132,4,4.633142942800222,4.753260911657034,4.5979393111793305
1769169108156,132,4,5.049072495675142,4.7790805618189065,4.999525494199741
1769169108160,133,5,5.472860959097709,5.533702530144172,5.4099336899520845
1769169108164,133,5,5.976792329744095,5.6178184215015525,5.902092096239486
1769169108168,134,6,6.607682847376024,6.492593888566071,6.521546615789717
1769169108172,135,7,7.360163330077556,7.809568207238822,7.261535977733486
1769169108176,135,7,8.2006436262961,7.657038956228702,8.088735114457826
1769169108180,136,8,9.09780480664382,8.7356534760645,8.973079836998586
1769169108184,138,10,10.033416740546029,10.410922214413237,9.896653690445811
1769169108188,138,10,11.000564710806067,10.724466963139902,10.851736340568204
1769169108192,139,11,11.990579490758336,11.616545682191385,11.829209970841395
1769169108196,140,12,12.96558236860516,12.831844555034484,12.791618587374955
1769169108200,141,13,13.84229551846454,13.612228798707596,13.656091808506469
1769169108204,142,14,14.518451523443275,14.519342734731202,14.320255418102798
1769169108208,142,14,14.92647726623847,14.696832856200606,14.716308746233125
1769169108212,142,14,15.063585491893068,14.593637661336835,14.841378997415385
1769169108216,142,14,14.972947174885562,14.937197162995163,14.738597717803234
1769169108220,142,14,14.699657677810045,14.458538199722105,14.453209260817257
1769169108224,141,13,14.261136920328836,13.744384240079135,14.003059744472749
1769169108228,141,13,13.653691770600965,13.494818545354445,13.384589119700715
1769169108232,140,12,12.889008048672563,12.78243205064924,12.608913581165398
1769169108236,139,11,12.023956956010188,11.813846656354247,11.732333933979374
1769169108240,138,10,11.139606878785052,10.530496073937636,10.836121134671007
1769169108244,137,9,10.274129394832052,9.769501458173009,9.95896187874878
1769169108248,137,9,9.378105984214509,9.442287612648093,9.051476836439488
1769169108252,135,7,8.350102415041087,7.892034667000449,8.012055751937226
1769169108256,134,6,7.126802687815408,6.696083285460249,6.777625289517667
1769169108260,133,5,5.7471007951324165,5.665135751582797,5.387498853308699
1769169108264,131,3,4.339131914776903,3.672436602144107,3.9696614457304857
1769169108268,130,2,3.048077431770561,2.5403586525158977,2.668464795107508
1769169108272,129,1,1.9653776724417191,1.8588593825011408,1.574722070365172
1769169108276,128,0,1.1074915449888003,0.6947497058117038,0.7054528014766789
1769169108280,127,-1,0.4442336291307938,-0.2719099860204901,0.0317762443588242
1769169108284,127,-1,-0.0540135941011827,-0.3998673195399281,-0.4756221018057376
1769169108288,127,-1,-0.3801319228901536,-0.347169292757959,-0.8108644478081181
1769169108292,126,-2,-0.4940554049189734,-1.2238789130077603,-0.9349614301061004
1769169108296,126,-2,-0.3812718695880517,-1.2317996484867542,-0.8329170273943718
1769169108300,127,-1,-0.1225056643863524,-0.2960110236598296,-0.5842935655157467
1769169108304,127,-1,0.1091567143227116,-0.3919439140823903,-0.3618551502590926
1769169108308,127,-1,0.1480089768249151,-0.2942627280209086,-0.3319145127578429
1769169108312,127,-1,-0.0487382281321224,-0.2700335897274417,-0.5378256281942473
1769169108316,126,-2,-0.3764680391846262,-1.1725809236852145,-0.8748584204359333
1769169108320,126,-2,-0.6730041789004222,-1.3456889953635711,-1.1803218719607125
1769169108324,126,-2,-0.8389089631309332,-1.30661986239149,-1.3545529180341478
1769169108328,126,-2,-0.8788642053179752,-1.370058113341306,-1.402491251016615
1769169108332,126,-2,-0.8379707453668475,-1.125033810420781,-1.3695319522257168
1769169108336,126,-2,-0.7136553842651789,-1.355718760618445,-1.2531569333042114
1769169108340,126,-2,-0.4429432660348911,-1.1156518605828014,-0.9905055734781744
1769169108344,127,-1,0.018611923228327,-0.5370598462753772,-0.5374707713016436
1769169108348,127,-1,0.6052791833111062,-0.1036250934418995,0.0401903777135338
1769169108352,128,0,1.1316499622313263,0.6640964818477028,0.5578644276110263
1769169108356,128,0,1.3909956318854344,0.8211394930024823,0.8098746515850626
1769169108360,128,0,1.2971235495175353,0.765148644661033,0.7101409003809859
1769169108364,128,0,0.9621952555709968,0.5440835287891972,0.3697736990132892
1769169108368,127,-1,0.6373594737364621,-0.0980616036537397,0.0388949976254151
1769169108372,127,-1,0.5406979062236621,-0.3477996413861618,-0.0644481001585994
1769169108376,127,-1,0.6969006315271005,-0.1295570093529972,0.0848325350613138
1769169108380,128,0,0.92423377606536,0.7153386938101783,0.3049519909484097
1769169108384,128,0,0.9857376269204416,0.6143371823176298,0.3589390322663037
1769169108388,127,-1,0.7690302102716406,-0.1287710469350168,0.1353757273348552
1769169108392,127,-1,0.3359002591402547,-0.2963018874949008,-0.3027074984029028
1769169108396,126,-2,-0.1796945765815454,-1.1751707168429886,-0.8216402142876169
1769169108400,126,-2,-0.7029281871044177,-1.2248441632443678,-1.3485990141643862
1769169108404,126,-2,-1.2573852620059638,-1.420549077082251,-1.908672929157344
1769169108408,124,-4,-1.9091700649777468,-3.04436849646944,-2.5671332400125157
1769169108412,124,-4,-2.697773753709538,-3.382096018142283,-3.3614445953135617
1769169108416,123,-5,-3.6098921620779807,-4.046439051026418,-4.277635016773677
1769169108420,122,-6,-4.589316196892342,-5.403730436429483,-5.260597496272122
1769169108424,121,-7,-5.561641248689657,-6.136626842239064,-6.236895057507822
1769169108428,120,-8,-6.4645564613449835,-7.353635962947965,-7.143887656302018
1769169108432,119,-9,-7.265914146730367,-8.008651796888016,-7.948770222748223
1769169108436,119,-9,-7.947180685052267,-8.43284005594232,-8.633153548122662
1769169108440,118,-10,-8.465878874024739,-9.02014675239444,-9.154912715689813
1769169108444,118,-10,-8.752074813517215,-9.442356991871554,-9.443650416235888
1769169108448,117,-11,-8.768619499014637,-10.071748133951385,-9.461876081476582
1769169108452,118,-10,-8.578668396309464,-9.202031027052524,-9.274265129240032
1769169108456,119,-9,-8.331392801564967,-8.311263161179163,-9.032070206604166
1769169108460,118,-10,-8.16729118434996,-9.049160107157467,-8.874521009247422
1769169108464,118,-10,-8.142557290474674,-9.453179019172032,-8.852712113322546
1769169108468,118,-10,-8.229946362075562,-8.96122214913188,-8.935938944839073
1769169108472,119,-9,-8.345213620428268,-8.36569912217889,-9.043276092484232
1769169108476,118,-10,-8.356484886991602,-9.077105825608715,-9.051118988703603
1769169108480,118,-10,-8.125673600988986,-9.305512381575456,-8.827544367916127
1769169108484,119,-9,-7.610771666732891,-8.135145102329961,-8.328945758693528
1769169108488,119,-9,-6.916678665245182,-8.26819664726708,-7.650808072609526
1769169108492,120,-8,-6.131601365989928,-7.0501367917906546,-6.869693869001926
1769169108496,123,-5,-4.96107486049563,-4.345089493480696,-5.685184624078924
1769169108500,124,-4,-2.460679856494021,-3.0524025533693737,-3.157725594167484
1769169108504,129,1,2.713483816003647,1.6742340911717797,2.042242695125958
1769169108508,138,10,11.393910647289976,10.92941421824652,10.731292391256872
1769169108512,148,20,22.74507779496906,20.79122392832789,22.06664930594772
1769169108516,159,31,33.68585116065637,31.82235835054796,32.97387567250391
1769169108520,167,39,39.587554515051366,39.8398670065413,38.8410739012856
1769169108524,164,36,36.2233473002578,36.70998438719214,35.458968128007164
1769169108528,149,21,22.02716775925416,21.929487962899227,21.27147466134176
1769169108532,126,-2,-0.6924192984586961,-1.2909979840722956,-1.4150235967673366
1769169108536,99,-29,-26.410830124706536,-28.05539617497323,-27.09001156218326
1769169108540,77,-51,-48.605748562538146,-50.217651352757194,-49.25095891093188
1769169108544,64,-64,-62.30774317664368,-63.13401799138709,-62.943633848492006
1769169108548,61,-67,-65.68291464714947,-66.1147571698794,-66.33610607089673
1769169108552,67,-61,-60.06186698115695,-60.23084164881191,-60.74670684088131
1769169108556,78,-50,-48.74751716125212,-49.08814246703889,-49.45949871383759
1769169108560,91,-37,-35.44900791252799,-36.22530645665956,-36.16939437054957
1769169108564,103,-25,-23.09841495751867,-24.09507743089383,-23.80628741551863
1769169108568,113,-15,-13.35195442864231,-14.16853686476659,-14.03564288280796
1769169108572,120,-8,-6.656265974143771,-7.169495821197041,-7.317339191176673
1769169108576,124,-4,-2.606727724955059,-3.155087314726392,-3.2552676626600596
1769169108580,126,-2,-0.3880594318806549,-1.1466232025094745,-1.0340509221032104
1769169108584,127,-1,0.8222206861068013,-0.1260230433617415,0.1745495017828169
1769169108588,128,0,1.5832743455070446,0.8955949120206033,0.9351231131032494
1769169108592,129,1,2.126181626757569,1.7991831959376603,1.480547798121108
1769169108596,129,1,2.4732718696157283,1.8856534137459884,1.83245509098713
1769169108600,129,1,2.612795271869936,1.8307729657217904,1.9783014552588791
1769169108604,129,1,2.5953653672833985,1.9267373954633011,1.9683419477242603
1769169108608,129,1,2.519380532694392,1.8714390351160652,1.9002806433424255
1769169108612,129,1,2.467116022622971,1.8460216691014677,1.8553818648583775
1769169108616,129,1,2.46373281038056,1.8577205943271435,1.858430205011537
1769169108620,129,1,2.48478349688782,1.868593196999804,1.8856594060981244
1769169108624,129,1,2.494164254340181,1.9231345323993403,1.9019714132188963
1769169108628,129,1,2.4792763567717517,1.8986537001531885,1.8950697155751033
1769169108632,129,1,2.4587691966876837,1.843556832428068,1.882951544918305
1769169108636,129,1,2.4600503248802603,1.8744909762542044,1.89211899804752
1769169108640,129,1,2.4866894125304047,1.869897261706716,1.9259325292872052
1769169108644,129,1,2.5055136608009687,1.942282808719164,1.9520063212727037
1769169108648,129,1,2.471131851807331,1.9239913813887457,1.9260345691324183
1769169108652,129,1,2.377442730577269,1.818641531253281,1.842213413021927
1769169108656,129,1,2.298573159748655,1.9374707510547904,1.773832329578626
1769169108660,129,1,2.376518339571422,1.8061838245650677,1.861715319300334
1769169108664,129,1,2.7444154707903783,2.033247503762257,2.2385230907868627
1769169108668,130,2,3.431874238332762,2.890479042484751,2.934265334986359
1769169108672,131,3,4.332240017272192,3.821081999882264,3.843057588185256
1769169108676,132,4,5.272536281522235,5.030680821407804,4.792675077023973
1769169108680,133,5,6.13753591823801,5.635068041139777,5.668402887427394
1769169108684,133,5,6.947188596844834,6.321367045549788,6.490030670020389
1769169108688,135,7,7.825293732634307,7.548415796017203,7.380318359235162
1769169108692,135,7,8.885662499329857,8.243908636148825,8.451884630383361
1769169108696,137,9,10.120997935145326,9.600771133575588,9.69718359991684
1769169108700,138,10,11.374579816017851,11.080457579768746,10.960354638956618
1769169108704,139,11,12.418432833651655,11.93482535555759,12.014481343322313
1769169108708,140,12,13.087044959601158,12.895391270847954,12.694455639264868
1769169108712,140,12,13.371503440382993,13.003133043742649,12.991137440422817
1769169108716,140,12,13.405262564321124,12.76486361294064,13.03766480255691
1769169108720,140,12,13.35716847524906,13.018574266565109,13.002725433564684
1769169108724,140,12,13.320498405491469,12.969033918454816,12.979359067546971
1769169108728,140,12,13.281728765056169,12.90492871262423,12.953465749100042
1769169108732,140,12,13.17592800256906,13.046207299058844,12.859430549955189
1769169108736,140,12,12.961012119251835,12.67933508056576,12.65520879881495
1769169108740,139,11,12.636560313899787,12.188117432746704,12.34177399608675
1769169108744,139,11,12.198425112359956,11.766038379874145,11.916894230688506
1769169108748,138,10,11.59698572883932,11.167855303265291,11.331289211728466
1769169108752,138,10,10.77026032875658,10.81537062497231,10.520795960476866
1769169108756,137,9,9.73185226152662,9.883606685986871,9.496321477597068
1769169108760,135,7,8.60353965291297,8.078695506044436,8.379422493729336
1769169108764,134,6,7.521474598311889,6.790211721801379,7.308660966391206
1769169108768,133,5,6.499584195721441,6.292706241355537,6.300099733718238
1769169108772,133,5,5.416675291082025,5.598168904626587,5.232399437658983
1769169108776,131,3,4.172362337898873,4.234525371443996,4.003928815808701
1769169108780,130,2,2.857428070251309,2.6623325546313468,2.704999599666535
1769169108784,128,0,1.7482306424145262,1.2656275327609583,1.61194918470408
1769169108788,128,0,1.1090305920292367,0.8279601435530317,0.9881276127491522
1769169108792,128,0,0.9743344595419828,1.0763825485303746,0.8667573647808069
1769169108796,128,0,1.096821969307466,0.8450676145578742,1.0008673808328856
1769169108800,128,0,1.1019405826512334,0.9905426319533288,1.018303203684486
1769169108804,128,0,0.7370225844599152,1.0415275281824503,0.6687654398079115
1769169108808,127,-1,0.0437772056705947,-0.0450073679045439,-0.005821247505592
1769169108812,126,-2,-0.666759145104519,-0.9114775707568644,-0.696512130319024
1769169108816,126,-2,-1.0253218493200476,-1.2208002321619515,-1.036973890773326
1769169108820,126,-2,-0.854659417132732,-0.8563911554057473,-0.8517162866561206
1769169108824,127,-1,-0.2841164023996534,-0.1338867882650298,-0.269232576448392
1769169108828,127,-1,0.3410178934391252,0.1608599008149467,0.3681541763621142
1769169108832,128,0,0.6824417327814216,0.9181296667979564,0.7247678145335469
1769169108836,128,0,0.6146079638701998,0.9629146482634738,0.6752382659474954
1769169108840,127,-1,0.2825882836353552,-0.0082572403861333,0.3626259095779972
1769169108844,127,-1,-0.0213677900621505,0.0136887137258023,0.0769437566386301
1769169108848,127,-1,-0.0696600641784979,0.0511789856617657,0.0450040119219439
1769169108852,127,-1,0.1572460775776925,0.0478780706687385,0.2872098612425513
1769169108856,128,0,0.4947596122096462,0.8802256333139066,0.640322676486673
1769169108860,128,0,0.751123143011208,1.0898857149771626,0.9130646434674562
1769169108864,128,0,0.8613779877893901,0.9140339066016004,1.0399678428665855
1769169108868,128,0,0.9109807425843264,1.180039296384808,1.1061207224343657
1769169108872,128,0,1.0174898658682334,0.9440569456491535,1.229600620572415
1769169108876,128,0,1.1896559642661284,1.010764789913291,1.41971321674323
1769169108880,129,1,1.310384874029734,2.0114961624515764,1.5587216049345516
1769169108884,129,1,1.269866148673401,1.960074464121739,1.5355891478108554
1769169108888,128,0,1.1083125804678953,1.1941914445743482,1.3905964200955652
1769169108892,128,0,0.999666026775428,0.9246722598351318,1.2990671866180046
1769169108896,128,0,1.076737631072518,1.0758244006493485,1.3942644025687834
1769169108900,129,1,1.2787103545356275,1.9725116650219352,1.6139610498753851
1769169108904,129,1,1.3774451110242505,2.007653975858511,1.7288962634128326
1769169108908,128,0,1.1479318078115164,1.1840753042333545,1.515187897363263
1769169108912,128,0,0.521386483850363,0.9353746311090386,0.9060663803674128
1769169108916,127,-1,-0.3895275832285416,0.1021124793119523,0.0144620142076346
1769169108920,126,-2,-1.381445550644565,-1.0402464234526967,-0.9578750444338304
1769169108924,125,-3,-2.28875142335998,-1.9494183708372177,-1.8467822706074328
1769169108928,124,-4,-3.0685443138137103,-2.820064019194597,-2.609508019506663
1769169108932,124,-4,-3.790774380281098,-3.076434347524093,-3.315389183913422
1769169108936,123,-5,-4.546026238962316,-3.8083701626085222,-4.054225449280587
1769169108940,122,-6,-5.3517497678867745,-5.171658369685335,-4.842636423518043
1769169108944,121,-7,-6.13596464608983,-5.728352777376846,-5.608273829209191
1769169108948,121,-7,-6.796293658781577,-6.069639701997899,-6.2493932465083235
1769169108952,120,-8,-7.266161008933988,-6.785211949284024,-6.700524617397927
1769169108956,120,-8,-7.536309213894786,-7.061798247519208,-6.95293037231601
1769169108960,120,-8,-7.634293715402134,-6.92945186380534,-7.033828009760118
1769169108964,120,-8,-7.593863889370831,-6.890281644146127,-6.976252012260164
1769169108968,120,-8,-7.443102902072479,-6.961204985374996,-6.807788427782869
1769169108972,120,-8,-7.215638270983272,-6.793052842502387,-6.562325738142307
1769169108976,121,-7,-6.958526574217399,-6.1084112271619695,-6.287810889912199
1769169108980,121,-7,-6.712903759901753,-5.782533996897098,-6.0255239469537765
1769169108984,121,-7,-6.48643815311383,-6.073539364441005,-5.781471454682686
1769169108988,121,-7,-6.256611338070442,-5.722272408713666,-5.531179676361373
1769169108992,122,-6,-6.005018956367802,-5.023222227180388,-5.256961360553434
1769169108996,122,-6,-5.747657414123248,-4.871123271361606,-4.9788596764494315
1769169109000,122,-6,-5.5439686149544745,-4.9448497572622765,-4.760768701379201
1769169109004,122,-6,-5.484390664645592,-4.945932589264298,-4.693995969960189
1769169109008,122,-6,-5.627976153756982,-4.778112246667891,-4.832755133465173
1769169109012,122,-6,-5.853511451830032,-4.994586457505147,-5.046684264349021
1769169109016,122,-6,-5.666988607245792,-4.8487130656974635,-4.8338784591345565
1769169109020,124,-4,-4.1238308264624095,-2.9241984093143714,-3.250488802918259
1769169109024,128,0,-0.0610559085651742,1.0238156772446465,0.8543774151085255
1769169109028,135,7,7.2775252234032415,8.330447097971362,8.220397166038524
1769169109032,145,17,17.397338835835598,17.863588782658404,18.34461496402624
1769169109036,154,26,27.969926294823896,27.38491097120053,28.90502256027911
1769169109040,163,35,35.110357657033404,35.816285666258295,36.032440726606595
1769169109044,164,36,34.77650896514885,37.30735757562308,35.69867615521403
1769169109048,154,26,24.775675577238392,27.02545149409415,25.717137755143916
1769169109052,134,6,6.205512124226436,7.121010608350468,7.18423650344967
1769169109056,110,-18,-16.68639688653087,-16.80049745665041,-15.659959244421302
1769169109060,89,-39,-38.231878800465765,-38.060947963708514,-37.16034255705165
1769169109064,74,-54,-53.62277215580267,-52.59725696468516,-52.52250041572803
1769169109068,68,-60,-60.47708172337733,-59.10377850274242,-59.370235285196486
1769169109072,69,-59,-59.0762153971937,-57.56031765595437,-57.97816947882104
1769169109076,77,-51,-51.538106859512325,-50.2113739894395,-50.4495668785951
1769169109080,87,-41,-40.65014515611129,-39.610579759575415,-39.55918430218844
1769169109084,99,-29,-28.97232905546417,-28.058501508271263,-27.863225096886456
1769169109088,109,-19,-18.41010158164621,-17.632747276188855,-17.2721284502324
1769169109092,118,-10,-10.115269066896966,-8.963440756741806,-8.946894240364752
1769169109096,124,-4,-4.5026327589521085,-2.890441273767753,-3.3101644219761845
1769169109100,127,-1,-1.3188783509525686,0.1374517616136485,-0.1109261349558777
1769169109104,128,0,0.1562984469819728,1.1363148378614103,1.3750497722195263
1769169109108,128,0,0.7483740797070562,1.3086627416366268,1.9793502533348208
1769169109112,129,1,1.0301373109135952,2.065056760838997,2.2771977939035053
1769169109116,130,2,1.207750215837919,3.155934195762994,2.471846129799194
1769169109120,130,2,1.2962749269171212,3.055727547381589,2.5746234077245127
1769169109124,129,1,1.3551135460045405,2.269793847350224,2.645328821268617
1769169109128,129,1,1.5277915122779309,2.210750910024306,2.8310564316302416
1769169109132,130,2,1.8916437618653985,3.1787275743516976,3.2108538255546604
1769169109136,131,3,2.3473194726909883,4.077697504206083,3.683286829708059
1769169109140,131,3,2.7039919770778993,4.129953345293296,4.054910287966319
1769169109144,131,3,2.87033796425278,4.239345838901363,4.234615744505744
1769169109148,131,3,2.9494303669203887,4.263023543243968,4.32767040904916
1769169109152,131,3,3.1528032586196453,4.141185766904693,4.54650844535079
1769169109156,132,4,3.628972014552449,5.143295445417919,5.038061731429295
1769169109160,133,5,4.358523719323233,6.08549365246823,5.7810458516460566
1769169109164,133,5,5.17990711718561,6.311897633747488,6.6141790013740955
1769169109168,134,6,5.897974588086978,7.233428958589034,7.344156771537912
1769169109172,135,7,6.39352062525303,8.154073532503183,7.852803563060955
1769169109176,135,7,6.677321723109318,8.184225371646832,8.150413684720068
1769169109180,135,7,6.863252322531419,8.02632310662959,8.350171071293094
1769169109184,135,7,7.080073822979519,8.45526602031911,8.580649287755293
1769169109188,136,8,7.394493902945781,9.062742636260548,8.908309143254414
1769169109192,136,8,7.810009606710379,9.390451327358363,9.33618846148204
1769169109196,137,9,8.32353330481709,9.927436549635871,9.861224080900795
1769169109200,137,9,8.961516350600244,10.340854132953902,10.510558628012424
1769169109204,138,10,9.75264410120915,11.148291670154649,11.31342205041906
1769169109208,139,11,10.674732381325809,12.402395840824314,12.247408723236546
1769169109212,140,12,11.641867056240155,13.077691889622615,13.226067148703551
1769169109216,141,13,12.551138115330003,14.232559765110707,14.146472960783369
1769169109220,142,14,13.346497264237012,15.116700687257833,14.95317526797808
1769169109224,142,14,14.042018902286616,15.314153655473634,15.66061076187756
1769169109228,143,15,14.68616624279762,16.362590172220358,16.31655776382383
1769169109232,144,16,15.300945694238017,17.026294807554738,16.94176818431641
1769169109236,144,16,15.844005987088073,17.416551439819905,17.493671588758797
1769169109240,145,17,16.214153864277698,17.86296097429851,17.87254283624478
1769169109244,144,16,16.294957159220658,17.672853709011694,17.963500646508205
1769169109248,145,17,16.02270645153326,17.95899419139971,17.702543347432616
1769169109252,144,16,15.444650535853956,17.497724751517097,17.135267410193798
1769169109256,143,15,14.709476907991052,15.943889135180548,16.409487313567816
1769169109260,142,14,13.968828310727767,15.363638909071057,15.677418861774672
1769169109264,142,14,13.264431740778631,15.220521253262412,14.981549791713462
1769169109268,141,13,12.510836870363772,14.38671156560711,14.236594020501547
1769169109272,140,12,11.591173366528407,13.158663235677926,13.325650269819302
1769169109276,139,11,10.470099061387169,12.243742448145952,12.21332510449993
1769169109280,138,10,9.22203866821418,11.136117019129076,10.973759155588766
1769169109284,136,8,7.957635736633026,9.429429892786462,9.71731671984345
1769169109288,135,7,6.717659941373592,8.227477637848235,8.484742177916285
1769169109292,134,6,5.435018638409894,7.3402881106097,7.208936417229482
1769169109296,133,5,4.013471223228088,6.083132292449325,5.793813801257825
1769169109300,131,3,2.4588667124590766,4.323500606194025,4.246092539260083
1769169109304,129,1,0.9356509215925072,2.2583587785632178,2.7311584122232317
1769169109308,128,0,-0.3078129042756967,1.411814115463381,1.496720445298411
1769169109312,128,0,-1.076490773769012,1.2085621266192874,0.7356818105969154
1769169109316,127,-1,-1.3257835693061055,0.2144227958182357,0.4915055623147158
1769169109320,127,-1,-1.1764679590373062,0.2537103823710365,0.6446141107073344
1769169109324,128,0,-0.8546152078171221,1.3104428203874088,0.9707924950893386
1769169109328,128,0,-0.580176913541997,1.4020806626981104,1.2506869302763366
1769169109332,128,0,-0.4616743041851912,1.2251296051078977,1.37534630938316
1769169109336,128,0,-0.4719744324101413,1.2495915811301357,1.3713997977185564
1769169109340,128,0,-0.5189268204154445,1.2180771313801668,1.3304589391466024
1769169109344,128,0,-0.538935842159324,1.375575103081235,1.3154584898005524
1769169109348,128,0,-0.5337063854423256,1.3561901641079517,1.3245300166238263
1769169109352,128,0,-0.5387656251703907,1.293779191279696,1.3228721726931076
1769169109356,128,0,-0.5711401275389516,1.2363452437035156,1.294323657994123
1769169109360,128,0,-0.6034603505993346,1.2110526805574753,1.266246669671509
1769169109364,128,0,-0.5779168524922689,1.4381729949438349,1.2957484462050703
1769169109368,128,0,-0.4466485589775382,1.28181837653394,1.430378733760239
1769169109372,128,0,-0.2115343719285567,1.4258112734701671,1.6686545820987082
1769169109376,129,1,0.0694878919851231,2.1290130501472246,1.95291355202135
1769169109380,129,1,0.3229304246532032,2.3189331091687473,2.209349116865199
1769169109384,129,1,0.5128196224051802,2.380159502586197,2.401652773322595
1769169109388,129,1,0.6505345312545998,2.314140325387173,2.54129168186742
1769169109392,129,1,0.7526383678450346,2.484049731531186,2.6449962672723424
1769169109396,130,2,0.8002257573027496,3.0316732867960674,2.693986307269145
1769169109400,129,1,0.7486123872404802,2.510318179238043,2.644041867915905
1769169109404,129,1,0.5770217834897053,2.131020797467658,2.474844821992555
1769169109408,129,1,0.3320554653898382,2.6531390824325474,2.232479973423382
1769169109412,129,1,0.1263744666819375,2.120765908551209,2.0283713460587283
1769169109416,128,0,0.0773236711517315,1.4543543631871172,1.9793658453697545
1769169109420,129,1,0.2137199232341857,2.109437970296515,2.1150176849981266
1769169109424,129,1,0.4292326047302706,2.5270306572639467,2.33001947663423
1769169109428,129,1,0.5434519704500178,2.312865108690386,2.444415829932221
1769169109432,129,1,0.4345477438327314,2.453983390163549,2.336181208458112
1769169109436,129,1,0.1330503142479644,2.1855932060465015,2.0352846485150837
1769169109440,128,0,-0.20512042534472,1.360237947245999,1.6971177232773615
1769169109444,128,0,-0.4261229543817146,1.3213648523310069,1.4753354808731929
1769169109448,128,0,-0.4987589953019427,1.5254996779708825,1.4013193574678635
1769169109452,128,0,-0.5253235531716511,1.2856332065281335,1.3731709834388437
1769169109456,128,0,-0.6374226121419335,1.3812771708972442,1.2596476370667378
1769169109460,128,0,-0.8733299525396694,1.1821216620720283,1.0225715197943686
1769169109464,127,-1,-1.1478188870968842,0.5005594648158345,0.7469792507545716
1769169109468,127,-1,-1.3422202686642917,0.3907237615729244,0.5511921981610073
1769169109472,127,-1,-1.4332431611958083,0.4256207108920782,0.4581041230384847
1769169109476,127,-1,-1.5407410868724805,0.3146687628872662,0.3476292404415536
1769169109480,127,-1,-1.846270615292953,0.2188404336889926,0.038478715274637
1769169109484,126,-2,-2.450634313662414,-0.4718676519879698,-0.5693735379713423
1769169109488,125,-3,-3.2899901853307147,-1.674896390581547,-1.41145059167344
1769169109492,124,-4,-4.1719967196810455,-2.4219642228686875,-2.295623828384312
1769169109496,124,-4,-4.889482277019614,-2.849172080121321,-3.0154186522958555
1769169109500,123,-5,-5.321893573519842,-3.561447321222001,-3.4502511862821734
1769169109504,123,-5,-5.471607366060858,-3.6941134572283607,-3.601643725110575
1769169109508,123,-5,-5.440631988670687,-3.4261854779759653,-3.5718034857874605
1769169109512,123,-5,-5.378634500176012,-3.6386517060968417,-3.513231204918413
1769169109516,123,-5,-5.427201789752481,-3.611736498817728,-3.571314524188521
1769169109520,123,-5,-5.66471384384525,-3.7601244010442167,-3.824618891214421
1769169109524,122,-6,-6.033798275333879,-4.503698297413873,-4.209259312987479
1769169109528,122,-6,-6.232015977500437,-4.578061252616165,-4.4126599601384875
1769169109532,123,-5,-5.595083251859165,-3.4683772528846313,-3.765221390750142
1769169109536,126,-2,-3.101742636280953,-0.7389599882003548,-1.2517475771545632
1769169109540,131,3,2.3021547492581105,4.399414110114515,4.166855770162462
1769169109544,139,11,10.97957461550734,12.357936990347577,12.83993806045316
1769169109548,149,21,21.74977315917165,22.576258977527985,23.584394174933205
1769169109552,159,31,31.53688828343945,32.424835392658714,33.33438248454329
1769169109556,165,37,36.10952127465321,38.3520842887736,37.873706218013055
1769169109560,162,34,31.878008909103556,35.363333017892394,33.624857820719406
1769169109564,147,19,17.862539456057785,20.296132216974826,19.613027091889396
1769169109568,124,-4,-3.4110592296042697,-2.3108909926889085,-1.6393057822202683
1769169109572,101,-27,-26.756058353924068,-25.7442064379898,-24.95698486333473
1769169109576,81,-47,-46.456842468779264,-45.339582691168026,-44.64035977794876
1769169109580,70,-58,-58.460148219063974,-56.88151820504428,-56.64808909131021
1769169109584,67,-61,-61.5143329507473,-59.344321262565806,-59.728764330201166
1769169109588,72,-56,-56.93061315143521,-54.65303098445568,-55.181811985926814
1769169109592,81,-47,-47.44505994199226,-45.42754122427982,-45.7269809376455
1769169109596,92,-36,-35.97650590189944,-34.611575808792445,-34.272237738304625
1769169109600,103,-25,-24.83517224605801,-23.6479899176898,-23.1283404744124
1769169109604,113,-15,-15.464368826946476,-13.49584825051334,-13.748613359696058
1769169109608,120,-8,-8.499051427536616,-6.563026697476662,-6.779258196023575
1769169109612,124,-4,-3.9369243924918385,-2.493225758631104,-2.2225957691814826
1769169109616,127,-1,-1.3553832779025297,0.4668355203411081,0.3472236454309103
1769169109620,128,0,-0.1570007976281053,1.303415689464989,1.5335959525218628
1769169109624,128,0,0.2169959894613264,1.618235041595508,1.898238924919774
1769169109628,129,1,0.1802905052760728,2.326207585780093,1.8534666281929164
1769169109632,128,0,0.0091587525694034,1.6382320360797245,1.6730919964122724
1769169109636,128,0,-0.1113846240520954,1.350673807388239,1.542014679764161
1769169109640,128,0,-0.076900112014639,1.4676934040882257,1.5666989066656487
1769169109644,128,0,0.1228048919644302,1.4836423123100646,1.7585129398100885
1769169109648,129,1,0.4296220449528594,2.4813932110123527,2.0580707972154855
1769169109652,129,1,0.7927447684046589,2.503310030387838,2.412566423725374
1769169109656,129,1,1.2198306926270948,2.4777083414710988,2.829466695018031
1769169109660,130,2,1.7403600039280875,3.412135998664465,3.3398513276750177
1769169109664,130,2,2.3222293385607875,3.534817753555377,3.912659558404839
1769169109668,131,3,2.849203729206296,4.477353219298239,4.430744573752784
1769169109672,132,4,3.203620684857959,5.510472407560217,4.775112421591982
1769169109676,131,3,3.3722170235405726,4.491549204178397,4.933027801615893
1769169109680,131,3,3.4584885632933515,4.420710450653795,5.009778722679305
1769169109684,132,4,3.5944459503451176,5.574944653498397,5.137614302546248
1769169109688,132,4,3.855724562733445,5.428968728842861,5.390229895454418
1769169109692,132,4,4.25254286746719,5.612711128873136,5.7763570040152645
1769169109696,133,5,4.764166882450933,6.395539924792727,6.276146813948459
1769169109700,133,5,5.359577575714431,6.534681048918562,6.860484076515072
1769169109704,134,6,6.002573859598297,7.506298512417848,7.493717667702741
1769169109708,135,7,6.66876620332814,8.49696315872993,8.150433048105253
1769169109712,135,7,7.369349038838639,8.59454645241078,8.840952083133216
1769169109716,136,8,8.147085896267516,9.412781814230057,9.608277890486807
1769169109720,137,9,9.03816663941969,10.556289757170394,10.489081178170412
1769169109724,138,10,10.0388938254064,11.491731573533984,11.479500543373668
1769169109728,139,11,11.108075157827384,12.556281001408102,12.537994911312172
1769169109732,140,12,12.189493885222692,13.552798347252224,13.608511729959428
1769169109736,141,13,13.223677980314497,14.47296125166964,14.63191927966625
1769169109740,142,14,14.146301244559602,15.517971100872572,15.54377191982309
1769169109744,143,15,14.890750097874523,16.547385356624773,16.277213691984667
1769169109748,143,15,15.398519922624107,16.539915649351425,16.77406596410337
1769169109752,143,15,15.627665113710435,16.589474520517786,16.992821664879667
1769169109756,144,16,15.562126744044262,17.449196546934694,16.917014298050503
1769169109760,143,15,15.227424315638952,16.573527356255237,16.5713564670988
1769169109764,142,14,14.692021121333818,15.490965661389088,16.02440183455677
1769169109768,142,14,14.033990636893884,15.6676081735185,15.355164887773382
1769169109772,141,13,13.29899053232267,14.449422932600674,14.609804132789163
1769169109776,140,12,12.495010453135729,13.619955367825016,13.79579697265292
1769169109780,140,12,11.624634546832134,13.445326026553,12.91495252629564
1769169109784,138,10,10.707464805916848,11.59286301807266,11.986668522063257
1769169109788,137,9,9.75789921338475,10.668042638151473,11.025514712321668
1769169109792,137,9,8.744495038757433,10.391518953853922,10.000053168288416
1769169109796,135,7,7.589281545910291,8.771356294084297,8.832570073180147
1769169109800,134,6,6.223186636204428,7.248295328711826,7.455076236349903
1769169109804,132,4,4.6561222389244294,5.881033959867559,5.878398090786479
1769169109808,131,3,3.013885242972698,4.346186539965875,4.2275684293211615
1769169109812,129,1,1.515621983161179,2.7794060275615173,2.719793942878167
1769169109816,128,0,0.3841468321879171,1.382265529976972,1.5768972424391028
1769169109820,127,-1,-0.2786208411383968,0.6651019164469486,0.9016353515823357
1769169109824,127,-1,-0.5646251087647793,0.5091136887812218,0.6034192478022118
1769169109828,127,-1,-0.7025550911463951,0.7124654381975202,0.4540224258918532
1769169109832,127,-1,-0.8956141617891169,0.4728035970544829,0.2500388975262484
1769169109836,126,-2,-1.185043712689347,-0.3288991602227551,-0.0497822204588893
1769169109840,126,-2,-1.4538070753377557,-0.5718266535273693,-0.328330260169477
1769169109844,126,-2,-1.553902113260618,-0.2647731386666809,-0.4380042472066556
1769169109848,126,-2,-1.4365961574502055,-0.4456298375158873,-0.3307419153813146
1769169109852,126,-2,-1.1831026528168114,-0.3856979028950993,-0.0881539473026251
1769169109856,127,-1,-0.9287059188589212,0.6076973809876822,0.1545054242156549
1769169109860,127,-1,-0.7568360277801083,0.4438915321383168,0.3144040175703675
1769169109864,126,-2,-0.6579364125706626,-0.2028424633796929,0.4021932230708949
1769169109868,127,-1,-0.5807601752764315,0.4755169358696125,0.4697105589949893
1769169109872,127,-1,-0.5051571717883916,0.7502528442202802,0.5363339628381325
1769169109876,127,-1,-0.4510573644314606,0.4839393654989398,0.580802911094111
1769169109880,127,-1,-0.4261220009636275,0.583798927651256,0.5950589547905798
1769169109884,127,-1,-0.3862810802665919,0.6937417461418105,0.6239583721336691
1769169109888,127,-1,-0.2599445678601406,0.5715762140267411,0.7400260330296876
1769169109892,127,-1,-0.0135583297404053,0.7233948498957282,0.97685792142077
1769169109896,128,0,0.3072006230661421,1.493876685095358,1.2878991764316985
1769169109900,128,0,0.6025824504673796,1.6408228869935533,1.572703256166756
1769169109904,128,0,0.7855500512077038,1.6054512538869383,1.7447431858332527
1769169109908,128,0,0.8282195505305896,1.7352621602274736,1.7773673301532422
1769169109912,128,0,0.7582069151192912,1.5267291850054847,1.6986448080426657
1769169109916,128,0,0.6274251845757406,1.7746246701501154,1.5596254524537
1769169109920,128,0,0.4841180694130402,1.3375123608310977,1.407388559753031
1769169109924,127,-1,0.3543486892976566,0.9551985033818908,1.2676241148674414
1769169109928,128,0,0.2306625399930848,1.406668359215431,1.1333690891697443
1769169109932,127,-1,0.0750461817644019,0.8506219368721669,0.9674946140701556
1769169109936,127,-1,-0.1598660735413055,0.5342202979918483,0.7234101246067735
1769169109940,127,-1,-0.5014578049067111,0.5258605088511912,0.3738224524912834
1769169109944,126,-2,-0.9358955261201608,-0.12423475210444,-0.0682433577034009
1769169109948,126,-2,-1.411241426505625,-0.5926686078013124,-0.55188399829769
1769169109952,125,-3,-1.8738624485289035,-1.0293866181106166,-1.0237519993315098
1769169109956,125,-3,-2.3214109402746805,-1.6346786942786586,-1.4809021188430576
1769169109960,124,-4,-2.827079585253361,-2.234462765554393,-1.995871893943443
1769169109964,124,-4,-3.497352882101991,-2.3541904452779328,-2.6750062905475716
1769169109968,123,-5,-4.382414364884829,-3.368956084247297,-3.5684158847627554
1769169109972,121,-7,-5.414546426230408,-5.1758271065309795,-4.608008951444253
1769169109976,121,-7,-6.431829120871074,-5.530560924672572,-5.631912603582562
1769169109980,120,-8,-7.263875084512229,-6.244147337073872,-6.470732849805857
1769169109984,119,-9,-7.810754707209906,-7.386501837134158,-7.025536508321373
1769169109988,119,-9,-8.073008738524878,-7.262419300275446,-7.296722394808031
1769169109992,119,-9,-8.131150987808766,-7.279790828694182,-7.363704383815394
1769169109996,119,-9,-8.093105853787502,-7.413589871855073,-7.333350395877772
1769169110000,119,-9,-8.041052132292887,-7.305462092053152,-7.287622964040998
1769169110004,119,-9,-8.008322933380402,-7.348675459717811,-7.260736831426003
1769169110008,119,-9,-7.992271009444418,-7.237856316339651,-7.251482794166098
1769169110012,119,-9,-7.983383688609287,-7.302607445818643,-7.251029298446182
1769169110016,119,-9,-7.985421024024867,-7.367976645093396,-7.262008767835469
1769169110020,119,-9,-8.01077933143883,-7.307772502363805,-7.294341338943745
1769169110024,119,-9,-8.052532013775892,-7.3558510881292,-7.33925368533809
1769169110028,119,-9,-8.05843418581577,-7.177671921571944,-7.345414297543373
1769169110032,119,-9,-7.94495157061744,-7.356011966389339,-7.233579020188319
1769169110036,119,-9,-7.661232857481523,-7.292121632072514,-6.9584924117844436
1769169110040,120,-8,-7.2501730313057875,-6.3424278113181245,-6.565279103391917
1769169110044,120,-8,-6.816927838812784,-6.329117420901656,-6.1536230036837525
1769169110048,120,-8,-6.354807004359324,-6.146169953301673,-5.704868250358711
1769169110052,122,-6,-5.482238471695677,-4.395401344979621,-4.827527760820836
1769169110056,124,-4,-3.2713076185847507,-2.20265599593667,-2.5954524556010563
1769169110060,129,1,1.5678646888767345,2.5697678966991764,2.26656961252451
1769169110064,137,9,9.973719879314618,10.8149244428338,10.67912127722822
1769169110068,147,19,21.47590386044074,20.72913073259289,22.16343477550319
1769169110072,159,31,33.442233629362526,32.75029125361432,34.093297232210425
1769169110076,169,41,41.41740423635659,42.6899140203132,42.028702131313544
1769169110080,169,41,40.81253245716634,42.64143736822285,41.396894930776625
1769169110084,157,29,29.22455639827902,30.75582609369812,29.8054661453788
1769169110088,135,7,8.013864994456423,8.753932012232717,8.615898360254107
1769169110092,108,-20,-17.909675742700568,-18.310369491449585,-17.27230465289626
1769169110096,84,-44,-42.03263596336693,-42.148438986624896,-41.36414456920516
1769169110100,68,-60,-58.81276417157708,-58.473449113238914,-58.134309030045706
1769169110104,61,-67,-65.53355273676117,-64.95508260774898,-64.8716970008104
1769169110108,65,-63,-62.687786597631785,-61.525581537812734,-62.060143501983625
1769169110112,74,-54,-53.04732138122944,-52.00580971073803,-52.45435973139256
1769169110116,87,-41,-40.18445557019432,-39.48085562825645,-39.61135436446853
1769169110120,99,-29,-27.237155699974913,-27.13345440323998,-26.663425307893824
1769169110124,110,-18,-16.293616417988652,-16.257005717168553,-15.704753192744754
1769169110128,119,-9,-8.307541561581623,-7.255890887808037,-7.701938578061922
1769169110132,124,-4,-3.282087022026621,-2.250053334368991,-2.6687142091116516
1769169110136,126,-2,-0.5743255506790286,-0.2852025197973817,0.0364675906680032
1769169110140,127,-1,0.7124912870188185,0.7677278478529184,1.3165205448829025
1769169110144,128,0,1.3412142701863594,1.837773708300337,1.9401887815505856
1769169110148,129,1,1.7338252559200251,2.7290533858749013,2.3300614882129675
1769169110152,129,1,2.023584617232866,2.7399607102449544,2.617027212685861
1769169110156,129,1,2.238919761259001,2.763641160675573,2.8290407691098465
1769169110160,129,1,2.421986925056133,2.732658483007245,3.0105048970945756
1769169110164,129,1,2.618142536435382,2.913259922048457,3.208283582666623
1769169110168,130,2,2.8292924072310126,3.684987769033697,3.422485355075335
1769169110172,130,2,3.028110220174264,3.7894404527330727,3.6224407959931417
1769169110176,130,2,3.213129772478025,3.73837485532285,3.8056088248627824
1769169110180,130,2,3.41777622963046,3.768442091816858,4.007748116928708
1769169110184,130,2,3.654589968328279,3.9216481918900943,4.244352660504442
1769169110188,131,3,3.876980136251376,4.688348964332361,4.469192423497014
1769169110192,131,3,4.029132355152344,4.825464795819804,4.624266234778199
1769169110196,131,3,4.137227909750361,4.696264712087427,4.733821459992756
1769169110200,131,3,4.32382418409274,4.8480237121698675,4.920700243553058
1769169110204,131,3,4.702356047517467,4.859056012828578,5.299877136427446
1769169110208,132,4,5.2498565498997545,5.773742531716535,5.848936777317973
1769169110212,133,5,5.797335662853174,6.784904723744646,6.397951394664878
1769169110216,133,5,6.162919070584064,6.730154103872352,6.764364556122644
1769169110220,133,5,6.305895795084725,6.850253224522488,6.9084477577380685
1769169110224,133,5,6.362092357461047,6.872195006561461,6.967656677053803
1769169110228,133,5,6.54352250330698,6.765741332144829,7.1540783291070875
1769169110232,134,6,7.006039230634505,7.858695823313456,7.621588124752928
1769169110236,135,7,7.788109859445234,8.64004771338627,8.406614134134323
1769169110240,135,7,8.83027175184628,9.00226500610989,9.449680449796237
1769169110244,137,9,10.019562884991489,10.698716644301072,10.639630824369272
1769169110248,138,10,11.223022519089351,11.993071314466471,11.84531601249184
1769169110252,139,11,12.317219733988866,12.62309787452253,12.943874312393
1769169110256,140,12,13.223508840256075,13.938319219323876,13.855921099753674
1769169110260,141,13,13.93667508005992,14.692843755730248,14.57482546729842
1769169110264,141,13,14.521426762724948,15.03991888316703,15.164242576510986
1769169110268,142,14,15.060521663151064,15.663878807065093,15.707009767551698
1769169110272,142,14,15.57664154232614,15.986036171543889,16.226660487701785
1769169110276,143,15,15.990819613745735,16.594501948436367,16.644794879274556
1769169110280,143,15,16.167057070703848,17.076418530572536,16.825361453647297
1769169110284,143,15,16.017443040466556,16.642665624603357,16.680482001350576
1769169110288,142,14,15.578477894311767,16.10780096428237,16.247193884790534
1769169110292,142,14,14.992320979833174,15.547163894985362,15.66796578559641
1769169110296,141,13,14.413801592888705,15.063679916795946,15.09688894310968
1769169110300,141,13,13.920413350495084,14.648810562013615,14.61011026684572
1769169110304,140,12,13.480950717800791,14.05568112101049,14.175747868600212
1769169110308,140,12,12.982474940556123,13.757188661438605,13.681489271096966
1769169110312,139,11,12.28453089113575,12.87548280416552,12.988196344173565
1769169110316,138,10,11.27476744397401,11.796018597291084,11.984444293668057
1769169110320,137,9,9.914726923152164,10.913977174944176,10.631850056924268
1769169110324,135,7,8.26577333832557,8.825027122196213,8.991313376715635
1769169110328,133,5,6.4806463636932605,6.992157960513534,7.214872171667462
1769169110332,132,4,4.758396733991873,5.682784189941158,5.500696398289169
1769169110336,130,2,3.282067112987086,3.986462189029788,4.031257332656017
1769169110340,129,1,2.163623307107406,2.7872286686926295,2.9189674759552746
1769169110344,128,0,1.4160734976929956,1.9322213618489783,2.178034202403741
1769169110348,128,0,0.9715879929804356,1.9418634227582,1.7414585871519814
1769169110352,128,0,0.7433808649688798,1.7198655884398937,1.5223388026797022
1769169110356,127,-1,0.6863453356498947,1.0034577764628012,1.4747687033876595
1769169110360,128,0,0.8034905973776301,1.7693714458320489,1.600729832368622
1769169110364,128,0,1.095331510580078,1.99002537460204,1.900193699511469
1769169110368,128,0,1.5004466769077514,1.8777127764626176,2.3124745677809777
1769169110372,129,1,1.881620039714596,2.830490616409347,2.701972158251296
1769169110376,129,1,2.0824050214233116,2.903479031602549,2.9130246615136817
1769169110380,129,1,2.0262864951327972,2.892164613912408,2.8680768279999658
1769169110384,129,1,1.7779243903703477,2.8928782560949533,2.630041626666325
1769169110388,128,0,1.4923551033888631,1.980545198264436,2.3533719367800803
1769169110392,128,0,1.271493541941151,1.7522455837643625,2.1408511906214764
1769169110396,128,0,1.0542849240915322,2.023201891788202,1.9323863476615415
1769169110400,128,0,0.6624751457209612,1.771346977609866,1.5499695696659122
1769169110404,127,-1,-0.0197875568548093,1.0619867536301075,0.8779335219365079
1769169110408,126,-2,-0.8968905381186745,-0.1896993614910134,0.0123951139898064
1769169110412,125,-3,-1.6874887684620896,-1.071370644832903,-0.7654698101502666
1769169110416,125,-3,-2.106597964559106,-1.0927737256507155,-1.1721790402512815
1769169110420,125,-3,-2.0546770583691716,-1.137353400172098,-1.1097515081165177
1769169110424,125,-3,-1.6779100194541197,-0.931026625295884,-0.7242887161590439
1769169110428,126,-2,-1.2718437679217087,-0.2518543133959472,-0.3097938337581092
1769169110432,126,-2,-1.1005760022916649,0.0619545445631297,-0.1288673791135408
1769169110436,126,-2,-1.249433269914173,-0.256646056988957,-0.26613988294319
1769169110440,125,-3,-1.6054931510585535,-0.912485521880037,-0.6086768124849051
1769169110444,125,-3,-1.966553573123138,-1.1436380978962917,-0.9551231235047924
1769169110448,125,-3,-2.180254366169794,-1.0271814410617737,-1.154936545630321
1769169110452,125,-3,-2.209155034314035,-1.1257407052656578,-1.172341297666553
1769169110456,125,-3,-2.1075823611718274,-1.079766001726271,-1.0614888419858848
1769169110460,125,-3,-1.9731991005300704,-1.0141251671446632,-0.9178567555584892
1769169110464,125,-3,-1.921484601040208,-1.0754564112831713,-0.8546627282884585
1769169110468,125,-3,-2.0679587446331253,-1.0250418589466073,-0.9872004667799508
1769169110472,125,-3,-2.4849992989713474,-1.1680401347182334,-1.3896299524159197
1769169110476,124,-4,-3.1507883108039163,-1.960026255951862,-2.04184296577052
1769169110480,123,-5,-3.952006235186907,-3.153247282448149,-2.830604919812834
1769169110484,122,-6,-4.76195208241881,-3.879536304572489,-3.62836215119872
1769169110488,122,-6,-5.527972474217535,-4.2333075494127606,-4.382039949712287
1769169110492,121,-7,-6.28320519656852,-4.9283544741186756,-5.124698912523013
1769169110496,120,-8,-7.078329409564727,-6.160638974602211,-5.906596945137872
1769169110500,119,-9,-7.904709363238251,-6.956695963696189,-6.718885793893776
1769169110504,119,-9,-8.6708507497624,-7.01928503943499,-7.47082344907866
1769169110508,118,-10,-9.244263676762188,-8.131084998538721,-8.030741478327965
1769169110512,117,-11,-9.535279622222829,-8.9582213573392,-8.30868683679601
1769169110516,118,-10,-9.565540535527573,-8.136599701758513,-8.325548818186268
1769169110520,118,-10,-9.452500199417086,-7.933161892959523,-8.198669176081772
1769169110524,118,-10,-9.310699250836487,-8.045004776401802,-8.042752825530066
1769169110528,118,-10,-9.165790565215817,-8.077052844280296,-7.883348810555278
1769169110532,118,-10,-8.96607217057035,-8.006367229008553,-7.669108083114979
1769169110536,119,-9,-8.665624898855452,-7.055989749618729,-7.355168729398192
1769169110540,119,-9,-8.287756866241647,-6.983590505232128,-6.964918819225963
1769169110544,119,-9,-7.918564464911706,-6.988750572063047,-6.582355971698494
1769169110548,120,-8,-7.646854938306901,-6.096251739226847,-6.29390989680958
1769169110552,120,-8,-7.494651221397601,-6.000640457967084,-6.122112431242657
1769169110556,120,-8,-7.390755170482615,-6.013874309137602,-5.999741867981928
1769169110560,120,-8,-7.226133043791753,-6.011298117319142,-5.822413071782343
1769169110564,120,-8,-6.958128561497055,-5.9312045086120015,-5.548925098354508
1769169110568,121,-7,-6.644067336172542,-5.155228457959607,-5.232503386723461
1769169110572,121,-7,-6.298460694310666,-4.900425749042848,-4.8790736258840735
1769169110576,122,-6,-5.616737603459213,-4.122327719347278,-4.176220041320464
1769169110580,124,-4,-3.7844851165428617,-1.830346663484666,-2.3092166547306383
1769169110584,128,0,0.3573652425956979,1.868463704625963,1.871187883008124
1769169110588,135,7,7.67561881669101,9.082237086960092,9.21722063250337
1769169110592,145,17,17.84457681925688,18.90123571191594,19.393920810763447
1769169110596,155,27,28.714785947930288,29.070567539709263,30.254377255708256
1769169110600,164,36,36.54639993902104,38.05483441008625,38.07088823525347
1769169110604,166,38,37.319518262024374,39.91784057169112,38.83764188764433
1769169110608,157,29,28.624448701285203,31.048209278360197,30.15455591246176
1769169110612,139,11,11.090473490710549,12.892404074092076,12.65306948184038
1769169110616,115,-13,-11.55218092992477,-10.913011535180765,-9.94308416879224
1769169110620,93,-35,-33.869572460735206,-32.91254896056179,-32.21389987017497
1769169110624,77,-51,-50.79615352647695,-49.051258487142775,-49.10901686851128
1769169110628,68,-60,-59.3104122160748,-57.88047238533894,-57.61424853180995
1769169110632,69,-59,-59.045398756888616,-57.14379759838833,-57.35739620311923
1769169110636,76,-52,-51.83242300214812,-49.81239681857003,-50.15597623689432
1769169110640,87,-41,-40.64401109510884,-39.07763384911203,-38.96926541746584
1769169110644,99,-29,-28.497896578016753,-26.813172069337675,-26.80939716281909
1769169110648,110,-18,-17.695939713226494,-16.18714568481564,-15.981542725751874
1769169110652,118,-10,-9.50088533485252,-7.774162619155561,-7.756769818718082
1769169110656,124,-4,-4.173188595044487,-2.233484111704764,-2.403083415539928
1769169110660,126,-2,-1.241834088137158,0.3703745795398015,0.5476673807540129
1769169110664,128,0,0.1092124099995808,1.7521903168872033,1.913199759860882
1769169110668,128,0,0.6646904142438173,2.2856293377476913,2.48131190340601
1769169110672,129,1,0.9391463192243688,2.79558806216814,2.7681820707474927
1769169110676,129,1,1.13918329613481,3.194556580527342,2.980574671774304
1769169110680,129,1,1.2769009153070368,2.9912797190915263,3.1309737837956115
1769169110684,129,1,1.31433915637792,3.0952208504181917,3.1827024362623173
1769169110688,129,1,1.2494998161143016,3.048930788294016,3.134700510819285
1769169110692,129,1,1.1353866588363069,2.9600928915797917,3.039183341487861
1769169110696,129,1,1.0654367688713844,3.1509407553609696,2.987412852625789
1769169110700,129,1,1.1428401230909024,2.9455289445960817,3.0807747383422943
1769169110704,129,1,1.4315644383464043,3.2446747868802595,3.3831808640998564
1769169110708,130,2,1.9041045174742393,3.86728385870025,3.868645967239663
1769169110712,130,2,2.4299036843553266,4.1981744259833,4.4083601533930965
1769169110716,131,3,2.8381227772543056,4.919991890370236,4.832150365838464
1769169110720,131,3,3.030739743283658,5.180809016879092,5.041355307665943
1769169110724,131,3,3.064413648823724,5.040405235117679,5.091592019220443
1769169110728,131,3,3.1240870913641663,5.074922282700821,5.167256058823148
1769169110732,131,3,3.394540312334681,5.041058875656497,5.452991953126287
1769169110736,132,4,3.9314136806847975,6.062020812535131,6.0042781795465805
1769169110740,133,5,4.639320972146146,7.095393626999543,6.725877451083041
1769169110744,133,5,5.365463610966617,7.103861669754234,7.465934247186914
1769169110748,134,6,6.0183642489693705,8.067936987474532,8.133929149314595
1769169110752,135,7,6.620077790328762,9.041614304412043,8.751630106368413
1769169110756,135,7,7.268774874690489,9.089534673495038,9.415935850055808
1769169110760,136,8,8.049444551559176,10.074428167674288,10.211059699255523
1769169110764,137,9,8.95989438912994,11.173454597822367,11.135211362126842
1769169110768,138,10,9.911905945823998,11.968703971446446,12.101097580192318
1769169110772,139,11,10.810258828364988,13.235301562389726,13.014059320600063
1769169110776,140,12,11.640356638164103,13.81778801894426,13.859373442750169
1769169110780,140,12,12.48055317878058,14.461193185577232,14.7147551595848
1769169110784,142,14,13.420335853684788,15.709689143192078,15.66898872118639
1769169110788,142,14,14.451222492520577,16.543007436636337,16.713361089760674
1769169110792,144,16,15.42462648492783,17.60408566825483,17.699718894859878
1769169110796,144,16,16.119022703883935,18.532127083343717,18.40719711759891
1769169110800,145,17,16.372690221432684,18.712369517348783,18.67440612152166
1769169110804,144,16,16.18350117312724,18.495058157671785,18.49917832915791
1769169110808,144,16,15.699064023951236,17.788868847757286,18.028977249992877
1769169110812,143,15,15.10906395402616,17.330557782978047,17.45329260716911
1769169110816,143,15,14.531615953105886,16.906820533347158,16.889905138250295
1769169110820,142,14,13.98087104959516,16.254571165819073,16.35264473577424
1769169110824,142,14,13.419790045036168,16.07966793675071,15.804507106124362
1769169110828,141,13,12.823461408844343,15.125836354894371,15.22094789857651
1769169110832,140,12,12.181962749702116,14.08252609840092,14.592119916610743
1769169110836,140,12,11.450494414830304,14.128162960199734,13.87272220278548
1769169110840,139,11,10.517563401492732,13.071632562875775,12.951130281525478
1769169110844,137,9,9.240802280226683,11.27869993496764,11.686031489722437
1769169110848,136,8,7.536328743047182,9.943198700135833,9.994621988302628
1769169110852,134,6,5.471197661817044,8.27763428816088,7.943430954936185
1769169110856,132,4,3.295696596006929,5.952106665260041,5.781315755412717
1769169110860,129,1,1.360905676888866,3.261712086003857,3.8589223385700966
1769169110864,128,0,-0.056042728692975,2.129810701692726,2.453903803796175
1769169110868,128,0,-0.8913034384880767,2.080086739101044,1.630146898716038
1769169110872,127,-1,-1.279776136382934,1.2039840950018892,1.252302922186468
1769169110876,127,-1,-1.412785923518446,0.98737104607161,1.1293132769279683
1769169110880,127,-1,-1.4068065021692986,1.3133209797293737,1.1458053672367088
1769169110884,127,-1,-1.2841198368556612,1.017577626202299,1.2802381126766105
1769169110888,127,-1,-1.046295628390344,1.2665709972077384,1.530528082746463
1769169110892,128,0,-0.745746158862457,2.0033255563522028,1.8428887127082745
1769169110896,128,0,-0.4829853407639963,2.2174049425419255,2.1159306802257856
1769169110900,128,0,-0.3426093572214412,2.121229584778077,2.265628257395351
1769169110904,128,0,-0.3390759907539795,2.178959139958418,2.278853110527729
1769169110908,128,0,-0.4182428115861509,2.168454020052449,2.2102708733178567
1769169110912,128,0,-0.4980953786628919,2.06832481887649,2.141193483484455
1769169110916,128,0,-0.5083709991131944,2.228254437600358,2.141106428565785
1769169110920,128,0,-0.4100808661942332,2.094407941997832,2.2491093229253436
1769169110924,128,0,-0.1971083413381624,2.2332466863866496,2.4718127974210784
1769169110928,129,1,0.1147097334908302,3.123773892884622,2.7933280933053313
1769169110932,129,1,0.5000070171524342,3.12516613342921,3.18783725037473
1769169110936,129,1,0.9190770153342044,3.209024692509052,3.61548172546323
1769169110940,130,2,1.2973374364867591,4.127051056516596,4.00181370830674
1769169110944,130,2,1.5255663637273729,4.202989728804663,4.237719909938651
1769169110948,130,2,1.5083898934423683,4.1750693484034365,4.228209074973824
1769169110952,130,2,1.2340400546401165,4.084622532905146,3.9624016203946577
1769169110956,129,1,0.8076656558209283,3.2864378150734193,3.545979095549594
1769169110960,129,1,0.4188033387464971,3.053439048000945,3.1675330786115907
1769169110964,129,1,0.2611392434386612,3.2937308467305275,3.018823053433218
1769169110968,129,1,0.4410186721356917,3.102217844521059,3.2052905844839956
1769169110972,129,1,0.9085322618612096,3.163195142347593,3.6780288364255624
1769169110976,130,2,1.4536616796016686,4.275507167913423,4.228467302399288
1769169110980,131,3,1.8015997962660424,5.008818185500746,4.58230322439066
1769169110984,130,2,1.76819758508465,4.431805289276506,4.555556322814088
1769169110988,130,2,1.3607018367324282,3.882794699300256,4.156036859808313
1769169110992,129,1,0.7446302307051098,3.4941626957223093,3.549192207636061
1769169110996,129,1,0.1181904915129343,2.884539034712704,2.9315000690571447
1769169111000,128,0,-0.4012305712989212,2.4773463432960776,2.4181921248543685
1769169111004,128,0,-0.818366588610624,1.952875509333715,2.004267985950805
1769169111008,127,-1,-1.2365807804065616,1.3686419089385662,1.588478100982783
1769169111012,127,-1,-1.7962570875774668,1.0584722306289105,1.032976053087498
1769169111016,126,-2,-2.5937625509843523,0.2847364491732467,0.2421079739126912
1769169111020,125,-3,-3.6094269673851023,-0.8441968455992233,-0.7659429413248415
1769169111024,124,-4,-4.691218456654728,-1.7667259424200583,-1.8412425710091969
1769169111028,123,-5,-5.6245973885532505,-2.8536661367331293,-2.7700558714292876
1769169111032,122,-6,-6.259140961871197,-3.73680843545926,-3.4011000556536906
1769169111036,122,-6,-6.602853613365195,-3.877591161711992,-3.7412663680610674
1769169111040,122,-6,-6.800477794351447,-3.6693804669063432,-3.935207833931705
1769169111044,122,-6,-7.005726769459687,-3.9241606831094007,-4.137040008979046
1769169111048,121,-7,-7.262038046998768,-4.684103662410316,-4.389923271311861
1769169111052,121,-7,-7.500206330584855,-4.898449385092982,-4.624032973003007
1769169111056,121,-7,-7.6381044695456275,-4.704856584527431,-4.757578420320132
1769169111060,121,-7,-7.669013936536968,-4.8025779457834545,-4.785099195453085
1769169111064,121,-7,-7.656955195643744,-4.794932483253809,-4.771250433364313
1769169111068,121,-7,-7.662036872574042,-4.764578275858841,-4.775132122600036
1769169111072,121,-7,-7.677748514957705,-4.856586770157161,-4.788229563305228
1769169111076,121,-7,-7.638875182202597,-4.693515626452781,-4.744039694459054
1769169111080,121,-7,-7.493489236390991,-4.815796784108915,-4.5919153181155155
1769169111084,121,-7,-7.273270970487598,-4.7491699819971585,-4.36806254030772
1769169111088,122,-6,-7.083908385979712,-3.788258106970241,-4.183234086596507
1769169111092,122,-6,-6.996266730942641,-3.851180992099783,-4.107901316997933
1769169111096,121,-7,-6.903998506733776,-4.656534796572828,-4.026407017928588
1769169111100,122,-6,-6.426832862695929,-3.859796536688392,-3.5458806415378255
1769169111104,124,-4,-4.884593644817013,-1.6574865889000874,-1.9822068973149392
1769169111108,128,0,-1.379548035813965,2.1164521595751644,1.551231130175357
1769169111112,134,6,4.875344392818132,8.281611567420116,7.822496486541678
1769169111116,142,14,13.88190291172426,16.222934393219496,16.821599131977024
1769169111120,151,23,24.08320425017116,25.275708164490347,26.995749193138735
1769169111124,160,32,32.15583018509329,34.22627838279158,35.03678979266715
1769169111128,164,36,33.977139386648304,38.221481898702585,36.83695193794338
1769169111132,157,29,26.6048806185196,31.18455484736448,29.461650256072325
1769169111136,139,11,10.148005379442765,13.276891016740334,13.02026255096134
1769169111140,116,-12,-11.796617651933207,-9.780901719780111,-8.89618044035289
1769169111144,94,-34,-33.57032819719567,-31.745226762723455,-30.64087324901746
1769169111148,78,-50,-49.88679106743186,-47.681363438700195,-46.94168304006311
1769169111152,71,-57,-57.81567377412886,-54.85708023728786,-54.87692609799134
1769169111156,72,-56,-57.3316843860281,-53.53667260371615,-54.41822082885828
1769169111160,79,-49,-50.4903939358329,-47.046237728514505,-47.60767411977707
1769169111164,88,-40,-40.06980132687493,-37.45558097079015,-37.20784329277514
1769169111168,100,-28,-28.545593619686272,-26.038771527599778,-25.68645051797277
1769169111172,110,-18,-17.717526245583098,-15.426111132508922,-14.846886853223578
1769169111176,120,-8,-8.744110120545649,-5.96751265890482,-5.859289655927183
1769169111180,127,-1,-2.209830811966034,1.38154071850122,0.6808985646538961
1769169111184,131,3,1.8874400523213604,5.076904288487829,4.77314495081085
1769169111188,132,4,4.064361229109946,6.424676498150069,6.940318042013508
1769169111192,133,5,5.06348999613708,7.1764540349599555,7.932885815477093
1769169111196,134,6,5.485078220890052,8.451761663905415,8.352849190988845
1769169111200,135,7,5.613545504364429,9.007457586307348,8.479863417256443
1769169111204,134,6,5.526967772758208,8.401025876309198,8.387514063824927
1769169111208,134,6,5.298748600334493,8.143807172979903,8.150449602175552
1769169111212,133,5,5.061351983204339,7.456923209893592,7.906167594464876
1769169111216,133,5,4.916256008845821,7.233284683793944,7.758625059062704
1769169111220,134,6,4.861130348002319,8.219967600292298,7.702534012478279
1769169111224,134,6,4.850767252259954,8.197516538989941,7.688244367336437
1769169111228,133,5,4.906169876330012,7.335570393341463,7.736352419338207
1769169111232,133,5,5.112881173696157,7.311913109701805,7.935865366662447
1769169111236,134,6,5.504271077233738,8.376096259627293,8.322343365960041
1769169111240,135,7,5.9864996495566904,9.129664876822442,8.800220819371072
1769169111244,135,7,6.404365332023897,9.241009075581989,9.211738164345665
1769169111248,135,7,6.665668466309989,9.36606441502028,9.46506827684714
1769169111252,135,7,6.786432079887822,9.2119838747316,9.57880280292158
1769169111256,135,7,6.836022214519599,9.588633251543882,9.623454216340775
1769169111260,136,8,6.872450415848561,9.842514928261398,9.655336335945996
1769169111264,135,7,6.934694872685278,9.622170029204208,9.71118392402418
1769169111268,136,8,7.064536732109834,9.93050482472548,9.832700517575772
1769169111272,135,7,7.299830369821716,9.696276910452545,10.05955554099271
1769169111276,136,8,7.641604120370307,10.10887053606866,10.393935354953932
1769169111280,137,9,8.051756738729775,11.326941479959554,10.79703852342457
1769169111284,137,9,8.502440278975412,11.19589283203653,11.240079486243983
1769169111288,137,9,9.021253009654648,11.29651401909257,11.751098706481136
1769169111292,138,10,9.675164831301316,12.420700306696707,12.397915217206982
1769169111296,139,11,10.513700548652798,13.310976395500834,13.229603639146294
1769169111300,140,12,11.53057116061507,14.220097094568324,14.238595116072242
1769169111304,141,13,12.660234281050933,15.275719197168208,15.358993976294007
1769169111308,142,14,13.787520316221883,16.24500576198897,16.476511824882127
1769169111312,143,15,14.765498591262988,17.464006540752393,17.4450985694071
1769169111316,144,16,15.455789121311655,18.287983636456985,18.126529047471095
1769169111320,144,16,15.781971164464649,18.247808301521346,18.44423561198603
1769169111324,144,16,15.758704116112252,18.302242023060938,18.412768786125948
1769169111328,144,16,15.474256751325376,18.1705241782614,18.12007137077331
1769169111332,143,15,15.041608748659842,17.598462282964405,17.67859114978514
1769169111336,143,15,14.547714096123556,17.110194781799912,17.175065857191797
1769169111340,142,14,14.022317370555893,16.504438646089532,16.639526054745325
1769169111344,142,14,13.43866717443896,16.029207839584892,16.045613883514328
1769169111348,141,13,12.745068727634775,15.454815015069004,15.341876614721734
1769169111352,140,12,11.904074520887578,14.338384077163042,14.49105511499392
1769169111356,139,11,10.909325215178017,13.325981416085837,13.486824134460738
1769169111360,138,10,9.774317419313238,12.402903582814732,12.342278950918647
1769169111364,137,9,8.514142518521556,11.0379819176541,11.071912904364432
1769169111368,135,7,7.139003311587018,9.56475875590873,9.685807653746467
1769169111372,134,6,5.660852784620683,8.127173036967587,8.196459431287305
1769169111376,132,4,4.107977622364863,6.627079498614,6.6328408093104
1769169111380,131,3,2.5412695951436017,5.08243308932435,5.056108219681604
1769169111384,129,1,1.0595833266797063,3.386459570170489,3.5647587190329846
1769169111388,128,0,-0.2176636253125785,2.2409156737189617,2.2774044867747665
1769169111392,127,-1,-1.1878117292093342,1.4086302999547262,1.2960800818475464
1769169111396,126,-2,-1.8057119817500968,0.4189941795037113,0.6661864490356528
1769169111400,126,-2,-2.106419987628898,0.2465715877333296,0.3536222552981451
1769169111404,126,-2,-2.189251309010684,0.3142704941361918,0.2596700652172767
1769169111408,126,-2,-2.161046776843956,0.2409980215441769,0.2771388009131024
1769169111412,126,-2,-2.0749514456816325,0.4754922879155192,0.3522369129261085
1769169111416,126,-2,-1.9192549816029,0.3110545910738498,0.4966056283038387
1769169111420,126,-2,-1.670620443275077,0.4100882977527598,0.733914587375101
1769169111424,127,-1,-1.3586023434180423,1.1542780125172567,1.0345615218248054
1769169111428,127,-1,-1.072450107851357,1.4016640208786757,1.3088829150443453
1769169111432,127,-1,-0.902478888282225,1.3339155915299994,1.4665744228501412
1769169111436,127,-1,-0.8754645996182338,1.437479417277905,1.4814678421959862
1769169111440,127,-1,-0.9406181463397076,1.3348269897327036,1.4047821012073312
1769169111444,127,-1,-1.007095893983899,1.2057333236212242,1.3271181441847224
1769169111448,127,-1,-0.9949216991087928,1.3982712731734117,1.3279824148756303
1769169111452,127,-1,-0.8654843206817526,1.3082736547573892,1.445833382892671
1769169111456,127,-1,-0.6217171686855814,1.4947865268263725,1.6777569683761282
1769169111460,128,0,-0.2881822452574369,2.291613224097721,1.9990785735161944
1769169111464,128,0,0.1062585884939575,2.251775854966966,2.380915246243082
1769169111468,128,0,0.5240893731200773,2.378579449272391,2.78604166791734
1769169111472,129,1,0.903602969466857,3.3124399463908687,3.153047175494031
1769169111476,129,1,1.1667916340022957,3.5110772661445946,3.404064583544194
1769169111480,129,1,1.2606684885251416,3.293183656705427,3.4862932465695105
1769169111484,129,1,1.1977948255249429,3.251928468859026,3.4122553155009587
1769169111488,129,1,1.0593654903025946,3.4116223515432567,3.2624518484494915
1769169111492,129,1,0.954709746965773,3.2343545897656716,3.1455037107573407
1769169111496,128,0,0.9542026977410918,2.66600456934825,3.1320567172029796
1769169111500,129,1,1.033299262552582,3.0820153144345728,3.1984066111885854
1769169111504,129,1,1.0787890395791326,3.557085863068462,3.2315789726019233
1769169111508,129,1,0.968157274437616,3.0374531899484225,3.1087000161908014
1769169111512,128,0,0.6560947557597689,2.664838390395672,2.7843931012593224
1769169111516,128,0,0.1871924875121484,2.219914513150279,2.30353359534813
1769169111520,127,-1,-0.3693275359310468,1.5335398638394817,1.735277456636001
1769169111524,127,-1,-0.9906701681683056,1.158669359036992,1.1019250709772552
1769169111528,126,-2,-1.711499136080819,0.3905794004145704,0.3686136116219773
1769169111532,125,-3,-2.5754371681260952,-0.6258029419954854,-0.5078463775775979
1769169111536,124,-4,-3.578080992063124,-1.535810016351331,-1.5226132348416272
1769169111540,123,-5,-4.648699237465889,-2.657434410640275,-2.60514707932521
1769169111544,122,-6,-5.6805705480391016,-3.6638496323944825,-3.6491989032993377
1769169111548,121,-7,-6.5852543929021214,-4.758601153365538,-4.5663080584784845
1769169111552,120,-8,-7.329424727515661,-5.479115355420698,-5.322624675900437
1769169111556,120,-8,-7.923097335354816,-5.678460527454082,-5.927831561169946
1769169111560,119,-9,-8.36979971176356,-6.488714375731691,-6.385724411825689
1769169111564,119,-9,-8.631353565275873,-6.842253128783861,-6.6587402319357265
1769169111568,119,-9,-8.652226270722037,-6.539457808862096,-6.691730091811494
1769169111572,119,-9,-8.431142190333997,-6.72851297048726,-6.483186482351847
1769169111576,119,-9,-8.075727788442322,-6.398660061385429,-6.140265990829532
1769169111580,120,-8,-7.774949094002853,-5.759267407477693,-5.852024867769514
1769169111584,120,-8,-7.68424373373159,-5.57628172735651,-5.774229236557284
1769169111588,120,-8,-7.807207377273808,-5.762652190926064,-5.909481558341865
1769169111592,119,-9,-7.987962705486717,-6.552249023998229,-6.0995234476998235
1769169111596,119,-9,-8.036968307979691,-6.522294486238616,-6.154112330444585
1769169111600,120,-8,-7.879436617544144,-5.6643397047828845,-6.002364525189978
1769169111604,120,-8,-7.596161002776035,-5.617082602668957,-5.731705696895835
1769169111608,120,-8,-7.339884608075749,-5.730788446893666,-5.49810167677885
1769169111612,120,-8,-7.201967986166589,-5.581380287492584,-5.388005050949345
1769169111616,120,-8,-7.075929999786518,-5.485847706182859,-5.283366646667671
1769169111620,121,-7,-6.5131669922706426,-4.7244109593757955,-4.72492918628615
1769169111624,123,-5,-4.622282892681065,-2.4699274175654637,-2.8205065601628827
1769169111628,128,0,-0.1922168570490603,2.0640483400522176,1.62861059822365
1769169111632,135,7,7.760214169166524,9.714867115068866,9.586887596696384
1769169111636,146,18,19.05626880372419,20.137441278745175,20.86347906674865
1769169111640,157,29,31.507943264669223,31.734986442062056,33.27348082917966
1769169111644,168,40,40.92273273727431,42.04381428701834,42.6399036373631
1769169111648,171,43,42.45511579526377,45.56054117234669,44.13508803773324
1769169111652,162,34,32.916129376789165,36.191338518052554,34.58194683608861
1769169111656,140,12,12.760193166912025,14.562827876693266,14.437231506733848
1769169111660,113,-15,-13.5878191064325,-12.650203317591606,-11.882508252462056
1769169111664,87,-41,-39.4144441297071,-38.62692440231157,-37.68097965612912
1769169111668,68,-60,-58.471296564314635,-57.58841890545104,-56.72833832459809
1769169111672,60,-68,-67.27079000070115,-65.6503428439477,-65.54630524231814
1769169111676,62,-66,-65.84134574222594,-63.461048158513634,-64.15740883755272
1769169111680,71,-57,-56.889734439437476,-54.69809212916566,-55.250938541343274
1769169111684,83,-45,-44.16888866848193,-42.55581083457888,-42.56149481984487
1769169111688,96,-32,-31.027176024911313,-29.71083831983715,-29.42889262173555
1769169111692,107,-21,-19.677971574123305,-18.513471940018796,-18.071540544189133
1769169111696,116,-12,-11.14247189553035,-9.621856303921,-9.52424627963974
1769169111700,122,-6,-5.522167494653999,-3.5488292289556025,-3.9007914643423978
1769169111704,125,-3,-2.32767430787046,-0.729033925682224,-0.7151934975017435
1769169111708,126,-2,-0.787231518696518,0.4927090480869887,0.8097672104729985
1769169111712,127,-1,-0.1342876866552567,1.2882081991566563,1.4483705567493597
1769169111716,127,-1,0.1809021364803609,1.6202423469179237,1.7536928162339194
1769169111720,128,0,0.4344413323739378,2.1847569706822916,1.9997403573174208
1769169111724,128,0,0.7154345591709763,2.5652303372514833,2.272285500871394
1769169111728,128,0,1.0397275962131305,2.195144245102866,2.586638849163643
1769169111732,128,0,1.3891100233676488,2.591065754032692,2.926580422793986
1769169111736,129,1,1.6947292405901415,3.3671637953245273,3.2246509382742365
1769169111740,129,1,1.8567584820110632,3.361705798769351,3.3802716144439255
1769169111744,129,1,1.828842780887033,3.49207353728149,3.3456884379869267
1769169111748,129,1,1.6885928376883013,3.1672805251882616,3.198350886924279
1769169111752,128,0,1.6074386690632436,2.7263968721955045,3.110464304560585
1769169111756,129,1,1.7338423343412894,3.162536431228387,3.2304827384395836
1769169111760,129,1,2.0933074926941417,3.6150507465521864,3.582720940660562
1769169111764,130,2,2.5870593167553126,4.234539633884675,4.0678034980836255
1769169111768,130,2,3.071574497982773,4.419182712361646,4.543608979909894
1769169111772,130,2,3.4422414195061415,4.513971627892435,4.9075472658890105
1769169111776,131,3,3.6762941975984713,5.324176433725092,5.136923095226065
1769169111780,131,3,3.838610619104805,5.512550569965077,5.294671417947299
1769169111784,131,3,4.051473805393087,5.292850589217046,5.501655906552624
1769169111788,131,3,4.422765921929032,5.422091175899323,5.866252849486541
1769169111792,132,4,4.972300837799045,6.469222204965265,6.409334022333642
1769169111796,133,5,5.628618329986008,7.404946032240844,7.059620041055006
1769169111800,133,5,6.308135729280051,7.409418318736027,7.733270494223786
1769169111804,134,6,6.998298229463103,8.432289454915114,8.417926639900598
1769169111808,135,7,7.764529368492246,9.268433004659446,9.179448347715493
1769169111812,135,7,8.682369183901855,9.629086959282898,10.09328129838176
1769169111816,137,9,9.763508396662424,11.248996610663111,11.170301639558126
1769169111820,138,10,10.939621151148527,12.56691483984559,12.341392885301536
1769169111824,139,11,12.106551135293593,13.304572575026048,13.502581862117957
1769169111828,140,12,13.17756302351512,14.368883319189605,14.568177789494117
1769169111832,141,13,14.103434406360767,15.563597341695894,15.48974025461466
1769169111836,142,14,14.863638949347584,16.26481638817959,16.2466681038472
1769169111840,142,14,15.45148551278833,16.61288682365739,16.831762374161453
1769169111844,143,15,15.863217061558537,17.235407930980557,17.240685117897534
1769169111848,143,15,16.09278287543298,17.451002118623467,17.466730188662865
1769169111852,143,15,16.131556836375033,17.489422386465336,17.500987088923356
1769169111856,143,15,15.965279333265851,17.30289264370863,17.329963368686887
1769169111860,142,14,15.56569535467269,16.639223069945857,16.926797560464323
1769169111864,142,14,14.896384774813072,16.166406422537193,16.25554945327951
1769169111868,141,13,13.952785027050547,15.562383843121069,15.310609547009983
1769169111872,140,12,12.809865700021964,14.351234845456505,14.165779026916251
1769169111876,138,10,11.611462460320324,12.44104166666997,12.964982441436344
1769169111880,137,9,10.481518942627543,11.533608710256733,11.832776043900086
1769169111884,137,9,9.434310689444615,11.247334599683974,10.783239263010705
1769169111888,135,7,8.376277050738459,9.523279957396928,9.722297428006756
1769169111892,134,6,7.1968691400493805,8.355514738949791,8.539900151686354
1769169111896,133,5,5.863563056253888,7.460618010085649,7.204819732111199
1769169111900,131,3,4.451621645832622,5.5021527856297165,5.792899665558134
1769169111904,130,2,3.1038677651218247,4.285991823797788,4.44601375793591
1769169111908,129,1,1.9594690172313252,3.510191911930841,3.301670464011946
1769169111912,128,0,1.0943758663416754,2.342158708455057,2.435055890093534
1769169111916,127,-1,0.4956315830815123,1.4986389295610496,1.8339658240802257
1769169111920,127,-1,0.0770158900592599,1.4547042386401774,1.4134567660355204
1769169111924,127,-1,-0.2647662122248047,1.3313253431414087,1.0709205299974909
1769169111928,126,-2,-0.580816453683656,0.5005626720601,0.7553214261652166
1769169111932,126,-2,-0.838738315565019,0.3068758912456926,0.4987793384432071
1769169111936,126,-2,-0.9546310844553184,0.5811972338448601,0.3845214222658235
1769169111940,126,-2,-0.8619072553815263,0.3225874423341701,0.4783002574871331
1769169111944,126,-2,-0.5701555580967421,0.5144624657145955,0.7701219907530505
1769169111948,127,-1,-0.1806467356874477,1.300273890648358,1.158969040321009
1769169111952,127,-1,0.1511504360981508,1.5157970851847078,1.49008805359325
1769169111956,127,-1,0.2859899117862594,1.3652799204452886,1.625068691730754
1769169111960,127,-1,0.1646581313615041,1.5336790557704534,1.505179940240089
1769169111964,127,-1,-0.1656077151231589,1.3144913462881265,1.1775128203183174
1769169111968,126,-2,-0.5714065182025703,0.5052209579037623,0.7748867479710291
1769169111972,126,-2,-0.8909778753417348,0.3112899270841027,0.4583167411987023
1769169111976,126,-2,-1.0022997530632485,0.5668777932623461,0.3491450423366355
1769169111980,126,-2,-0.8695769450526432,0.3321908576312937,0.4829977175758921
1769169111984,126,-2,-0.553172570707898,0.522243533780925,0.8000588066815508
1769169111988,127,-1,-0.1827119729417856,1.3148432569103146,1.1714974239643658
1769169111992,127,-1,0.101279426500068,1.480495123951018,1.457358883806679
1769169111996,127,-1,0.2148046992600965,1.4112172777698475,1.5739653566609118
1769169112000,127,-1,0.1692206170038117,1.4695906256724718,1.53259251780671
1769169112004,127,-1,0.0602673286979538,1.401815994946514,1.428240378897095
1769169112008,127,-1,0.0172852082427743,1.4386862293584763,1.3892785949672113
1769169112012,127,-1,0.1363101246133711,1.3526298435919817,1.511405164967868
1769169112016,127,-1,0.4246588879134003,1.544500193883557,1.802343896457982
1769169112020,128,0,0.7897151432236635,2.3216645506714126,2.1699789208020324
1769169112024,128,0,1.0874516587979954,2.570581361633881,2.470577549920009
1769169112028,128,0,1.201199764607738,2.2646393243668363,2.58777757958046
1769169112032,128,0,1.0960744368644488,2.523562817185073,2.4870006016899193
1769169112036,128,0,0.8194274894409063,2.380954423026188,2.2156586572560344
1769169112040,127,-1,0.4580529200064518,1.4499207562462235,1.8602501068649764
1769169112044,127,-1,0.0834164430105554,1.4949549673463365,1.4914769266780024
1769169112048,127,-1,-0.2827378429531382,1.306901640353922,1.1299939713021874
1769169112052,126,-2,-0.6688286063333353,0.5033771706333374,0.7469274775915822
1769169112056,126,-2,-1.1354774938999252,0.3896914786553123,0.2827980884687764
1769169112060,125,-3,-1.7579140592771902,-0.5764962813476167,-0.3355397719995499
1769169112064,124,-4,-2.599856118753425,-1.4479650141475893,-1.170871922234209
1769169112068,124,-4,-3.6617487524986254,-1.7743540578852257,-2.224988104441348
1769169112072,122,-6,-4.829105205827695,-3.383890407345861,-3.3855567631853676
1769169112076,121,-7,-5.888936208975701,-4.766950806202735,-4.440224224841909
1769169112080,120,-8,-6.641028674236204,-5.386113759539688,-5.187616142527041
1769169112084,120,-8,-7.024538529662607,-5.6671573032237275,-5.56569207375694
1769169112088,120,-8,-7.139668324764003,-5.523729052836397,-5.674658737216352
1769169112092,120,-8,-7.137792015237903,-5.6320306243777365,-5.666522136959114
1769169112096,120,-8,-7.084077673972284,-5.55209047636575,-5.606545258596388
1769169112100,120,-8,-6.923059902763597,-5.569586945151748,-5.438716474015597
1769169112104,120,-8,-6.573854736416848,-5.54274480901266,-5.082089250192746
1769169112108,121,-7,-6.052168567199968,-4.57112961811063,-4.553530114428709
1769169112112,122,-6,-5.492150022283225,-3.643592691736549,-3.988237651151016
1769169112116,122,-6,-5.051178100004546,-3.4857230069207623,-3.542275462755276
1769169112120,122,-6,-4.802934746791279,-3.707069644470683,-3.2860880617297727
1769169112124,122,-6,-4.718142151956371,-3.361217815366742,-3.1891751803223674
1769169112128,123,-5,-4.724585828585715,-2.7919508828905992,-3.1829808459863567
1769169112132,122,-6,-4.774999759263121,-3.3714241484712844,-3.2263956355582595
1769169112136,122,-6,-4.874997324454348,-3.789927826485415,-3.327993933756657
1769169112140,122,-6,-5.045977864959016,-3.4026466367061863,-3.505173734164811
1769169112144,122,-6,-5.1971259411598965,-3.672750092324299,-3.657364183842408
1769169112148,122,-6,-4.931487350742811,-3.500738161928441,-3.3782335736643443
1769169112152,124,-4,-3.420209230649089,-1.5932795723481563,-1.8379285502471108
1769169112156,128,0,0.4532671954181015,2.3653770005530568,2.0693524571791073
1769169112160,135,7,7.544146300226323,9.495667784001729,9.182505893092276
1769169112164,144,16,17.594850198235164,18.38501714170487,19.233875948154637
1769169112168,154,26,28.531616269868472,28.46643505430205,30.1526513543948
1769169112172,164,36,36.56252339131294,38.45714353640791,38.15971489953054
1769169112176,166,38,37.44066706926154,40.2627184521247,39.02293676436808
1769169112180,156,28,28.471465648169975,30.572496818189723,30.058351600253076
1769169112184,138,10,10.145639282702293,12.244678025888971,11.759430708870749
1769169112188,113,-15,-13.660458477511302,-12.424790998191488,-12.004544397752358
1769169112192,89,-39,-37.12567446969433,-36.615886285701336,-35.42746736041689
1769169112196,72,-56,-54.777588446392016,-53.62228057774957,-53.05300692715559
1769169112200,64,-64,-63.41651336246834,-61.448622699366574,-61.68958835483283
1769169112204,65,-63,-62.81083036081739,-60.72730209370321,-61.10058504419542
1769169112208,72,-56,-55.111112078936365,-53.427872692484286,-53.42163447094904
1769169112212,84,-44,-43.574968878253216,-41.655951807384085,-41.89520697901189
1769169112216,96,-32,-31.327871374679752,-29.61152393713192,-29.640199442117225
1769169112220,106,-22,-20.60550037383906,-19.454615956580703,-18.89613940268397
1769169112224,115,-13,-12.53952345551913,-10.795232965534456,-10.80436836248035
1769169112228,120,-8,-7.304876296343196,-5.319704207442966,-5.548676092242058
1769169112232,123,-5,-4.418493636234574,-2.857373613150091,-2.6495021392453526
1769169112236,124,-4,-3.073468112772259,-1.3463143090036134,-1.2978376657062538
1769169112240,125,-3,-2.456789178263766,-0.7380005270473133,-0.6762030007604594
1769169112244,125,-3,-1.9892811932571393,-0.5199899785838726,-0.2022614656889154
1769169112248,126,-2,-1.4180239387683238,0.4594222198016839,0.3773227089426358
1769169112252,127,-1,-0.7462740846423874,1.2650502925536211,1.0581556024572325
1769169112256,127,-1,-0.0768699249457163,1.6369432968351472,1.736755098992704
1769169112260,128,0,0.5117472234316196,2.180392299615951,2.3351428388369984
1769169112264,128,0,0.9928324635237936,2.637473119326782,2.8269667481131595
1769169112268,129,1,1.356444189878883,3.23340876364181,3.2016276402077364
1769169112272,129,1,1.585233985153097,3.511253582605428,3.440775127854376
1769169112276,129,1,1.669045470033212,3.388899760670185,3.5341721232018353
1769169112280,129,1,1.6320928907190329,3.414543236999319,3.506825900848048
1769169112284,129,1,1.541599998549085,3.4176133140427862,3.426494689574498
1769169112288,129,1,1.4916060533696744,3.420310105176592,3.386993795842766
1769169112292,129,1,1.56994617429964,3.3282845845115334,3.475745814814064
1769169112296,129,1,1.8213985615116877,3.5817624100081313,3.737396414791854
1769169112300,130,2,2.2286148776265353,4.197222779534442,4.154537041060868
1769169112304,130,2,2.7286467983073903,4.661866209277999,4.664081696005657
1769169112308,131,3,3.254999104616533,5.124286962886223,5.199670387131407
1769169112312,131,3,3.771964850639692,5.650499098320039,5.726234250038867
1769169112316,132,4,4.279445683008275,6.238684225857943,6.244320556584659
1769169112320,132,4,4.798231738605908,6.539984724845129,6.774501735994839
1769169112324,133,5,5.361027615327858,7.32812552887346,7.348260927054667
1769169112328,134,6,6.016490732813727,8.411465015414747,8.013256339072687
1769169112332,134,6,6.823588644953437,8.409046423043996,8.829010169862608
1769169112336,135,7,7.819231268592825,9.409705034462744,9.833974932130207
1769169112340,137,9,8.989272054074105,11.447915848325676,11.014661380747032
1769169112344,138,10,10.28673386210672,12.322890409687444,12.32335710088208
1769169112348,139,11,11.68005400439108,13.49360164080892,13.727583163169284
1769169112352,141,13,13.164548423597273,15.24674377499373,15.222313009825797
1769169112356,142,14,14.712165578799109,16.618170821931244,16.779379615250814
1769169112360,144,16,16.210508432267552,18.197187726936065,18.286378539545524
1769169112364,145,17,17.458634180018297,19.591059651227585,19.542900287968777
1769169112368,146,18,18.23958437324008,20.210483992449813,20.332976045761555
1769169112372,146,18,18.43077534506651,20.503264992014543,20.534573567719963
1769169112376,146,18,18.082690880590853,20.387987620386955,20.197721656520702
1769169112380,145,17,17.40680347179503,19.361164111799468,19.532971184299026
1769169112384,144,16,16.66570988526486,18.500554965898168,18.80235053584125
1769169112388,144,16,16.030825523007273,18.210838260149632,18.177134465069855
1769169112392,143,15,15.507238446640994,17.578963986016554,17.662394513608866
1769169112396,143,15,14.974775580331904,17.226713773687703,17.1381805160686
1769169112400,142,14,14.297681666914022,16.584687660006356,16.469454398562583
1769169112404,141,13,13.40736382873612,15.216789604117954,15.588435371803907
1769169112408,140,12,12.306028637097729,14.508539061985504,14.497372662387145
1769169112412,139,11,11.019570695906248,13.275274605893957,13.221241531494725
1769169112416,137,9,9.562358083809729,11.489230053727155,11.77342721484446
1769169112420,136,8,7.9452498723011376,10.3758697796158,10.164729384239935
1769169112424,134,6,6.209787426687261,8.353520020665387,8.437569869448389
1769169112428,132,4,4.451452155323805,6.4103614887802935,6.688375138078256
1769169112432,131,3,2.8088537924828136,5.330337356317699,5.0558887201265446
1769169112436,129,1,1.4229066208723171,3.4431966249205193,3.680202821825839
1769169112440,128,0,0.3881765845036398,2.4177587093682655,2.654688580829352
1769169112444,128,0,-0.2783465001827125,2.300174433344103,1.9957075682703929
1769169112448,127,-1,-0.6366829501307794,1.4554181541187785,1.6439748217539896
1769169112452,127,-1,-0.7960501496842691,1.263415872608931,1.4920785570658013
1769169112456,127,-1,-0.8719742901002192,1.5173344350229434,1.4256640259701907
1769169112460,127,-1,-0.9370005758297064,1.324237634301942,1.3712738212758833
1769169112464,127,-1,-0.9851463940143316,1.3836219793153717,1.3326494378602922
1769169112468,127,-1,-0.9468150468834056,1.3817831034600094,1.3782170784326806
1769169112472,127,-1,-0.7661825780811089,1.2711902091892495,1.5650270929750896
1769169112476,127,-1,-0.4860644085970489,1.5788157920470471,1.8524322917699736
1769169112480,128,0,-0.2478450029633929,2.168565234780047,2.0995590468565997
1769169112484,128,0,-0.176393056017388,2.6168908648202227,2.179956488347954
1769169112488,128,0,-0.2469657702579126,2.0681986045032987,2.1169877822079077
1769169112492,127,-1,-0.2799396304320349,1.6040206191484554,2.09093052178914
1769169112496,128,0,-0.092458433480381,2.228748209182955,2.286207743029708
1769169112500,128,0,0.334229487357502,2.4910495227134195,2.7216262108100775
1769169112504,129,1,0.8397599428842606,3.3345382536385735,3.235000157811866
1769169112508,130,2,1.2344920867511255,4.2949882128465555,3.6353607237157735
1769169112512,129,1,1.4566025950625232,3.4034721901005365,3.862149261303861
1769169112516,129,1,1.5814874952077047,3.357621275296861,3.9933724706059968
1769169112520,130,2,1.70143877945858,4.40128598656371,4.122064909003353
1769169112524,130,2,1.8299771030293488,4.381592816883304,4.259814182843799
1769169112528,130,2,1.9252026117325105,4.282021908742566,4.362570622249762
1769169112532,130,2,1.9706618118486183,4.381065205171213,4.413601732289921
1769169112536,130,2,2.0020995867136433,4.34766713164448,4.449783083287508
1769169112540,130,2,2.0518584615709714,4.41052468858835,4.504597609838784
1769169112544,130,2,2.0768355017863085,4.358399543336306,4.5354523766337795
1769169112548,130,2,1.9530353432711716,4.330394442913623,4.41818729267959
1769169112552,130,2,1.5598946022331883,4.284774326716255,4.031639488789146
1769169112556,129,1,0.8891428908154191,3.448904356889904,3.367132576771781
1769169112560,128,0,0.0729373906881967,2.2392825299934485,2.5569877247048183
1769169112564,127,-1,-0.7100813357668301,1.5997211948417718,1.779966722704116
1769169112568,127,-1,-1.3724452460600567,1.0186730373832489,1.1229049090031935
1769169112572,126,-2,-1.9731673324652157,0.6475459221856095,0.5260710186237831
1769169112576,126,-2,-2.645355620086935,0.0098830446048114,-0.1430231254937859
1769169112580,124,-4,-3.4688689776097217,-1.3186459225100675,-0.9623600410087968
1769169112584,124,-4,-4.393812597413876,-1.8401556284820573,-1.880906805067763
1769169112588,123,-5,-5.260096904880058,-2.5733312018260586,-2.7396621376679717
1769169112592,122,-6,-5.8877675821649245,-3.726638520034547,-3.3611089018831297
1769169112596,122,-6,-6.181644117619209,-3.700572845386798,-3.651657060595435
1769169112600,122,-6,-6.191029355595703,-3.557784011227102,-3.659905302999692
1769169112604,122,-6,-6.08733926288612,-3.673607267744764,-3.554641076546764
1769169112608,122,-6,-6.069591355591877,-3.683183172091663,-3.532539129502907
1769169112612,122,-6,-6.2489974774849415,-3.673121597576963,-3.7052296601364
1769169112616,122,-6,-6.577791379555734,-3.774694805530177,-4.0280503209641765
1769169112620,121,-7,-6.877264791530187,-4.479200464266021,-4.3248615857931245
1769169112624,121,-7,-6.96988379113568,-4.8089508903002836,-4.417229269297285
1769169112628,121,-7,-6.827908473851117,-4.4746163954062155,-4.273871235379499
1769169112632,122,-6,-6.6008146167548425,-3.980070941835614,-4.041697892613188
1769169112636,122,-6,-6.473357465986062,-3.4181326268037058,-3.906388781152763
1769169112640,122,-6,-6.480959887373987,-3.905763029624718,-3.9072083106009967
1769169112644,121,-7,-6.475221897439601,-4.375878342520284,-3.900036896215698
1769169112648,122,-6,-6.283970688488818,-3.8972899035641895,-3.714581407201988
1769169112652,122,-6,-5.886742218706557,-3.6247013724497767,-3.327386327304392
1769169112656,123,-5,-5.372998068731151,-2.720014823820137,-2.819736772357953
1769169112660,124,-4,-4.6451162925154845,-1.691026602773427,-2.085014371894118
1769169112664,125,-3,-3.1061617760145452,-0.5339223907254058,-0.5244123002432586
1769169112668,129,1,0.3073508497592927,3.186973869473867,2.915605589719264
1769169112672,135,7,6.545657803912327,9.325211646083668,9.168756583104384
1769169112676,143,15,15.4912989953318,17.283575099935796,18.107067305699744
1769169112680,152,24,25.19738215828095,26.334310664362903,27.787413309915465
1769169112684,160,32,32.02032812780054,34.39532759532959,34.58065585273379
1769169112688,162,34,31.961273554678648,36.24238145781811,34.50287629042957
1769169112692,152,24,22.692194820438377,26.194670672266714,25.23444648457275
1769169112696,133,5,5.063332614401196,7.375633266104982,7.625597869938581
1769169112700,111,-17,-16.943638418411904,-14.811986380883427,-14.350136702490836
1769169112704,89,-39,-37.85527592006946,-36.448339297585704,-35.233216380693165
1769169112708,75,-53,-52.94880345711212,-50.876629566694525,-50.31437483881894
1769169112712,69,-59,-59.83842902629826,-56.61356353810008,-57.21330557680394
1769169112716,70,-58,-58.73850976569003,-55.79423493975436,-56.13818091706831
1769169112720,77,-51,-51.635633618985594,-48.70038450956103,-49.06136371112248
1769169112724,87,-41,-41.131836782179406,-38.55414795595334,-38.571479083319346
1769169112728,98,-30,-29.611376575633685,-27.90384890374771,-27.0483394028961
1769169112732,109,-19,-18.897682264448957,-16.479489309098568,-16.32174381503019
1769169112736,119,-9,-10.187370864180595,-7.064242846827093,-7.599624125231973
1769169112740,124,-4,-4.036753176606633,-1.386083381200495,-1.4455358307941035
1769169112744,128,0,-0.3870752519488487,2.026425990818433,2.2004801218847443
1769169112748,129,1,1.2793749526616272,3.505327149011435,3.862118307881801
1769169112752,130,2,1.6658059424241802,4.139798831902821,4.24654210056692
1769169112756,130,2,1.410699481304198,4.271584798818823,3.991410375300686
1769169112760,129,1,0.9741688307892192,3.3432715309412,3.5538121860582494
1769169112764,129,1,0.647064588811439,3.150826453854739,3.2230559763207207
1769169112768,129,1,0.5937406196871926,3.4806597415319676,3.1647260068278507
1769169112772,129,1,0.864982664222921,3.0376030146339073,3.4321922930752153
1769169112776,129,1,1.390476062862652,3.494043552424821,3.95632089524807
1769169112780,131,3,2.009004864738292,5.010161202727353,4.574173042972471
1769169112784,131,3,2.5614516491157637,5.4921829553086745,5.123972730139332
1769169112788,131,3,2.978816546148624,5.092440599503241,5.536523475392858
1769169112792,131,3,3.2769446827897832,5.410170038213253,5.830094592305246
1769169112796,132,4,3.480126243357088,6.153946762536168,6.030720945627715
1769169112800,132,4,3.588138465521239,6.275988992842492,6.137243532107395
1769169112804,132,4,3.633583571478668,6.25156729543113,6.180325406268261
1769169112808,132,4,3.741875217394368,6.245814852825403,6.284885548078166
1769169112812,132,4,4.089588156813772,6.30157326335067,6.628476936325749
1769169112816,133,5,4.774688270579451,7.209757356900266,7.309702881187803
1769169112820,134,6,5.718235799152709,8.242684703716474,8.248930441358631
1769169112824,135,7,6.69580488275522,9.218673083736494,9.220774358383098
1769169112828,136,8,7.477369077142599,10.280191007744971,9.995732757409902
1769169112832,136,8,7.960540264676139,10.230485119484472,10.473493932847056
1769169112836,136,8,8.202849994291709,10.27467866576425,10.71300054119362
1769169112840,137,9,8.360984424781266,11.1629526652465,10.869670272400676
1769169112844,137,9,8.609538693794462,11.25435277919859,11.11517966007685
1769169112848,137,9,9.08126807253139,11.244392459605988,11.58078625301925
1769169112852,138,10,9.822425056134898,12.229838967443635,12.314016868403442
1769169112856,139,11,10.769018447156784,13.282359244675895,13.25329532679083
1769169112860,140,12,11.776787158932406,14.108875807426555,14.255644631756727
1769169112864,141,13,12.707092132147666,15.305658991755548,15.181912316956817
1769169112868,142,14,13.509339239045564,16.150312328474307,15.980111523777431
1769169112872,142,14,14.226240135318289,16.313628570603797,16.69184262835249
1769169112876,143,15,14.91026924897382,17.178931580104777,17.369213886544188
1769169112880,144,16,15.525266500302664,18.184606929398484,17.97648613501504
1769169112884,144,16,15.927070610521405,18.21349540983887,18.370663286195764
1769169112888,144,16,15.948095647805015,18.21787965885791,18.385350440243112
1769169112892,144,16,15.52457080301186,18.217539779319747,17.956764373603367
1769169112896,143,15,14.76984649761606,17.270614501615604,17.196973028200624
1769169112900,142,14,13.924829998328164,16.031548237541195,16.345811852550675
1769169112904,141,13,13.201027423693429,15.402218060943524,15.61494937856911
1769169112908,141,13,12.630287182484834,14.939386893928296,15.036939406532603
1769169112912,140,12,12.050865606702745,14.547658037753996,14.450170024233088
1769169112916,140,12,11.247886967519705,13.862095111241922,13.639381277422434
1769169112920,138,10,10.125186296845126,12.448054750261807,12.50845116348006
1769169112924,137,9,8.759219428660785,10.950353437323075,11.134649780876453
1769169112928,135,7,7.304009232380666,9.34088719394451,9.672716748617264
1769169112932,134,6,5.859514813770893,8.177467804292949,8.222236226293319
1769169112936,133,5,4.438105070816157,7.148479048012974,6.794347969684155
1769169112940,131,3,3.0470320581903065,5.2242207152143,5.395427540930298
1769169112944,130,2,1.780171084131852,4.049801229498161,4.119597815280714
1769169112948,129,1,0.8095732003227312,3.3046922089336053,3.1400445534725656
1769169112952,128,0,0.2747963853869102,2.107094944738241,2.5974516552898703
1769169112956,128,0,0.1726167251852777,2.2718760172735584,2.488555855744002
1769169112960,129,1,0.3582583564851864,3.048571640862487,2.66705026364192
1769169112964,129,1,0.6656185860663255,3.19350527307409,2.9654405807054527
1769169112968,129,1,1.0261483526392894,3.1527717709616554,3.3159298775286965
1769169112972,129,1,1.4620642587441224,3.1950441794436,3.742912077294261
1769169112976,130,2,1.9759620183367863,4.196145147281348,4.24965672354724
1769169112980,131,3,2.4808379819729938,5.093581793442819,4.7473594453375485
1769169112984,131,3,2.8551373629584353,5.112928396111547,5.112705529535062
1769169112988,131,3,3.050271348817127,5.234869328582408,5.297766360000647
1769169112992,131,3,3.126571600173325,5.030209239015672,5.364899267527074
1769169112996,131,3,3.1920000367041137,5.38742673803636,5.422733496518628
1769169113000,132,4,3.3204218145023368,5.842524527019342,5.543831839731933
1769169113004,131,3,3.51907802404946,5.381634604562556,5.733963465675501
1769169113008,132,4,3.745899636734148,5.909371867291906,5.950847234341279
1769169113012,132,4,3.943208472832058,6.33546799061013,6.137624499815119
1769169113016,132,4,4.0644830501561255,6.040978832243779,6.248853432515739
1769169113020,132,4,4.086073892128597,6.180984853759772,6.261597361392342
1769169113024,132,4,4.009421597017727,6.029505696394224,6.177046575599176
1769169113028,132,4,3.867433385734896,6.209772294730952,6.0269956517150245
1769169113032,132,4,3.730174369945455,6.0239087452767475,5.8807219882303405
1769169113036,131,3,3.681796516603137,5.298385613821109,5.8227333148273335
1769169113040,132,4,3.764199673211977,5.925846112781121,5.895644885206341
1769169113044,132,4,3.93412062411741,6.264714490680699,6.056164298221622
1769169113048,132,4,4.079920230606623,5.92465267773855,6.192143524129186
1769169113052,132,4,4.08419538821399,6.298084037203509,6.186200045147434
1769169113056,132,4,3.8774105054582138,5.973976860589742,5.969533771357035
1769169113060,131,3,3.4481111598779637,5.2293499097929566,5.531317140089538
1769169113064,131,3,2.8204813840259635,4.963573297749931,4.8954379985836844
1769169113068,130,2,2.031600343761598,4.1540747563079226,4.097918141542639
1769169113072,129,1,1.1242810578600588,3.080020690017078,3.1808141496978477
1769169113076,128,0,0.1438321145290375,2.11895877406021,2.189757867583884
1769169113080,127,-1,-0.8731981995543516,1.0947061331313863,1.1623294754397062
1769169113084,126,-2,-1.907608519694015,0.0577884053483943,0.1184561892585986
1769169113088,125,-3,-2.9461396088372505,-0.9643744292186636,-0.9287691020065544
1769169113092,124,-4,-3.9553540387234065,-1.8331551172041125,-1.946684942956439
1769169113096,123,-5,-4.8700853188860656,-3.00825975132594,-2.870775839427151
1769169113100,122,-6,-5.618960527963751,-3.7937295065357146,-3.6297164839562273
1769169113104,122,-6,-6.172772625668666,-4.078189413699879,-4.193826637558841
1769169113108,121,-7,-6.572118213780417,-4.865114057150448,-4.603159519672753
1769169113112,121,-7,-6.90198191030334,-4.953336015720739,-4.942508481953928
1769169113116,121,-7,-7.226262484100969,-4.940064023188937,-5.275907813148231
1769169113120,120,-8,-7.53721010473641,-5.864500571721508,-5.595719186375117
1769169113124,120,-8,-7.770007813909734,-6.061377376310314,-5.837298211113232
1769169113128,120,-8,-7.87188786724584,-5.880695008454865,-5.948557860853554
1769169113132,120,-8,-7.858452470325602,-6.006367905574493,-5.945879230049481
1769169113136,120,-8,-7.805145412618252,-5.89050005941021,-5.904250925964649
1769169113140,120,-8,-7.787439350799833,-5.949453914233108,-5.897029938086912
1769169113144,120,-8,-7.823662033001004,-6.015091695228468,-5.940401378122133
1769169113148,120,-8,-7.863555046068263,-5.938097585764255,-5.984342887277206
1769169113152,120,-8,-7.832723940616348,-6.012336510072098,-5.95791616474587
1769169113156,120,-8,-7.710865339532993,-5.894827000062371,-5.845695057049382
1769169113160,120,-8,-7.589878394985828,-5.965698444299653,-5.742367487398566
1769169113164,120,-8,-7.636687757817145,-6.062945391080586,-5.81240631576458
1769169113168,120,-8,-7.912950895057909,-5.865417222983079,-6.109201249837883
1769169113172,120,-8,-8.105142721365644,-6.201051956446473,-6.3089506951206715
1769169113176,120,-8,-7.343951844954544,-5.65017018786309,-5.5378541506653995
1769169113180,124,-4,-4.333907126704636,-2.308433251798748,-2.5082641468238114
1769169113184,130,2,2.089010914723207,4.309778225426881,3.926216055343039
1769169113188,140,12,12.07748597881979,13.714804542032477,13.903275155730666
1769169113192,150,22,23.96161979458838,24.1886881629414,25.752428732283885
1769169113196,161,33,34.11427262206011,34.95413122386151,35.86031581199332
1769169113200,167,39,37.972187359467306,40.98155704033758,39.68159333202121
1769169113204,161,33,32.03511578133363,35.02583686262364,33.728313519645226
1769169113208,144,16,15.831970022211044,17.841728813060943,17.532244690818086
1769169113212,120,-8,-7.401418664990807,-5.917650675361434,-5.677519729750688
1769169113216,95,-33,-31.87581440016927,-31.07294194491067,-30.12591927092088
1769169113220,75,-53,-51.6166943426585,-50.89378431245516,-49.85425435988276
1769169113224,65,-63,-62.71788249713516,-61.09801340578911,-60.965783000015584
1769169113228,64,-64,-64.35731764141394,-61.96224196614094,-62.636134497779246
1769169113232,70,-58,-58.32766393844173,-56.15809635752252,-56.64520471742088
1769169113236,80,-48,-47.698807017131585,-45.910966602904395,-46.04717934455445
1769169113240,92,-36,-35.51076046618371,-34.10795301672874,-33.87250431829878
1769169113244,103,-25,-24.046928209639084,-22.95413629127346,-22.40586561292676
1769169113248,113,-15,-14.681577642454368,-13.095920825569983,-13.03128639494751
