timestamp_ms,ecg_u8_raw,ecg_counts_raw_int,ecg_counts_filt_monitor,ecg_counts_filt_diagnostic,ecg_counts_filt_st
1769180074916,119,-9,-6.909701282640831,-8.381657044406753,-8.223636813535027
1769180074920,119,-9,-7.01075637840197,-8.797605583159738,-8.34142868602024
1769180074924,119,-9,-7.086116617449139,-8.387504697306245,-8.431861292717052
1769180074928,119,-9,-7.112540597529047,-8.399524787396137,-8.472207541345545
1769180074932,119,-9,-7.107880149618363,-8.404715833045108,-8.48193344190286
1769180074936,119,-9,-7.089582269890849,-8.551304352253164,-8.478966408921991
1769180074940,119,-9,-7.055653641467879,-8.68745249501634,-8.460385653739522
1769180074944,119,-9,-7.006604081953958,-8.464281924225984,-8.425972246089731
1769180074948,119,-9,-6.9664580601801624,-8.360165604984815,-8.400099752479324
1769180074952,119,-9,-6.966850764195958,-8.376129259599383,-8.414876245927413
1769180074956,119,-9,-7.010567049048633,-8.56212590550111,-8.472586015966382
1769180074960,119,-9,-7.055535829437982,-8.700054926378407,-8.530227323439574
1769180074964,119,-9,-7.03382761397139,-8.450542015894083,-8.520014008065967
1769180074968,119,-9,-6.887637861732084,-8.392997769067769,-8.3857184984871
1769180074972,119,-9,-6.602590047149616,-8.272061612039241,-8.114497024080475
1769180074976,120,-8,-6.230772557372687,-7.667530776219446,-7.758119261329733
1769180074980,120,-8,-5.893494849175453,-7.581158374744532,-7.435634070673715
1769180074984,120,-8,-5.743540760748607,-7.623391770830757,-7.297736264387247
1769180074988,120,-8,-5.8780458315491675,-7.179018434927344,-7.441871645486396
1769180074992,120,-8,-6.242685294775875,-7.476459023873038,-7.815963371811343
1769180074996,119,-9,-6.619358098894168,-8.41254115010019,-8.203396869521182
1769180075000,119,-9,-6.755598226949294,-8.863347821739922,-8.35121964476674
1769180075004,119,-9,-6.556500468796206,-8.366422369868118,-8.163779761329135
1769180075008,120,-8,-6.163073522880646,-7.409221214792384,-7.782471193675515
1769180075012,120,-8,-5.831405240823598,-7.222707888139032,-7.463507785448852
1769180075016,120,-8,-5.724219120419474,-7.605921751985567,-7.3679200827364895
1769180075020,120,-8,-5.801446494140017,-7.732847179751362,-7.453684690741333
1769180075024,120,-8,-5.877203746732098,-7.493180516057929,-7.535563258131754
1769180075028,120,-8,-5.7603629577518465,-7.301860739825845,-7.425545276770187
1769180075032,120,-8,-5.368798229358062,-7.244377803009086,-7.043838329441222
1769180075036,121,-7,-4.769812854773782,-6.571459993685253,-6.4569752636536775
1769180075040,122,-6,-4.146160499774471,-5.783380919977463,-5.844905211557261
1769180075044,122,-6,-3.702688771897795,-5.48799609628003,-5.41042444997483
1769180075048,122,-6,-3.5516399558903275,-5.283307404086082,-5.266054964534213
1769180075052,122,-6,-3.640337798036795,-5.223426707215484,-5.360885791448513
1769180075056,122,-6,-3.776419339880721,-5.536866311303421,-5.503692372912195
1769180075060,122,-6,-3.7483104954497937,-5.885897225564323,-5.482509782698345
1769180075064,122,-6,-3.460205817669664,-5.367889402476243,-5.200953969480693
1769180075068,123,-5,-2.972703334566837,-4.441211160033941,-4.720269281837374
1769180075072,123,-5,-2.418724100396092,-3.953785880241762,-4.174297335818775
1769180075076,124,-4,-1.888015141359336,-3.81580114524874,-3.652014320679557
1769180075080,124,-4,-1.3965406032197367,-3.6222692989681144,-3.1672526257123876
1769180075084,125,-3,-0.9438339511626856,-2.6707357455519847,-2.7186214796946437
1769180075088,125,-3,-0.5576873263905675,-2.140028404157163,-2.3354719184147794
1769180075092,125,-3,-0.2622599373751626,-2.1550562787711067,-2.044257477393822
1769180075096,126,-2,-0.0201483886843645,-1.6248232743420212,-1.808139778729308
1769180075100,126,-2,0.2635692984822411,-1.8077347344153345,-1.5307335478958093
1769180075104,126,-2,0.6664117157452512,-1.5702785854052137,-1.1328779526861998
1769180075108,127,-1,1.1845523869902808,-0.1899942585012625,-0.6181323684831597
1769180075112,127,-1,1.7520257350420518,-0.0406143590870609,-0.0531616136340602
1769180075116,128,0,2.3163285283251795,0.2713582998962121,0.5090486914783205
1769180075120,129,1,2.8777415170086376,1.300176841429466,1.068498707760698
1769180075124,129,1,3.4436942233195804,1.220159875037425,1.63177769153486
1769180075128,129,1,3.942981407200513,2.0732773180792377,2.1267282122975635
1769180075132,130,2,4.1858010707716335,2.777185007573806,2.3641365958232954
1769180075136,129,1,3.9191435858294703,1.4358750217023857,2.093464230413396
1769180075140,129,1,2.9619135354695043,1.174265716093145,1.1356083823615608
1769180075144,128,0,1.3537056432417,0.1974448431946855,-0.4707541717402268
1769180075148,124,-4,-0.5811772265422306,-2.796423774129264,-2.4042517347312655
1769180075152,123,-5,-2.3390320670671185,-4.3476529781780755,-4.162860986885054
1769180075156,122,-6,-3.4882666874875192,-5.347109401667155,-5.313713488892908
1769180075160,122,-6,-3.904895360867208,-6.121222089813052,-5.730298271741221
1769180075164,122,-6,-3.8103107256447273,-5.535566086530035,-5.633640065414061
1769180075168,122,-6,-3.576165740218865,-5.027005923860604,-5.398593323080881
1769180075172,122,-6,-3.4551260061153144,-5.085914984275228,-5.281453075286792
1769180075176,122,-6,-3.464331100616442,-5.526373309769334,-5.298044337198198
1769180075180,122,-6,-3.5041174656585463,-6.049971878641423,-5.341172829695786
1769180075184,122,-6,-3.5505496403369774,-5.614751154704388,-5.379289225391301
1769180075188,122,-6,-3.6768026448802384,-4.930071465838058,-5.486642101817185
1769180075192,122,-6,-3.867670262298098,-5.110346450975752,-5.660262599626845
1769180075196,122,-6,-3.885758369500546,-5.457792066078609,-5.6781134582094595
1769180075200,122,-6,-3.457643567265603,-6.1777334853264225,-5.2717291763673515
1769180075204,122,-6,-2.677762591638027,-5.5723589252581744,-4.522024073416094
1769180075208,123,-5,-2.142427285954982,-3.87991280567427,-3.9995404735972633
1769180075212,123,-5,-2.4134003771962877,-4.130209440445614,-4.2476907526387215
1769180075216,124,-4,-3.0388920245533604,-3.379430620756871,-4.8227227072271805
1769180075220,126,-2,-2.0242131223481277,-2.267672456571835,-3.762851567509504
1769180075224,129,1,3.34188331095136,1.289316361792224,1.6121849975469829
1769180075228,137,9,14.32787597209034,10.56710031107729,12.569777235953817
1769180075232,149,21,28.67604703317026,21.219696161935165,26.87865497192632
1769180075236,166,38,40.635125530079975,39.631902870075336,38.812198503350665
1769180075240,181,53,43.92498302857883,51.410426682045646,42.095863673112305
1769180075244,161,33,35.859365310925064,34.65481041709795,34.04255908162767
1769180075248,140,12,19.34609365574891,12.063157420715054,17.564359994388198
1769180075252,124,-4,1.044285154310861,-2.2518383235130575,-0.6842294533778781
1769180075256,113,-15,-12.74213818457636,-14.78748093355562,-14.425667280084204
1769180075260,108,-20,-19.212176369851015,-20.152976305531233,-20.888804053302135
1769180075264,108,-20,-19.38799988146961,-19.469878708134427,-21.098340059661226
1769180075268,110,-18,-16.227322593525884,-17.145588019431045,-17.98216455123097
1769180075272,112,-16,-12.435991401409398,-14.832114412690595,-14.209949253043913
1769180075276,115,-13,-9.405997274160036,-12.525512676940416,-11.160518709527182
1769180075280,119,-9,-7.402351076842601,-9.142061853019769,-9.115378896364358
1769180075284,120,-8,-6.229905234593109,-7.516734639737036,-7.9075418760599
1769180075288,120,-8,-5.657375498499158,-7.083660938409231,-7.321925275216064
1769180075292,120,-8,-5.463078308384361,-6.973244158961875,-7.132161762049885
1769180075296,120,-8,-5.377525028457987,-7.430475923899331,-7.05278921699612
1769180075300,121,-7,-5.1446772496999404,-7.153420310516607,-6.816148411849755
1769180075304,121,-7,-4.6565360270458385,-6.394135333010666,-6.314511147777996
1769180075308,122,-6,-3.992606798056837,-5.260953875625965,-5.63523976509296
1769180075312,122,-6,-3.311404527644118,-4.821267469319161,-4.94304513074834
1769180075316,123,-5,-2.711673567000193,-4.670887367043333,-4.336266744261133
1769180075320,124,-4,-2.1976774812202464,-3.8111362353857423,-3.814710335158568
1769180075324,124,-4,-1.7475310132482682,-3.656017648395925,-3.353689589515084
1769180075328,124,-4,-1.3721101627582717,-3.039515309191859,-2.9655486024996276
1769180075332,125,-3,-1.0875790117811384,-2.0515094234290507,-2.6695729321107757
1769180075336,125,-3,-0.8503099824933407,-2.5661930934446784,-2.422642475538563
1769180075340,125,-3,-0.5597751158360315,-2.748490697248218,-2.1216655567760805
1769180075344,126,-2,-0.1443011469349171,-1.7397797218736262,-1.693336783397982
1769180075348,126,-2,0.3753262623139419,-0.868802843126127,-1.1605069337897156
1769180075352,127,-1,0.9236518522035644,-0.3753428425228986,-0.601633206004661
1769180075356,127,-1,1.4492895468874032,-0.2021486726675569,-0.0674754368778968
1769180075360,128,0,1.93752295126703,-0.102318116198663,0.4312084923923638
1769180075364,128,0,2.3647126359601325,0.699521349092513,0.8729375338846095
1769180075368,129,1,2.7017714474462196,1.7170128077522886,1.225972374377124
1769180075372,129,1,2.9971522338120264,1.8990817471960195,1.5347033263053724
1769180075376,129,1,3.419212893838055,1.6162267499360348,1.9672699030536385
1769180075380,130,2,4.1484289427379695,1.9845545004563745,2.7077010277705797
1769180075384,131,3,5.203148450515145,3.8299495318452657,3.776600791265433
1769180075388,133,5,6.401389387799937,5.455821080029668,4.990058215264545
1769180075392,133,5,7.521869767911815,6.202255068991827,6.123679424812828
1769180075396,135,7,8.493152161114992,7.238395765150628,7.106128274808571
1769180075400,135,7,9.407194820171236,7.402090878929608,8.032509336609763
1769180075404,136,8,10.36215033820559,8.502591927346884,9.002901609394575
1769180075408,138,10,11.33198686639702,10.7345118445751,9.989472363802546
1769180075412,138,10,12.20900749558971,10.951326466578584,10.881514279727336
1769180075416,139,11,12.9457218072583,11.38873435278754,11.631190346762018
1769180075420,140,12,13.612382283167689,12.361166601863186,12.31108201696547
1769180075424,140,12,14.305258727793662,12.522763772690272,13.019058864500511
1769180075428,141,13,15.01837700294248,13.770268609820246,13.748015188109154
1769180075432,142,14,15.619359911007953,14.864442765523162,14.363573366405006
1769180075436,142,14,15.943970635019127,14.449071962933994,14.701591542973413
1769180075440,142,14,15.906690568030124,14.343942002611556,14.67868216882552
1769180075444,142,14,15.53761211647639,14.567825218337369,14.326198567734744
1769180075448,141,13,14.94542919690943,13.734581662897094,13.75160462399097
1769180075452,140,12,14.250579053992364,12.876337173930796,13.073238858780332
1769180075456,140,12,13.520169162373971,12.420756486640972,12.357567978948316
1769180075460,139,11,12.729928697033696,11.385788213719987,11.581407896702554
1769180075464,138,10,11.781568129374335,10.593829611545935,10.647812939016386
1769180075468,137,9,10.578117605127805,9.675534323477606,9.460237695935724
1769180075472,135,7,9.110062541801977,7.959193490137074,8.008837738730357
1769180075476,134,6,7.482812577362019,6.2591401649620675,6.398648864499944
1769180075480,132,4,5.858306595302137,4.633236232500507,4.791333896049176
1769180075484,131,3,4.358327735988609,3.3269521756445397,3.3082641550025156
1769180075488,129,1,3.007157165223698,2.0054947172946247,1.9733254180657127
1769180075492,128,0,1.7485084324910392,0.5715222945806224,0.7302598838133586
1769180075496,127,-1,0.5081537680505779,-0.3627930585537382,-0.4946205849140725
1769180075500,126,-2,-0.7526746150217116,-1.7101245877701057,-1.739335900613911
1769180075504,124,-4,-2.027334339217546,-3.3300810379719703,-2.9968565074364104
1769180075508,123,-5,-3.286592595124816,-4.270598023976062,-4.238466257361781
1769180075512,122,-6,-4.494437616924755,-5.240532967815118,-5.429204965859305
1769180075516,121,-7,-5.5986948034032515,-6.50499343854914,-6.51709005014375
1769180075520,120,-8,-6.524138042433442,-7.607015106500585,-7.425698542491064
1769180075524,119,-9,-7.195860133202629,-8.338728293599026,-8.079201193895715
1769180075528,119,-9,-7.573118486592218,-8.307641928849918,-8.437938765982226
1769180075532,119,-9,-7.65915944421716,-8.17304408333633,-8.507136062036501
1769180075536,119,-9,-7.496631507395357,-8.633130497207585,-8.329584321375354
1769180075540,119,-9,-7.177858959119525,-8.427864947838707,-7.995583943698165
1769180075544,120,-8,-6.847333763056206,-7.497121476757796,-7.648021141956751
1769180075548,120,-8,-6.642423472208591,-7.155474052650005,-7.4246965588434595
1769180075552,120,-8,-6.590893317696685,-7.305174365569051,-7.354509524059593
1769180075556,120,-8,-6.57057540386523,-7.57579771444432,-7.315564902346029
1769180075560,120,-8,-6.397224196240943,-7.396214354532048,-7.123678575779168
1769180075564,121,-7,-5.973846173219116,-6.584759609349122,-6.682817883032029
1769180075568,121,-7,-5.372082957197604,-5.959734462476121,-6.065564587380055
1769180075572,122,-6,-4.787755662172081,-5.6055364288434415,-5.466879100143254
1769180075576,122,-6,-4.418152360601708,-5.207002396786925,-5.08165627330343
1769180075580,123,-5,-4.344744865170571,-4.832395756663199,-4.989734516217799
1769180075584,122,-6,-4.481720058036501,-5.067241913177225,-5.105995650358444
1769180075588,122,-6,-4.617182005852064,-5.492256650611973,-5.220929623208447
1769180075592,122,-6,-4.532791792462891,-5.077666554425797,-5.118396830851758
1769180075596,123,-5,-4.1384867534297936,-4.727256311941513,-4.708731062324602
1769180075600,123,-5,-3.5394544864902833,-4.354619528783843,-4.095434159823137
1769180075604,124,-4,-2.9865347990147737,-3.438473632633538,-3.5270332669042785
1769180075608,124,-4,-2.7286695516769264,-3.198443289835002,-3.2515503352960775
1769180075612,124,-4,-2.8530002587220165,-3.2914526092829735,-3.3570884379160173
1769180075616,124,-4,-3.224125395514976,-3.622650776242651,-3.7095673029245058
1769180075620,123,-5,-3.579457819543907,-4.3743663598667055,-4.046574401825897
1769180075624,123,-5,-3.71813187896802,-4.453732333529865,-4.166821596510427
1769180075628,123,-5,-3.631623513661243,-4.107643757450463,-4.062423852628467
1769180075632,124,-4,-3.467031104991931,-3.4396255546312706,-3.8819386594165137
1769180075636,124,-4,-3.373596454114655,-3.4485742855412744,-3.7744138414720942
1769180075640,123,-5,-3.3959272936961797,-4.57977727245125,-3.7817598078712393
1769180075644,123,-5,-3.5023260292553866,-4.204090886028459,-3.8700661921079504
1769180075648,124,-4,-3.66439458610421,-3.3535030445425793,-4.0121049188048135
1769180075652,123,-5,-3.865950229097049,-4.195674131431999,-4.194706664447741
1769180075656,123,-5,-4.052004565586518,-4.696057271804295,-4.364105155560598
1769180075660,123,-5,-4.121452209615501,-4.337966778380419,-4.417928771818972
1769180075664,123,-5,-3.9982252437705954,-4.4254341825610375,-4.278606021187569
1769180075668,123,-5,-3.7082454467316217,-4.128516267283643,-3.971898890466675
1769180075672,124,-4,-3.381801150868212,-3.391941239403609,-3.628789914239299
1769180075676,124,-4,-3.1757398817282443,-3.5395328731026967,-3.4065510638776324
1769180075680,124,-4,-3.1778162753466397,-3.471351262831769,-3.3926645096130112
1769180075684,124,-4,-3.363924826816689,-3.298229997093449,-3.562355633620288
1769180075688,123,-5,-3.632399481206099,-4.242017886461969,-3.813545232617205
1769180075692,123,-5,-3.877767639645304,-4.2553089420536505,-4.041253300561505
1769180075696,124,-4,-4.038470722057968,-3.707829435622594,-4.185102811155165
1769180075700,123,-5,-4.090548860812342,-4.277254473878363,-4.221632443184789
1769180075704,123,-5,-4.024900328381715,-4.507390932660535,-4.140828545855843
1769180075708,123,-5,-3.851522114327612,-3.995494300539148,-3.9516784365802553
1769180075712,124,-4,-3.615943817560283,-3.5159299568137015,-3.7000122285434873
1769180075716,124,-4,-3.389356941027069,-3.4494156838858143,-3.457882569356575
1769180075720,124,-4,-3.236225336075025,-3.520973871179909,-3.2896530504736106
1769180075724,124,-4,-3.1906608424966834,-3.2848311373727137,-3.228570570353492
1769180075728,124,-4,-3.248524898268716,-3.1698401426899983,-3.2702258975519123
1769180075732,124,-4,-3.363902481606861,-3.3780986606797105,-3.369358869298626
1769180075736,124,-4,-3.4561308366940677,-3.556790516034515,-3.4459659842159684
1769180075740,124,-4,-3.442704763966897,-3.432206347008859,-3.41753374267298
1769180075744,124,-4,-3.2871878604938134,-3.359866033543146,-3.2472495405234154
1769180075748,124,-4,-3.0247965768932943,-3.0812028204492656,-2.970174429726171
1769180075752,125,-3,-2.7402540404889093,-2.4685461640431887,-2.6711173773815893
1769180075756,125,-3,-2.5148348580264743,-2.4618679888327932,-2.431238071852252
1769180075760,125,-3,-2.3875379373448227,-2.5330517620548316,-2.289230055943601
1769180075764,125,-3,-2.3554336258755404,-2.253308128389113,-2.2423023814906293
1769180075768,125,-3,-2.394853349101001,-2.1779972166231945,-2.2674393369944412
1769180075772,125,-3,-2.474181441262159,-2.3657497473598683,-2.333180173543454
1769180075776,125,-3,-2.554654297179875,-2.564825810943702,-2.3998348631311663
1769180075780,125,-3,-2.5900410285523945,-2.428606077068518,-2.4202785026867866
1769180075784,125,-3,-2.5260950272221097,-2.3618124037854877,-2.3408951080645517
1769180075788,125,-3,-2.300639029832499,-2.0496437317451424,-2.101258226049715
1769180075792,126,-2,-1.8627657488529707,-1.4927787455233263,-1.6511669025536402
1769180075796,126,-2,-1.2241135553845015,-1.4341727677195844,-1.0008224358709337
1769180075800,127,-1,-0.5057684393443371,-0.5623952978443436,-0.2694957674385021
1769180075804,128,0,0.0919061184182026,0.7656946915928221,0.3422377874400287
1769180075808,128,0,0.4132022452104005,0.8524434032559025,0.6768594767542253
1769180075812,128,0,0.4664399175506792,0.5837853452506494,0.7420129879730836
1769180075816,128,0,0.4143889211821454,0.5269416493284357,0.7020159458906501
1769180075820,128,0,0.4363698818973074,0.4160623395021532,0.7377725787483356
1769180075824,128,0,0.6016053696047097,0.8437463649988115,0.9176155895496934
1769180075828,129,1,0.87711099987299,1.7515014712337775,1.205950469402894
1769180075832,129,1,1.2350061162879769,1.7311536929984843,1.5739372237100606
1769180075836,129,1,1.710380792485711,1.3524018669554465,2.0588606594167267
1769180075840,130,2,2.3342558579270545,2.5759562772473403,2.6944329326191907
1769180075844,131,3,3.034439885457899,3.70082131603832,3.408324619711606
1769180075848,131,3,3.638939158695045,3.889654220832848,4.025929165731786
1769180075852,132,4,3.984553428376539,4.652799150198904,4.382195880099334
1769180075856,132,4,4.008290674079027,4.378345980838608,4.415001952449168
1769180075860,131,3,3.729883978142771,3.550334619899162,4.146321289892243
1769180075864,131,3,3.167178196403728,3.7146931405325656,3.594893967587395
1769180075868,130,2,2.301681396407645,2.912140018148372,2.741048534185947
1769180075872,129,1,1.142595382656944,1.6469701648343196,1.592744268890228
1769180075876,128,0,-0.1913968091168694,0.3894867300502072,0.269143693940328
1769180075880,126,-2,-1.482348766507766,-1.5174721327238392,-1.0107371493542057
1769180075884,125,-3,-2.52016669552903,-2.1877498006163214,-2.037491474741669
1769180075888,125,-3,-3.2076634662369385,-2.181801402972566,-2.715943813100023
1769180075892,124,-4,-3.5844382441445153,-3.1967180003954243,-3.085797907430809
1769180075896,124,-4,-3.782848567997298,-3.8065316810030785,-3.2765202105435463
1769180075900,124,-4,-3.96014277844006,-3.3331373871402925,-3.4430144982948923
1769180075904,124,-4,-4.2184806069645875,-3.391803269741337,-3.689174332361837
1769180075908,123,-5,-4.536123590155337,-3.958370020044766,-3.997356327610816
1769180075912,123,-5,-4.779606043083945,-4.331908947977513,-4.235495194978892
1769180075916,123,-5,-4.825674605281893,-4.777813296760969,-4.276933530735349
1769180075920,123,-5,-4.6929868021345715,-4.281423903039656,-4.135442531721752
1769180075924,124,-4,-4.534212103672594,-3.576967053529447,-3.962406317122289
1769180075928,123,-5,-4.472866012564894,-3.607605843438768,-3.885462305386573
1769180075932,124,-4,-4.458128781122857,-3.7509196727894007,-3.8604843955035686
1769180075936,123,-5,-4.322867206048018,-4.308984656602143,-3.724572547592948
1769180075940,124,-4,-4.0098446138358605,-3.8365035992865497,-3.418323460646949
1769180075944,124,-4,-3.6981750242961033,-3.014561842179361,-3.1120535710721735
1769180075948,124,-4,-3.586138860053121,-3.0913909119716316,-2.9937115010224877
1769180075952,125,-3,-3.3932434459590275,-2.29373009349087,-2.779454268385237
1769180075956,127,-1,-1.9856401879716663,-0.6889666514710626,-1.3436784522256655
1769180075960,131,3,2.395097699742359,3.3507809692783077,3.0580608045196556
1769180075964,138,10,11.150907663559666,10.9819812146747,11.820040608744772
1769180075968,150,22,24.057435257523856,22.790656893943662,24.721678451066825
1769180075972,166,38,38.630986865246314,39.05175972467634,39.28703046332121
1769180075976,181,53,50.84571218290906,52.80638283479042,51.49298583362115
1769180075980,187,59,56.96177564489753,59.84241231127827,57.60003201391959
1769180075984,184,56,55.26275553833946,56.465974487843816,55.89852519262213
1769180075988,170,42,46.51745861375802,43.19984141764009,47.16782513857588
1769180075992,160,32,33.096650059609026,32.80514161694785,33.77773428368891
1769180075996,150,22,17.758894928707605,21.905294469618457,18.469184886367604
1769180076000,131,3,3.010699995496271,3.929717103498864,3.731416960604111
1769180076004,118,-10,-9.036883455890052,-9.725361258210452,-8.323521446702141
1769180076008,110,-18,-16.892515457782988,-16.477129935098713,-16.18963961669139
1769180076012,108,-20,-20.107117142815905,-19.635157500991895,-19.407515306468134
1769180076016,109,-19,-19.462306229228354,-18.56260310804323,-18.760147980399864
1769180076020,112,-16,-16.596127086498534,-15.554272505045814,-15.89126235753612
1769180076024,115,-13,-13.240190858624036,-12.31670247542801,-12.533960398032002
1769180076028,117,-11,-10.544418230656946,-9.819032705951397,-9.835186134199624
1769180076032,119,-9,-8.851652599068785,-8.488689642930328,-8.13530528942692
1769180076036,120,-8,-7.933547105969891,-7.56470363441423,-7.207344732302671
1769180076040,121,-7,-7.408663556616292,-6.589296182283062,-6.6739707552990515
1769180076044,121,-7,-7.0285923948611995,-6.209272603055364,-6.290060646448859
1769180076048,121,-7,-6.711582753611105,-5.985022340688576,-5.973918097238307
1769180076052,122,-6,-6.427854528124614,-5.359566010244171,-5.692900233544584
1769180076056,122,-6,-6.116562903071225,-5.671170632505382,-5.382576879233255
1769180076060,122,-6,-5.7170348076840485,-5.43915866776123,-4.980486248644694
1769180076064,123,-5,-5.244749378055212,-4.3283583583169545,-4.503386237397011
1769180076068,123,-5,-4.791383764855392,-3.9175005871324777,-4.046002861221773
1769180076072,124,-4,-4.428889324173463,-3.4496655326369843,-3.682063258809136
1769180076076,124,-4,-4.12506430931705,-3.5805763051234,-3.3782999095532005
1769180076080,124,-4,-3.770837419537141,-3.4690001422679027,-3.023457074997522
1769180076084,125,-3,-3.2884797983602936,-2.300667335705259,-2.539224971396833
1769180076088,125,-3,-2.701686813249166,-1.953513152021375,-1.950661492145083
1769180076092,126,-2,-2.1017747479216995,-1.474632835250264,-1.350331615626532
1769180076096,127,-1,-1.5583269956021484,-0.5121832721063895,-0.807323245189816
1769180076100,127,-1,-1.0672977319670895,-0.5131258375956125,-0.3160000792852955
1769180076104,127,-1,-0.5761389859483261,-0.2512633054618847,0.1767659359418665
1769180076108,128,0,-0.043384289316918,0.997732025640316,0.7109746580586185
1769180076112,129,1,0.5332772922908294,1.4954441001866003,1.2871318690024487
1769180076116,129,1,1.1319160770764445,1.5889349355878943,1.883747277611832
1769180076120,130,2,1.7259833639347295,2.3808803624943913,2.4766812775090195
1769180076124,130,2,2.294660121059476,2.89391130336253,3.046306204300813
1769180076128,131,3,2.84872203733778,3.800436687910948,3.6016844993049535
1769180076132,132,4,3.4645909744777352,4.677920876272823,4.21700378330713
1769180076136,132,4,4.264463234711127,4.4253174714602865,5.014773993077971
1769180076140,133,5,5.319253109295106,5.568174789274103,6.0680196445542105
1769180076144,135,7,6.563917820263451,7.741543110362095,7.312372213516392
1769180076148,136,8,7.833858834171001,8.878612029917903,8.581814052841478
1769180076152,137,9,8.994578200666222,9.635473461637286,9.74083698632184
1769180076156,138,10,10.020787579439736,10.427347638777412,10.76488195895209
1769180076160,139,11,10.947513995095711,11.64156559917229,11.689916491095628
1769180076164,140,12,11.768040644847384,12.629809789306666,12.508996184342609
1769180076168,140,12,12.397735703310742,13.00206390761091,13.136796753816505
1769180076172,141,13,12.73669969082033,13.47254562744315,13.473368991744607
1769180076176,141,13,12.768535464172036,13.621224748232894,13.502884824182283
1769180076180,141,13,12.606194847952777,13.453404208666855,13.338932333444587
1769180076184,140,12,12.43667981576102,12.836122998267404,13.16867173014307
1769180076188,140,12,12.398032141024846,12.763494289610264,13.129211536498184
1769180076192,141,13,12.48654997741109,13.70940605886874,13.215164975117702
1769180076196,141,13,12.564666802029867,13.395151460402122,13.28846125595194
1769180076200,140,12,12.44155089004973,12.696120602818771,13.160090654548204
1769180076204,140,12,11.953030828167453,12.61505470749312,12.66810212322332
1769180076208,139,11,11.01512309765658,11.918735646270123,11.728529421636583
1769180076212,138,10,9.660370654453269,10.591071082287431,10.37224132421652
1769180076216,136,8,8.035245236158515,8.475667876212054,8.744856456942657
1769180076220,134,6,6.330897979396353,6.699509024189356,7.037981152615523
1769180076224,133,5,4.686996888802241,5.549371384629675,5.391315686767802
1769180076228,131,3,3.149823264198603,4.015125007373335,3.8502712689662246
1769180076232,130,2,1.7046099541690625,2.4455062901521147,2.3999783340641985
1769180076236,128,0,0.3224068875333272,0.6693418154896348,1.012912106579959
1769180076240,127,-1,-1.0254366378625677,-0.4857066113016945,-0.3383568506989771
1769180076244,126,-2,-2.3639495006972533,-1.2884315096971497,-1.6794398269456288
1769180076248,124,-4,-3.69169444222212,-3.125824635534206,-3.0103321106116545
1769180076252,123,-5,-4.960102769533956,-4.4826284597529575,-4.282830149211607
1769180076256,122,-6,-6.092567974195202,-5.304452900734036,-5.419473118435235
1769180076260,121,-7,-7.0320948037311375,-6.582522632255039,-6.362638815092745
1769180076264,120,-8,-7.768726603060886,-7.1241344619351725,-7.102849893919059
1769180076268,120,-8,-8.32263972413763,-7.354614373717906,-7.661112992435982
1769180076272,119,-9,-8.710991103309354,-8.23654831679854,-8.054482504328238
1769180076276,119,-9,-8.941836759892125,-8.53787031954049,-8.290026034048374
1769180076280,119,-9,-9.036327880842409,-8.346654351278898,-8.388447947948956
1769180076284,119,-9,-9.036817809802718,-8.35322238390253,-8.392852880987812
1769180076288,119,-9,-8.979087821420869,-8.15418546625222,-8.33973600808418
1769180076292,119,-9,-8.863601224459288,-8.419022001898258,-8.229040172590308
1769180076296,119,-9,-8.666152878418183,-8.377684869184787,-8.035664550350877
1769180076300,120,-8,-8.373174177925353,-7.451806228998605,-7.7463839784676845
1769180076304,120,-8,-7.996841067795848,-7.307110741323823,-7.374649339898692
1769180076308,120,-8,-7.563057731940472,-7.150801109672249,-6.946669453707342
1769180076312,121,-7,-7.103849201180041,-6.48506867362426,-6.493200843811073
1769180076316,121,-7,-6.663466836262116,-6.2495527313580395,-6.057284680558854
1769180076320,122,-6,-6.289950544886451,-5.624155643004415,-5.6873557721370105
1769180076324,122,-6,-6.000449884033721,-5.088576616502289,-5.40194253359442
1769180076328,122,-6,-5.758856395937886,-5.413764082223152,-5.165512312004975
1769180076332,122,-6,-5.5076939450662366,-5.213013205435594,-4.9198966718435315
1769180076336,123,-5,-5.232283927199728,-4.508947800283587,-4.649658720037952
1769180076340,123,-5,-4.986001509618113,-4.383403222446926,-4.408218875702448
1769180076344,123,-5,-4.843541261340212,-4.288734557067692,-4.270662920031275
1769180076348,123,-5,-4.827936466664827,-4.253419748024259,-4.260096914036481
1769180076352,123,-5,-4.881503934729728,-4.372149603925826,-4.318614963528703
1769180076356,123,-5,-4.90518509750515,-4.337144140605031,-4.346992473889235
1769180076360,123,-5,-4.83024788038758,-4.573308542141112,-4.276648057388485
1769180076364,123,-5,-4.6605263994294654,-4.052788385775111,-4.1118637490780525
1769180076368,124,-4,-4.4514516078168285,-3.536910579377986,-3.9082899359285825
1769180076372,123,-5,-4.253919288615895,-4.067177227395126,-3.716319736120531
1769180076376,124,-4,-4.0825843185299195,-3.664177571958512,-3.549933173186682
1769180076380,124,-4,-3.931096943096297,-3.2247801864462,-3.402962670701912
1769180076384,124,-4,-3.8037416644915703,-3.401436455132131,-3.280549557007828
1769180076388,124,-4,-3.729530025349204,-3.198768962150437,-3.2120082657131954
1769180076392,124,-4,-3.7524439586622576,-3.3951147887873656,-3.2406711482827855
1769180076396,124,-4,-3.904395652451632,-3.374655041917947,-3.397725790186839
1769180076400,124,-4,-4.172420973771232,-3.458353324677534,-3.670146113627905
1769180076404,123,-5,-4.485162748893163,-4.2146623509069725,-3.987025296249063
1769180076408,123,-5,-4.741414746495999,-4.342144130587303,-4.247742675199729
1769180076412,123,-5,-4.86818510324883,-4.2981546906057195,-4.379794216893828
1769180076416,123,-5,-4.864285717413632,-4.451723716291612,-4.38198407009926
1769180076420,123,-5,-4.796563746596871,-4.38030556069032,-4.320407972987667
1769180076424,123,-5,-4.752387402571425,-4.284175132931443,-4.281516069672947
1769180076428,123,-5,-4.778071346095397,-4.2794236759465525,-4.31147400946085
1769180076432,123,-5,-4.841391168836626,-4.376622053855875,-4.3787653761657355
1769180076436,123,-5,-4.848486469081612,-4.369962482235592,-4.390222631799457
1769180076440,123,-5,-4.713323974529375,-4.458806985398841,-4.259885598349777
1769180076444,123,-5,-4.43168437009415,-4.191007564639598,-3.983400609997248
1769180076448,124,-4,-4.094833429589422,-3.386079423807527,-3.652182854372795
1769180076452,124,-4,-3.825237199398606,-3.2750876492734893,-3.3886293436350288
1769180076456,124,-4,-3.691867339529034,-3.4773792161618258,-3.260801855018559
1769180076460,124,-4,-3.679623154653294,-3.344430767058476,-3.252615064541858
1769180076464,124,-4,-3.724441877428402,-3.2990412884535756,-3.3003827364944573
1769180076468,124,-4,-3.764667221687376,-3.293125020931762,-3.3441437615260723
1769180076472,124,-4,-3.767683359068283,-3.357809115690602,-3.352542477622447
1769180076476,124,-4,-3.7338399260541313,-3.4161516696410303,-3.325372400936362
1769180076480,124,-4,-3.692336786300366,-3.378120341727158,-3.290014091771296
1769180076484,124,-4,-3.685469684287992,-3.2879583383175444,-3.287460478024842
1769180076488,124,-4,-3.7336158694747015,-3.284685096992319,-3.3384561353179634
1769180076492,124,-4,-3.7995882396849807,-3.3960982955692867,-3.407374292455055
1769180076496,124,-4,-3.7928187405943032,-3.355813737874539,-3.4049094907880213
1769180076500,124,-4,-3.6317182985640657,-3.456790561459145,-3.2494368086079306
1769180076504,124,-4,-3.3237153262238817,-3.1910917208760163,-2.9474069556414153
1769180076508,125,-3,-2.98524878099988,-2.395062307710335,-2.6143539550563504
1769180076512,125,-3,-2.7633288003075966,-2.2848511254110675,-2.3968987130808412
1769180076516,125,-3,-2.713415975118341,-2.470659694405403,-2.350465890252603
1769180076520,125,-3,-2.7394983244683124,-2.341836060687827,-2.379342049227747
1769180076524,125,-3,-2.6536695709972715,-2.3112534993875906,-2.296358780709385
1769180076528,125,-3,-2.313033083178947,-2.2711915419692295,-1.95952573058275
1769180076532,126,-2,-1.72965844788001,-1.4173623002507187,-1.3813714531977834
1769180076536,127,-1,-1.070270607428769,-0.3240798217123048,-0.7280953732366413
1769180076540,127,-1,-0.5489141844161507,-0.4993454252168354,-0.2123950404119955
1769180076544,127,-1,-0.2943159993913173,-0.1598601720651054,0.0380387348014656
1769180076548,128,0,-0.2784876031683363,0.5870669266264039,0.051012507791965
1769180076552,127,-1,-0.3420583689440293,-0.313831137256374,-0.0149487137938817
1769180076556,127,-1,-0.2955867419969191,-0.375812364153367,0.0289827475376284
1769180076560,128,0,-0.0283875833835969,0.5055930360740233,0.2929412689624391
1769180076564,128,0,0.45402462158202,0.8748624499670379,0.7708200320725118
1769180076568,129,1,1.07702626244714,1.5127495356875935,1.3883269965258789
1769180076572,129,1,1.7592877858761318,1.7887673671061783,2.0656743484282227
1769180076576,130,2,2.428586767512781,2.497815902603452,2.731751635141007
1769180076580,131,3,3.0072268007971568,3.6397200933954306,3.3081293738421067
1769180076584,131,3,3.4141225378179265,3.743099072505363,3.712156499468925
1769180076588,131,3,3.5852688749973667,3.6206248528650593,3.8793559500388666
1769180076592,131,3,3.4826631889965993,3.715866365819001,3.772494233492557
1769180076596,131,3,3.0894010433417733,3.517331065806566,3.3754199638826305
1769180076600,130,2,2.413292714079335,2.6667973436034664,2.6961286783379346
1769180076604,129,1,1.500539262827176,1.6746813370859797,1.7807621727899627
1769180076608,128,0,0.4385904082381422,0.7241300913429544,0.7164861346747126
1769180076612,127,-1,-0.6614301664959341,-0.4220366658213401,-0.3862649897249754
1769180076616,126,-2,-1.6937022270633133,-1.3276429031662549,-1.422262138918637
1769180076620,125,-3,-2.5863967430990433,-2.496792131914742,-2.319342411509385
1769180076624,124,-4,-3.3183021403420536,-3.1653514506180827,-3.055077303713871
1769180076628,124,-4,-3.9089523052801782,-3.4133917535986007,-3.647976096120121
1769180076632,123,-5,-4.381646454803003,-4.331642387972249,-4.121582995020795
1769180076636,123,-5,-4.72766111989846,-4.370790802492513,-4.468784731857038
1769180076640,123,-5,-4.90939653107145,-4.506448707227718,-4.653840285969417
1769180076644,122,-6,-4.909569030131344,-5.110749408539714,-4.659913158460933
1769180076648,123,-5,-4.78392856252286,-4.503826542013218,-4.540844029117523
1769180076652,123,-5,-4.654413382781976,-4.224213058472882,-4.414994845191654
1769180076656,123,-5,-4.624889936848213,-4.492941192197103,-4.383438394652272
1769180076660,123,-5,-4.683171418252855,-4.38537204985603,-4.435187935199028
1769180076664,123,-5,-4.687724724048202,-4.22457690628419,-4.435089766675906
1769180076668,123,-5,-4.482243673791628,-4.40958577146184,-4.234809297038572
1769180076672,123,-5,-4.067702020293758,-4.309311071548797,-3.837815738932246
1769180076676,124,-4,-3.662343384480097,-3.408736214607357,-3.4546584601169346
1769180076680,124,-4,-3.490691173550658,-3.485536303495044,-3.2952373593688646
1769180076684,124,-4,-3.3223576413296776,-3.096901370971956,-3.1183369583641447
1769180076688,127,-1,-2.0583806669628997,-0.5821161767038006,-1.827825795453081
1769180076692,130,2,2.1688634205701147,2.9053322405671977,2.4278313731508465
1769180076696,138,10,11.090299310863514,10.342482501740609,11.361056051913812
1769180076700,151,23,24.871631279990105,23.809971774056173,25.128524269977135
1769180076704,168,40,41.07123301613558,40.60570579841084,41.29366547436399
1769180076708,183,55,54.95601733643034,55.69642027088144,55.139125321887505
1769180076712,190,62,61.37186145316979,62.65360845315649,61.52918292707464
1769180076716,186,58,57.24847173503237,58.45739491781666,57.40561557931672
1769180076720,171,43,43.24599693042037,43.71715132778248,43.428116244479995
1769180076724,150,22,23.513444287976967,22.58039582470544,23.73261589366555
1769180076728,130,2,3.71606333339689,2.8081084933455847,3.96516831925239
1769180076732,116,-12,-11.455962781607152,-11.39401329409032,-11.19929029748279
1769180076736,108,-20,-19.899920854564296,-19.46137509253886,-19.6610477334962
1769180076740,106,-22,-22.172299743905405,-21.2749121749796,-21.96590603293803
1769180076744,108,-20,-20.381820432218937,-19.550765482712286,-20.204832678158823
1769180076748,110,-18,-16.83234960892077,-16.983605451500033,-16.66751005466424
1769180076752,114,-14,-13.177646466740406,-13.712335418528482,-13.005148814926606
1769180076756,117,-11,-10.256509156288386,-10.061849150032865,-10.065965822264792
1769180076760,120,-8,-8.3068318755128,-7.743194806119561,-8.101515988420326
1769180076764,120,-8,-7.21532693637205,-7.087880987961359,-7.006595628578702
1769180076768,121,-7,-6.6904440863524455,-6.441458170398969,-6.488113823470772
1769180076772,121,-7,-6.408657692490375,-6.300019659020144,-6.215295196370023
1769180076776,121,-7,-6.154591308424079,-6.389678201289189,-5.966740294723389
1769180076780,122,-6,-5.888042727879403,-5.495831707048072,-5.701200999496522
1769180076784,122,-6,-5.679764513773375,-5.258771688794039,-5.491928969356082
1769180076788,122,-6,-5.566985297947292,-5.371257783943902,-5.378425331947262
1769180076792,122,-6,-5.46277213369927,-5.290945084172813,-5.273995551056987
1769180076796,122,-6,-5.203069023793564,-5.4560492889442065,-5.014170605758027
1769180076800,123,-5,-4.678357199415478,-4.39422371139659,-4.4900300613607005
1769180076804,124,-4,-3.924006010969558,-3.371907120733965,-3.737712151743156
1769180076808,124,-4,-3.101399788258524,-3.2887240517599423,-2.917707582136658
1769180076812,125,-3,-2.400782105238264,-2.338020512841285,-2.2182706842758573
1769180076816,126,-2,-1.93263668534355,-1.4483439756048162,-1.7492977315146876
1769180076820,126,-2,-1.6627344914323134,-1.3808021808352966,-1.4780477677030903
1769180076824,126,-2,-1.434777073483107,-1.400005793626509,-1.2497902874171034
1769180076828,126,-2,-1.0838176387364946,-1.2736866159601377,-0.8996747049720919
1769180076832,127,-1,-0.5599203012042964,-0.3376743010502385,-0.3770006799618297
1769180076836,128,0,0.0508207102382153,0.5221010516590601,0.2327076879090939
1769180076840,128,0,0.6313940369978116,0.6970826485950106,0.8127882733841478
1769180076844,129,1,1.163806489744663,1.4486603646074383,1.3455861415821238
1769180076848,129,1,1.7602181078893815,1.953418888236256,1.943185508210254
1769180076852,130,2,2.5682519939481967,2.3211623886957655,2.7523093142356485
1769180076856,131,3,3.636854819142475,3.975250086594322,3.820677358586475
1769180076860,133,5,4.8587261257897,5.16348088623764,5.040711837913717
1769180076864,133,5,6.034279433266983,6.023165125946797,6.2141999095888485
1769180076868,135,7,7.002738935052092,7.371294649640134,7.182318899052893
1769180076872,135,7,7.744703093762888,7.829831014353871,7.926211999342721
1769180076876,136,8,8.391344074521061,8.568339389035241,8.575555886352747
1769180076880,137,9,9.135791727693022,9.450723318069963,9.321431230272466
1769180076884,137,9,10.099009879023878,9.87212520600399,10.284060478982534
1769180076888,139,11,11.237143063347755,11.374881782047405,11.42051550361395
1769180076892,140,12,12.361035924776516,12.934496829525214,12.543262436018985
1769180076896,141,13,13.258779490713431,13.374426628915275,13.44152026194565
1769180076900,141,13,13.827059245438504,13.700222699322692,14.01168228059271
1769180076904,142,14,14.113444477970411,14.6087642164158,14.299660034942589
1769180076908,142,14,14.246946494928292,14.586810766302984,14.433195544936954
1769180076912,141,13,14.312093675712148,13.778354655593844,14.497591044490044
1769180076916,142,14,14.264149895221491,14.457029811316358,14.449881649368283
1769180076920,142,14,13.969968265717515,14.705740142118216,14.157291177568236
1769180076924,141,13,13.355894313560372,13.52159374159529,13.544940887989004
1769180076928,140,12,12.517547464415877,12.716362830540987,12.70755470920882
1769180076932,139,11,11.657804514461816,11.604311810873634,11.848344927477344
1769180076936,138,10,10.893107121059083,10.632797209637124,11.084218526967872
1769180076940,138,10,10.117752978407664,10.562543901926231,10.309110871765384
1769180076944,137,9,9.069866991604544,9.63209744618064,9.260763091748863
1769180076948,135,7,7.54684922697035,7.627664807848049,7.737377319469231
1769180076952,133,5,5.578931380665319,5.640341367446105,5.770586715313371
1769180076956,131,3,3.421850255039881,3.6177178952861886,3.616362147949517
1769180076960,129,1,1.3949275884693275,1.5519930041206478,1.5926812980317966
1769180076964,127,-1,-0.2997576047981973,-0.3018825065818911,-0.0999574368418674
1769180076968,126,-2,-1.653791134346858,-1.5003851693605457,-1.4537445689962285
1769180076972,125,-3,-2.7919699832870544,-2.187968397664915,-2.59288675869438
1769180076976,124,-4,-3.845120102490889,-3.6259331884906,-3.646769385682534
1769180076980,122,-6,-4.867461198896588,-5.149207117634172,-4.668340236340521
1769180076984,122,-6,-5.846098407033086,-5.624762481524675,-5.644893156096274
1769180076988,121,-7,-6.751008995376015,-6.186973301921823,-6.547763773403867
1769180076992,120,-8,-7.558123714764861,-7.486660251294344,-7.353456045759825
1769180076996,119,-9,-8.240228108994746,-8.395072611029045,-8.033894365082238
1769180077000,119,-9,-8.754408699275784,-8.28955023400079,-8.545656644575569
1769180077004,119,-9,-9.040538211556068,-8.586705199709812,-8.829663320713639
1769180077008,118,-10,-9.042399555006034,-9.123327856505524,-8.830927131777184
1769180077012,119,-9,-8.761013912472578,-8.663019574158351,-8.550146957531153
1769180077016,119,-9,-8.305530631701501,-8.146989349110203,-8.09488869720664
1769180077020,120,-8,-7.872406167505972,-7.595826878959617,-7.66034131706596
1769180077024,120,-8,-7.63401787025097,-7.242173672777485,-7.418973524637941
1769180077028,120,-8,-7.613941892982872,-7.482347014897542,-7.395678509057173
1769180077032,120,-8,-7.6594256829593474,-7.34456452266377,-7.439140400776906
1769180077036,120,-8,-7.551387357562753,-7.428127951572738,-7.330488813387173
1769180077040,120,-8,-7.176769135590584,-7.383590287301043,-6.955449331368073
1769180077044,121,-7,-6.621531892241537,-6.357120943931992,-6.398784568122801
1769180077048,122,-6,-6.093102599931596,-5.462638015072415,-5.868095629352193
1769180077052,122,-6,-5.732099949498907,-5.297933962877988,-5.505020047134241
1769180077056,122,-6,-5.491376782322616,-5.560140342042138,-5.262841098251888
1769180077060,122,-6,-5.20508367580096,-5.206703269696724,-4.9752909371150205
1769180077064,123,-5,-4.779587973531634,-4.5530607062722055,-4.548342700028455
1769180077068,123,-5,-4.3131228679056495,-4.264251610209018,-4.080361749662008
1769180077072,124,-4,-4.021490456392397,-3.48545611868633,-3.787396479516394
1769180077076,124,-4,-4.035723599751478,-3.4257816853290377,-3.800165256955815
1769180077080,123,-5,-4.262922531812682,-4.302679503924007,-4.024937105603354
1769180077084,123,-5,-4.446466491547927,-4.513301816207754,-4.2049174899477935
1769180077088,123,-5,-4.373923000632802,-4.241530265745466,-4.129134256657583
1769180077092,124,-4,-4.044971129147735,-3.5774528655103937,-3.799190311363717
1769180077096,124,-4,-3.662781158589828,-3.2772511011260885,-3.4181582181064547
1769180077100,124,-4,-3.4779399615547013,-3.514698305925621,-3.2341079613242227
1769180077104,124,-4,-3.616353644215161,-3.2689387450788012,-3.370654987119411
1769180077108,124,-4,-3.999976223319284,-3.5153967867969063,-3.7500055783407777
1769180077112,123,-5,-4.396089479121979,-4.304746592952492,-4.141476753178496
1769180077116,123,-5,-4.564227479286,-4.544655732178237,-4.306263627547258
1769180077120,123,-5,-4.41040999915111,-4.264700449859404,-4.15089169075027
1769180077124,124,-4,-4.040530605812343,-3.517532905789937,-3.780990851818775
1769180077128,124,-4,-3.677028222902611,-3.268721517683806,-3.418080906933173
1769180077132,124,-4,-3.5141459377221977,-3.563343719516869,-3.255006401599418
1769180077136,124,-4,-3.621001107347321,-3.2920458029952804,-3.3599372887094963
1769180077140,124,-4,-3.936718088464,-3.52356907255699,-3.6721916214197
1769180077144,123,-5,-4.328180081518704,-4.28901931128923,-4.059576444643669
1769180077148,123,-5,-4.659560162238138,-4.451693740718983,-4.387307359366747
1769180077152,123,-5,-4.836348691719504,-4.4401140952536755,-4.561833841025637
1769180077156,123,-5,-4.815315861714076,-4.365468712358055,-4.54026810220347
1769180077160,123,-5,-4.604069069592368,-4.510389563078249,-4.3292525063423355
1769180077164,123,-5,-4.271352612416845,-4.275818858581395,-3.995861928477455
1769180077168,124,-4,-3.9451133597386434,-3.4762990737119353,-3.6673855170427534
1769180077172,124,-4,-3.758973333193533,-3.432929647447216,-3.478396126932598
1769180077176,124,-4,-3.7646113990974097,-3.351821834139482,-3.481704999950664
1769180077180,124,-4,-3.889750218396624,-3.5736497770721583,-3.6048720974615183
1769180077184,123,-5,-3.9950075882358504,-4.183589258559621,-3.707603796045402
1769180077188,124,-4,-3.984069528671612,-3.606359937261515,-3.693669820362389
1769180077192,124,-4,-3.865433254331471,-3.274204822999378,-3.5729234606988367
1769180077196,124,-4,-3.7200239100486048,-3.5327260456516756,-3.427132490087366
1769180077200,124,-4,-3.626708267496274,-3.396834247837666,-3.3341411167371833
1769180077204,124,-4,-3.618932447179297,-3.369410261181953,-3.3254785956952713
1769180077208,124,-4,-3.6853233662400338,-3.445136744207869,-3.388941123772804
1769180077212,124,-4,-3.780220123159271,-3.413842733641758,-3.479795775354052
1769180077216,124,-4,-3.826703174938801,-3.405423773344946,-3.522768726507427
1769180077220,124,-4,-3.731891804081567,-3.5378012780675863,-3.4259657194694584
1769180077224,124,-4,-3.4335368268253306,-3.2263344406215433,-3.127002921801573
1769180077228,125,-3,-2.9559486420982792,-2.6230052299970215,-2.6493777011675315
1769180077232,125,-3,-2.422987472815376,-2.2068828695396867,-2.116066709241152
1769180077236,126,-2,-1.9979158752963753,-1.6251710081341972,-1.6897319203235968
1769180077240,126,-2,-1.7793960848911552,-1.3385227162149314,-1.468835518669846
1769180077244,126,-2,-1.7277542335507294,-1.4129536612158249,-1.413898197512107
1769180077248,126,-2,-1.684064701848492,-1.5024440165129769,-1.366607539025873
1769180077252,126,-2,-1.4774394340542982,-1.2506559248508229,-1.1571007511864109
1769180077256,127,-1,-1.0452952126489092,-0.6591051929987736,-0.723795735246928
1769180077260,127,-1,-0.4802818548438272,-0.235594976282108,-0.1594583638321853
1769180077264,128,0,0.0264673134872175,0.4028194504140888,0.3460064283417612
1769180077268,128,0,0.3052519138018268,0.7138744524530879,0.6248201551892875
1769180077272,128,0,0.3161437648346428,0.5087126952265801,0.6382588766877109
1769180077276,128,0,0.1851673934434097,0.5833602246570854,0.5118040166601249
1769180077280,128,0,0.1507343443064808,0.5272385767206191,0.4818729143454046
1769180077284,128,0,0.4468047665886798,0.6016297548066758,0.7804679436843465
1769180077288,129,1,1.1778779071933343,1.5321355461744282,1.5116538716309642
1769180077292,130,2,2.247850931136867,2.671292656344451,2.5806417855501236
1769180077296,131,3,3.3844115747825647,3.4378641787464916,3.7168380137917207
1769180077300,132,4,4.256368680768467,4.644916693702746,4.589525663702817
1769180077304,133,5,4.627647333510149,5.489066646774759,4.961929559627976
1769180077308,132,4,4.4536637618666655,4.591852473944956,4.789282005752172
1769180077312,131,3,3.852084745767321,3.6629407169867823,4.190050247788992
1769180077316,131,3,2.9856943082029064,3.383344661540548,3.3270318178688143
1769180077320,130,2,1.9764639137113345,2.7533094570019667,2.3205246999996705
1769180077324,129,1,0.9122645014568386,1.3160997148940403,1.2569532625083424
1769180077328,127,-1,-0.1165289481807813,-0.2020106443404197,0.227335577762787
1769180077332,127,-1,-1.0309175406932796,-0.5725541411709538,-0.6875459014521961
1769180077336,126,-2,-1.8122566430006024,-1.3823030776174048,-1.468198868693933
1769180077340,125,-3,-2.512072836676019,-2.473389976900162,-2.1666760727422103
1769180077344,125,-3,-3.1943636492927108,-2.4909661260720206,-2.8477133635026037
1769180077348,124,-4,-3.859580407117088,-3.365687053822414,-3.5116550983217745
1769180077352,123,-5,-4.425061337705571,-4.470032183197363,-4.075177674708524
1769180077356,123,-5,-4.787061198026647,-4.439727624303178,-4.434786114730526
1769180077360,123,-5,-4.909005904923688,-4.463354470985441,-4.555740010982357
1769180077364,123,-5,-4.856036250903818,-4.480023751691874,-4.504810975416968
1769180077368,123,-5,-4.75397562706729,-4.388456074852723,-4.406574055440339
1769180077372,123,-5,-4.715547264440593,-4.471180247263961,-4.369516302162632
1769180077376,123,-5,-4.782281708348208,-4.436626885034363,-4.43147935296961
1769180077380,123,-5,-4.9026556589388175,-4.479146400780769,-4.542115561412275
1769180077384,123,-5,-4.956044556357474,-4.4757589113906375,-4.587651692459097
1769180077388,123,-5,-4.83219446099894,-4.371786374888192,-4.465835909158216
1769180077392,123,-5,-4.5408569274471,-4.541729002488333,-4.188539965300766
1769180077396,123,-5,-4.2495629632641005,-4.3276287422118145,-3.915818341048146
1769180077400,124,-4,-4.113691787262487,-3.6498330648014026,-3.789611021355979
1769180077404,124,-4,-3.8835522515797054,-3.2506178591976145,-3.550230117617144
1769180077408,126,-2,-2.530866363537405,-1.6540434684805307,-2.1712940797765707
1769180077412,130,2,1.679210096461233,2.775458815031131,2.0679189617270177
1769180077416,138,10,10.385632523023624,10.318477199332415,10.78898763126602
1769180077420,150,22,23.821994573119397,22.718455336791536,24.21618853777093
1769180077424,167,39,39.79621295686222,39.41293398825085,40.16123331136531
1769180077428,182,54,53.872457613902554,54.63786102727141,54.20203662447031
1769180077432,190,62,61.03177152466076,62.50728236311837,61.336179541255085
1769180077436,187,59,58.04450594587933,59.45887128686598,58.34617142184928
1769180077440,173,45,45.15946166064923,45.56759716157987,45.48299281048343
1769180077444,153,25,26.064668945744177,25.47719469651953,26.424665706981884
1769180077448,133,5,6.169751315799179,5.628765607311222,6.562446891756505
1769180077452,118,-10,-9.727648808134596,-9.438924648917538,-9.322867662096217
1769180077456,109,-19,-19.10854030488111,-18.539233620111425,-18.717271437853917
1769180077460,106,-22,-22.05661549502564,-21.40131227969284,-21.694755979320703
1769180077464,108,-20,-20.435333032643232,-19.59940925303179,-20.101606258909825
1769180077468,111,-17,-16.642238381425486,-16.296004272496468,-16.32195802450677
1769180077472,115,-13,-12.637677364823611,-12.5570997282221,-12.313376516563403
1769180077476,118,-10,-9.55066644501029,-9.410053620477209,-9.211895057535076
1769180077480,120,-8,-7.749738238515221,-7.573874874211501,-7.396809282034154
1769180077484,121,-7,-7.091444412299104,-6.449404568461169,-6.732343289859966
1769180077488,121,-7,-7.1506631709022574,-6.460154103516249,-6.79406901757959
1769180077492,120,-8,-7.411092970436228,-7.394623985893081,-7.060671092227785
1769180077496,120,-8,-7.450232173980453,-7.555300268500698,-7.104385246986499
1769180077500,121,-7,-7.078040129981412,-6.447076662468442,-6.734228829583679
1769180077504,122,-6,-6.347706792102433,-5.590725624533385,-6.005791083252583
1769180077508,122,-6,-5.445450045187662,-5.327086059857773,-5.106532284903446
1769180077512,123,-5,-4.563080488434823,-4.526882936091509,-4.226691405531488
1769180077516,124,-4,-3.826986798209704,-3.4303083998364325,-3.491046042947361
1769180077520,125,-3,-3.269915857635481,-2.591679179996152,-2.933063227459398
1769180077524,125,-3,-2.8250929880578908,-2.4583398795589617,-2.487827230770076
1769180077528,125,-3,-2.366902084869986,-2.4692165318104173,-2.030610955757669
1769180077532,126,-2,-1.8020823893948092,-1.3821375938010485,-1.4680080317591142
1769180077536,127,-1,-1.146572439121724,-0.5870419820192179,-0.8156516697746967
1769180077540,127,-1,-0.5190974770480651,-0.4424201536847435,-0.1917539034631143
1769180077544,128,0,-0.0560861426677224,0.3716371914141284,0.2682727406085767
1769180077548,128,0,0.1872545941649684,0.7099427901696633,0.5101653090758679
1769180077552,128,0,0.2847371458113367,0.3984865777542949,0.6076744316573601
1769180077556,128,0,0.4091734627753067,0.6684044490747902,0.7323042948219844
1769180077560,129,1,0.7457415221004131,1.2436891707351871,1.0676091080646015
1769180077564,129,1,1.3991916119749657,1.7195690691950705,1.717906405727692
1769180077568,130,2,2.341861346076307,2.3246738407214,2.656680906805044
1769180077572,131,3,3.4315012651196746,3.79143929127837,3.7430318069552406
1769180077576,133,5,4.499310267216732,5.268772732760538,4.808450631877522
1769180077580,133,5,5.456031106529507,5.611778744364553,5.763312081939059
1769180077584,134,6,6.332114583314957,6.369881078545074,6.637815487366106
1769180077588,135,7,7.220674487434519,7.628686941383288,7.524776666581481
1769180077592,136,8,8.183867955217277,8.513445511903694,8.48585493355356
1769180077596,137,9,9.205149740701902,9.509124559381393,9.504376277806047
1769180077600,138,10,10.211507122621429,10.396999088835006,10.507742095959577
1769180077604,139,11,11.132109154298846,11.536669148118005,11.425419916324122
1769180077608,140,12,11.943648658964475,12.482130261378105,12.234025440210516
1769180077612,140,12,12.666241148174828,12.618632064013468,12.953710628004478
1769180077616,141,13,13.313844014406378,13.427868933347426,13.598672393401417
1769180077620,142,14,13.8514579322563,14.444954359172735,14.133875328554304
1769180077624,142,14,14.209345374705062,14.499844629843883,14.489259673746568
1769180077628,142,14,14.340020476483629,14.478228256924526,14.617168160618949
1769180077632,142,14,14.255237230953345,14.65249110678901,14.52939768790908
1769180077636,142,14,14.004100248916952,14.33247238802736,14.275130724526097
1769180077640,141,13,13.612158237731366,13.595113425653498,13.87999025810874
1769180077644,141,13,13.038068159727134,13.27085346277332,13.302578236327026
1769180077648,140,12,12.195385384141694,12.7656031165653,12.45626116708361
1769180077652,139,11,11.03060398977012,11.291852639592756,11.287724108393748
1769180077656,137,9,9.588260664318556,9.732888045052285,9.8422792381199
1769180077660,136,8,8.001549902852265,8.157596143892508,8.253552126352275
1769180077664,134,6,6.4203297936062995,6.693276522076069,6.670580220393703
1769180077668,133,5,4.939521246588363,5.369668057592271,5.186876266040598
1769180077672,131,3,3.5710319266573727,3.622332180832612,3.8138706685657904
1769180077676,130,2,2.258648475284657,2.472252018875938,2.496227507300746
1769180077680,129,1,0.9198183559623736,1.3172530488499978,1.15267861186495
1769180077684,127,-1,-0.5010377233391088,-0.3928294733583568,-0.2716222553586063
1769180077688,126,-2,-1.990841174653614,-1.6368186930961732,-1.763650188561538
1769180077692,124,-4,-3.4635343340776297,-3.296259545942593,-3.2380804512288943
1769180077696,123,-5,-4.798745771625005,-4.697253267440426,-4.575700448234662
1769180077700,122,-6,-5.901494104365664,-5.4546934921953225,-5.682432574115459
1769180077704,121,-7,-6.7502717781193295,-6.691531802109234,-6.536569920195722
1769180077708,120,-8,-7.40836408583993,-7.303588912441671,-7.200098401907272
1769180077712,120,-8,-7.986537044766648,-7.65529334380192,-7.782551984128205
1769180077716,119,-9,-8.566564514790553,-8.352419184852598,-8.365629635080811
1769180077720,119,-9,-9.128913826995944,-8.79799169323083,-8.930641316330682
1769180077724,118,-10,-9.545119689642195,-9.382558910485884,-9.349758149262298
1769180077728,118,-10,-9.658454155721335,-9.599588289986226,-9.466201350563216
1769180077732,118,-10,-9.401320924331534,-9.382645954112302,-9.212376679965574
1769180077736,119,-9,-8.854744809077967,-8.62070084438342,-8.670025294140547
1769180077740,120,-8,-8.199891488627337,-7.554549073327276,-8.020872397013594
1769180077744,120,-8,-7.610934912988772,-7.619446464596899,-7.438092213389176
1769180077748,120,-8,-7.184354189747692,-7.405471780071211,-7.016168076405031
1769180077752,121,-7,-6.937944215186626,-6.5472416577758645,-6.772232642769911
1769180077756,121,-7,-6.832806153986877,-6.520760888029062,-6.668908256139676
1769180077760,121,-7,-6.78148848238418,-6.601017901766079,-6.620563969990668
1769180077764,121,-7,-6.666449227457462,-6.640551128459214,-6.509882622216024
1769180077768,121,-7,-6.394811515847598,-6.345625183322365,-6.243017830112155
1769180077772,122,-6,-5.958393099126059,-5.6683910287510955,-5.811138316200297
1769180077776,122,-6,-5.444339157854167,-5.365065258036405,-5.301558560589099
1769180077780,123,-5,-4.983998893875654,-4.794242625538159,-4.845962571631551
1769180077784,123,-5,-4.680146336950541,-4.435497792427762,-4.546991815322775
1769180077788,123,-5,-4.562698055284738,-4.580127088631809,-4.434012019741593
1769180077792,123,-5,-4.592120313374074,-4.459637008667025,-4.467074119875849
1769180077796,123,-5,-4.6914190471843344,-4.548135799290168,-4.569382433530911
1769180077800,123,-5,-4.775587445461671,-4.665321731705096,-4.6566342428078
1769180077804,123,-5,-4.76810172627988,-4.508589343180617,-4.652920465420188
1769180077808,123,-5,-4.618075432961657,-4.594161164221356,-4.507475067056673
1769180077812,123,-5,-4.326840068114415,-4.398910681258787,-4.221417164978822
1769180077816,124,-4,-3.966080302743799,-3.6671469256608247,-3.866128422404
1769180077820,124,-4,-3.6607835796910657,-3.508712403974128,-3.566083795839572
1769180077824,124,-4,-3.5353479972627726,-3.7047950917240327,-3.445036789019109
1769180077828,124,-4,-3.649597590237282,-3.39910202618494,-3.5626872981458604
1769180077832,124,-4,-3.9589984248828176,-3.6220616176150138,-3.875154214930004
1769180077836,123,-5,-4.328456505217312,-4.456035364897427,-4.248058556413563
1769180077840,123,-5,-4.606143392710184,-4.700231268488744,-4.529798765260343
1769180077844,123,-5,-4.714324621244321,-4.553643637101836,-4.642686820798603
1769180077848,123,-5,-4.686065628602751,-4.531657133843982,-4.6198152077870756
1769180077852,123,-5,-4.619948992183268,-4.542895267163992,-4.559296024411795
1769180077856,123,-5,-4.597903350967579,-4.5112708092180025,-4.542056865026377
1769180077860,123,-5,-4.632956828253908,-4.665498022492791,-4.580568955239997
1769180077864,123,-5,-4.674473287315787,-4.609715520047887,-4.624888394217222
1769180077868,123,-5,-4.653005889330013,-4.4573664228975804,-4.606936766080018
1769180077872,123,-5,-4.532058723830232,-4.69410587579716,-4.490881209131261
1769180077876,123,-5,-4.33935323058245,-4.284377540539589,-4.303804789139474
1769180077880,124,-4,-4.158815319005745,-3.9834009507653567,-4.128438840689555
1769180077884,123,-5,-4.082358321757465,-4.229684095961148,-4.056105612404135
1769180077888,124,-4,-4.149374666884087,-3.9111277129516298,-4.126643693257261
1769180077892,123,-5,-4.318329248465543,-4.227067442720987,-4.299407649591766
1769180077896,123,-5,-4.496920988299813,-4.7581569223582605,-4.482528345023368
1769180077900,123,-5,-4.6103819917141,-4.545991192945641,-4.600961204241272
1769180077904,123,-5,-4.648792133715148,-4.617904452063241,-4.644219661835433
1769180077908,123,-5,-4.648925046372211,-4.62511785112607,-4.648613144460464
1769180077912,123,-5,-4.630028632686365,-4.426514811738489,-4.633206769635743
1769180077916,123,-5,-4.551101080461363,-4.667092046612158,-4.557373012853752
1769180077920,123,-5,-4.337136767126824,-4.5609790966834325,-4.347155922427149
1769180077924,124,-4,-3.955187464345866,-3.677633040625777,-3.970543887212414
1769180077928,124,-4,-3.475928415536646,-3.53959902394313,-3.497751651324572
1769180077932,124,-4,-3.0662930482949022,-3.5473389667511257,-3.0939505904946247
1769180077936,125,-3,-2.900216519936849,-2.5450456363128517,-2.931877956141999
1769180077940,125,-3,-3.0286150022772818,-2.6956162613814123,-3.0629796605188
1769180077944,124,-4,-3.3046380560512025,-3.569546464967082,-3.3416351529842117
1769180077948,124,-4,-3.451613336454876,-3.635403116825563,-3.4918243019603
1769180077952,124,-4,-3.246539150448185,-3.5011547425526146,-3.2907977830503867
1769180077956,125,-3,-2.673527297221543,-2.5594766354154803,-2.722938719154264
1769180077960,126,-2,-1.92159868214123,-1.7210245921671905,-1.9770263720257992
1769180077964,126,-2,-1.241460191852767,-1.5218196415419007,-1.3026926152382792
1769180077968,127,-1,-0.7847155480283057,-0.7365896220853322,-0.8505453265956512
1769180077972,127,-1,-0.5379176535760735,-0.3875724426887994,-0.6071169096891901
1769180077976,127,-1,-0.37779166374066,-0.7221187809087137,-0.4497922093413426
1769180077980,127,-1,-0.1888842769779992,-0.5185586105634259,-0.2638878589160719
1769180077984,128,0,0.0559692731615157,0.2292534518813084,-0.0230238448110203
1769180077988,128,0,0.315116113077214,0.5279502913778946,0.2308020963043499
1769180077992,128,0,0.5604200273046889,0.2992328130756743,0.4702955764472669
1769180077996,128,0,0.8257548477901528,0.6060395250985007,0.7308571780625188
1769180078000,129,1,1.1770441102197258,1.125420223598776,1.0789789518834798
1769180078004,129,1,1.6494115766361728,1.590084516793509,1.5487655671964218
1769180078008,130,2,2.2150040508420923,2.150976772676801,2.11093195203215
1769180078012,130,2,2.794767406928575,2.6467822277986977,2.6859536768679235
1769180078016,131,3,3.2867450987571765,3.272163662752373,3.1725193118847352
1769180078020,131,3,3.5866026111251026,3.4081849096100423,3.4672431042874385
1769180078024,131,3,3.600299027530635,3.348581200099664,3.4765204811628037
1769180078028,131,3,3.2634801734986416,3.323437398634699,3.13578106639899
1769180078032,130,2,2.5717898516185005,2.5078980468262966,2.4403622064661317
1769180078036,129,1,1.6015561231972355,1.3554845156289712,1.4666573110993348
1769180078040,128,0,0.4954252294091625,0.342986000165103,0.35739878155653
1769180078044,127,-1,-0.5855021539147129,-0.6061543820853856,-0.7267911666433378
1769180078048,126,-2,-1.5156674426683945,-1.7372712953408556,-1.661164060680646
1769180078052,125,-3,-2.239332594366531,-2.4333066832487007,-2.3902020712918213
1769180078056,125,-3,-2.774539536110151,-2.728757268305527,-2.931068193499979
1769180078060,124,-4,-3.187623826173725,-3.576120556695862,-3.3487242878437677
1769180078064,124,-4,-3.5476974300215303,-3.6979622682575446,-3.7116797812521183
1769180078068,124,-4,-3.8815504204450706,-3.664953624115027,-4.047512379396728
1769180078072,123,-5,-4.160818124198853,-4.511764952737206,-4.329365793698971
1769180078076,123,-5,-4.3432022053099235,-4.676647219902734,-4.516161264289717
1769180078080,123,-5,-4.440595532228455,-4.625722036913714,-4.620193257958506
1769180078084,123,-5,-4.5433407848774365,-4.671274942352812,-4.730773398980663
1769180078088,123,-5,-4.759847419896639,-4.699503169758494,-4.95327592263132
1769180078092,122,-6,-5.115088787246542,-5.4790255485553185,-5.309080842679278
1769180078096,122,-6,-5.495706029804886,-5.758374045719049,-5.684625059005957
1769180078100,122,-6,-5.69393924385037,-5.5133442602130085,-5.878014325761405
1769180078104,122,-6,-5.536933064528753,-5.839797544837788,-5.7253031433714225
1769180078108,122,-6,-5.03331154724897,-5.501482429807893,-5.239284719005307
1769180078112,123,-5,-4.420778661229014,-4.702190308460466,-4.651228269345541
1769180078116,123,-5,-3.9885307405815897,-4.568762274093315,-4.235743527867112
1769180078120,124,-4,-3.6580212528526057,-3.687007273532898,-3.902055891068634
1769180078124,126,-2,-2.543941368910213,-1.7161794984842864,-2.7654699866988572
1769180078128,129,1,1.0729206819098058,1.410561111171397,0.8787132783421194
1769180078132,136,8,9.009036855695122,8.345014804609214,8.82824472628751
1769180078136,148,20,21.82443120463423,20.402379240918776,21.632457480336697
1769180078140,164,36,37.647614774963664,36.32501582528464,37.422906304344586
1769180078144,180,52,52.182833856886475,52.26996059435701,51.91776795376429
1769180078148,189,61,60.29292000774472,61.422011054938544,59.99730565132669
1769180078152,187,59,58.44612890724336,59.23642824084211,58.142930512817586
1769180078156,174,46,46.57775494349307,46.46509609877372,46.29265164875322
1769180078160,155,27,28.197474926601075,27.165993768063004,27.946031796991697
1769180078164,135,7,8.696772281762758,7.462372266125406,8.475745598846435
1769180078168,120,-8,-7.075933043875885,-7.694868596559145,-7.287144322248202
1769180078172,111,-17,-16.59015045771993,-16.617674975989026,-16.817814841839922
1769180078176,108,-20,-19.973777182476336,-19.621370355580463,-20.235031417611314
1769180078180,109,-19,-19.10118613272806,-18.857065805361085,-19.395413794000604
1769180078184,111,-17,-16.25128765525583,-16.472709985888486,-16.56245890747714
1769180078188,114,-14,-13.13920144579753,-13.84054243566073,-13.44692924388691
1769180078192,116,-12,-10.628549970230573,-11.423384316578227,-10.920701618170714
1769180078196,119,-9,-8.923196384060471,-8.891758194358184,-9.20199209291442
1769180078200,120,-8,-7.8765618983967585,-7.605380962364264,-8.154064859422467
1769180078204,120,-8,-7.225474874978443,-7.74852105438656,-7.512507978269477
1769180078208,120,-8,-6.74782794499729,-7.564496946404137,-7.0463623040692696
1769180078212,121,-7,-6.35206613938489,-6.680777455008791,-6.6573104183819405
1769180078216,122,-6,-6.049352104534816,-5.677738959279323,-6.357043988347753
1769180078220,122,-6,-5.82895862604016,-5.827482760250802,-6.138786775389578
1769180078224,121,-7,-5.580770623576765,-6.55116578943829,-5.893832033307968
1769180078228,122,-6,-5.16620548066585,-5.770940326744999,-5.482238066142524
1769180078232,123,-5,-4.550218829873494,-4.4565981507387455,-4.868495371965841
1769180078236,124,-4,-3.8311309490955208,-3.9571689397190424,-4.152349036559434
1769180078240,124,-4,-3.141500041218334,-3.518333586401626,-3.4672554854649755
1769180078244,125,-3,-2.5427504931873868,-2.925477262554993,-2.87356786949354
1769180078248,125,-3,-2.0166127584637303,-2.3769003478085926,-2.351281902951577
1769180078252,126,-2,-1.5327125404316106,-1.879018328013316,-1.869465568234801
1769180078256,126,-2,-1.1022047072273502,-1.5391746891753193,-1.440371874028907
1769180078260,127,-1,-0.7604981608557846,-0.944691789643756,-1.1012454595307322
1769180078264,127,-1,-0.5030037776215461,-0.5360192283309407,-0.8483494394667079
1769180078268,127,-1,-0.2512152474233267,-0.7563740479730767,-0.6018471537354304
1769180078272,127,-1,0.1023473167404943,-0.5466524220044,-0.2518575411300953
1769180078276,128,0,0.6162760429099411,0.1694698240991452,0.2608139678131258
1769180078280,129,1,1.285957306696185,1.268030029257801,0.929363774885558
1769180078284,130,2,2.111305645485674,2.3107009085426973,1.7514960248945457
1769180078288,130,2,3.1452241226929267,2.3056462337620465,2.7807936937090636
1769180078292,131,3,4.435047572100272,3.4454240735976462,4.0668538115529325
1769180078296,134,6,5.919757437219391,6.1036930930813185,5.549004899416637
1769180078300,135,7,7.422250643976399,7.368964529666558,7.048432241341107
1769180078304,136,8,8.760163941510314,8.165238250033635,8.382175757254533
1769180078308,137,9,9.85637942382116,9.463627857061086,9.474766765692111
1769180078312,138,10,10.751091915506604,10.239383911025048,10.36772740008034
1769180078316,139,11,11.538280388037377,11.296350394783062,11.15399923195358
1769180078320,140,12,12.2989550292884,12.18618742419228,11.912597749008816
1769180078324,140,12,13.060917051075975,12.320623486762848,12.670821060544917
1769180078328,141,13,13.781173134408904,13.31685273930605,13.386798250786756
1769180078332,142,14,14.359564126554137,14.337269340945694,13.961467654727755
1769180078336,142,14,14.691022636928464,14.18543947135817,14.290014021722811
1769180078340,142,14,14.724977370665364,14.302832321002564,14.321704417056909
1769180078344,142,14,14.483802671208812,14.187351986754402,14.078630704067598
1769180078348,141,13,14.03051193358556,13.43814677303666,13.623288586908494
1769180078352,141,13,13.419820594331936,13.175790775336626,13.009910599400492
1769180078356,140,12,12.669494422393171,12.34981581015553,12.256403281704912
1769180078360,139,11,11.76301292114043,11.112178421332915,11.34693933323634
1769180078364,138,10,10.674559111274029,10.408577163233716,10.256045667970591
1769180078368,137,9,9.401140976901257,9.15092071738068,8.980251676025151
1769180078372,135,7,7.98077673303041,7.47551824631533,7.557031408544569
1769180078376,134,6,6.477672472084237,5.999787032455061,6.050868711282019
1769180078380,132,4,4.944054552677348,4.491783601301012,4.514784631298555
1769180078384,131,3,3.39924594379056,2.9993027007833586,2.9683609405891573
1769180078388,129,1,1.8525347387028728,1.552841453429861,1.4202196309671395
1769180078392,128,0,0.344043176605834,0.0447642281095626,-0.0903860526488866
1769180078396,126,-2,-1.051142238052908,-1.6000237781769855,-1.4885407176159162
1769180078400,125,-3,-2.274671592795917,-2.8771579202068875,-2.71533055450817
1769180078404,124,-4,-3.3441766759696385,-3.6904582941429345,-3.7877685604634026
1769180078408,123,-5,-4.35031332923863,-4.711194880888618,-4.7962844071302335
1769180078412,122,-6,-5.378542002190584,-5.790876114008336,-5.826384370612672
1769180078416,121,-7,-6.420073609511995,-6.707933261478738,-6.869378647700014
1769180078420,120,-8,-7.354359670131794,-7.840153163626764,-7.804898334434477
1769180078424,119,-9,-8.026630782298236,-8.687888952854014,-8.478587946532588
1769180078428,119,-9,-8.361229996865488,-8.761055269533202,-8.815366536197718
1769180078432,119,-9,-8.418624763159148,-8.74925710930754,-8.875902331456782
1769180078436,119,-9,-8.3526689006731,-8.7701063234052,-8.813365501017717
1769180078440,119,-9,-8.30747727157593,-8.77859683755764,-8.770736498645832
1769180078444,119,-9,-8.332128040616116,-8.776462077954415,-8.796661880068578
1769180078448,119,-9,-8.365715292430288,-8.672110969545884,-8.830919099834508
1769180078452,119,-9,-8.294419599159664,-8.889251232672052,-8.760623499259037
1769180078456,119,-9,-8.039926973212363,-8.6136520945258,-8.507771682994395
1769180078460,120,-8,-7.617565221308893,-7.961872971684674,-8.087523595175998
1769180078464,120,-8,-7.120920635588819,-7.596481755645018,-7.593317786454294
1769180078468,121,-7,-6.649293882184249,-6.866544167023543,-7.124214559128946
1769180078472,121,-7,-6.2463504437618385,-6.738032448396841,-6.723263239852462
1769180078476,121,-7,-5.9036333896327085,-6.751031664745495,-6.381559362453868
1769180078480,122,-6,-5.610677104449794,-5.870687732987641,-6.089223487154986
1769180078484,122,-6,-5.386829850642296,-5.6546766112677345,-5.866810431185107
1769180078488,122,-6,-5.263693472464551,-5.8699540759874225,-5.74620824307277
1769180078492,122,-6,-5.249096368292347,-5.719687557657379,-5.734123859866956
1769180078496,122,-6,-5.311528908051292,-5.809945962779596,-5.797882017161408
1769180078500,122,-6,-5.387446394323012,-5.82393438417105,-5.874037828702004
1769180078504,122,-6,-5.39824321376487,-5.68319009228574,-5.884992519386631
1769180078508,122,-6,-5.277834615911883,-5.896704267127908,-5.765438244212785
1769180078512,122,-6,-5.0111528342836875,-5.6742091118331786,-5.50053012305102
1769180078516,123,-5,-4.658838750261485,-4.90780937442524,-5.1508517464045225
1769180078520,123,-5,-4.338628557724176,-4.720428931311674,-4.8335766133063105
1769180078524,123,-5,-4.169577429693496,-4.791607861814482,-4.666509489215492
1769180078528,123,-5,-4.2145343059841265,-4.819061749959108,-4.71165294391299
1769180078532,123,-5,-4.445275410509142,-4.7609673969869455,-4.941602290184268
1769180078536,123,-5,-4.740861097389022,-4.861707174690277,-5.237118406146419
1769180078540,122,-6,-4.9369756088545245,-5.754125776593831,-5.434451361826544
1769180078544,122,-6,-4.922914696249293,-5.778274179950328,-5.422075002451271
1769180078548,123,-5,-4.719710530263582,-4.838880046286895,-5.220421128279597
1769180078552,123,-5,-4.460291087336194,-4.772847865907711,-4.962642912274761
1769180078556,123,-5,-4.282956076636812,-4.8684924743065405,-4.787014991021443
1769180078560,123,-5,-4.237945983727974,-4.745390956162188,-4.743065691024381
1769180078564,123,-5,-4.281421044319299,-4.8159986494381055,-4.786593389872761
1769180078568,123,-5,-4.3372815367783275,-4.8079411967648715,-4.842176270338276
1769180078572,123,-5,-4.3589022419669075,-4.8317049705289445,-4.864156710928205
1769180078576,123,-5,-4.347429677343147,-4.825231156640494,-4.853873967728641
1769180078580,123,-5,-4.329969918564958,-4.786400101412469,-4.837795135412748
1769180078584,123,-5,-4.326857577294812,-4.805318817672633,-4.835599605385997
1769180078588,123,-5,-4.335310679765122,-4.823798069260151,-4.84449371410589
1769180078592,123,-5,-4.338209748948346,-4.85059230321046,-4.847863876448333
1769180078596,123,-5,-4.326178446900143,-4.811377360530299,-4.836697536193086
1769180078600,123,-5,-4.3115957250083525,-4.810704542962833,-4.823135987684275
1769180078604,123,-5,-4.320123891650525,-4.8011675661772815,-4.832252266821737
1769180078608,123,-5,-4.363282388927288,-4.835611833066659,-4.875347157703077
1769180078612,123,-5,-4.412704663173873,-4.881693715404559,-4.9245501134617085
1769180078616,123,-5,-4.401934123833014,-4.767914694219856,-4.914068520568206
1769180078620,123,-5,-4.266884793168237,-4.890048642237702,-4.779866070262782
1769180078624,123,-5,-4.002256264321737,-4.7117046383999845,-4.516132963364155
1769180078628,124,-4,-3.683584881895311,-3.9635880979939824,-4.198069371109148
1769180078632,124,-4,-3.423587045631781,-3.765801293730539,-3.938472663393506
1769180078636,124,-4,-3.2942059042114136,-3.8972394282756775,-3.8093670026045783
1769180078640,124,-4,-3.28384697080596,-3.780710034324701,-3.799102109773619
1769180078644,124,-4,-3.3239545475795618,-3.821665231597517,-3.8392281421862977
1769180078648,124,-4,-3.352843037831259,-3.8988878164677,-3.8683071846768344
1769180078652,124,-4,-3.358440807666917,-3.82245535909299,-3.874283835088132
1769180078656,124,-4,-3.3681430533476933,-3.869710660144376,-3.8843096232147327
1769180078660,124,-4,-3.3995417350467254,-3.817603668673118,-3.9158425673938777
1769180078664,124,-4,-3.4174471902034687,-3.784389402132365,-3.933802321923232
1769180078668,124,-4,-3.339730887552855,-3.998956423160508,-3.8561709124720793
1769180078672,124,-4,-3.0932949419871076,-3.684824064800496,-3.6098372375825183
1769180078676,125,-3,-2.6723744756938106,-3.0770730066652323,-3.1890046360718554
1769180078680,125,-3,-2.1455891092303623,-2.569284182779845,-2.6622444471688196
1769180078684,126,-2,-1.6070558576525,-2.0837862450468196,-2.123609760200725
1769180078688,126,-2,-1.1176580317217484,-1.711708443678048,-1.634144335565229
1769180078692,127,-1,-0.6844950322459726,-0.9837169051140636,-1.2013189395427346
1769180078696,127,-1,-0.2891996288190332,-0.8181274813528813,-0.8067545908842583
1769180078700,127,-1,0.0643947436073215,-0.7970953722486666,-0.4536419150944188
1769180078704,128,0,0.333593414608623,0.0786929966003047,-0.1841577976299623
1769180078708,128,0,0.481333851827344,0.1583752326617786,-0.0356202309170481
1769180078712,128,0,0.5471846496613006,0.0628643885624588,0.0309873672895494
1769180078716,128,0,0.663379625227108,0.1905654228058562,0.1477126038793004
1769180078720,128,0,0.9770785036234376,0.1184666327179519,0.4616397444666813
1769180078724,129,1,1.5381785276685171,1.1971815557334522,1.0223118721558468
1769180078728,130,2,2.252384602529148,1.9920344953918352,1.7354057784894352
1769180078732,130,2,2.9364972724932703,2.215125584082631,2.418712037276383
1769180078736,131,3,3.423959697158285,3.044672169852323,2.9068241390312752
1769180078740,131,3,3.642628443727439,3.2096980002441136,3.127270264279949
1769180078744,131,3,3.620814549351838,3.1299597971214412,3.10659359908395
1769180078748,131,3,3.423559133293022,2.991555972285149,2.9086385151919094
1769180078752,130,2,3.0635481018306643,2.255781647444296,2.5468832360800686
1769180078756,130,2,2.4623077144569283,1.9280974701546816,1.9446637279010144
1769180078760,129,1,1.517038231918129,1.3768629665288945,1.0000485205826666
1769180078764,128,0,0.2373823404485684,-0.120024049789134,-0.2779367288209666
1769180078768,126,-2,-1.1726251841542843,-1.727887886471135,-1.6863631440261524
1769180078772,125,-3,-2.388516267264946,-3.0647505483752613,-2.90145858295248
1769180078776,124,-4,-3.158295940591723,-3.778123793868577,-3.671393472516002
1769180078780,124,-4,-3.4605890592831177,-3.883404170299167,-3.974505270819877
1769180078784,124,-4,-3.4984501472635094,-3.939225118383164,-4.013180896573237
1769180078788,124,-4,-3.537834263814874,-3.847086893471719,-4.052738178145029
1769180078792,124,-4,-3.72435555069102,-4.047110604925121,-4.2387752972987816
1769180078796,123,-5,-4.01994577159474,-4.755196674175982,-4.533969526431498
1769180078800,123,-5,-4.291275262590893,-4.966563751877312,-4.805861403317852
1769180078804,123,-5,-4.450630827822735,-4.843274383889095,-4.966565018233191
1769180078808,123,-5,-4.515964260734458,-4.957808074152532,-5.032116625540103
1769180078812,123,-5,-4.5483268468449385,-4.971469031935923,-5.061111122523518
1769180078816,123,-5,-4.547407896955226,-4.824493317585712,-5.053306612103915
1769180078820,123,-5,-4.424370821889911,-4.9528480603441105,-4.924580074423753
1769180078824,123,-5,-4.096433789369888,-4.833367544876538,-4.599263322467607
1769180078828,124,-4,-3.621935615440989,-4.012288129204689,-4.138642633829127
1769180078832,124,-4,-3.2176342488731384,-3.9047589128549727,-3.7526971402649623
1769180078836,124,-4,-3.041926199641466,-3.941919830579206,-3.5857044735968877
1769180078840,125,-3,-2.7881442217278622,-2.8273467646770567,-3.3204361704426635
1769180078844,127,-1,-1.3493616322902082,-1.000499459478214,-1.8532265348303572
1769180078848,131,3,3.0434840654573145,3.167575306494614,2.568601247190722
1769180078852,139,11,11.953454132015754,10.902017375919003,11.490083386735083
1769180078856,151,23,25.40392170935708,23.23632100376599,24.92691885841444
1769180078860,168,40,40.93395395763409,39.99637053295282,40.42457731465825
1769180078864,182,54,53.960962361952305,54.14831745157911,53.41636684828872
1769180078868,188,60,59.62186955244223,60.002642474689154,59.05639328622072
1769180078872,184,56,55.176509831661434,55.9821530556308,54.614908144592306
1769180078876,169,41,41.513677923665114,41.09572316694144,40.97920377067597
1769180078880,149,21,22.79170069088267,21.03926866504124,22.294435976315786
1769180078884,131,3,4.43608585839868,3.1872069605375586,3.967600514075772
1769180078888,118,-10,-9.268595015218756,-10.0277486370287,-9.730799312466262
1769180078892,111,-17,-16.63367884492232,-16.885154357238967,-17.1139038504138
1769180078896,110,-18,-18.48293760594664,-18.076984951747676,-18.994195650998964
1769180078900,111,-17,-16.960128741310918,-16.831549197892457,-17.497817072244377
1769180078904,113,-15,-14.187417831709912,-14.97619261432307,-14.733309535347566
1769180078908,115,-13,-11.52119660338904,-12.886502717212547,-12.055513695619393
1769180078912,118,-10,-9.514478287210204,-10.032556060551531,-10.028467327646869
1769180078916,120,-8,-8.218068190644598,-7.960836849918345,-8.717899555496976
1769180078920,120,-8,-7.455949326567023,-8.002042993045125,-7.955030461892154
1769180078924,120,-8,-6.986582681563102,-7.809446218934005,-7.49381985993966
1769180078928,121,-7,-6.614503144960435,-7.075177474639043,-7.129250340247818
1769180078932,121,-7,-6.259137785023055,-6.827081032647815,-6.775600957418447
1769180078936,122,-6,-5.932088148981313,-6.200216921149012,-6.446540699707226
1769180078940,122,-6,-5.643164144948827,-5.781445773965609,-6.156450785489576
1769180078944,122,-6,-5.341051149382831,-6.059172632560912,-5.855496310996132
1769180078948,122,-6,-4.958685909001041,-5.850677446128765,-5.474506402889499
1769180078952,123,-5,-4.501390597091834,-5.014567366751815,-5.016948063959108
1769180078956,124,-4,-4.051566354843041,-4.1026536277139165,-4.566094897817083
1769180078960,124,-4,-3.6657915651118143,-3.8019831019672834,-4.180299788555679
1769180078964,124,-4,-3.288028716996882,-4.183555869504836,-3.8035241532763937
1769180078968,124,-4,-2.7951819778390607,-3.62569339341662,-3.31143708205526
1769180078972,126,-2,-2.129978587732971,-2.351480166112829,-2.6465478811931837
1769180078976,126,-2,-1.37309517222557,-1.7030368645052754,-1.8903841910835548
1769180078980,127,-1,-0.6837378810148107,-1.2571849383968765,-1.2022756587800882
1769180078984,127,-1,-0.1752877452819914,-0.7496167991715158,-0.6946754918636071
1769180078988,128,0,0.166786305341442,-0.0681464402665132,-0.3524979946364752
1769180078992,128,0,0.4706606497341697,0.0442859797594537,-0.0480240815512378
1769180078996,128,0,0.8822352718193407,-0.0673548666865104,0.3638647248622007
1769180079000,129,1,1.456985258246261,1.0586441167955472,0.938060521945371
1769180079004,130,2,2.125804268879498,1.933399109989327,1.6052416889948071
1769180079008,130,2,2.762536493384694,2.2089273272657275,2.2398147199134932
1769180079012,131,3,3.28864927916683,2.7608494725223216,2.7644873857252
1769180079016,131,3,3.726828581770241,3.207085469607817,3.2027049911631273
1769180079020,132,4,4.176337268625158,3.757468396824327,3.6531433847448738
1769180079024,132,4,4.746119600217641,4.215661785292439,4.223423936411691
1769180079028,133,5,5.494898830001951,4.908928311112817,4.971440708262771
1769180079032,134,6,6.4093933036215995,6.033545481307083,5.884085876635986
1769180079036,135,7,7.425893483592497,6.954463301951943,6.8985201788669155
1769180079040,136,8,8.474052312429908,7.946845809207694,7.945372599215759
1769180079044,137,9,9.509939774542543,9.048117526448976,8.981166566165552
1769180079048,138,10,10.519495337781294,10.011863709180869,9.991337983178814
1769180079052,139,11,11.49851821545837,10.944808084768123,10.97043568345214
1769180079056,140,12,12.42806397385073,12.026852700038352,11.898529208985943
1769180079060,141,13,13.259481145295664,12.83836002236578,12.727335029545433
1769180079064,141,13,13.914843557439012,13.168223652562796,13.380530632669576
1769180079068,142,14,14.30867755557331,13.814650994170794,13.77391206826672
1769180079072,142,14,14.392991827412384,14.192930437740364,13.859100838850212
1769180079076,142,14,14.199413412746836,13.70003994283346,13.666190553253948
1769180079080,141,13,13.827597527058847,13.210870957221584,13.29367738212531
1769180079084,141,13,13.364039511930358,12.71675088869678,12.827983631237622
1769180079088,140,12,12.792970825850029,12.27731144245751,12.254082553798211
1769180079092,140,12,11.987742275790993,11.702592909436138,11.446493007623278
1769180079096,138,10,10.804961736364609,10.186874290849762,10.262858129080188
1769180079100,137,9,9.213062691861134,8.709607358891017,8.671549906496725
1769180079104,135,7,7.356500595005903,7.1712268124222955,6.815635954961184
1769180079108,133,5,5.498440720704748,4.824181239167662,4.956961962164931
1769180079112,131,3,3.866154405716914,3.1020569514378384,3.322950249810807
1769180079116,130,2,2.5060101573131015,1.8580960945041636,1.9609819104914965
1769180079120,129,1,1.2728716560394888,0.9170715094138364,0.7262280822509659
1769180079124,128,0,-0.0227753646669697,0.0599151182674022,-0.5712166534019281
1769180079128,126,-2,-1.4383909805845212,-2.22176848340584,-1.9886044522520083
1769180079132,124,-4,-2.8572898732930314,-3.7495419614089975,-3.408377354404052
1769180079136,124,-4,-4.106986630838142,-4.388183567666147,-4.657925833071303
1769180079140,122,-6,-5.10679245958884,-5.804225661045296,-5.657671614538209
1769180079144,122,-6,-5.907770259243893,-6.252075800813104,-6.459755004326142
1769180079148,121,-7,-6.613026018768411,-6.945236786744283,-7.167190652666741
1769180079152,120,-8,-7.272913906878079,-8.012025569291108,-7.829418081801553
1769180079156,120,-8,-7.850285647493159,-8.191000548844016,-8.40854848864235
1769180079160,119,-9,-8.273065941346639,-8.954715761834612,-8.832342590460227
1769180079164,119,-9,-8.513752060730992,-9.198755488460051,-9.073522097246135
1769180079168,119,-9,-8.617724452317,-8.93152425132233,-9.177926436311257
1769180079172,119,-9,-8.653868479831955,-9.127641875928942,-9.214989569393694
1769180079176,119,-9,-8.639022496210018,-9.022113531431122,-9.20177382741332
1769180079180,119,-9,-8.518708815753966,-9.19060136649173,-9.08342658061133
1769180079184,119,-9,-8.231191099173621,-8.959916705463792,-8.797612157915697
1769180079188,120,-8,-7.792014808938608,-8.197308647360146,-8.359688445847755
1769180079192,120,-8,-7.309160097416285,-7.87687731638252,-7.877950534191971
1769180079196,121,-7,-6.906784446984779,-7.288043953105015,-7.476821175095168
1769180079200,121,-7,-6.6284795469750755,-6.939355417035619,-7.199648869484851
1769180079204,121,-7,-6.414378367232221,-7.245660588696383,-6.9862022892059334
1769180079208,121,-7,-6.174694161440335,-6.929103757615049,-6.747151855777799
1769180079212,122,-6,-5.885728642124542,-6.152963173560394,-6.460034844650782
1769180079216,122,-6,-5.616219591062264,-6.0402730526456105,-6.193896365000682
1769180079220,122,-6,-5.468366353564346,-6.176462900497232,-6.049121349043097
1769180079224,122,-6,-5.492141343520198,-6.068453535898439,-6.073443770134444
1769180079228,122,-6,-5.631379926345816,-6.100160491997044,-6.210964363425968
1769180079232,122,-6,-5.727413562455596,-6.031512892716671,-6.305909151325766
1769180079236,122,-6,-5.592291370954027,-6.129584001280048,-6.1726489598403145
1769180079240,122,-6,-5.137328006091311,-6.143782451073836,-5.721741464108366
1769180079244,123,-5,-4.476375978037231,-5.086622534624038,-5.064408792451981
1769180079248,124,-4,-3.892770490910719,-4.148942259775809,-4.482455177106759
1769180079252,124,-4,-3.6532940171939017,-3.961733338227188,-4.243243439231622
1769180079256,124,-4,-3.809406460585218,-4.23245429132276,-4.399513762024235
1769180079260,123,-5,-4.166688996652564,-5.044957143277615,-4.757467846653556
1769180079264,123,-5,-4.4573793837272415,-5.236969090885221,-5.049380675148301
1769180079268,123,-5,-4.560422652537368,-5.004940338677347,-5.154168895687455
1769180079272,123,-5,-4.573446819460608,-5.125342393127849,-5.169314325323252
1769180079276,123,-5,-4.683967858745378,-5.051037759826194,-5.281886979116324
1769180079280,123,-5,-4.9672190396147275,-5.272119742542436,-5.566638001056593
1769180079284,122,-6,-5.295127952668614,-6.029271497515232,-5.895368255304578
1769180079288,122,-6,-5.436732815750017,-6.270454182941227,-6.037453255741104
1769180079292,122,-6,-5.258885587396561,-5.821479570545643,-5.86038298209199
1769180079296,123,-5,-4.847086453935525,-5.39662610257155,-5.450250534754415
1769180079300,123,-5,-4.439732799242524,-4.900912127131583,-5.045584560055868
1769180079304,124,-4,-4.235962546453599,-4.4804041958174805,-4.844881661583694
1769180079308,123,-5,-4.246160193825023,-4.831943605968106,-4.857200786311528
1769180079312,123,-5,-4.310684124960723,-5.269589771427195,-4.921825211611287
1769180079316,123,-5,-4.256037301197043,-4.963439783240859,-4.8658283198578225
1769180079320,124,-4,-4.035813276402206,-4.317435014532995,-4.645100609235616
1769180079324,124,-4,-3.738975882368592,-4.142330124144822,-4.350540240951576
1769180079328,124,-4,-3.4940525986874813,-4.1530624909232134,-4.110112326022019
1769180079332,124,-4,-3.3845599023097135,-4.005031103977208,-4.004742723817591
1769180079336,124,-4,-3.4374926483801937,-4.193614679969956,-4.05937347281149
1769180079340,124,-4,-3.647101846860492,-4.141099124216846,-4.268478705579319
1769180079344,124,-4,-3.974745577340386,-4.313772715258298,-4.5952222673868315
1769180079348,123,-5,-4.326763624474186,-5.0479685890977795,-4.947454699113278
1769180079352,123,-5,-4.562868655467408,-5.082216781412991,-5.185120654357786
1769180079356,123,-5,-4.562929955581754,-5.1618394415817415,-5.187477964149174
1769180079360,123,-5,-4.312205452796578,-5.154961741961856,-4.939221823364779
1769180079364,124,-4,-3.930281802731871,-4.354459955195461,-4.559795261779561
1769180079368,124,-4,-3.605179537717955,-4.016175791299201,-4.237130746421844
1769180079372,124,-4,-3.472684297465122,-4.136884795529111,-4.106519332928318
1769180079376,124,-4,-3.5299396475252003,-4.1224613256282385,-4.1644850168500955
1769180079380,124,-4,-3.6434512567210673,-4.1947224040126745,-4.277643341476247
1769180079384,124,-4,-3.636215559817694,-4.377692335217075,-4.270136652208573
1769180079388,124,-4,-3.387796055206089,-3.972695500181048,-4.022867551998319
1769180079392,125,-3,-2.8880223241581007,-3.2313676809644196,-3.525892397598297
1769180079396,125,-3,-2.2287404913946576,-3.008346603918884,-2.869835512092464
1769180079400,126,-2,-1.5538523891512663,-2.3379676765429687,-2.197223336047177
1769180079404,127,-1,-0.9930395135094005,-1.2818809738800292,-1.637666248003728
1769180079408,127,-1,-0.6039468184277172,-1.0557996696856795,-1.2496693826649738
1769180079412,127,-1,-0.3570793711032243,-1.2146632195467797,-1.0040615008276017
1769180079416,127,-1,-0.1782735339620373,-0.9711217294680402,-0.8263439375037477
1769180079420,128,0,-0.0064823779162461,-0.457048152407726,-0.6555862029033078
1769180079424,128,0,0.1928445512613619,-0.1510246229537724,-0.457817002964211
1769180079428,128,0,0.4562861119012891,-0.2195110039399868,-0.1963262750354827
1769180079432,128,0,0.834513834039067,-0.0771644606045725,0.1804274880878495
1769180079436,129,1,1.3604312637242284,0.9162030628305456,0.7055305570864197
1769180079440,130,2,2.008935583400199,1.5812923085971198,1.352894402870414
1769180079444,130,2,2.687806288796219,1.8354694141241017,2.0294770623803284
1769180079448,131,3,3.2595305873961116,2.7341398609057226,2.598231624435364
1769180079452,131,3,3.5782370752650303,2.983564690380401,2.9144804994180795
1769180079456,131,3,3.5355184287987926,2.817656344845403,2.870444727731501
1769180079460,131,3,3.105664660212438,2.670438450490199,2.439978016516664
1769180079464,130,2,2.365535343399512,1.7124700087659592,1.699087629301098
1769180079468,129,1,1.4653645490678495,0.8411816198942811,0.7976858672452584
1769180079472,128,0,0.5563262453618734,-0.1350966921142891,-0.1127450447984104
1769180079476,127,-1,-0.2798566946248293,-1.08413051924546,-0.9503922837275608
1769180079480,127,-1,-1.0452792477725423,-1.441445320514399,-1.7179390094861555
1769180079484,126,-2,-1.775910615606855,-2.203195198894474,-2.451692993797433
1769180079488,125,-3,-2.4811699536910052,-3.2598077112223085,-3.1600827854131235
1769180079492,124,-4,-3.1310430249531658,-4.054455172003157,-3.811520890613828
1769180079496,124,-4,-3.684765268535556,-4.176308504280913,-4.364999646803765
1769180079500,124,-4,-4.110951351621717,-4.383441713596483,-4.79061042345001
1769180079504,123,-5,-4.385507726898034,-5.25541661159254,-5.06589019476876
1769180079508,123,-5,-4.5024567820180925,-5.26230519814157,-5.185476520074115
1769180079512,123,-5,-4.508825823145957,-5.026000240413222,-5.196232579676603
1769180079516,123,-5,-4.5180684287935655,-5.28137815453803,-5.210822886697605
1769180079520,123,-5,-4.658664317802069,-5.23521353796541,-5.3557519475405835
1769180079524,123,-5,-4.977122392853785,-5.4777930695958545,-5.674631002817432
1769180079528,122,-6,-5.368173208894009,-6.017890444653926,-6.060651493898967
1769180079532,122,-6,-5.601579604162202,-6.322359504100896,-6.2863230003309605
1769180079536,122,-6,-5.455923440328637,-5.993391226728726,-6.137472967781088
1769180079540,123,-5,-4.891892283453974,-5.526393866381114,-5.5818945847744255
1769180079544,123,-5,-4.14497864149468,-5.229420460549491,-4.855032947739548
1769180079548,124,-4,-3.617297081929083,-4.245924230219445,-4.3487313316638225
1769180079552,124,-4,-3.5251856971501287,-4.170564054287913,-4.264316403314768
1769180079556,124,-4,-3.427395698993842,-4.119979673298003,-4.152322687625679
1769180079560,127,-1,-1.9556750906753129,-1.458875743734814,-2.6512736735183164
1769180079564,131,3,2.8651882190129108,2.736769125128708,2.1956670479579072
1769180079568,139,11,12.562775710628603,10.735012331787845,11.89883049324439
1769180079572,153,25,26.83773707152623,24.88444188553285,26.153816179365887
1769180079576,170,42,42.7817356376484,41.77176816413008,42.06125065440041
1769180079580,184,56,55.522431131663616,55.66404692800237,54.765833206529145
1769180079584,189,61,60.26560199859552,60.558746980647115,59.489740864867976
1769180079588,183,55,54.66392684915706,54.8339386696175,53.89364474979838
1769180079592,168,40,40.076554205336706,39.71015479681472,39.33265700879071
1769180079596,147,19,20.928158183098603,18.88162705266316,20.217672846436685
1769180079600,129,1,2.5812155686910803,0.6090923542239199,1.8942872582914037
1769180079604,117,-11,-10.962813598030742,-11.343621396246062,-11.648036610616993
1769180079608,110,-18,-18.261072950412597,-18.199512234972715,-18.967096671384112
1769180079612,108,-20,-20.14770492185165,-20.30595799431663,-20.885359743939297
1769180079616,109,-19,-18.569551243877925,-19.111385002389294,-19.332679863259465
1769180079620,112,-16,-15.45881647528053,-16.479547191696778,-16.229969777855985
1769180079624,115,-13,-12.17932811648065,-13.234855669027723,-12.94195137141013
1769180079628,118,-10,-9.49977648709626,-10.331239893468265,-10.247785495071348
1769180079632,120,-8,-7.753248570654573,-8.233947569359351,-8.492027989847177
1769180079636,121,-7,-6.940219749344488,-7.176207765136715,-7.67997467180852
1769180079640,121,-7,-6.784430994354488,-7.52865568094749,-7.531948714148687
1769180079644,120,-8,-6.861952065754365,-8.08464845199099,-7.617134048864645
1769180079648,121,-7,-6.813291055019933,-7.585845528116833,-7.572132258274133
1769180079652,121,-7,-6.500050369305759,-6.904618507593585,-7.259845101113615
1769180079656,122,-6,-5.9883785119719475,-6.613649098668496,-6.749727227832035
1769180079660,122,-6,-5.404645966323903,-6.0750288357389906,-6.169380217756512
1769180079664,123,-5,-4.812950347259215,-5.545687638675224,-5.581528018946139
1769180079668,123,-5,-4.205535992558373,-5.181663795919178,-4.976904814794894
1769180079672,124,-4,-3.5687870329566924,-4.245463296650104,-4.342052445689887
1769180079676,125,-3,-2.9300507439910826,-3.421348655725869,-3.705353006652164
1769180079680,125,-3,-2.3399492774428428,-3.1561826280316514,-3.117611210243163
1769180079684,126,-2,-1.8231187790134535,-2.6102375241982143,-2.6027701530928544
1769180079688,126,-2,-1.3521391378200345,-2.0024070587826013,-2.1334245985091833
1769180079692,127,-1,-0.8660846818257242,-1.559700252054082,-1.6499115834005047
1769180079696,127,-1,-0.3208396124472782,-1.0512713188721596,-1.1089791304558263
1769180079700,128,0,0.2589860180467521,-0.6011480180729699,-0.5341121444813282
1769180079704,128,0,0.7699223648031197,-0.1509357549779358,-0.0265981581191621
1769180079708,129,1,1.0967249691019303,0.525985575006842,0.2990350008671359
1769180079712,129,1,1.2324093377442684,0.8652613121344588,0.4341869398495953
1769180079716,129,1,1.3490355580556983,0.5316862300038812,0.5489134587130706
1769180079720,129,1,1.7203462815924693,0.7456260128270911,0.916771825633536
1769180079724,130,2,2.523689809857126,1.5488813552926466,1.7164552098539962
1769180079728,131,3,3.6871736579873966,2.74958030153904,2.87684073422591
1769180079732,133,5,4.935465994014367,4.691399054842309,4.121901290613039
1769180079736,134,6,6.007162125187972,5.618674435768201,5.18957131615811
1769180079740,134,6,6.845583120407531,5.6779470856696195,6.024030822049612
1769180079744,135,7,7.5930362739423005,6.56408682954936,6.768995800233757
1769180079748,136,8,8.420598166903073,7.730761794412773,7.595470639424958
1769180079752,137,9,9.37529654041993,8.699058955903643,8.548863823199756
1769180079756,138,10,10.373953231831996,9.586682000526334,9.54465515199864
1769180079760,139,11,11.310343859156678,10.698145597299153,10.47676385111979
1769180079764,140,12,12.148516591366835,11.504178502452168,11.310442337233338
1769180079768,140,12,12.913611354393016,11.771430547775063,12.07191471712813
1769180079772,141,13,13.603926973180975,12.65951872576982,12.759487363689354
1769180079776,142,14,14.130413944774308,13.5819205594245,13.283130817217058
1769180079780,142,14,14.3606706713665,13.726833330912749,13.509808768154612
1769180079784,142,14,14.229375433603591,13.389847150430846,13.374964205323554
1769180079788,141,13,13.804268610263945,12.924272183666352,12.947603894568848
1769180079792,141,13,13.244148922641047,12.433967650868208,12.386384382665089
1769180079796,140,12,12.686681756599832,11.834771885990804,11.82708832907113
1769180079800,140,12,12.1521372200123,11.439623163661532,11.288261288641069
1769180079804,139,11,11.522618003020018,10.648521607881513,10.652390245733878
1769180079808,138,10,10.604654136527042,9.664135149500307,9.728285902111924
1769180079812,137,9,9.244661173029732,8.639522848375659,8.364503705938807
1769180079816,135,7,7.441168009291575,6.652804344050844,6.559890921869799
1769180079820,133,5,5.385237815036825,4.563274909135593,4.50402433892831
1769180079824,131,3,3.3863486330639487,2.541064218156188,2.5042788293993334
1769180079828,129,1,1.712437709364501,0.7082248420938659,0.8271251530681024
1769180079832,128,0,0.4416703842616951,-0.3777469036921461,-0.4493515747613111
1769180079836,127,-1,-0.5728902159016482,-1.385974710740381,-1.4707169142136407
1769180079840,126,-2,-1.5972042748697053,-2.362276671440382,-2.5008371322616494
1769180079844,125,-3,-2.8365368097398953,-3.619365063864601,-3.7434683888376177
1769180079848,123,-5,-4.299336037341517,-5.099292675564379,-5.207201763393053
1769180079852,122,-6,-5.792051879730552,-6.6505121329154715,-6.700215744897487
1769180079856,120,-8,-7.045680653856833,-8.075873980928868,-7.95560119887278
1769180079860,120,-8,-7.887972159580107,-8.712503256105485,-8.802142798809939
1769180079864,119,-9,-8.34481365027212,-9.289598750453978,-9.265098475172884
1769180079868,119,-9,-8.603454773005565,-9.428298015749348,-9.529921052371671
1769180079872,119,-9,-8.868200284317922,-9.39403261583822,-9.799095249063395
1769180079876,118,-10,-9.21633436186366,-10.276159576879104,-10.149274255441917
1769180079880,118,-10,-9.55708657624444,-10.612330232864585,-10.490913481137737
1769180079884,118,-10,-9.712764344002382,-10.33380036398652,-10.648618836961289
1769180079888,118,-10,-9.554764130200189,-10.475624962101955,-10.494996784762897
1769180079892,118,-10,-9.102758936176883,-10.318774020765408,-10.048600365024017
1769180079896,119,-9,-8.522750806313407,-9.376500917252644,-9.473460982472089
1769180079900,120,-8,-8.015034014136763,-8.54504026540658,-8.969285376287747
1769180079904,120,-8,-7.665545439501531,-8.398406028137845,-8.62277012341361
1769180079908,120,-8,-7.38900455741044,-8.470212358426782,-8.349124228633123
1769180079912,120,-8,-7.028150140055296,-8.315044689121837,-7.991011407469505
1769180079916,121,-7,-6.52030214582637,-7.4142974164714035,-7.486230358299434
1769180079920,122,-6,-5.968759142718694,-6.511416957398458,-6.939099560080681
1769180079924,122,-6,-5.556096624152617,-6.452899808233373,-6.532169410735324
1769180079928,122,-6,-5.3934239755152245,-6.444281437575229,-6.374894354334311
1769180079932,122,-6,-5.440507365439794,-6.364219661491896,-6.425391321290382
1769180079936,122,-6,-5.542295730528166,-6.388502879679797,-6.528693086334656
1769180079940,122,-6,-5.530650043740017,-6.547963354685485,-6.518300903343024
1769180079944,122,-6,-5.315114540169802,-6.423175228193353,-6.305537111047384
1769180079948,123,-5,-4.915803445196529,-5.509433929626179,-5.911193998459467
1769180079952,123,-5,-4.438244443829053,-5.311462728189279,-5.439907234609776
1769180079956,123,-5,-4.023891441719382,-5.474361297966732,-5.031363193071121
1769180079960,124,-4,-3.802398672019149,-4.473474083257573,-4.814097532063935
1769180079964,124,-4,-3.844656680370997,-4.4965608182681045,-4.8592312415502565
1769180079968,123,-5,-4.122687662902868,-5.502243350654245,-5.139590859398594
1769180079972,123,-5,-4.507977310749084,-5.284080452311084,-5.527221103184912
1769180079976,123,-5,-4.826048721144327,-5.588881050690331,-5.847999456519863
1769180079980,122,-6,-4.942467607691459,-6.3161521668453835,-5.967912594194366
1769180079984,123,-5,-4.8317459987279125,-5.699687340007658,-5.861903181885752
1769180079988,123,-5,-4.588317104842359,-5.308983540320328,-5.624355542722307
1769180079992,123,-5,-4.3734523797171185,-5.495197888143303,-5.415476548882393
1769180079996,123,-5,-4.332554872339543,-5.430262403234029,-5.379096011190361
1769180080000,123,-5,-4.524653887124577,-5.440219443609219,-5.573715824489565
1769180080004,123,-5,-4.886549001521367,-5.663755984912534,-5.937305932453293
1769180080008,122,-6,-5.2481849462974965,-6.275436513925518,-6.3014200048010585
1769180080012,122,-6,-5.41064081679157,-6.650219936076612,-6.46769224146405
1769180080016,122,-6,-5.256644254269748,-6.206487661093378,-6.3183143722226545
1769180080020,123,-5,-4.819724689141484,-5.748909213423136,-5.886086947353917
1769180080024,123,-5,-4.258578896828655,-5.326045626763969,-5.329387435490705
1769180080028,124,-4,-3.758253004604872,-4.638095420673457,-4.833368346562848
1769180080032,124,-4,-3.4347091349339083,-4.3448090292322865,-4.51417045610901
1769180080036,124,-4,-3.308209058610217,-4.485288175582067,-4.391930765064936
1769180080040,124,-4,-3.3476246841261985,-4.558360277141847,-4.4351926862095254
1769180080044,124,-4,-3.5250631772247445,-4.446586244621816,-4.615980629564582
1769180080048,124,-4,-3.819319022282846,-4.615675977684189,-4.913318051915253
1769180080052,123,-5,-4.173827860050094,-5.318418462701057,-5.2709067619026095
1769180080056,123,-5,-4.473125878538914,-5.60064012795582,-5.5736278022558405
1769180080060,123,-5,-4.583567458328818,-5.414913311400758,-5.688312208020224
1769180080064,123,-5,-4.437923240796172,-5.629008730610651,-5.547797609533816
1769180080068,123,-5,-4.098439960213937,-5.433869028572763,-5.213623007167795
1769180080072,124,-4,-3.736803236184629,-4.527201066831421,-4.856659280873095
1769180080076,124,-4,-3.522409430282825,-4.4198094724457455,-4.646170932555532
1769180080080,124,-4,-3.4910870472792257,-4.6258136685190205,-4.618299755377166
1769180080084,124,-4,-3.504234626049763,-4.406575744358463,-4.634508989140135
1769180080088,124,-4,-3.344874658184317,-4.710861041435102,-4.477735642670236
1769180080092,124,-4,-2.877969164050102,-4.229807754477162,-4.013529386731936
1769180080096,126,-2,-2.142837739536513,-2.7835729228994435,-3.282522000610222
1769180080100,126,-2,-1.310403927175884,-2.237894965875818,-2.456195597048975
1769180080104,127,-1,-0.5641381147633018,-1.8410363220740316,-1.7166317508629163
1769180080108,127,-1,-0.0135723755069383,-1.269542234554064,-1.1712279813386264
1769180080112,128,0,0.3205691908109946,-0.724553575305692,-0.8401173534006334
1769180080116,128,0,0.4898535099986092,-0.3051021686345375,-0.6729698245754899
1769180080120,128,0,0.6027589940696496,-0.7107887782279847,-0.5626192452628935
1769180080124,128,0,0.7975000539216561,-0.4216686327912635,-0.3711832613285784
1769180080128,129,1,1.1907929145653346,0.3588814678975029,0.0181457974784853
1769180080132,129,1,1.8219526034361135,0.5239602610890048,0.6446724330500047
1769180080136,130,2,2.619954346088081,1.5289348397581666,1.4375555725717803
1769180080140,131,3,3.4088276447798167,2.3497905480728054,2.221322014681682
1769180080144,131,3,3.9578134109787215,2.585754255996606,2.765488714134435
1769180080148,132,4,4.0682638251114,3.2584511851080453,2.8712254391755865
1769180080152,131,3,3.660025606286689,2.6445311500105073,2.45842484224496
1769180080156,130,2,2.8035235126722853,1.3454863087516786,1.5982846962097057
1769180080160,129,1,1.6761497341571028,0.5517370217449382,0.4687389568590956
1769180080164,128,0,0.4831972130358262,-0.6378760831799932,-0.7259435137115142
1769180080168,127,-1,-0.5989849871475401,-1.5576185617243694,-1.8114692244846404
1769180080172,126,-2,-1.4488062248443865,-2.5182434465201613,-2.6671345520770178
1769180080176,125,-3,-2.0251471344195062,-3.5782796088231534,-3.2503888242513237
1769180080180,125,-3,-2.3943513897868565,-3.464889368179655,-3.6251813934269186
1769180080184,125,-3,-2.712928302491904,-3.697435395592674,-3.9469528254894706
1769180080188,124,-4,-3.1406054345289807,-4.479908579662093,-4.376663708916416
1769180080192,124,-4,-3.732830534907112,-4.636940457225235,-4.972266875948439
1769180080196,123,-5,-4.400508030206123,-5.489243521436099,-5.646115372218823
1769180080200,122,-6,-4.9791325559150845,-6.555668982033545,-6.232219993164178
1769180080204,122,-6,-5.35428692343976,-6.635637296427717,-6.612386116486166
1769180080208,122,-6,-5.530418903210402,-6.5449616773562385,-6.788280131052704
1769180080212,122,-6,-5.57904736408166,-6.602387292973841,-6.832985017804294
1769180080216,122,-6,-5.532079017693134,-6.546381687904215,-6.7846031740723385
1769180080220,122,-6,-5.3565400444891464,-6.50588255400422,-6.6170628530273
1769180080224,122,-6,-5.058365647291675,-6.728314336614935,-6.337837872882418
1769180080228,122,-6,-4.781178995157005,-6.438647505744857,-6.083238560040004
1769180080232,123,-5,-4.6806551964836,-5.76275892654489,-5.995915497765997
1769180080236,123,-5,-4.512069126019342,-5.3757866026290735,-5.821408400248584
1769180080240,125,-3,-3.2035420207617196,-3.712058693084423,-4.489941954461971
1769180080244,129,1,1.0859527984077593,0.4682578026170652,-0.1750496148158806
1769180080248,137,9,10.09867724834232,8.35466426698511,8.84753532634135
1769180080252,150,22,24.06361767607764,21.426590022317946,22.797245632688668
1769180080256,167,39,40.62364011989715,38.448762185944766,39.32148558480216
1769180080260,183,55,55.081539836604065,54.4353851769978,53.738333069867224
1769180080264,191,63,62.216796994210235,62.28702242704771,60.84499181716368
1769180080268,187,59,58.80183268203251,58.46064740740117,57.42568261991322
1769180080272,173,45,45.31289071037536,44.223804126781445,43.95699022998893
1769180080276,152,24,25.759566052425267,23.61559265059236,24.43681160092597
1769180080280,132,4,5.760045445709567,3.266605441939049,4.464999137581692
1769180080284,117,-11,-9.93345760144729,-11.47711663862226,-11.221809129843177
1769180080288,109,-19,-19.0620663208377,-19.71476748242588,-20.369025503212328
1769180080292,106,-22,-21.979503051534156,-22.63201912559654,-23.32093129136936
1769180080296,107,-21,-20.621372203039748,-21.515137360896137,-21.995737476390904
1769180080300,110,-18,-17.225763587458953,-18.711941503884024,-18.6168898237322
1769180080304,113,-15,-13.516959849799669,-15.45408256122065,-14.905302079506598
1769180080308,117,-11,-10.492095539385184,-11.818098183261789,-11.866649005834145
1769180080312,119,-9,-8.536541871979171,-9.505817131561578,-9.89949119362982
1769180080316,120,-8,-7.585807693966925,-8.725907129655106,-8.947776325604295
1769180080320,120,-8,-7.274010640763985,-8.503607008976683,-8.64480374695404
1769180080324,120,-8,-7.136944328488474,-8.689290571207167,-8.519336558728998
1769180080328,120,-8,-6.856238873198206,-8.580862123403872,-8.246852341646047
1769180080332,121,-7,-6.400028787110928,-7.742514872661064,-7.794930153701421
1769180080336,122,-6,-5.941369667713506,-6.541786772012893,-7.34007150184497
1769180080340,122,-6,-5.628883312744157,-6.679300947529422,-7.032926059878289
1769180080344,121,-7,-5.431926688523299,-7.576745059937164,-6.841082902547926
1769180080348,122,-6,-5.192364300658258,-6.65814261262151,-6.604283563478801
1769180080352,123,-5,-4.785310063541721,-5.728897354389897,-6.1989753578658
1769180080356,123,-5,-4.2054504798111365,-5.535385512603328,-5.623078937038478
1769180080360,124,-4,-3.529695315017063,-4.736180614507869,-4.954190578225303
1769180080364,124,-4,-2.847095737617707,-4.508065632723059,-4.278628975048799
1769180080368,125,-3,-2.228446946830823,-3.789052189343996,-3.6646410564450376
1769180080372,126,-2,-1.7166872897779393,-2.5727584849231233,-3.1557031823739488
1769180080376,126,-2,-1.3054442888858533,-2.747036542907513,-2.7477743432970145
1769180080380,126,-2,-0.9296535657189976,-2.5144885907938708,-2.376840269956936
1769180080384,127,-1,-0.5038677464447159,-1.7541530729038548,-1.956433525931619
1769180080388,127,-1,0.0169106297466773,-1.5971913577137382,-1.4402913052191249
1769180080392,128,0,0.6194092942670035,-0.7265337427467085,-0.8418026920183389
1769180080396,129,1,1.2793499169965827,0.3245474916014832,-0.1862349721090008
1769180080400,129,1,2.017844895554411,0.4884264100372595,0.5472912420764549
1769180080404,130,2,2.894261057328693,1.1062164913954111,1.4189441310858233
1769180080408,131,3,3.9374852403747633,2.6410938253869354,2.4580150384721233
1769180080412,133,5,5.09535819460404,3.8822739768422543,3.611625415777034
1769180080416,133,5,6.2599307936026065,4.8451860194184375,4.771153180851662
1769180080420,135,7,7.337533828069115,5.840637969361118,5.843343704688334
1769180080424,135,7,8.296289749695609,6.7962451294068735,6.797127283994293
1769180080428,137,9,9.165348073557398,7.8914278582364545,7.661826972202725
1769180080432,137,9,10.003740504649942,8.593468231340916,8.496240986325947
1769180080436,138,10,10.86173388385792,9.20887939727476,9.350583539015204
1769180080440,139,11,11.75223047159166,10.343491420543888,10.237542099664392
1769180080444,140,12,12.64694004844843,11.410568679661043,11.128031907874588
1769180080448,141,13,13.491477058572864,12.081102799360492,11.967045511060023
1769180080452,141,13,14.211072673534291,12.551731570784264,12.680327964259044
1769180080456,142,14,14.699247153682766,13.111268840218338,13.162615325443149
1769180080460,142,14,14.8274051622622,13.518621784853435,13.285976591156553
1769180080464,142,14,14.50815297086555,13.15817488771918,12.962815466345535
1769180080468,141,13,13.7772624769708,12.29880308794209,12.22855546385204
1769180080472,140,12,12.813240550584185,11.367322542453811,11.26157600108866
1769180080476,139,11,11.85444953264552,10.21871327093952,10.29982293422801
1769180080480,138,10,11.062822894993053,9.47072672143634,9.50415455405357
1769180080484,138,10,10.431137759328784,9.124070888234453,8.866398359395395
1769180080488,137,9,9.795207518064082,8.328609680293017,8.222914708486048
1769180080492,136,8,8.933377453911149,7.346271790630746,7.354210522640216
1769180080496,135,7,7.68760752286299,6.161486240204306,6.104147671849662
1769180080500,133,5,6.0481826173241355,4.612438819031097,4.462697644179939
1769180080504,132,4,4.16952199100751,2.8250139716445317,2.582132486737729
1769180080508,129,1,2.3023835631397187,0.7385632115846705,0.7115061666918165
1769180080512,128,0,0.6623870644082612,-1.191468810885564,-0.9334869053334116
1769180080516,126,-2,-0.688331758930846,-2.232638083371162,-2.2897596462556495
1769180080520,126,-2,-1.8540560797382168,-3.030501319776605,-3.4611070788982636
1769180080524,124,-4,-2.9979444865080227,-4.5978236027031265,-4.610621279222261
1769180080528,123,-5,-4.205537775631065,-5.765396947636903,-5.82344229647629
1769180080532,122,-6,-5.430770737774935,-6.845818219394188,-7.052774712092628
1769180080536,120,-8,-6.551652398670766,-8.428449688055403,-8.176418486535235
1769180080540,120,-8,-7.46698533503193,-9.021217405806263,-9.09416855340102
1769180080544,119,-9,-8.145475015557077,-9.460262483745298,-9.77639723487497
1769180080548,119,-9,-8.603097370542066,-10.073673091298929,-10.239726685014787
1769180080552,118,-10,-8.863534481562297,-10.434528089093678,-10.506462555555023
1769180080556,118,-10,-8.959238646125458,-10.939065198719833,-10.60710673378769
1769180080560,118,-10,-8.955438575399727,-10.489744624306434,-10.606787665014222
1769180080564,119,-9,-8.934921901735366,-10.008045126378184,-10.590001183371912
1769180080568,118,-10,-8.939194124999366,-10.580057771187532,-10.599113832553858
1769180080572,118,-10,-8.936312002995598,-10.89103827248694,-10.600947472426247
1769180080576,118,-10,-8.856551291872245,-10.564223441350247,-10.524579439154635
1769180080580,119,-9,-8.646524663702163,-9.83192944408295,-10.317481942177228
1769180080584,119,-9,-8.283166521320954,-9.718495057052806,-9.958201020869671
1769180080588,119,-9,-7.764796561346848,-9.854525262002165,-9.445095322060524
1769180080592,120,-8,-7.12275709860998,-8.65794524489474,-8.808208867153162
1769180080596,121,-7,-6.439762969655371,-7.806135644499548,-8.129508582749693
1769180080600,121,-7,-5.830879209073668,-7.629783574201918,-7.524449254158708
1769180080604,122,-6,-5.389203489809303,-6.9040976324012355,-7.086771309816776
1769180080608,122,-6,-5.142770951559286,-6.710001012666956,-6.844691480246066
1769180080612,122,-6,-5.055757050948668,-6.808810144793374,-6.7620935771648405
1769180080616,122,-6,-5.065396960853193,-6.693617163622797,-6.775765918933502
1769180080620,122,-6,-5.119307542095371,-6.751112373580827,-6.833142655325581
1769180080624,122,-6,-5.183379507640018,-6.793168643492431,-6.900476508853085
1769180080628,122,-6,-5.222549465931187,-6.831950610840435,-6.94340550988126
1769180080632,122,-6,-5.186840695776605,-6.716580488051657,-6.912311832605552
1769180080636,122,-6,-5.031717178212391,-6.807166481867904,-6.762188396884553
1769180080640,122,-6,-4.762464075733551,-6.659029829285659,-6.49744144818987
1769180080644,123,-5,-4.453892012801379,-5.8868058142007325,-6.192529777930082
1769180080648,123,-5,-4.2093263335245865,-5.754635921053702,-5.951218041648059
1769180080652,123,-5,-4.086415558903285,-5.821836992035921,-5.831780145995857
1769180080656,123,-5,-4.060225350899476,-5.720551437680829,-5.809546525936055
1769180080660,123,-5,-4.06084121156779,-5.781005524750403,-5.81445069582524
1769180080664,123,-5,-4.050201560679572,-5.753605994301577,-5.8080299112531115
1769180080668,123,-5,-4.066009587591674,-5.911286056224186,-5.827691421900587
1769180080672,123,-5,-4.187925693728525,-5.686063396058035,-5.9532753985628935
1769180080676,123,-5,-4.449980425002494,-5.868801067913572,-6.219209423637864
1769180080680,122,-6,-4.7802916844934735,-6.6911045259783934,-6.553492949547042
1769180080684,122,-6,-5.034215821961878,-6.793693812090196,-6.810865930412172
1769180080688,122,-6,-5.097840030920739,-6.954124543745507,-6.8773055184515055
1769180080692,122,-6,-4.965476888838623,-6.588032447898864,-6.747991429058671
1769180080696,123,-5,-4.723942119879991,-6.060082324972715,-6.510584160672697
1769180080700,122,-6,-4.474387339755215,-6.461539679099327,-6.265930909318347
1769180080704,123,-5,-4.2740035061380945,-6.07651225324915,-6.070165414233736
1769180080708,123,-5,-4.136110948151428,-5.665349789640371,-5.936041185615553
1769180080712,123,-5,-4.059291693597775,-5.900912232815173,-5.862341711099879
1769180080716,123,-5,-4.043181540649524,-5.783824714764468,-5.849008996200692
1769180080720,123,-5,-4.079587987502115,-5.722935769090746,-5.888030785233595
1769180080724,123,-5,-4.135241043701651,-5.868293593421831,-5.946538991017496
1769180080728,123,-5,-4.15167138811975,-5.855806913882837,-5.966606905732587
1769180080732,123,-5,-4.078017032858245,-5.747566124152112,-5.897402586900249
1769180080736,123,-5,-3.921558989040666,-5.958310327188827,-5.745529700266166
1769180080740,123,-5,-3.76779486848583,-5.552378669055957,-5.5958173616737
1769180080744,124,-4,-3.7294972987021366,-5.064645709477628,-5.560966022006031
1769180080748,123,-5,-3.8482337968122726,-5.677773386242245,-5.682714906600603
1769180080752,123,-5,-4.0330127241343785,-5.919808639071297,-5.870067264231558
1769180080756,123,-5,-4.098895857172799,-5.86022724906375,-5.938216149440501
1769180080760,123,-5,-3.8794756209188472,-5.598112645929673,-5.721260584912446
1769180080764,124,-4,-3.329053223109681,-5.107862675985015,-5.173956883309064
1769180080768,124,-4,-2.548452837952813,-4.5654020662598995,-4.397250972659787
1769180080772,126,-2,-1.7248968989005171,-3.119284264315837,-3.578320103195338
1769180080776,126,-2,-1.0307830568792324,-2.6451433929428547,-2.8892076564326095
1769180080780,126,-2,-0.5516144861598749,-2.843526923849571,-2.4144932937964447
1769180080784,127,-1,-0.2804751311655868,-1.9037576440259212,-2.146293660481753
1769180080788,127,-1,-0.1505233286793335,-1.713701435410246,-2.01761350387382
1769180080792,127,-1,-0.0582249674933004,-2.0894030287154797,-1.9257909121514092
1769180080796,127,-1,0.1267533613074021,-1.5823356722768138,-1.7420456700326694
1769180080800,128,0,0.5342303346538078,-1.0292238774045843,-1.3379813078647818
1769180080804,128,0,1.2302707509353854,-0.660567314989307,-0.6475268019826161
1769180080808,129,1,2.141202446608819,0.0101479752152056,0.2574804556522738
1769180080812,130,2,3.032491942070622,1.1440036675652268,1.1445385902011076
1769180080816,131,3,3.6057103763107183,2.2230401800773065,1.71553651953695
1769180080820,131,3,3.681563531497081,2.0604616030409675,1.7899905862654006
1769180080824,130,2,3.3261163752348533,1.3230478902132967,1.4329201146555803
1769180080828,130,2,2.794962897764788,0.9334501604587776,0.8997131304284287
1769180080832,129,1,2.3288701048275366,0.2567126410435008,0.4310647069624287
1769180080836,129,1,1.974387456519596,0.0628094814386677,0.0730660058069254
1769180080840,129,1,1.5796881518519066,0.2137146149390263,-0.3262835967790576
1769180080844,128,0,0.955140782476855,-0.8168349578277918,-0.9555821328714554
1769180080848,127,-1,0.0471626152245809,-1.997093981117768,-1.866697949971126
1769180080852,126,-2,-1.017269562999744,-2.7732862512673937,-2.932162687769374
1769180080856,125,-3,-2.026780043614445,-3.999427288510787,-3.942268355474228
1769180080860,124,-4,-2.8223859015514137,-4.671281949325065,-4.740255348628766
1769180080864,124,-4,-3.372700979245153,-4.96991127541896,-5.295009436187821
1769180080868,123,-5,-3.756358608430578,-5.856176198348075,-5.683094692189621
1769180080872,123,-5,-4.084278337699954,-5.927223608763975,-6.013405003514848
1769180080876,123,-5,-4.416922142689058,-5.897823587789373,-6.346860894835535
1769180080880,122,-6,-4.728155719992783,-6.748693165468239,-6.659897263688596
1769180080884,122,-6,-4.943724617694538,-6.93013195816505,-6.880173668940532
1769180080888,122,-6,-5.027101965651438,-6.880539428545667,-6.970093959467576
1769180080892,122,-6,-5.032477984900487,-6.96942026570004,-6.980040985664566
1769180080896,122,-6,-5.061526492307342,-6.838197502059551,-7.008136374215912
1769180080900,122,-6,-5.1502151526319455,-6.849026204870044,-7.090921935818226
1769180080904,122,-6,-5.19486000659955,-6.808892419116339,-7.130743445331642
1769180080908,122,-6,-5.018513305494283,-7.040979064766348,-6.958564728948764
1769180080912,122,-6,-4.557811513887058,-6.832476591717662,-6.514033319507226
1769180080916,123,-5,-3.9933071149401655,-5.989349011725469,-5.971207734913161
1769180080920,123,-5,-3.605365440556503,-5.71539190645894,-5.59704009963772
1769180080924,124,-4,-3.316331003236198,-4.922866980911253,-5.3029880144953765
1769180080928,126,-2,-2.2036912330365253,-2.984061552495252,-4.167367465377977
1769180080932,129,1,1.50919330913319,0.1280169355762397,-0.4268959092142126
1769180080936,136,8,9.633838978949608,6.973813531482806,7.712359286019522
1769180080940,148,20,22.605401818172886,19.40711086761604,20.67429293302509
1769180080944,165,37,38.363956079934376,35.88855980025388,36.40030432304088
1769180080948,180,52,52.50687812376715,51.25689992265781,50.50168284791532
1769180080952,188,60,59.97233780223008,58.80142054036325,57.93683407135165
1769180080956,185,57,57.45043171852613,56.22145265009463,55.41145746754478
1769180080960,173,45,45.12767497301354,44.131851770576446,43.113320992810635
1769180080964,153,25,26.70305276708232,24.050732597854577,24.727039652127143
1769180080968,133,5,7.646349720423682,4.203220659027643,5.700740614667676
1769180080972,120,-8,-7.276985982662701,-9.20673470573428,-9.216678122502504
1769180080976,111,-17,-15.814285741550176,-17.621022035588176,-17.774703848609924
1769180080980,109,-19,-18.506732174738566,-20.12395152829072,-20.50160310656
1769180080984,110,-18,-17.595907761251926,-18.58149391769241,-19.619855369207
1769180080988,112,-16,-15.455807932968112,-17.331647962375808,-17.49045983387107
1769180080992,113,-15,-13.508326142292448,-15.61059353247298,-15.535082907763346
1769180080996,115,-13,-12.059086384944086,-14.315428272251584,-14.0692685328676
1769180081000,115,-13,-10.82631500330984,-13.424497462980945,-12.823343816007734
1769180081004,118,-10,-9.57169259252814,-11.2632191622657,-11.56626623579734
1769180081008,119,-9,-8.361451916238074,-9.72874985838354,-10.364021933589
1769180081012,120,-8,-7.411420965743315,-9.143200038568772,-9.426280426967397
1769180081016,120,-8,-6.816177771249306,-8.911639545878959,-8.840120883407526
1769180081020,120,-8,-6.462396818866045,-8.726252871417923,-8.48839110651225
1769180081024,121,-7,-6.16172696214783,-8.102916904952263,-8.184639319669504
1769180081028,121,-7,-5.8178867954082945,-7.769373404303148,-7.837847734862895
1769180081032,122,-6,-5.458715325359534,-7.230470226079608,-7.479934526564369
1769180081036,122,-6,-5.138032006456528,-6.747942546368785,-7.164585197264036
1769180081040,122,-6,-4.84161417820418,-6.9753566304012775,-6.873880639445576
1769180081044,122,-6,-4.499490646874852,-6.848227375165514,-6.534315865695204
1769180081048,123,-5,-4.068570610776328,-6.018891417564417,-6.102890416220106
1769180081052,124,-4,-3.5709405413950313,-5.036088483707182,-5.60491912981162
1769180081056,124,-4,-3.047045894412111,-4.886972459744614,-5.083260652085331
1769180081060,124,-4,-2.502371132335967,-4.935263935661634,-4.542473550092987
1769180081064,125,-3,-1.9235339530134177,-3.841106270826424,-3.966714775742661
1769180081068,126,-2,-1.3309946062507712,-3.0971683032749193,-3.375616238020735
1769180081072,126,-2,-0.7854980019214818,-2.922543183807644,-2.8311861122572757
