timestamp_ms,ecg_u8_raw,ecg_counts_raw_int,ecg_counts_filt_monitor,ecg_counts_filt_diagnostic,ecg_counts_filt_st
1770450064136,124,-4,-3.54824429223006,-2.506270919063472,-2.5716491475150756
1770450064140,128,0,-0.2846328432848821,1.6405417633528288,0.7048499598732958
1770450064144,133,5,6.285314939564962,6.900069952176956,7.284986434655639
1770450064148,143,15,16.51330205164941,16.703431862961523,17.516366000231823
1770450064152,156,28,29.478844565747927,30.094309221256864,30.47638751247139
1770450064156,171,43,42.92504689850425,44.005181787640055,43.90749061694496
1770450064160,182,54,53.8650693003968,56.337664294095546,54.827158779658774
1770450064164,187,59,59.59742870832881,59.97704919639557,60.545184163366415
1770450064168,183,55,58.62545329111276,57.76147498319555,59.57548230017905
1770450064172,181,53,51.13975642756648,53.95628772098467,52.10759443641642
1770450064176,167,39,38.98110724995908,41.086567606437015,39.97013482747187
1770450064180,151,23,25.071029417631877,24.366337829648316,26.073309252932955
1770450064184,139,11,12.395713066137509,12.840787054580906,13.400404892116892
1770450064188,130,2,2.9493722290764035,4.110180195002072,3.9480889138677178
1770450064192,125,-3,-2.782167871484466,-1.5873675504095957,-1.794467893763204
1770450064196,122,-6,-5.549984435821516,-4.1269793706703295,-4.574018183699198
1770450064200,121,-7,-6.5869708920420935,-5.620277919725345,-5.617995601504662
1770450064204,120,-8,-6.911550367649702,-6.047525271619793,-5.941392146788255
1770450064208,120,-8,-7.03782096905195,-6.084097994012806,-6.059866306860523
1770450064212,120,-8,-7.084821392912938,-6.418467535548177,-6.0978841106144985
1770450064216,120,-8,-7.045755671961037,-6.204828773842079,-6.053813700829916
1770450064220,121,-7,-6.969525749293131,-5.638837880785476,-5.978055183242987
1770450064224,120,-8,-6.9612020634823155,-5.939260645442285,-5.973166236257834
1770450064228,120,-8,-7.0797212173355994,-6.275229923524603,-6.094113257953328
1770450064232,120,-8,-7.268186431654459,-6.201794029737338,-6.281841117466266
1770450064236,120,-8,-7.382967498295812,-6.393281159266018,-6.393583954722313
1770450064240,120,-8,-7.290681629061615,-6.494344236503351,-6.298322646624221
1770450064244,120,-8,-6.957382352295407,-6.0046012373878135,-5.963748069729225
1770450064248,121,-7,-6.468613718037611,-5.318118898787065,-5.475383778153716
1770450064252,121,-7,-5.970748339775508,-5.066496628857696,-4.978408212111091
1770450064256,122,-6,-5.579708668327569,-4.602024295224402,-4.587415627838752
1770450064260,122,-6,-5.320543464474651,-4.2090946340850515,-4.326812411857514
1770450064264,122,-6,-5.130438536861153,-4.349162751382758,-4.134055559674427
1770450064268,122,-6,-4.910352473026328,-3.949890184469161,-3.911033745622471
1770450064272,123,-5,-4.582880431334349,-3.456641437946754,-3.5814032716731963
1770450064276,123,-5,-4.1227198720419835,-3.188876953038228,-3.120401603135081
1770450064280,124,-4,-3.557030191562508,-2.614777526205873,-2.554847555941169
1770450064284,124,-4,-2.9508335063783373,-1.9513913948328867,-1.94880866801182
1770450064288,125,-3,-2.3857403372323276,-1.3616289810245426,-1.382951749564724
1770450064292,125,-3,-1.93142405681929,-1.04605738950172,-0.926584166400194
1770450064296,126,-2,-1.6138349463120454,-0.5872369773984072,-0.6061436426228589
1770450064300,126,-2,-1.3952685534401552,-0.2093467376912324,-0.3849589572650936
1770450064304,126,-2,-1.1867778325106908,-0.3597157325962584,-0.1748188348023992
1770450064308,126,-2,-0.8991130368244672,0.023317923929031,0.1136939636625724
1770450064312,127,-1,-0.5038937225145406,0.5838747292852555,0.5097724670309385
1770450064316,127,-1,-0.0552977235421104,0.7774545355114604,0.9598776599997944
1770450064320,128,0,0.3527677964648199,1.4558229131963123,1.3700156027562738
1770450064324,128,0,0.663062406146678,1.9501350033968496,1.6824137575032367
1770450064328,128,0,0.89748150479024,1.7112060516487797,1.9187164117689628
1770450064332,128,0,1.1232302907248937,1.878493900964612,2.1462879061873057
1770450064336,129,1,1.375388237276891,2.5149516128218283,2.4002532464120696
1770450064340,129,1,1.615800523551339,2.703615315839472,2.642316713952519
1770450064344,129,1,1.7686843319897547,2.730810481777124,2.796892874614781
1770450064348,129,1,1.7939221335590292,2.878784946102543,2.8243852251405963
1770450064352,129,1,1.728559186130311,2.7415754106597374,2.7619140782206184
1770450064356,129,1,1.66251841984087,2.6233370369793603,2.698675068090237
1770450064360,129,1,1.6694480519062118,2.648713501951975,2.7074862557354624
1770450064364,129,1,1.7463640374660383,2.7436551476334756,2.7854124460655525
1770450064368,129,1,1.8098363738862713,2.888170463739435,2.8500463078827565
1770450064372,129,1,1.7571455720628468,2.6966604909668668,2.7996358215120107
1770450064376,129,1,1.5534411003381403,2.6933703277831547,2.599218975750736
1770450064380,129,1,1.279689479005445,2.5885585318417372,2.328835997852277
1770450064384,128,0,1.0923154693314907,1.7880780899645747,2.1442825510691783
1770450064388,128,0,1.11052992547241,1.8522933128377177,2.164800062926666
1770450064392,129,1,1.3203464763324004,2.69886002690461,2.376588874755837
1770450064396,129,1,1.5816116233052304,2.733455076770508,2.639694516114346
1770450064400,129,1,1.7299184389497717,2.5326819796384545,2.7900937734524
1770450064404,129,1,1.681624014849438,2.8650676084259414,2.744384164997263
1770450064408,129,1,1.4613875422763638,2.7322449480639186,2.527066582430522
1770450064412,128,0,1.1429662354538703,1.8238723536059764,2.2117382923337567
1770450064416,128,0,0.7595646613803899,1.6211000296217122,1.8315368273193977
1770450064420,128,0,0.2664557120283515,1.6560936391320071,1.3413129758730322
1770450064424,127,-1,-0.4044702774247612,0.7453126073024108,0.6724964614994369
1770450064428,126,-2,-1.2535862508733886,-0.1780111810485731,-0.1747863916551857
1770450064432,125,-3,-2.1846817401497653,-1.2624441697634046,-1.1030753791762158
1770450064436,124,-4,-3.0670479331928933,-2.2936988085815777,-1.981297308447497
1770450064440,124,-4,-3.8181873828614616,-2.4068970365544153,-2.7281972371781387
1770450064444,123,-5,-4.429554518969232,-3.1856016425574856,-3.33663155441928
1770450064448,122,-6,-4.934560476789394,-4.2803091217140805,-3.839957381199268
1770450064452,122,-6,-5.368724321226824,-4.147812604366932,-4.272504130164318
1770450064456,122,-6,-5.750026950347902,-4.423084945145178,-4.651229851858992
1770450064460,121,-7,-6.075040913657908,-5.25541079599467,-4.972397809138075
1770450064464,121,-7,-6.323712299555651,-5.320266173239923,-5.216408653393369
1770450064468,121,-7,-6.4667817537756465,-5.193596592528941,-5.355179075748478
1770450064472,121,-7,-6.4714686217577055,-5.207666215586858,-5.356939170145493
1770450064476,121,-7,-6.3171940661098445,-5.397625230985965,-5.2007418564435275
1770450064480,121,-7,-6.0293922870015635,-5.224583710273725,-4.910630336188503
1770450064484,122,-6,-5.698853493129379,-4.3837109728908725,-4.57669000735963
1770450064488,122,-6,-5.443339864544645,-4.122486569629217,-4.3172750688670565
1770450064492,122,-6,-5.329942250063644,-4.306363724044721,-4.2002128659651135
1770450064496,122,-6,-5.333730028146159,-4.285326953893373,-4.200549378738387
1770450064500,122,-6,-5.375205687365515,-4.322359704611636,-4.238500534871059
1770450064504,122,-6,-5.395518208732401,-4.297390561736763,-4.2553529264498575
1770450064508,122,-6,-5.395685502242442,-4.205324712231828,-4.2524104302208245
1770450064512,122,-6,-5.410490026749147,-4.2463207185322585,-4.26422941480138
1770450064516,122,-6,-5.450850302255909,-4.330025434831247,-4.301038580969608
1770450064520,122,-6,-5.471157112150567,-4.269965547659255,-4.316881351562392
1770450064524,122,-6,-5.390838639982848,-4.355970202252315,-4.231830548071825
1770450064528,122,-6,-5.152384763778821,-4.151287821251994,-3.9896248433419066
1770450064532,123,-5,-4.770689683742988,-3.313012661590253,-3.605637911019031
1770450064536,123,-5,-4.340286967065701,-3.2532192397198636,-3.173222764999751
1770450064540,123,-5,-3.9966511276675143,-3.335700112972108,-2.8261975442626746
1770450064544,124,-4,-3.8440673738924023,-2.3036956069601597,-2.6688255868425244
1770450064548,124,-4,-3.8803898364951057,-2.1995246568788165,-2.70044960679712
1770450064552,123,-5,-3.981596417196561,-3.2983901151804536,-2.79775344443279
1770450064556,123,-5,-3.9896830338199902,-3.2272699676212824,-2.801963854497904
1770450064560,124,-4,-3.841786072437985,-2.3850942647664257,-2.649816784582891
1770450064564,124,-4,-3.6130024519122297,-2.2362038975676324,-2.4172748996389326
1770450064568,124,-4,-3.433136240585883,-2.2809833318283457,-2.234744143131801
1770450064572,124,-4,-3.3727530828758754,-2.223764055464795,-2.1719277219703543
1770450064576,124,-4,-3.4069580758351843,-2.2966783079035045,-2.2025746019275956
1770450064580,124,-4,-3.4657224432933864,-2.3239727621164485,-2.2563388765892354
1770450064584,124,-4,-3.50056061974632,-2.2839469563590984,-2.285651078912364
1770450064588,124,-4,-3.506587194386698,-2.246600084400187,-2.286825994075722
1770450064592,124,-4,-3.4986157307857493,-2.2519621732705333,-2.2752636228684806
1770450064596,124,-4,-3.482980296267046,-2.2817694792293506,-2.257028826634401
1770450064600,124,-4,-3.459085650156997,-2.3285086253142016,-2.230693879777511
1770450064604,124,-4,-3.442117342773716,-2.2889791190438116,-2.210576440705912
1770450064608,124,-4,-3.4673170147284607,-2.2302713941086605,-2.231524702772694
1770450064612,124,-4,-3.551377591872626,-2.286477537031164,-2.310510458475394
1770450064616,124,-4,-3.6370082289251497,-2.2381618267491663,-2.3908902123704077
1770450064620,124,-4,-3.582076327962047,-2.3783359901348655,-2.331040909449553
1770450064624,124,-4,-3.2296045522764945,-2.2424295549088367,-1.974248569066518
1770450064628,125,-3,-2.5202191970404337,-1.2623013878933993,-1.26141874638641
1770450064632,126,-2,-1.556200573912221,-0.2811183500874995,-0.294991128033242
1770450064636,127,-1,-0.5575356554950748,0.7857986632645748,0.7056510159488893
1770450064640,128,0,0.2612009043291838,1.566841951382948,1.5273159150636766
1770450064644,128,0,0.8063626944276916,1.8343465762906703,2.0773125650290023
1770450064648,129,1,1.1430958846885575,2.630482317194266,2.420241464688849
1770450064652,129,1,1.4405644133521611,2.8442847126349955,2.7237608458981812
1770450064656,129,1,1.8567819177768563,2.646848612055541,3.144746274836914
1770450064660,130,2,2.429224241605918,3.717004274731446,3.7203315895428672
1770450064664,131,3,3.0453623326306025,4.684724965234867,4.338296368269106
1770450064668,131,3,3.514389696207944,4.758517037538752,4.809013234906299
1770450064672,131,3,3.679518267257003,4.739955937589482,4.9773413711185555
1770450064676,131,3,3.492384272486871,4.723122817448695,4.795398936398201
1770450064680,131,3,3.024702883393392,4.651491613121301,4.333533358835992
1770450064684,130,2,2.4297404201430437,3.750658908341838,3.7434966392329416
1770450064688,129,1,1.8653327405808688,2.6767028696442514,3.18312884974738
1770450064692,129,1,1.4095251362479797,2.843549086166927,2.7312177598514373
1770450064696,129,1,1.0297740135938245,2.5974448179391745,2.3551195251525696
1770450064700,128,0,0.6330473478706298,1.7833208226330617,1.961125183590415
1770450064704,128,0,0.1447345088597971,1.6310336661145763,1.4748756632023563
1770450064708,127,-1,-0.4577311143169251,0.7658104045722463,0.8752812654557912
1770450064712,126,-2,-1.1672611922862912,-0.2192336761479298,0.1705623729792678
1770450064716,126,-2,-1.969934524217648,-0.3795006844432147,-0.6261276794628903
1770450064720,125,-3,-2.8244275618849155,-1.1963676109227968,-1.4755204522172436
1770450064724,124,-4,-3.6298762843034504,-2.4278953318657632,-2.2778284366905046
1770450064728,123,-5,-4.251314238288954,-3.141335382719471,-2.897129143109858
1770450064732,123,-5,-4.606304422348712,-3.351160393365369,-3.2493598904319136
1770450064736,123,-5,-4.72787984623889,-3.238566164410699,-3.3669890486917953
1770450064740,123,-5,-4.730534639088248,-3.315269788478922,-3.365127731115342
1770450064744,123,-5,-4.70804362500111,-3.341348664159693,-3.338392468206893
1770450064748,123,-5,-4.662670833346622,-3.18551442840869,-3.289463400696489
1770450064752,123,-5,-4.532142910185403,-3.3802036956536643,-3.156054066137013
1770450064756,123,-5,-4.284079010650856,-3.161357493155561,-2.905562470958352
1770450064760,124,-4,-3.9803376723665544,-2.4147334437691947,-2.5993867657130325
1770450064764,124,-4,-3.741635193518547,-2.2217108189780155,-2.357251289894923
1770450064768,124,-4,-3.64424626582716,-2.3100623547128554,-2.2542393634513935
1770450064772,124,-4,-3.6525069573479216,-2.2886177123024147,-2.254829765696674
1770450064776,124,-4,-3.6578683614111385,-2.243168952813506,-2.253228515834498
1770450064780,124,-4,-3.594897779526274,-2.3295674016403067,-2.188194096059717
1770450064784,124,-4,-3.52775964077068,-2.3053773619969236,-2.126027254738373
1770450064788,124,-4,-3.5985704982986233,-2.2015104736230766,-2.205909116831065
1770450064792,124,-4,-3.805958390830369,-2.4684014547793405,-2.4187450731322917
1770450064796,124,-4,-3.712386434577391,-2.005377147469807,-2.318733760831015
1770450064800,126,-2,-2.294392085140575,-0.6221421370980798,-0.8798430135347184
1770450064804,129,1,1.84522530776114,3.0557346899759916,3.287797032082395
1770450064808,138,10,9.843866440209608,11.406957502779694,11.306539192979034
1770450064812,149,21,21.73228640609422,22.92946530316106,23.19385731025677
1770450064816,163,35,35.809438681324465,36.60880672387711,37.247971269787726
1770450064820,176,48,48.71321118913923,49.74472332350257,50.120902694717394
1770450064824,184,56,56.426497555008766,57.713575373131285,57.81489425917767
1770450064828,185,57,55.96178802706997,58.65081649924085,57.353548616824504
1770450064832,176,48,46.91893227325032,49.69643271618729,48.33408690250603
1770450064836,159,31,31.933881298630755,32.74786702320837,33.380946250080726
1770450064840,142,14,15.566112013144004,15.675871332484396,17.040776885311185
1770450064844,129,1,2.187834402801343,2.779142891972911,3.675900960577255
1770450064848,122,-6,-5.8493229242233244,-4.341683467878915,-4.366529443043172
1770450064852,120,-8,-8.728474993749584,-6.282755120686619,-7.265850392521372
1770450064856,120,-8,-8.305285947067986,-6.245181662772279,-6.8656544420890935
1770450064860,121,-7,-6.698129903952299,-5.398869571013017,-5.270241920365333
1770450064864,122,-6,-5.287106873411934,-4.129344635082578,-3.853001831671339
1770450064868,123,-5,-4.523350640151876,-3.529938417169029,-3.0701877863985345
1770450064872,123,-5,-4.300998856859975,-2.999609205773395,-2.8284164929502076
1770450064876,124,-4,-4.395060377340648,-2.5836361450845993,-2.913140209799471
1770450064880,123,-5,-4.6595617812683585,-3.021637898917038,-3.1801264623930736
1770450064884,123,-5,-5.008549920588996,-3.560216098376455,-3.5370010588910796
1770450064888,122,-6,-5.359753305696159,-4.1068436289661925,-3.893112309538302
1770450064892,122,-6,-5.6433526918699854,-4.386130830162654,-4.174686509525664
1770450064896,122,-6,-5.834258237882612,-4.214045976916307,-4.358910168438142
1770450064900,122,-6,-5.934150783737644,-4.345811344361571,-4.45268486605572
1770450064904,122,-6,-5.91558041179983,-4.327282629062772,-4.4318531387926505
1770450064908,122,-6,-5.711062212053823,-4.284512735568574,-4.228053422643342
1770450064912,122,-6,-5.28589726651681,-4.262483117980795,-3.803418518847268
1770450064916,123,-5,-4.722075995293176,-3.262897783274402,-3.238116822600559
1770450064920,124,-4,-4.20115683555837,-2.3390368508909685,-2.714704142395258
1770450064924,124,-4,-3.872789981365825,-2.3398978572500955,-2.384663524146335
1770450064928,124,-4,-3.729499308217265,-2.2916351373963524,-2.240562694888144
1770450064932,124,-4,-3.615819091287872,-2.254204349231975,-2.125270891698837
1770450064936,124,-4,-3.364039834745462,-2.24815393268387,-1.870270491895066
1770450064940,125,-3,-2.921403661499646,-1.360639488957688,-1.424504683575888
1770450064944,126,-2,-2.3543757739381155,-0.3287922539455297,-0.8568809117416889
1770450064948,126,-2,-1.7569344681994044,-0.3180578492368151,-0.2612367303199083
1770450064952,126,-2,-1.184213481102922,-0.2298278455448901,0.3103364086729723
1770450064956,127,-1,-0.6679124610812409,0.7508538509714784,0.8284541380980788
1770450064960,128,0,-0.2454933224804364,1.609304763119758,1.2544450959925155
1770450064964,128,0,0.0673627286987085,1.72953663367425,1.5696923922539203
1770450064968,128,0,0.3211827097390392,1.5689056367991625,1.8236853900713257
1770450064972,128,0,0.6107060784184989,1.9301295101943607,2.1126662864760637
1770450064976,129,1,0.9916624293356128,2.546474575818808,2.4940127506389835
1770450064980,129,1,1.4279790632185922,2.856427209688722,2.9316058716780433
1770450064984,130,2,1.8296031002810864,3.444406406208306,3.334240109036649
1770450064988,130,2,2.1402295621166987,3.869195734440226,3.645047440924624
1770450064992,130,2,2.3826951190813412,3.611741612474335,3.887530074924832
1770450064996,130,2,2.618508375310235,3.859680570278176,4.124013656888177
1770450065000,131,3,2.87182713080288,4.564726359173464,4.378373669743313
1770450065004,131,3,3.1021587336069563,4.700051650835833,4.6091348783101775
1770450065008,131,3,3.2476236163812393,4.652178338031583,4.754181591631901
1770450065012,131,3,3.2844086256495957,4.7750000255558405,4.790552078725023
1770450065016,131,3,3.2452601557081473,4.734622289725011,4.751794792816292
1770450065020,131,3,3.191592341455527,4.649995960957851,4.699128357582293
1770450065024,131,3,3.1710971947527944,4.6499546163823675,4.679331887964143
1770450065028,131,3,3.1925074945644303,4.672593159946512,4.700436734136192
1770450065032,131,3,3.2295717515871467,4.764534621912996,4.736331976437193
1770450065036,131,3,3.245743649610483,4.731572344960064,4.751357210087605
1770450065040,131,3,3.221061980277314,4.649483269294158,4.726425073840133
1770450065044,131,3,3.1676537492648458,4.661095397481933,4.673687320259169
1770450065048,131,3,3.130164663545254,4.644175350765893,4.636939418275276
1770450065052,131,3,3.168658663591821,4.796892542443915,4.675470575165779
1770450065056,131,3,3.321168443627751,4.689307998266141,4.827350720133987
1770450065060,131,3,3.561079902215463,4.688324014529302,5.066300696632722
1770450065064,132,4,3.7886007435717866,5.628338130649296,5.29242789259726
1770450065068,132,4,3.8780353955293534,5.669926794217735,5.380091382512709
1770450065072,131,3,3.7439184737395768,4.759821053762451,5.244828179669275
1770450065076,131,3,3.369734856832861,4.732826862558536,4.870985356062256
1770450065080,131,3,2.7954310443316333,4.617557412904649,4.297635042020706
1770450065084,130,2,2.0966764607452086,3.721920281914391,3.598686693721656
1770450065088,129,1,1.358568817972871,2.5621880764240528,2.8588619046005377
1770450065092,128,0,0.6303579483888224,1.8702485707637964,2.1285876806594537
1770450065096,128,0,-0.1070086178374321,1.612549937073518,1.389680018601539
1770450065100,127,-1,-0.9107682704179072,0.7202770854409049,0.5847268613378123
1770450065104,126,-2,-1.8002967625557045,-0.3509563989993065,-0.3058296365123203
1770450065108,125,-3,-2.7125847087367365,-1.3967357350082756,-1.2187210734141931
1770450065112,124,-4,-3.532120138670426,-2.1449670950881567,-2.038610357491883
1770450065116,124,-4,-4.15926697044782,-2.4246442431842015,-2.6667247828763267
1770450065120,123,-5,-4.558347511301117,-3.2006452980527245,-3.0677888157195263
1770450065124,123,-5,-4.76275623520975,-3.4620420685452302,-3.2744741512619187
1770450065128,123,-5,-4.844504416057242,-3.2477092495604527,-3.3579495174938514
1770450065132,123,-5,-4.863490081848182,-3.3439803055325172,-3.378196175952098
1770450065136,123,-5,-4.826664110822289,-3.211957395009883,-3.342664541554661
1770450065140,123,-5,-4.6962582751848645,-3.4237305494716224,-3.213541454480238
1770450065144,123,-5,-4.449009398389052,-3.24015251028615,-2.967312771901434
1770450065148,124,-4,-4.1293608898102345,-2.4451453360384843,-2.648917566440766
1770450065152,124,-4,-3.838242522622542,-2.2038363225115627,-2.3601668447129343
1770450065156,124,-4,-3.669615654683137,-2.3018842554339156,-2.1948967026593875
1770450065160,124,-4,-3.6607270346389167,-2.404736377080824,-2.1889808175667813
1770450065164,124,-4,-3.7923170537932736,-2.184521867321849,-2.321970284643965
1770450065168,124,-4,-4.013852436085035,-2.5741738382228063,-2.5436302685236085
1770450065172,123,-5,-4.257477824504498,-3.0239570085440595,-2.7876611615722564
1770450065176,124,-4,-4.440189932247579,-2.5309033204862232,-2.9724055978498023
1770450065180,123,-5,-4.481646051554003,-3.1539298099891826,-3.017308075066671
1770450065184,123,-5,-4.350321518262366,-3.440007952750118,-2.8893458961619154
1770450065188,124,-4,-4.102546067229857,-2.332941795807341,-2.6438203523971655
1770450065192,124,-4,-3.858686973212901,-2.2435300252232815,-2.4015224541109363
1770450065196,124,-4,-3.7188164689725,-2.3667306025418497,-2.26346838687039
1770450065200,124,-4,-3.694919417809757,-2.255474158952094,-2.241957856461243
1770450065204,124,-4,-3.723984212530274,-2.4131949918186044,-2.273740187646239
1770450065208,124,-4,-3.740659287030977,-2.3055892950609915,-2.2931672937193084
1770450065212,124,-4,-3.7344653616095105,-2.3117822292353405,-2.289427296482659
1770450065216,124,-4,-3.742117448700181,-2.292433426604058,-2.2989206688188
1770450065220,124,-4,-3.789140174347128,-2.3123534151099627,-2.347407541731717
1770450065224,124,-4,-3.838578489087989,-2.4036039009933217,-2.3989066284117717
1770450065228,124,-4,-3.800614747780427,-2.2709397236185507,-2.3643458484566295
1770450065232,124,-4,-3.6088719478461746,-2.4016117260690795,-2.1767110462206487
1770450065236,124,-4,-3.3043249832366532,-2.16088558476533,-1.8754441833285451
1770450065240,125,-3,-3.0378691789581196,-1.47505212926054,-1.6108933936063825
1770450065244,125,-3,-2.9590484095197147,-1.232667035349719,-1.533728506630034
1770450065248,125,-3,-3.077541959604108,-1.4492637569468831,-1.654794284075518
1770450065252,124,-4,-3.2405131863417993,-2.240682054452698,-1.8209363106610104
1770450065256,124,-4,-3.26697472615864,-2.3089427359403416,-1.8502598087821056
1770450065260,125,-3,-3.1104887610981304,-1.3576304952008498,-1.6964884058151166
1770450065264,125,-3,-2.8850475867507805,-1.3072042205964691,-1.4744053745254082
1770450065268,125,-3,-2.736389711185806,-1.4295646419222747,-1.3294611641791707
1770450065272,125,-3,-2.696397381491209,-1.2027195083251678,-1.292242611278393
1770450065276,125,-3,-2.6548754047366825,-1.437615376901581,-1.2522108634416125
1770450065280,125,-3,-2.4572845760188384,-1.162785402633021,-1.0563525056477068
1770450065284,126,-2,-2.0330397156656943,-0.553338906912832,-0.6358464598382287
1770450065288,126,-2,-1.4528897966515717,-0.1364265211534161,-0.0611956115278142
1770450065292,127,-1,-0.879042712368149,0.4677561294862213,0.5076557068484617
1770450065296,127,-1,-0.4443699607439697,0.8896754782080114,0.9397173401208372
1770450065300,128,0,-0.14020423127255,1.4921631718725483,1.2432634305639172
1770450065304,128,0,0.2005363590833113,1.8002752813602168,1.5834701149947372
1770450065308,128,0,0.7840933091090578,1.521662426291221,2.165008381878253
1770450065312,129,1,1.6673472665473552,2.7794340926603107,3.0440503881764864
1770450065316,131,3,2.655595881446044,4.599748073545012,4.025941116466198
1770450065320,131,3,3.390403561725406,4.726088721513937,4.753728321917552
1770450065324,131,3,3.566039027670425,4.632570339884314,4.924450687925856
1770450065328,131,3,3.1134701581241453,4.628460758747349,4.470703933759081
1770450065332,130,2,2.240216999217693,3.704192241246554,3.598510947904341
1770450065336,129,1,1.3162079639941433,2.6118266291687418,2.6745831266411173
1770450065340,128,0,0.6668224806345613,1.7692706731023402,2.022358850696272
1770450065344,128,0,0.3839355373342618,1.5470105511387424,1.734022726547974
1770450065348,128,0,0.2782162600508935,1.7720776937093854,1.6215535594718815
1770450065352,128,0,0.0174230198115667,1.4874374821558525,1.3540222541550155
1770450065356,127,-1,-0.6438912476741543,0.8605221553760736,0.6874864700868117
1770450065360,126,-2,-1.7115449636041038,-0.5171258537542927,-0.3824060333340089
1770450065364,124,-4,-2.9712947452551006,-2.14493527539299,-1.6415938872237483
1770450065368,124,-4,-4.128452431542687,-2.543328886386667,-2.7981438123718125
1770450065372,123,-5,-4.945397449105606,-3.209873862730688,-3.617665136303956
1770450065376,122,-6,-5.314497906784549,-4.439078901207425,-3.992962742753154
1770450065380,122,-6,-5.279684333464158,-4.2334318178110735,-3.9653765154960823
1770450065384,123,-5,-5.013140634628963,-3.405807276863839,-3.704395844186097
1770450065388,123,-5,-4.7308576347671005,-3.3211945336345807,-3.4253034792816317
1770450065392,123,-5,-4.57764282412761,-3.39894849451026,-3.2737367062651397
1770450065396,123,-5,-4.564190063306801,-3.303555119767675,-3.2617617891561967
1770450065400,123,-5,-4.603141804023743,-3.335336905215691,-3.303515211547404
1770450065404,123,-5,-4.606632933314238,-3.3464317624222906,-3.311966091953667
1770450065408,123,-5,-4.5669146386881865,-3.33953094043364,-3.2784703306121847
1770450065412,123,-5,-4.563352451715993,-3.424301577203677,-3.2799854409608225
1770450065416,123,-5,-4.691265652979267,-3.2505149267636897,-3.4097949563124414
1770450065420,123,-5,-4.9661872277552295,-3.431539865562425,-3.683713264833412
1770450065424,122,-6,-5.289358303833682,-4.226955847171239,-4.006060861550478
1770450065428,122,-6,-5.5198190457531,-4.476702299997455,-4.240408901751412
1770450065432,122,-6,-5.59272601708588,-4.28444360091889,-4.324803506856551
1770450065436,122,-6,-5.549836911271543,-4.3961426408741,-4.298612448164639
1770450065440,122,-6,-5.3933238258932885,-4.303455499455446,-4.155557975681516
1770450065444,123,-5,-4.813798209128741,-3.33469578819125,-3.576582479172708
1770450065448,125,-3,-2.983869467443093,-1.4014243000062456,-1.7315551568039145
1770450065452,129,1,1.338140944626101,2.669709877094079,2.6123402949645564
1770450065456,137,9,9.253665574082492,10.618572676941223,10.540218226900082
1770450065460,148,20,20.852013385512528,21.71517418551419,22.128915622932944
1770450065464,161,33,34.48063152465616,34.631575885221345,35.72703545277625
1770450065468,174,46,46.75705718875154,47.63467474254332,47.96672059105968
1770450065472,182,54,53.65403634880282,55.61471023885693,54.838853547258374
1770450065476,181,53,52.32688447954452,54.60309531974531,53.509236471678285
1770450065480,171,43,42.696183683350384,44.734644317947904,43.89667894273455
1770450065484,155,27,27.72898642200165,28.519045030683536,28.956957714470057
1770450065488,138,10,12.097977675626424,11.816698336326084,13.34804247996102
1770450065492,127,-1,-0.0246539541036661,0.3963041831584042,1.230173240017979
1770450065496,121,-7,-6.699809422793329,-5.045553030531575,-5.461223479551602
1770450065500,120,-8,-8.531771081905344,-6.6434982056117615,-7.323014677279954
1770450065504,120,-8,-7.630941470119662,-6.052210763916092,-6.450609586863955
1770450065508,122,-6,-6.125095085271549,-4.699213869367368,-4.958547860061973
1770450065512,122,-6,-5.179836410711955,-4.126295561318494,-4.009205707571727
1770450065516,122,-6,-4.9206193217581635,-4.499011556865083,-3.7356367529196497
1770450065520,122,-6,-4.97601592970385,-4.236788685642294,-3.7787782002393
1770450065524,123,-5,-5.0507991940168315,-3.3568104143799005,-3.852518979952881
1770450065528,123,-5,-5.121929380323711,-3.5435383598339563,-3.934337134867522
1770450065532,122,-6,-5.285381902694605,-4.171838872688471,-4.112584807586679
1770450065536,122,-6,-5.552896613314854,-4.579873298627838,-4.389709961516295
1770450065540,121,-7,-5.813958717110943,-5.033576734939383,-4.6518906233592086
1770450065544,122,-6,-5.931189472625585,-4.640959762620245,-4.766360417596304
1770450065548,122,-6,-5.825301022514947,-4.224938382100189,-4.660783225223282
1770450065552,122,-6,-5.490830986465171,-4.526177502004126,-4.33191089471293
1770450065556,122,-6,-4.987339533868418,-4.246561753678225,-3.835725321384768
1770450065560,123,-5,-4.432127048810795,-3.3053864908823254,-3.2853727409237736
1770450065564,124,-4,-3.9568636140109272,-2.455734757616073,-2.8123020903088554
1770450065568,124,-4,-3.621568923454233,-2.31692888151065,-2.4791464668471397
1770450065572,124,-4,-3.3668199248393695,-2.5639171150559665,-2.2280525550033534
1770450065576,124,-4,-3.074597452146945,-2.113315260523554,-1.940157235496865
1770450065580,125,-3,-2.687396133358976,-1.5190244290065422,-1.5565315069004555
1770450065584,125,-3,-2.2609748730173513,-1.1824816788656611,-1.1328507434213655
1770450065588,126,-2,-1.8950764702999872,-0.6197958320759152,-0.7700212195691318
1770450065592,126,-2,-1.6164384393488966,-0.2828037016048295,-0.4956040773466998
1770450065596,126,-2,-1.3398822882826429,-0.3829037235304497,-0.2236887074236107
1770450065600,126,-2,-0.9550850350486044,-0.2891177378757295,0.1576056408132111
1770450065604,127,-1,-0.4518570599509529,0.6368667552608847,0.6587683218734861
1770450065608,128,0,0.0536230655450558,1.5186462906616485,1.1619437325084876
1770450065612,128,0,0.4257439391432197,1.5953575718184358,1.5298272703001652
1770450065616,128,0,0.6349364123398102,1.7067624638425507,1.7334233832976007
1770450065620,128,0,0.7686547242906581,1.6215234976703286,1.862609800061969
1770450065624,128,0,0.9278330834304128,1.72264596055818,2.0198249626759797
1770450065628,129,1,1.1334606627654862,2.4392572588882575,2.224789704622732
1770450065632,129,1,1.3424534623448705,2.6580297690693735,2.43168865476647
1770450065636,129,1,1.534423693734318,2.6508962484393828,2.6189693860270356
1770450065640,129,1,1.7477752234632586,2.6382356671193152,2.826661834711598
1770450065644,129,1,2.0137384788408763,2.7384051003041487,3.088415483365937
1770450065648,130,2,2.273018918038911,3.37709722663599,3.345395853691365
1770450065652,130,2,2.392196473433822,3.769709951623438,3.4625072409051905
1770450065656,130,2,2.281699530341462,3.482385488501901,3.3487628664332174
1770450065660,129,1,1.9923166854659875,2.8305023302722834,3.0555002317580056
1770450065664,129,1,1.6848451063444163,2.514213407294392,2.7449475587854826
1770450065668,129,1,1.504277165234407,2.598421793173486,2.5623236115028156
1770450065672,129,1,1.4825356608748157,2.5734347903198715,2.5383236665677877
1770450065676,129,1,1.5481311858170062,2.641863969495674,2.6003852326757406
1770450065680,129,1,1.6098196826420157,2.700832746333523,2.6575690600294837
1770450065684,129,1,1.6266464270466157,2.583850089560059,2.670178551408555
1770450065688,129,1,1.6129086647884376,2.5582219741814036,2.6534442625966115
1770450065692,129,1,1.597000154626882,2.5934483681641467,2.635605596370711
1770450065696,129,1,1.588046958555804,2.6348207540340267,2.6248443446693637
1770450065700,129,1,1.5805163523720565,2.6904139287071103,2.614800969303535
1770450065704,129,1,1.5782290772763554,2.582205087916172,2.6092343862498115
1770450065708,129,1,1.59867605871279,2.543372882501075,2.6261957804848173
1770450065712,129,1,1.6452816347280084,2.628539575461625,2.6696043928809683
1770450065716,129,1,1.6767518746244456,2.575943131117498,2.698132058052547
1770450065720,129,1,1.611765435719591,2.7642190911697546,2.6301579102395736
1770450065724,129,1,1.3730472990328972,2.4706362964071107,2.3884423230819563
1770450065728,128,0,0.9348678454509955,1.6596015481778112,1.9476606376931016
1770450065732,128,0,0.3360711551337011,1.5083124746799674,1.3467868946766572
1770450065736,127,-1,-0.346358345106156,0.6946090209496165,0.6623123333244729
1770450065740,126,-2,-1.040413015287943,-0.3602072210177762,-0.0343577922574349
1770450065744,126,-2,-1.7121176473612136,-0.4250890829534892,-0.7092588185713828
1770450065748,125,-3,-2.3713081140265255,-1.438481592532117,-1.371643470162613
1770450065752,124,-4,-3.04762688949016,-2.4175919022269174,-2.050724538948749
1770450065756,124,-4,-3.7494118979198854,-2.348000948587898,-2.7550867361685887
1770450065760,123,-5,-4.431556640899845,-3.358458372790768,-3.4399322274588764
1770450065764,122,-6,-5.003580201139886,-4.423595116485495,-4.014341626818079
1770450065768,122,-6,-5.381457934793023,-4.445237311908983,-4.393757212011444
1770450065772,122,-6,-5.53643178765812,-4.431147459902419,-4.550025401072981
1770450065776,122,-6,-5.493136010866171,-4.3057087289230065,-4.509040646209902
1770450065780,122,-6,-5.2949789042837345,-4.432420781474242,-4.314428823403949
1770450065784,122,-6,-4.992244791080497,-4.348917077061246,-4.015371767973558
1770450065788,123,-5,-4.660110495921515,-3.542379355737405,-3.686075364928374
1770450065792,123,-5,-4.397775803091282,-3.3306260057461716,-3.4257887272665264
1770450065796,123,-5,-4.282215811008676,-3.40768981295101,-3.311951775848682
1770450065800,123,-5,-4.313294495380569,-3.3280051349476976,-3.3446475321502267
1770450065804,123,-5,-4.403597733690386,-3.4842413598302135,-3.4365746199627054
1770450065808,123,-5,-4.4270027454637715,-3.41295507310997,-3.4617868193118797
1770450065812,123,-5,-4.295834408706181,-3.461398108714239,-3.3326751203230893
1770450065816,123,-5,-4.016675237159055,-3.2714626156584523,-3.0558400139776833
1770450065820,124,-4,-3.684107539899725,-2.4651253824175927,-2.7260456482879176
1770450065824,124,-4,-3.4143581711043645,-2.3709405433746547,-2.4594994008162208
1770450065828,124,-4,-3.2726696194886262,-2.5423329353781785,-2.3207062075001685
1770450065832,124,-4,-3.2517195698842625,-2.330629198367356,-2.301391240114731
1770450065836,124,-4,-3.302358003228452,-2.396026515339708,-2.352421280110247
1770450065840,124,-4,-3.3709749910642777,-2.3619484755658227,-2.421430961460703
1770450065844,124,-4,-3.412846620052288,-2.453141184170504,-2.465035934325493
1770450065848,124,-4,-3.3936384017616135,-2.5324148794063417,-2.4490247237002394
1770450065852,124,-4,-3.3022782708783893,-2.270829421562074,-2.361065409660358
1770450065856,124,-4,-3.1706371329292997,-2.525092281477643,-2.2316105202485956
1770450065860,124,-4,-3.0682743950778826,-2.1801286629052714,-2.1301450933713304
1770450065864,125,-3,-3.053883347922909,-1.6806091072127645,-2.1166507012925297
1770450065868,124,-4,-3.1182037837979077,-2.3227157611244684,-2.1828093391689083
1770450065872,124,-4,-3.1844187139972187,-2.4506856000169264,-2.251214008886909
1770450065876,124,-4,-3.1808548608055363,-2.399485837354238,-2.2491582921327016
1770450065880,124,-4,-3.1129915388316913,-2.2442721221898383,-2.1823537657767966
1770450065884,125,-3,-3.054425567227662,-1.6987669211465677,-2.1255392828090764
1770450065888,124,-4,-3.0699561726671307,-2.2466601796333223,-2.1436771761358853
1770450065892,124,-4,-3.1595106006100178,-2.5922017303298395,-2.2354487303182293
1770450065896,124,-4,-3.2743427868591892,-2.2223418829944124,-2.351223517051662
1770450065900,124,-4,-3.3668373781096306,-2.4409257368062263,-2.4441731049694773
1770450065904,124,-4,-3.4121069250368032,-2.5304406453941444,-2.4908349391072826
1770450065908,124,-4,-3.3929176380621744,-2.368395843772137,-2.4741870589714448
1770450065912,124,-4,-3.2823624853003057,-2.5519790718355884,-2.366034105694629
1770450065916,124,-4,-3.046528867128079,-2.196281508153211,-2.131123755069849
1770450065920,125,-3,-2.6583605757749513,-1.5307977750509565,-1.7424889723282888
1770450065924,125,-3,-2.107851626059903,-1.4127872302292803,-1.191741883412074
1770450065928,126,-2,-1.4092931952278689,-0.5017713278333116,-0.4949951187454353
1770450065932,127,-1,-0.613205260180022,0.5644445206333777,0.2970011446994403
1770450065936,127,-1,0.18198298617881,0.6934892798655357,1.087860617655571
1770450065940,128,0,0.8430711807035534,1.5544509202031906,1.7470781553401908
1770450065944,129,1,1.2668099884309525,2.514304039166622,2.172091967215821
1770450065948,129,1,1.4769433582551952,2.547238425123794,2.384641262175281
1770450065952,129,1,1.6632540197204988,2.516375714115797,2.5718433670269594
1770450065956,129,1,2.077442267385024,2.73258412086265,2.984302319983435
1770450065960,130,2,2.825966625545112,3.4970249768954815,3.729258987651666
1770450065964,131,3,3.727924377039076,4.584357765710553,4.627362796549393
1770450065968,132,4,4.3845512474702275,5.462754529418084,5.281134277257534
1770450065972,132,4,4.435412900734057,5.5975170304973965,5.33076248574041
1770450065976,131,3,3.8100100280885014,4.640671491170968,4.705678784249222
1770450065980,130,2,2.7764276183556893,3.5537882220138455,3.6733135141423783
1770450065984,129,1,1.7495657957805668,2.54331215166608,2.6475867295663456
1770450065988,128,0,1.012056751817998,1.4915010593433662,1.9100971736250765
1770450065992,128,0,0.5638751474389033,1.5739004717101814,1.4600240758305785
1770450065996,128,0,0.2017636062411979,1.6743747096635528,1.0942628279181943
1770450066000,127,-1,-0.2681163784184224,0.4621912599447928,0.6206948441146747
1770450066004,126,-2,-0.8822271802033895,-0.3261600869356842,0.0051057691375238
1770450066008,126,-2,-1.5412979562642757,-0.6936159060993274,-0.6527985555458464
1770450066012,125,-3,-2.1312224950766954,-1.2079844631398369,-1.2409446480722242
1770450066016,125,-3,-2.6095414904113974,-1.5588909974927634,-1.7191520216210954
1770450066020,124,-4,-3.003819606202258,-2.324957842965635,-2.1152718858595385
1770450066024,124,-4,-3.360204060761841,-2.52720022118886,-2.4741258840326017
1770450066028,124,-4,-3.6973559350737686,-2.539684474316484,-2.8131830789505874
1770450066032,123,-5,-3.9945272366184135,-3.319226768471295,-3.1112896641964616
1770450066036,123,-5,-4.215805840246349,-3.4947450323435643,-3.332537667726216
1770450066040,123,-5,-4.345919248453763,-3.358129417162643,-3.462034931240004
1770450066044,123,-5,-4.400221549182403,-3.543643797532227,-3.516118797268712
1770450066048,123,-5,-4.398750846934133,-3.5119654536962304,-3.5159264949833138
1770450066052,123,-5,-4.337454470386839,-3.3478608787323165,-3.4574631933749895
1770450066056,123,-5,-4.194728269784771,-3.484960503248177,-3.3175156364909295
1770450066060,123,-5,-3.969004569489664,-3.3561030545439223,-3.092192430284857
1770450066064,124,-4,-3.701611696483633,-2.5899943395125056,-2.821832674971138
1770450066068,124,-4,-3.453149375795288,-2.44106097577865,-2.5687432422190017
1770450066072,124,-4,-3.263077073750792,-2.4516665025351436,-2.3762861097657098
1770450066076,124,-4,-3.1493730772278123,-2.3469230284341296,-2.266408148737788
1770450066080,124,-4,-3.1446594588845707,-2.556006474909057,-2.2727568994218568
1770450066084,124,-4,-3.2810211641168245,-2.3627032713135505,-2.423013270661687
1770450066088,124,-4,-3.4393635330282226,-2.702486782929922,-2.58895379851167
1770450066092,124,-4,-3.099105837098307,-2.1783708918363196,-2.241680213030311
1770450066096,127,-1,-1.1807792483371735,0.3974095649795126,-0.3016649163813936
1770450066100,131,3,3.7580422589945783,4.6381089739497785,4.662416637133128
1770450066104,140,12,12.842185435958672,13.505807023954851,13.758836013715184
1770450066108,153,25,25.914951606892274,26.364775633847273,26.820321004789793
1770450066112,167,39,40.846953819741074,40.830095318167515,41.72149112419539
1770450066116,181,53,53.74839596243167,54.32967182087077,54.58924550311301
1770450066120,188,60,60.320727537811656,61.69257269835372,61.142997810410215
1770450066124,187,59,57.84745269013472,60.38717425328922,58.67439252446377
1770450066128,175,47,46.71128644741528,48.42424130303426,47.56207332493085
1770450066132,156,28,30.395260118159538,29.781112033572075,31.277336888359685
1770450066136,140,12,13.830365646820336,13.335275844741783,14.736915813938865
1770450066140,128,0,1.0880231261456093,1.7808290534467948,2.0003271004495957
1770450066144,122,-6,-6.16845274559118,-4.715969144034748,-5.272175622672477
1770450066148,119,-9,-8.709693813937076,-7.3633318633696,-7.841650586057556
1770450066152,119,-9,-8.572030305176446,-7.498091626920536,-7.727602680227707
1770450066156,120,-8,-7.66354084349203,-6.408656665478516,-6.825831737749665
1770450066160,120,-8,-6.975606527196343,-6.53658954095399,-6.12763821133333
1770450066164,120,-8,-6.62742991249899,-6.404015987452013,-5.762126827538429
1770450066168,121,-7,-6.396837847894064,-5.632394511955874,-5.518886796571567
1770450066172,121,-7,-6.189756179510729,-5.260759463734252,-5.31025057263239
1770450066176,122,-6,-6.128524881648865,-4.6578401613121425,-5.256870841928579
1770450066180,121,-7,-6.345763532424767,-5.336779846966661,-5.483854413569005
1770450066184,120,-8,-6.792107900217233,-6.580841468031571,-5.934419083927213
1770450066188,120,-8,-7.252045611788794,-6.464984245339789,-6.3913640448516515
1770450066192,120,-8,-7.503354611134878,-6.385207871832535,-6.6370119242388155
1770450066196,120,-8,-7.444153162684086,-6.633597029501878,-6.575205276651433
1770450066200,120,-8,-7.106087142006702,-6.288043688074849,-6.239296748892357
1770450066204,121,-7,-6.596643936584406,-5.730163066734348,-5.734045907066686
1770450066208,121,-7,-6.036877844438632,-5.212236803626179,-5.176827693444422
1770450066212,122,-6,-5.51964068571993,-4.7139913499047825,-4.659111757089306
1770450066216,122,-6,-5.0845749436740135,-4.292597918442494,-4.2219652082015084
1770450066220,123,-5,-4.708365498170953,-3.658953162068294,-3.844372374371883
1770450066224,123,-5,-4.322603431776263,-3.382342380665189,-3.45880007987585
1770450066228,123,-5,-3.8660362995292696,-3.498443263377597,-3.0031280739388557
1770450066232,124,-4,-3.3392716795915556,-2.506711897554675,-2.477087509924719
1770450066236,125,-3,-2.8054911394549022,-1.4355173118638052,-1.9440299694665837
1770450066240,125,-3,-2.329250741685451,-1.63279298681784,-1.4686198080632828
1770450066244,125,-3,-1.9198203629700867,-1.3181145393280864,-1.059254840884002
1770450066248,126,-2,-1.5374320014819791,-0.6241874404416479,-0.6756142917307979
1770450066252,126,-2,-1.1403294831567812,-0.3520234480351067,-0.2771446788624496
1770450066256,127,-1,-0.715638719855517,0.3777866954689772,0.147197199929832
1770450066260,127,-1,-0.2813317900613163,0.5273721375523441,0.5793895426384907
1770450066264,127,-1,0.1170643725486443,0.5462999052571815,0.975924220447616
1770450066268,128,0,0.4148811884980475,1.4782536816821925,1.2738968906133026
1770450066272,128,0,0.5662350791412853,1.5821842083663575,1.427027921311628
1770450066276,128,0,0.5995662080718419,1.365911833262683,1.4619138613751013
1770450066280,128,0,0.6280290432168169,1.5911950721420924,1.490491534734801
1770450066284,128,0,0.7746333038735647,1.4119644860237268,1.6361335621054216
1770450066288,128,0,1.0609690173926292,1.6706485925547618,1.921487699850508
1770450066292,129,1,1.3649635051875848,2.345698726384858,2.2248907428259175
1770450066296,129,1,1.504586806222438,2.6039489908958604,2.3640059999132954
1770450066300,129,1,1.3848525943621897,2.3365291214960227,2.2439149003685053
1770450066304,128,0,1.0758410819894184,1.6484759146519394,1.9354560097529772
1770450066308,128,0,0.7533659047810315,1.4460818907198936,1.6146531920217666
1770450066312,128,0,0.5659138998205295,1.5449554266486996,1.4287461661464025
1770450066316,128,0,0.5469135434273928,1.416406406973449,1.4095807231259263
1770450066320,128,0,0.6261060892426136,1.4892197374129,1.4868605321271744
1770450066324,128,0,0.7016969651694547,1.5189204261991518,1.5604875752664191
1770450066328,128,0,0.7081626130673663,1.5274061884093404,1.566638185263814
1770450066332,128,0,0.6460948741409344,1.4996342300446714,1.5059887138211754
1770450066336,128,0,0.5745140531164981,1.4037036078997236,1.4361716019945978
1770450066340,128,0,0.5768692506420287,1.5395092676021584,1.4392977865921102
1770450066344,128,0,0.7129146158519594,1.4221150873339097,1.5749874200282008
1770450066348,128,0,0.9777341085114803,1.6410171493038046,1.8390603797879912
1770450066352,129,1,1.297659194405366,2.368542807457413,2.158428728794833
1770450066356,129,1,1.5727333867679152,2.517988571661241,2.4333031984831814
1770450066360,129,1,1.7318686056787167,2.4387286035187805,2.5927299320322312
1770450066364,129,1,1.753251235491209,2.4788997013254073,2.6148833495312194
1770450066368,129,1,1.6421398814978256,2.6125514913631465,2.504497256638662
1770450066372,129,1,1.3982574353680404,2.3442612842958317,2.2607049146098466
1770450066376,128,0,1.0005876391133868,1.5821797812639329,1.8626058441417777
1770450066380,128,0,0.4154054105561527,1.3214743364895734,1.2770830349149305
1770450066384,127,-1,-0.3751385575330417,0.6265322889955396,0.4865618553684099
1770450066388,126,-2,-1.337258953974206,-0.5863712325944355,-0.4753208182231572
1770450066392,125,-3,-2.372959154528495,-1.4310850189941218,-1.510577666844776
1770450066396,124,-4,-3.351378217215573,-2.669304977498293,-2.4881668858445765
1770450066400,123,-5,-4.164260436732948,-3.430274182515963,-3.3000455303860967
1770450066404,123,-5,-4.761123795343131,-3.622443734684445,-3.8964507287166024
1770450066408,122,-6,-5.1440069081922495,-4.366064016117496,-4.279833632191803
1770450066412,122,-6,-5.344246406557474,-4.634809049087563,-4.480996228567638
1770450066416,122,-6,-5.409769201884057,-4.495780394507124,-4.546895440413164
1770450066420,122,-6,-5.400796775968151,-4.596399774888372,-4.537334837541354
1770450066424,122,-6,-5.3758206080485005,-4.487704750512542,-4.511217380091452
1770450066428,122,-6,-5.368463959635063,-4.4823951140478036,-4.502901419773029
1770450066432,122,-6,-5.376544766696734,-4.560413089085191,-4.510665774456742
1770450066436,122,-6,-5.378206280848786,-4.543209503006626,-4.512595010147836
1770450066440,122,-6,-5.363746624476007,-4.593904263172225,-4.498543210888404
1770450066444,122,-6,-5.3529693679416654,-4.478094907638965,-4.487835546990007
1770450066448,122,-6,-5.376945785928943,-4.501810485851891,-4.511354119674953
1770450066452,122,-6,-5.435553171168101,-4.5674673755614235,-4.56914118645822
1770450066456,122,-6,-5.469900750319023,-4.509343708407112,-4.602600572044444
1770450066460,122,-6,-5.38352327692973,-4.68997697410385,-4.515454830578676
1770450066464,122,-6,-5.106340885849744,-4.338812225957411,-4.237736059967782
1770450066468,123,-5,-4.653610945779484,-3.6923773160162328,-3.7848737313361025
1770450066472,123,-5,-4.130434291147514,-3.3517519786803702,-3.262089399587591
1770450066476,124,-4,-3.6760991601493975,-2.749708514222258,-2.808457438862355
1770450066480,124,-4,-3.389983847926868,-2.465967088455,-2.5227452879521164
1770450066484,124,-4,-3.2900269484840674,-2.5606899714559943,-2.422237038263314
1770450066488,124,-4,-3.323491524561722,-2.502889903227942,-2.4540952750443785
1770450066492,124,-4,-3.408866664516146,-2.518342119466153,-2.53758377064177
1770450066496,124,-4,-3.4733131889202236,-2.617637730610177,-2.601043445484233
1770450066500,124,-4,-3.4701633628930333,-2.592573398771246,-2.598328371549609
1770450066504,124,-4,-3.386593307554401,-2.4486368507076626,-2.5158388111668937
1770450066508,124,-4,-3.25133870495993,-2.6356435156688898,-2.380918387409632
1770450066512,124,-4,-3.1302437868052913,-2.3683713637819905,-2.2589071371505383
1770450066516,125,-3,-3.09111907471572,-1.8056287453639492,-2.2185302172852213
1770450066520,124,-4,-3.153184032017547,-2.387599041464688,-2.280116095000232
1770450066524,124,-4,-3.2708845110646885,-2.6894808572502034,-2.398076933335673
1770450066528,124,-4,-3.3754572896816546,-2.3923232296985404,-2.502696656550775
1770450066532,124,-4,-3.43239781699326,-2.6171252523077646,-2.558740168028052
1770450066536,124,-4,-3.4559211008855346,-2.586625940654507,-2.5805978612716944
1770450066540,124,-4,-3.4718635505225373,-2.564446366119803,-2.5951543806950186
1770450066544,124,-4,-3.4729312202005618,-2.59920296841841,-2.596332862364348
1770450066548,124,-4,-3.4153661317814548,-2.4129502181337896,-2.540454680650066
1770450066552,124,-4,-3.2665642210718686,-2.6835028998901205,-2.3932062566791457
1770450066556,124,-4,-3.056052477029092,-2.465629098970905,-2.182062751131823
1770450066560,125,-3,-2.857964792707801,-1.722528678030609,-1.9811152849190137
1770450066564,125,-3,-2.6934479722654756,-1.4589431746377042,-1.813650694168292
1770450066568,125,-3,-2.451183466004991,-1.5305324408015737,-1.5702628040813162
1770450066572,125,-3,-1.9460117547240547,-1.6329555798980748,-1.0657519227089858
1770450066576,126,-2,-1.0988516072137058,-0.457404059352841,-0.2199664485940884
1770450066580,128,0,-0.065141693591787,1.1933505080206273,0.8123310263233097
1770450066584,128,0,0.8371700059304985,1.6834501563893105,1.713701191865049
1770450066588,129,1,1.3576803924113832,2.2627126761769567,2.2346773776846884
1770450066592,129,1,1.5094281772168132,2.598867360548687,2.3889125252738657
1770450066596,129,1,1.5689926077052383,2.2594787165240895,2.452171776692288
1770450066600,129,1,1.8768001295875896,2.4882999280858744,2.762841447793801
1770450066604,130,2,2.5842361552402995,3.387320109632041,3.4704668895135025
1770450066608,131,3,3.5325128931522025,4.546853260277633,4.416115203277592
1770450066612,132,4,4.346700837216362,5.318228168873952,5.226796244309389
1770450066616,132,4,4.668626164732791,5.497414510504781,5.547003370073616
1770450066620,132,4,4.365473004671859,5.259261555278895,5.245179959713797
1770450066624,131,3,3.588389413666309,4.5804017300628885,4.471557878609761
1770450066628,130,2,2.662072602091359,3.3886399113426307,3.5489397034608787
1770450066632,129,1,1.887646772147189,2.4146021360079866,2.776944170846103
1770450066636,129,1,1.3895986241931353,2.451776277568138,2.279226807549154
1770450066640,129,1,1.098543306773732,2.2251695352908327,1.986365489710181
1770450066644,128,0,0.8497194144438559,1.675871747034823,1.7348510169332174
1770450066648,128,0,0.4929396220779757,1.2424316914213884,1.3765847572114045
1770450066652,127,-1,-0.0602017050946055,0.557836489794322,0.8242760595561287
1770450066656,127,-1,-0.8345327265720915,0.3072283403518043,0.0522256880882721
1770450066660,126,-2,-1.7876367647165268,-0.6894665132163249,-0.8987417256107806
1770450066664,124,-4,-2.80574058531352,-2.329168624383537,-1.915503057623123
1770450066668,124,-4,-3.731001497579965,-2.859995691453906,-2.8400855516101453
1770450066672,123,-5,-4.418776324262829,-3.2484706691469993,-3.5278490680311276
1770450066676,123,-5,-4.791558914934978,-4.008768762512567,-3.9011526325615
1770450066680,122,-6,-4.867011263449312,-4.289871380956974,-3.9768714034354784
1770450066684,123,-5,-4.749822711966784,-3.7801423501878655,-3.859063016255317
1770450066688,123,-5,-4.579561051078354,-3.412634417866208,-3.6877566040985847
1770450066692,123,-5,-4.457300519622194,-3.68086773734348,-3.565004823916871
1770450066696,123,-5,-4.408279929935039,-3.6621795936974704,-3.516373500994441
1770450066700,123,-5,-4.409363621170434,-3.5542464768826867,-3.5181885083280813
1770450066704,123,-5,-4.440412621711093,-3.611576577667913,-3.549378706689571
1770450066708,123,-5,-4.4984468970274385,-3.5092512353756393,-3.605997868960596
1770450066712,123,-5,-4.56624896744772,-3.6514697539428473,-3.670315565631884
1770450066716,123,-5,-4.586231322904636,-3.6936930069608103,-3.6855921443668738
1770450066720,123,-5,-4.491351771441,-3.5104924397142274,-3.5875263120889516
1770450066724,123,-5,-4.284620058321874,-3.7068775547215815,-3.382759679511502
1770450066728,123,-5,-4.085864841025867,-3.357208961284159,-3.1929007783308325
1770450066732,124,-4,-4.04653177487502,-2.884258156012679,-3.1662644059356633
1770450066736,123,-5,-4.110245517909109,-3.418762471243376,-3.2380516878776757
1770450066740,124,-4,-3.7306660686283943,-2.8455320486398348,-2.852903201383304
1770450066744,126,-2,-1.754437832179968,-0.3354035555981145,-0.8556135290407445
1770450066748,131,3,3.3322052503922848,4.2433195353820645,4.257971323402009
1770450066752,140,12,12.730672011866996,13.52167230659225,13.67264772655095
1770450066756,154,26,26.42039313333906,27.18856227881397,27.35569505691725
1770450066760,169,41,42.47282237298135,42.50904150716824,43.3806316421268
1770450066764,184,56,57.142071239433406,57.348639845391794,58.017066749489906
1770450066768,194,66,66.01768159322246,67.4712700573287,66.8723715407259
1770450066772,195,67,65.90604235134136,68.29949214976395,66.76188504495826
1770450066776,185,57,56.46967035281552,58.29486286594283,57.34570454105727
1770450066780,167,39,40.55779517625234,40.4334965925279,41.46353507007423
1770450066784,149,21,22.89523390671847,22.335510216312183,23.827807226224348
1770450066788,135,7,7.90148388594239,8.607742119734564,8.846156321522407
1770450066792,126,-2,-2.029499426710956,-0.8725684564553298,-1.0932882095633367
1770450066796,121,-7,-6.907848003132987,-5.414567447028953,-5.9953696788987
1770450066800,120,-8,-8.300252041629232,-6.91028717145895,-7.412409163093424
1770450066804,119,-9,-8.07097199784986,-7.375969900106957,-7.194810397147423
1770450066808,120,-8,-7.512468784517141,-6.680704438549316,-6.630822027480816
1770450066812,120,-8,-7.161258631153066,-6.661496531218925,-6.263637140689717
1770450066816,120,-8,-7.0807582702980225,-6.523333568752293,-6.168039589821387
1770450066820,121,-7,-7.2017833299141145,-5.903569603479284,-6.283110068768219
1770450066824,120,-8,-7.465112179826668,-6.346750897130621,-6.550377262959293
1770450066828,120,-8,-7.792812177112513,-6.798510007511721,-6.885925840167513
1770450066832,119,-9,-8.060435437172448,-7.496586747284548,-7.157836470756312
1770450066836,119,-9,-8.156480772745489,-7.689400939219326,-7.251809987412846
1770450066840,120,-8,-8.053915608237226,-6.751937134779844,-7.144474204728117
1770450066844,120,-8,-7.796467464808074,-6.506152715786682,-6.885046238273669
1770450066848,120,-8,-7.428695501868708,-6.704487260912142,-6.519272890182927
1770450066852,120,-8,-6.975294279852866,-6.543821687927498,-6.068157483524866
1770450066856,121,-7,-6.48582826874668,-5.674399863095225,-5.57790843206488
1770450066860,122,-6,-6.047150383666819,-4.750071735660676,-5.1363418680330355
1770450066864,122,-6,-5.7095963856103324,-4.549375607962623,-4.7970712585493995
1770450066868,122,-6,-5.414953567883072,-4.6747928685438005,-4.502971591762879
1770450066872,122,-6,-5.039444018505408,-4.589645919502001,-4.128285311289305
1770450066876,123,-5,-4.523994930771167,-3.6064795967308,-3.612082772528644
1770450066880,124,-4,-3.944711201349886,-2.8557170707883506,-3.0311662116712115
1770450066884,124,-4,-3.438992841199248,-2.4191962838028824,-2.524855205064577
1770450066888,125,-3,-3.068990206945975,-1.8742687196926144,-2.1556206717847717
1770450066892,124,-4,-2.771767419312109,-2.3540371584728725,-1.858836389657416
1770450066896,125,-3,-2.440533705747094,-1.890790787549041,-1.5263988877052743
1770450066900,126,-2,-2.0345783797903825,-0.5440257300525893,-1.1184146794578238
1770450066904,126,-2,-1.599961476891984,-0.7505947529051575,-0.6826566424397451
1770450066908,126,-2,-1.2007679461658016,-0.5816631481080945,-0.2836514746340524
1770450066912,127,-1,-0.8525939759591714,0.3917018467022908,0.0640159866860434
1770450066916,127,-1,-0.5230681526510825,0.2750738519585933,0.3937955553184407
1770450066920,127,-1,-0.1849954442362882,0.3690428535349461,0.7330112853554105
1770450066924,128,0,0.138008600995024,1.2571419378708952,1.0572272671146727
1770450066928,128,0,0.3817107180564004,1.447231723553384,1.3013192487451153
1770450066932,128,0,0.4977483188711128,1.3123647622289412,1.4170620962681193
1770450066936,128,0,0.4973676215294701,1.3620142177345134,1.4168398813027598
1770450066940,128,0,0.4414137652093256,1.2691334455769,1.362257898952845
1770450066944,128,0,0.3957316797421235,1.3420636073833636,1.3185314141472826
1770450066948,128,0,0.3961913613333409,1.3694195565737444,1.320200813797014
1770450066952,128,0,0.4400807965361719,1.343862704790513,1.364033009600938
1770450066956,128,0,0.4907705864839907,1.360144607933468,1.4141504118346704
1770450066960,128,0,0.4871350068446626,1.2185798611836651,1.410412164433011
1770450066964,128,0,0.3680850241068426,1.4211117602171683,1.291898585702138
1770450066968,128,0,0.1143901401897687,1.2518042063190378,1.0390610114636285
1770450066972,127,-1,-0.2222227546356038,0.4579518932312227,0.7037095423473907
1770450066976,127,-1,-0.5364016996285236,0.2388042905389129,0.3914174518171638
1770450066980,127,-1,-0.7225590590152817,0.3113739778494155,0.2071552806738341
1770450066984,127,-1,-0.7205531476844627,0.3472905546892029,0.2099030861985866
1770450066988,127,-1,-0.5323161083462531,0.2868386362590143,0.397500006730308
1770450066992,127,-1,-0.2206786519901094,0.4428206543348454,0.7082468710543597
1770450066996,128,0,0.1070758986613639,1.2032544597949226,1.0360977579983288
1770450067000,128,0,0.3436159147887252,1.3687381689988654,1.2739569231576475
1770450067004,128,0,0.4404444772007735,1.2499861606982052,1.372745582321241
1770450067008,128,0,0.4344574209546876,1.4046129238359468,1.3686299643772193
1770450067012,128,0,0.4118913203949236,1.2884319284554775,1.3473469451325155
1770450067016,128,0,0.431737959980187,1.344736747062541,1.3677887637181705
1770450067020,128,0,0.4649774273662207,1.237295538829965,1.4011828205841597
1770450067024,128,0,0.3977852784178767,1.3326678042240194,1.3339926645773033
1770450067028,128,0,0.1022729423131569,1.3810119313080362,1.0385677571795404
1770450067032,127,-1,-0.4765747170192562,0.2085160733364643,0.4602815187532694
1770450067036,126,-2,-1.28507387606176,-0.5018229726598258,-0.3468022115071663
1770450067040,126,-2,-2.196794594354948,-1.0165260963914928,-1.2563875342494368
1770450067044,124,-4,-3.081266852768148,-2.3395617391178427,-2.1387141751155343
1770450067048,124,-4,-3.853864292207152,-3.0135709332755436,-2.909988520970808
1770450067052,123,-5,-4.483838534140447,-3.3670677031965557,-3.539905932295847
1770450067056,123,-5,-4.9715256529300085,-3.9702880502022913,-4.028347495073591
1770450067060,122,-6,-5.325788007814376,-4.558271790103161,-4.382769969416549
1770450067064,122,-6,-5.561426526601264,-4.7795242542724194,-4.616776282124323
1770450067068,122,-6,-5.700838308573597,-4.625129914240043,-4.753259998346037
1770450067072,122,-6,-5.756473140578896,-4.712346833545916,-4.806606718915979
1770450067076,122,-6,-5.710795724315599,-4.706415493516232,-4.7605559407883975
1770450067080,122,-6,-5.53592196141521,-4.774675668190209,-4.586408378339337
1770450067084,122,-6,-5.250817273367016,-4.619363123318779,-4.301272332191855
1770450067088,123,-5,-4.949342630782717,-3.7610062553415142,-3.998229009884205
1770450067092,123,-5,-4.744998737659022,-3.601703228496563,-3.7916330344559457
1770450067096,123,-5,-4.672268610937252,-3.8380993483128263,-3.717134168554211
1770450067100,123,-5,-4.647728423866161,-3.6414794258914633,-3.6915662938631697
1770450067104,123,-5,-4.5419058245112245,-3.784208772349154,-3.584969535258345
1770450067108,123,-5,-4.29949246371889,-3.5899112187917366,-3.3416961240062855
1770450067112,124,-4,-3.992890785212873,-2.78398381957029,-3.034310639379017
1770450067116,124,-4,-3.755956200317817,-2.67113868619847,-2.7967842583352267
1770450067120,124,-4,-3.659964827702887,-2.8197827034687735,-2.6999117589020725
1770450067124,124,-4,-3.647647646791531,-2.624356325418483,-2.6857535622148605
1770450067128,124,-4,-3.582797943412575,-2.7628450242352667,-2.6182128714383905
1770450067132,124,-4,-3.3673505644163733,-2.6154315199260365,-2.400385964613113
1770450067136,125,-3,-3.0256848933316176,-1.848672021941155,-2.057913107638065
1770450067140,125,-3,-2.693802728975238,-1.6540180384923455,-1.726827160487426
1770450067144,125,-3,-2.5325651147457524,-1.809425588066835,-1.5665582548868868
1770450067148,125,-3,-2.6321594722976496,-1.5877210192876547,-1.6656465815252952
1770450067152,125,-3,-2.9620157059785126,-1.8092104042637651,-1.992984007290887
1770450067156,124,-4,-3.384367170120761,-2.6551351153871594,-2.411566492464484
1770450067160,124,-4,-3.720285031158071,-2.8658467934086325,-2.743973162940736
1770450067164,124,-4,-3.832633976396971,-2.605280963970266,-2.8545564341081096
1770450067168,124,-4,-3.683943349142997,-2.8098337592817595,-2.7063239589021393
1770450067172,124,-4,-3.3480673081643513,-2.5953854589731216,-2.3720438680872844
1770450067176,125,-3,-2.9752809186232083,-1.8668703162085665,-2.0000350076918187
1770450067180,125,-3,-2.7190977212354897,-1.6909640884479284,-1.7423858739444145
1770450067184,125,-3,-2.6520073600369605,-1.7642925942865475,-1.671668757462017
1770450067188,125,-3,-2.7194136392949604,-1.705576517891173,-1.7349121165999213
1770450067192,125,-3,-2.7706182255555136,-1.6661450167275345,-1.7835301923519062
1770450067196,125,-3,-2.6600225884074886,-1.8480126470238971,-1.6728744377204274
1770450067200,125,-3,-2.358948940919461,-1.6793400459316845,-1.3732617443542272
1770450067204,126,-2,-1.9919626931559025,-0.8278270294199293,-1.0071729271492973
1770450067208,126,-2,-1.7493067303079697,-0.621127530431183,-0.7632771327927537
1770450067212,126,-2,-1.7266005373448468,-0.7931717132711924,-0.7371520381615397
1770450067216,126,-2,-1.8203366176894165,-0.702089730137093,-0.8267822008941821
1770450067220,126,-2,-1.7778456941674097,-0.8671716681626209,-0.7814862992899885
1770450067224,126,-2,-1.3805316549581668,-0.6386284831741624,-0.3836470157054314
1770450067228,127,-1,-0.6257260264576385,0.1813222770911293,0.3701047971507806
1770450067232,128,0,0.2440305690104636,1.3789543147290733,1.2388610165002056
1770450067236,129,1,0.907098472374865,2.1590381810328054,1.9023120214480735
1770450067240,129,1,1.2049867687132412,2.1886482140109305,2.202361726723627
1770450067244,129,1,1.26540737500042,2.362071849767182,2.26624951684815
1770450067248,129,1,1.4005052540744978,2.084165326892518,2.405097232031935
1770450067252,129,1,1.8591663453234568,2.5426323191050715,2.866542115037971
1770450067256,131,3,2.631738423578947,3.944922846394093,3.63994014063124
1770450067260,131,3,3.456204818335408,4.412620060640445,4.463232155574888
1770450067264,132,4,4.004098096640448,5.12518933686515,5.0092253986632755
1770450067268,132,4,4.087381672863115,5.269675624767474,5.091937165086881
1770450067272,131,3,3.735844878316739,4.391807136418402,4.742668317817332
1770450067276,131,3,3.120680028524718,4.025298402635174,4.13222876517989
1770450067280,130,2,2.423104362426471,3.399737916073276,3.4393824159350173
1770450067284,130,2,1.760879344977727,3.0433757283518927,2.7792263356303732
1770450067288,129,1,1.1913875547807316,2.4125835790779986,2.208863108677194
1770450067292,128,0,0.7250920420712041,1.1799342122433958,1.7411411985062473
1770450067296,128,0,0.3097538623807748,1.251341504605358,1.3260913994939845
1770450067300,128,0,-0.1698619293754777,1.1781422826771926,0.8482433951242319
1770450067304,127,-1,-0.8278445299962245,0.1993443594977071,0.1918372171383737
1770450067308,126,-2,-1.6876612112990066,-0.675167381651383,-0.6670565052552777
1770450067312,125,-3,-2.65310551021233,-1.8421022970566463,-1.6311191991124314
1770450067316,124,-4,-3.5618522180930317,-2.65464757652244,-2.537354891688175
1770450067320,124,-4,-4.262473079865224,-2.996905808043216,-3.235249748805835
1770450067324,123,-5,-4.658792077345943,-3.576446754149494,-3.6299036556363378
1770450067328,123,-5,-4.72466693278904,-3.9425909600330544,-3.695326069583242
1770450067332,123,-5,-4.5133452276943355,-3.580460603342366,-3.484080543286518
1770450067336,124,-4,-4.153804696777573,-2.929352727635353,-3.1246319624874297
1770450067340,124,-4,-3.813029899493811,-2.7553519629682377,-2.7836027044165537
1770450067344,124,-4,-3.63485912970116,-2.782757639184221,-2.604326750376152
1770450067348,124,-4,-3.687051695311281,-2.797320835939089,-2.6546408836507474
1770450067352,124,-4,-3.9324931519372943,-2.7040423942091456,-2.898459598551
1770450067356,124,-4,-4.234262523589498,-2.8614636338064003,-3.1992016459731714
1770450067360,123,-5,-4.417928768298414,-3.8011174712908127,-3.3806709113540134
1770450067364,123,-5,-4.384618718489222,-3.7540687824483103,-3.34236797756973
1770450067368,124,-4,-4.192861982010262,-2.836343111807734,-3.1452712530066447
1770450067372,124,-4,-4.020439722513789,-2.681036025066356,-2.973166976831486
1770450067376,124,-4,-4.028184889857595,-2.9137775906287953,-2.9901813654245695
1770450067380,123,-5,-4.23476731181922,-3.727336304034365,-3.210227815990131
1770450067384,123,-5,-4.444480242301796,-3.8836573195294575,-3.4269477460917335
1770450067388,124,-4,-4.1593443955607565,-2.6728528187852625,-3.133987940323984
1770450067392,126,-2,-2.4653694389818863,-0.906007102372925,-1.4182053420922438
1770450067396,130,2,1.9097295545926487,3.3512401956407905,2.9821600937221344
1770450067400,138,10,10.10536888343825,10.988003936908695,11.19217172821311
1770450067404,149,21,22.230688091186604,22.384054801458987,23.31132921023733
1770450067408,164,36,36.55804399535162,37.07807941702156,37.61356000644425
1770450067412,177,49,49.51609076882823,50.281311231916526,50.540365636390355
1770450067416,185,57,56.84772004170269,58.211085090111744,57.851358735940615
1770450067420,185,57,55.53850580425838,58.00035243287745,56.54272885149309
1770450067424,174,46,45.45863050991714,47.392786446605086,46.483989910432
1770450067428,157,29,29.64117486494964,29.92508033599532,30.698202204397795
1770450067432,139,11,12.89871102525984,12.520753551057831,13.983786794504908
1770450067436,127,-1,-0.4224014892485161,-0.0449204270638583,0.6742684473884477
1770450067440,120,-8,-8.187281137152345,-6.664436706092099,-7.101040180492895
1770450067444,118,-10,-10.79554590403717,-8.893232539662819,-9.735500209129771
1770450067448,118,-10,-10.2014595563368,-8.887678878551908,-9.167574840262194
1770450067452,119,-9,-8.515977238979232,-7.604489439605327,-7.493120528231685
1770450067456,121,-7,-7.067929482332222,-6.09162849693931,-6.03693169889622
1770450067460,121,-7,-6.244851276130586,-5.485889492901454,-5.195002957512552
1770450067464,122,-6,-5.874879801487539,-5.198275676985852,-4.808738044831505
1770450067468,122,-6,-5.696041833236829,-4.505007912583419,-4.62490370909682
1770450067472,123,-5,-5.594729248849216,-4.082170232141055,-4.529637146416465
1770450067476,122,-6,-5.583056433894863,-4.609764241039911,-4.527720663103225
1770450067480,122,-6,-5.680995478582228,-4.948727241588346,-4.630979887493466
1770450067484,122,-6,-5.851731106390087,-4.775063587470433,-4.799804619444524
1770450067488,122,-6,-6.007363488124632,-4.89077384243213,-4.950018468216894
1770450067492,122,-6,-6.037819144074658,-4.795272198270263,-4.977159985920794
1770450067496,122,-6,-5.850289823751951,-4.835588541089228,-4.7904382724636
1770450067500,122,-6,-5.4277234719864715,-4.799602342569225,-4.370425253179473
1770450067504,123,-5,-4.8686962807211005,-3.847308199329248,-3.812719922401679
1770450067508,124,-4,-4.34292950883712,-2.915033061800287,-3.28667183250159
1770450067512,124,-4,-3.9694275898042224,-2.7283825496946448,-2.9126834369375003
1770450067516,124,-4,-3.72641621565362,-2.977758663847007,-2.669571758026547
1770450067520,124,-4,-3.4881921397271847,-2.617073882139192,-2.431012758113129
1770450067524,125,-3,-3.1508515018573853,-2.0612928720933636,-2.0929192690407774
1770450067528,125,-3,-2.7172742433594834,-1.715206590331451,-1.659113741810769
1770450067532,126,-2,-2.267209757550642,-0.9241551411184524,-1.2100990706554906
1770450067536,126,-2,-1.8634494275594695,-0.8383231971605509,-0.807925204556956
1770450067540,126,-2,-1.4978365020752376,-0.7158904262802459,-0.4428742668817018
1770450067544,127,-1,-1.119645999833546,-0.0232749399018088,-0.0638085275580442
1770450067548,127,-1,-0.697666681980516,0.2756675066342542,0.3590531579785905
1770450067552,128,0,-0.2482243354357913,1.0344089312944913,0.8078245446634666
1770450067556,128,0,0.1821580623821415,1.2176306977247084,1.236318482317198
1770450067560,128,0,0.5444286969494967,1.197441268772587,1.5972902187030305
1770450067564,129,1,0.8055272745058099,2.059550543901616,1.858567354026369
1770450067568,129,1,0.9679426045079584,2.1773689284293525,2.021562735753996
1770450067572,129,1,1.0845821831731328,2.109971435100395,2.137815681588173
1770450067576,129,1,1.2359690448465102,2.146867601234825,2.2879975359033087
1770450067580,129,1,1.467608415282371,2.238682341210521,2.5187137930965893
1770450067584,130,2,1.7462162064995022,3.0112098061181536,2.796990720309544
1770450067588,130,2,1.988525420109958,3.217342713672281,3.038821501445655
1770450067592,130,2,2.135711997259055,3.0479827855626196,3.1848831047222728
1770450067596,130,2,2.192745089530419,3.20675637486458,3.240598377479351
1770450067600,130,2,2.195240085381129,3.1561479983558303,3.242228284227776
1770450067604,130,2,2.1499829010743863,3.0652112685754833,3.1964384096688097
1770450067608,130,2,2.0205205381608335,3.186873304707644,3.066067967999834
1770450067612,130,2,1.7751019523135458,3.0247298964280067,2.819128998913694
1770450067616,129,1,1.4452763521643963,2.268488970946092,2.48788602787646
1770450067620,129,1,1.134077832757402,2.0169811963611988,2.176147784318063
1770450067624,129,1,0.9676417560221808,2.2400425161075854,2.009790511507743
1770450067628,129,1,1.0334474330227144,1.9627210642624968,2.0752667241642726
1770450067632,129,1,1.343364613047456,2.2755951923736912,2.3838094773108542
1770450067636,130,2,1.8304741245649288,2.9878074523569897,2.8687200437369347
1770450067640,130,2,2.3745974378936983,3.2753386687619344,3.4104467032052184
1770450067644,131,3,2.8456954713934626,3.967186925224508,3.8795336922877097
1770450067648,131,3,3.1455848261935393,4.227868459056474,4.178200186191072
1770450067652,131,3,3.229199265267279,3.996847769945531,4.261372477492092
1770450067656,131,3,3.1027764021827,4.264600530979883,4.134632769775061
1770450067660,131,3,2.809371361885858,3.956972259601507,3.8401679734489065
1770450067664,130,2,2.406603338165116,3.2836298366441863,3.4354532320090443
1770450067668,130,2,1.9359676183961092,2.8986848821092863,2.962696040412557
1770450067672,129,1,1.399214239896622,2.3220109251346455,2.424193092459225
1770450067676,129,1,0.7693186910638334,1.9242277068687397,1.7926473141175814
1770450067680,128,0,0.0343541308745338,1.271070616699214,1.0557701787425793
1770450067684,127,-1,-0.7700657209735344,-0.0372746929806302,0.2495232422651736
1770450067688,126,-2,-1.575146538416814,-0.804962924986554,-0.5568429250339442
1770450067692,126,-2,-2.3189177972552577,-0.956815691681946,-1.3017106740463915
1770450067696,125,-3,-2.96728192309418,-1.843649508226079,-1.9516498623529088
1770450067700,124,-4,-3.509728999754828,-2.9447003135365115,-2.496174057330697
1770450067704,124,-4,-3.9519396252880936,-2.870329213804081,-2.9406624707239772
1770450067708,124,-4,-4.309071769842205,-2.956370326960114,-3.3002996811589016
1770450067712,123,-5,-4.5933781485905305,-3.834509937958671,-3.5872111245597353
1770450067716,123,-5,-4.8074426252428095,-3.9638892038117866,-3.803275308796304
1770450067720,123,-5,-4.9494932992801965,-3.848709210377866,-3.946358244969835
1770450067724,123,-5,-5.013534758076937,-3.992754647883435,-4.011262712880338
1770450067728,123,-5,-4.979248327580079,-3.8301011567102528,-3.9788017501520225
1770450067732,123,-5,-4.819229480378338,-3.978119275202752,-3.821725814798823
1770450067736,123,-5,-4.538267940818276,-3.829948846727095,-3.544043297331935
1770450067740,124,-4,-4.207187143905135,-3.0009622792738617,-3.215874150688055
1770450067744,124,-4,-3.9407397166041296,-2.867069540885019,-2.9517528108969513
1770450067748,124,-4,-3.824891916417004,-2.956514630711875,-2.837645704117726
1770450067752,124,-4,-3.8549371101576626,-2.8589927626412845,-2.869147726974254
1770450067756,124,-4,-3.9358351408493015,-2.974306319402786,-2.9519812309623927
1770450067760,124,-4,-3.943329931681135,-2.871017458341648,-2.962368945971241
1770450067764,124,-4,-3.80491893186107,-3.013943444740665,-2.8271468658115637
1770450067768,124,-4,-3.5468599679971,-2.8209297870771666,-2.571479536979007
1770450067772,125,-3,-3.2662801688600034,-1.9851628262355123,-2.292578350086114
1770450067776,125,-3,-3.0416217550759255,-1.8898271074921615,-2.0701522039409284
1770450067780,125,-3,-2.864102565806242,-1.9548198514486248,-1.8960265350072707
1770450067784,125,-3,-2.669791343166888,-1.965189396845827,-1.7053143052109905
1770450067788,125,-3,-2.4449816798577766,-1.8678202624595812,-1.483270810775438
1770450067792,126,-2,-2.280398557596727,-0.9498061225909302,-1.3210049197774296
1770450067796,126,-2,-2.2963755711055427,-0.9368828152529782,-1.3397646035294557
1770450067800,125,-3,-2.511525027650511,-1.925237802089782,-1.557911644872175
1770450067804,125,-3,-2.7965332077550427,-2.025221510674748,-1.8451679215885024
1770450067808,125,-3,-2.959656498513585,-1.8063381692599216,-2.0099080896268555
1770450067812,125,-3,-2.8799111520050378,-2.040396860813459,-1.932449933954703
1770450067816,125,-3,-2.5806383444698637,-1.821985648032889,-1.636965192191865
1770450067820,126,-2,-2.202713402557672,-1.080863959474016,-1.2637518242086647
1770450067824,126,-2,-1.9076053671325333,-0.8826524574765002,-0.9729257341512384
1770450067828,126,-2,-1.7799312048628213,-0.9691607901469036,-0.8481097487511233
1770450067832,126,-2,-1.794206254616619,-0.8923571924808145,-0.8639545493547152
1770450067836,126,-2,-1.8584156566542875,-0.9603872417505266,-0.9296913356380228
1770450067840,126,-2,-1.8900698093430832,-0.9818618041411332,-0.964199086432972
1770450067844,126,-2,-1.867781932350708,-0.976775220968789,-0.9463388289861544
1770450067848,126,-2,-1.830380948775267,-0.9229527660743382,-0.9137982124444028
1770450067852,126,-2,-1.832097214629528,-0.9092773581266238,-0.9193137408543663
1770450067856,126,-2,-1.8860014848115203,-0.9892887738488024,-0.9754757958084048
1770450067860,126,-2,-1.9341575601259136,-0.9325017325372812,-1.0253248497859575
1770450067864,126,-2,-1.869102150495641,-1.085331977919192,-0.962974048050317
1770450067868,126,-2,-1.5986250801172914,-0.8006324393793243,-0.696939610305169
1770450067872,127,-1,-1.1116807886889704,-0.0573808956747892,-0.2152319634645574
1770450067876,127,-1,-0.4951417473017739,0.1628646142592731,0.3971232844213789
1770450067880,128,0,0.1204366647544796,0.8982013785327194,1.0103645377865584
1770450067884,129,1,0.6566870606711701,2.0482990527699947,1.5448851696941626
1770450067888,129,1,1.1477548610048651,2.069331265938731,2.033028140409302
1770450067892,129,1,1.6918504545514446,2.0331773549417713,2.5726839360051317
1770450067896,130,2,2.3144349088989404,3.1041997828670045,3.1903692478680656
1770450067900,131,3,2.874449755143844,3.9010154362868583,3.745848846230347
1770450067904,131,3,3.1289670381582178,4.051750566244673,3.996231489553943
1770450067908,131,3,2.9175270205453394,4.0426048135005885,3.7810609088733766
1770450067912,130,2,2.3017965775914373,3.0399770687394483,3.1623121605328137
1770450067916,129,1,1.5339384339302962,2.1006465635893803,2.392127944605132
1770450067920,129,1,0.8811583180647132,1.862796324238303,1.7369018104952816
1770450067924,128,0,0.451969836845703,1.1029274893923513,1.3040644831999546
1770450067928,128,0,0.1553566804693754,0.9576545076833528,1.0022008639064368
1770450067932,128,0,-0.1927788956802255,1.1425526799450314,0.6479927728749457
1770450067936,127,-1,-0.7170112837986297,-0.0439309002299157,0.1184264823148739
1770450067940,126,-2,-1.406700163108188,-1.0031807012467076,-0.5748001264552296
1770450067944,126,-2,-2.154644688022454,-1.0499919775332716,-1.3250236359385332
1770450067948,125,-3,-2.846414163803195,-1.9046333934638673,-2.0193386484413387
1770450067952,124,-4,-3.421167854883319,-2.9891865920233793,-2.597787721398891
1770450067956,124,-4,-3.876977129737994,-2.93513896732928,-3.0582251444862054
1770450067960,124,-4,-4.236995677175232,-3.131989957150803,-3.4232752782673814
1770450067964,123,-5,-4.511870391101288,-3.9460463014692584,-3.703170990558619
1770450067968,123,-5,-4.693925449934158,-4.0066995421584135,-3.889844522027187
1770450067972,123,-5,-4.784211980303748,-3.901844398809183,-3.9841212709050096
1770450067976,123,-5,-4.813174432947225,-4.034453442888584,-4.016598492537715
1770450067980,123,-5,-4.824155178486156,-4.056142001886135,-4.03110650912112
1770450067984,123,-5,-4.8339283742297265,-4.044939249245725,-4.045082952265332
1770450067988,123,-5,-4.810208985594167,-3.907643390441927,-4.026640175339426
1770450067992,123,-5,-4.693106469854328,-4.019028946507277,-3.915285659485456
1770450067996,123,-5,-4.4507353458625865,-3.922145723592683,-3.6774683474111383
1770450068000,124,-4,-4.124133736678303,-3.202182410271246,-3.352810195815544
1770450068004,124,-4,-3.819193328012517,-2.906189191779529,-3.0478723640688994
1770450068008,124,-4,-3.6518388933835335,-3.060524951662804,-2.8820328961080706
1770450068012,124,-4,-3.693929835175481,-2.8745659479086134,-2.9316646152973393
1770450068016,124,-4,-3.9493927470920536,-3.080340503187572,-3.2022135765284525
1770450068020,123,-5,-4.333437414731515,-4.079205235484299,-3.603908431426003
1770450068024,123,-5,-4.594540230262714,-4.035984936161651,-3.8751598203219704
1770450068028,124,-4,-4.162175228283958,-2.93197682904812,-3.4374342295764677
1770450068032,126,-2,-2.035420891713984,-1.0276092144204043,-1.291583526338446
1770450068036,131,3,3.0472962166877835,4.098606888306827,3.811038132253191
1770450068040,140,12,11.984647265207512,12.680239105505368,12.752610884074745
1770450068044,151,23,24.396229640752395,24.23953042297181,25.144543637937105
1770450068048,165,37,37.97907912906263,37.75446862525347,38.69071994583414
1770450068052,176,48,48.80946828837493,49.298249509822824,49.48492515658954
1770450068056,182,54,52.81969059732381,54.72231740093394,53.475994593399555
1770450068060,177,49,47.84133450237304,49.98945125263879,48.50186149889294
1770450068064,163,35,34.98135714379228,35.88693207155686,35.664222966067584
1770450068068,145,17,18.315298737950997,18.043803181042684,19.025835969594567
1770450068072,129,1,2.9480085800908125,2.0693175495277467,3.676684172303689
1770450068076,120,-8,-7.375894173560532,-7.06427836239274,-6.649617056063585
1770450068080,117,-11,-11.658087550450546,-10.101087818482176,-10.955797914766787
1770450068084,117,-11,-11.370160128257073,-10.088030304842508,-10.702394713005924
1770450068088,119,-9,-9.016392754910424,-7.946359813894652,-8.376603383574187
1770450068092,121,-7,-6.645263730073334,-6.0582669009871655,-6.015091981432822
1770450068096,122,-6,-5.1529292266382845,-4.94523312667652,-4.514743338120864
1770450068100,123,-5,-4.484697519793929,-4.23237576037141,-3.831749992585064
1770450068104,123,-5,-4.2533265204138075,-3.9639353964419577,-3.591349698918015
1770450068108,124,-4,-4.199758856566831,-3.0665957433103763,-3.540958804412965
1770450068112,124,-4,-4.254587012385487,-3.002893586481326,-3.6090279055156222
1770450068116,123,-5,-4.369326141738093,-3.9900627504625086,-3.739053824675743
1770450068120,123,-5,-4.422728038461234,-4.224267294644996,-3.802189157411384
1770450068124,123,-5,-4.308122564529052,-3.9261160347702937,-3.690170342847877
1770450068128,124,-4,-4.052011402487423,-3.175174916270202,-3.43404301448934
1770450068132,124,-4,-3.7940844633144546,-2.865448739236114,-3.178873777036245
1770450068136,124,-4,-3.6478788644645648,-3.197389740932566,-3.039325961383549
1770450068140,124,-4,-3.598970007988222,-2.994504869190971,-2.997949271203326
1770450068144,124,-4,-3.537206564881428,-3.1655274371720834,-2.941581294966135
1770450068148,124,-4,-3.366726872820723,-2.9858596156542916,-2.7745368976983373
1770450068152,125,-3,-3.0729057570725744,-2.0140285078355724,-2.4846106170778857
1770450068156,125,-3,-2.698136487117658,-2.1392612404152667,-2.1155296319597765
1770450068160,125,-3,-2.283342685481176,-1.9902324061914105,-1.7070189448611135
1770450068164,126,-2,-1.846500099829168,-1.23585787033327,-1.275372351009513
1770450068168,126,-2,-1.3992391013654266,-0.9071322142138756,-0.832489114389664
1770450068172,127,-1,-0.959266320868042,-0.1204464655798416,-0.3976604162130197
1770450068176,127,-1,-0.5471159718959584,-0.0467571880016355,0.0082411447140895
1770450068180,127,-1,-0.1877084778781754,-0.0875101027063653,0.3617868527572815
1770450068184,128,0,0.0865254797097335,0.838263569344479,0.6316751278856995
1770450068188,128,0,0.2593352933300683,1.0061930423681025,0.8008137202465113
1770450068192,128,0,0.370890533014859,0.9391957754460862,0.9077863488470842
1770450068196,128,0,0.5138930996561377,0.8985848058596059,1.044944761075185
1770450068200,128,0,0.7594688403577483,0.9393123334292584,1.2842816045926937
1770450068204,129,1,1.079588101029041,1.79813282561442,1.5984944522739113
1770450068208,129,1,1.3560841401291572,2.038888879710164,1.8695633780800585
1770450068212,129,1,1.4788964708217978,1.8725311071994215,1.9875111203412588
1770450068216,129,1,1.4433296722333404,1.9821069350324043,1.9476288031326985
1770450068220,129,1,1.3606960728980475,1.8081324907570544,1.8606512026218416
1770450068224,129,1,1.3758696127991166,1.923425114368866,1.8707403938710092
1770450068228,129,1,1.554739050699133,1.907095074571208,2.0438731927243152
1770450068232,129,1,1.8250995852293024,1.973370370479746,2.3085115121562496
1770450068236,130,2,2.0243084324124156,2.901280404378574,2.502186817568459
1770450068240,130,2,2.027195017086422,2.835060318606021,2.499435623470675
1770450068244,129,1,1.8460311769746012,1.9009481177078944,2.3127691058432807
1770450068248,129,1,1.6084965874228363,1.8968191521601647,2.0705321424338705
1770450068252,129,1,1.4413331603530637,1.984483955337673,1.8993470550492488
1770450068256,129,1,1.38014401531425,1.8650727734393016,1.8337532947269293
1770450068260,129,1,1.381524812294523,1.8785985202708344,1.829589984297474
1770450068264,129,1,1.401056180059867,1.8156899784539615,1.8428243298034328
1770450068268,129,1,1.449113277488466,1.9807615159481953,1.884905767241172
1770450068272,129,1,1.575503380402337,1.873021203723595,2.006417420101983
1770450068276,129,1,1.8067855556364072,1.97033298130688,2.2336791147665656
1770450068280,130,2,2.1032064786030062,2.7650681633135687,2.5257526593333255
1770450068284,130,2,2.3791920741499073,2.9080512132480356,2.796063783148099
1770450068288,130,2,2.562207578491708,2.863406807877172,2.972509464905954
1770450068292,130,2,2.6266944627613467,2.989284764766708,3.0311067879085507
1770450068296,130,2,2.5782259284173294,2.8138138405281667,2.9783775072029077
1770450068300,130,2,2.423502296019822,2.942759451812002,2.820201357954497
1770450068304,130,2,2.165419788106139,2.6830791020526896,2.5578098162133527
1770450068308,129,1,1.8148056358338676,2.096362052283788,2.201377058354757
1770450068312,129,1,1.38472062094832,1.7199047747478111,1.764890390035442
1770450068316,128,0,0.865147873429745,1.0779894683396147,1.239593234474909
1770450068320,128,0,0.2174768530855471,0.6641200599300181,0.5870869145619846
1770450068324,127,-1,-0.5841855765818704,-0.0547101172680113,-0.2192171615584999
1770450068328,126,-2,-1.4962653539876496,-1.1711228849163875,-1.1361062184890145
1770450068332,125,-3,-2.396550900882181,-2.057493085852142,-2.0409303316355034
1770450068336,124,-4,-3.1436584492110957,-3.1204990413420672,-2.792087883173387
1770450068340,124,-4,-3.654354053659854,-3.2072121314620325,-3.307184467072468
1770450068344,124,-4,-3.933380975063483,-3.1181804361046552,-3.5918747387896706
1770450068348,123,-5,-4.048543287382372,-4.20052370940415,-3.713473750712151
1770450068352,123,-5,-4.090785378485734,-3.98045732498336,-3.7615417744385313
1770450068356,124,-4,-4.140117605072322,-3.2700803438615003,-3.8155433987851506
1770450068360,123,-5,-4.233684244476303,-4.043487874896454,-3.913155572225633
1770450068364,123,-5,-4.351891855037416,-4.296448373578455,-4.035318219907138
1770450068368,123,-5,-4.444586575186495,-4.03842782470129,-4.132174925038033
1770450068372,123,-5,-4.4776013534378265,-4.163553885558261,-4.170050618662002
1770450068376,123,-5,-4.457124453300374,-4.116628045971194,-4.155400966058442
1770450068380,123,-5,-4.419886440998271,-4.185673055464667,-4.124253589523641
1770450068384,123,-5,-4.407437193769384,-4.19288518947569,-4.116945127323678
1770450068388,123,-5,-4.439038207260333,-4.11757884101725,-4.152362917907363
1770450068392,123,-5,-4.4895952945658255,-4.159626454047143,-4.206333112341134
1770450068396,123,-5,-4.4888674032856315,-4.090136936592868,-4.209747545977489
1770450068400,123,-5,-4.360720776179692,-4.262513146259996,-4.086637670375591
1770450068404,123,-5,-4.088049298333834,-4.091006890901177,-3.819319567063713
1770450068408,124,-4,-3.746747111622508,-3.2597254467861494,-3.4833531930757684
1770450068412,124,-4,-3.46435323722324,-3.029591564838721,-3.2062616393209677
1770450068416,124,-4,-3.331640591201408,-3.2398768987669193,-3.078453355346775
1770450068420,124,-4,-3.344880766628213,-3.132810242624003,-3.095676016788442
1770450068424,124,-4,-3.4214211088825524,-3.2082816415670203,-3.175564339210038
1770450068428,124,-4,-3.4619019394028636,-3.20535197709415,-3.2198304058038407
1770450068432,124,-4,-3.409060572876548,-3.0409024577160397,-3.171764293473191
1770450068436,124,-4,-3.2755997821227174,-3.315826102582653,-3.043470998067137
1770450068440,124,-4,-3.1332188691154372,-2.996176148792716,-2.905950239713152
1770450068444,125,-3,-3.064306278456008,-2.419195497412341,-2.841782472519431
1770450068448,124,-4,-3.1034808527359297,-2.972363342855316,-2.8859885732947235
1770450068452,124,-4,-3.2185286406464213,-3.311779044233081,-3.005915971853612
1770450068456,124,-4,-3.347604267471329,-3.0662912832454694,-3.1389211273851396
1770450068460,124,-4,-3.44619199385801,-3.232522594609949,-3.240557815607669
1770450068464,124,-4,-3.491481148887946,-3.241721026702068,-3.289001294771952
1770450068468,124,-4,-3.454770679495652,-3.097255336698252,-3.2563615429872046
1770450068472,124,-4,-3.29709754322382,-3.2843425522378347,-3.1036443833310416
1770450068476,124,-4,-3.0110749560686845,-3.0407033294512305,-2.8230122463623353
1770450068480,125,-3,-2.6649181356595806,-2.329385434438095,-2.4823616034822193
1770450068484,125,-3,-2.3870851516111404,-2.119466772254436,-2.209742949492442
1770450068488,125,-3,-2.2856233430661925,-2.241245956613189,-2.112443057845077
1770450068492,125,-3,-2.360452153690601,-2.1784485946022976,-2.189966865388787
1770450068496,125,-3,-2.4753845473453993,-2.1390778644152824,-2.306858697047641
1770450068500,125,-3,-2.4184727162250743,-2.2864193446933254,-2.2525475782967184
1770450068504,125,-3,-2.0275775281105775,-2.123770905996637,-1.8657653774407392
1770450068508,126,-2,-1.3065363628368425,-1.2844173166268045,-1.1504215809328355
1770450068512,127,-1,-0.4402914400235884,-0.1323683695103854,-0.2909587128727418
1770450068516,128,0,0.3186915319292029,0.7809580285625889,0.4615275355017767
1770450068520,128,0,0.811166403395158,0.7766448134255567,0.949883223327416
1770450068524,128,0,1.05843647790931,0.8142022732600744,1.1962931623578534
1770450068528,129,1,1.2296141562623593,1.7391865550244818,1.3677595268932998
1770450068532,129,1,1.5311408390824708,1.8524870282813564,1.6671514900322757
1770450068536,129,1,2.0785759420485364,1.7447157019951938,2.2086501829822955
1770450068540,130,2,2.801330157055266,2.842696767736823,2.9237316218531015
1770450068544,131,3,3.443529491413684,3.696731341487827,3.5596028815004637
1770450068548,131,3,3.6981258445071186,3.8664053718013744,3.810481599231813
1770450068552,131,3,3.4079817808440556,3.691749230114464,3.518283987625755
1770450068556,130,2,2.683041801487168,2.884338642122594,2.7914237179108863
1770450068560,129,1,1.8265675301273363,1.6985604606465592,1.9325217032213056
1770450068564,128,0,1.1165145134177132,0.8052258425912753,1.219570045085322
1770450068568,128,0,0.6189674761438433,0.7763263938236491,0.7182479488557438
1770450068572,128,0,0.1886730537328097,0.7358547885884982,0.2826505055317785
1770450068576,127,-1,-0.3614326257777935,-0.1377239078430236,-0.2735802200000776
1770450068580,126,-2,-1.0939582683818825,-1.3383485326144506,-1.0108389948884575
1770450068584,125,-3,-1.924863932612305,-2.1455379869959224,-1.843832244099895
1770450068588,125,-3,-2.7203586569313516,-2.322882518374518,-2.6402752085406256
1770450068592,124,-4,-3.3922299886201968,-3.1421238083901466,-3.314485867788612
1770450068596,123,-5,-3.924678967374896,-4.290187877104291,-3.8513411659086207
1770450068600,123,-5,-4.3500225423297465,-4.192552332317956,-4.281798310541387
1770450068604,123,-5,-4.707347638123126,-4.323474752179126,-4.643490723470149
1770450068608,122,-6,-5.0072373305679205,-5.170770163998261,-4.9465460948197535
1770450068612,122,-6,-5.226467796118884,-5.279651233864145,-5.168077741040181
1770450068616,122,-6,-5.33780138198418,-5.183654163207804,-5.281669745370366
1770450068620,122,-6,-5.344954910150532,-5.303654123674104,-5.29195005987739
1770450068624,122,-6,-5.291267241394918,-5.254962587889951,-5.242546862181123
1770450068628,122,-6,-5.240258091099447,-5.239317286146703,-5.196375619939645
1770450068632,122,-6,-5.243203937548728,-5.233584916339237,-5.203760714172493
1770450068636,122,-6,-5.306912544759528,-5.222075444670836,-5.270771420639619
1770450068640,122,-6,-5.377251483727721,-5.309019121574655,-5.3427041269948345
1770450068644,122,-6,-5.360179178054689,-5.25603896327653,-5.325145500146239
1770450068648,122,-6,-5.187651343143428,-5.270420213992206,-5.151006955807009
1770450068652,122,-6,-4.893164063535675,-5.189831532831294,-4.857416642673909
1770450068656,123,-5,-4.627195162885713,-4.300376369696169,-4.59973576008101
1770450068660,123,-5,-4.5670424965595,-4.218231844894034,-4.556184795249977
1770450068664,122,-6,-4.745395717559073,-5.420276181298606,-4.752227388100536
1770450068668,122,-6,-4.859863295895095,-5.0693026432906345,-4.873301074903084
1770450068672,124,-4,-4.122848108599852,-3.457203503532918,-4.124433235052569
1770450068676,126,-2,-1.2575006606831505,-0.9846239248845968,-1.233997892876419
1770450068680,133,5,5.174571905827399,5.414561582491933,5.2200344887995085
1770450068684,143,15,16.009455272551957,15.970156326907029,16.056771159339412
1770450068688,157,29,30.51820171245047,29.501049441931052,30.54197419389505
1770450068692,172,44,45.865283304456064,44.97053325020376,45.850945869210115
1770450068696,185,57,57.64170396580205,57.5953829280147,57.594100735664234
1770450068700,190,62,61.58870703638095,62.73489244760534,61.52770045023965
1770450068704,185,57,55.7449456442204,57.663940212968015,55.69363659070133
1770450068708,169,41,41.68673156924001,41.64710109232329,41.66128605418316
1770450068712,149,21,23.912931865836775,21.877178691225335,23.91708828832759
1770450068716,134,6,7.651108181629611,6.641846713377351,7.674239509507403
1770450068720,124,-4,-3.5249084916975875,-3.2146661230150757,-3.5044358784062437
1770450068724,119,-9,-8.837155853709923,-8.355638154402214,-8.841082030047811
1770450068728,118,-10,-9.786891601675665,-9.322794120376225,-9.8239599745136
1770450068732,119,-9,-8.680821540058806,-8.205865521868382,-8.741888405667435
1770450068736,120,-8,-7.295379546561105,-7.347488447370445,-7.360725404865036
1770450068740,120,-8,-6.3682652959380865,-7.238563940278688,-6.420814263545969
1770450068744,121,-7,-5.883791407136994,-6.330345248208609,-5.918784329800519
1770450068748,122,-6,-5.628863801154781,-5.3549937214645515,-5.65456313746111
1770450068752,122,-6,-5.518469293765146,-5.204683992497288,-5.5485219979177165
1770450068756,122,-6,-5.576734940218014,-5.404404070596859,-5.619988108171031
1770450068760,121,-7,-5.792460958216393,-6.16836204298957,-5.84773597311493
1770450068764,121,-7,-6.073151401182697,-6.424316327306793,-6.1324542010476435
1770450068768,121,-7,-6.3108290168862275,-6.23284253713452,-6.36730261632075
1770450068772,121,-7,-6.438056046576222,-6.385534068971145,-6.491292319559981
1770450068776,121,-7,-6.413126487801031,-6.243644742877989,-6.467744667300062
1770450068780,121,-7,-6.1945014529120614,-6.3338666522085765,-6.254597253132205
1770450068784,121,-7,-5.773212360999854,-6.290013826798784,-5.838717544026097
1770450068788,122,-6,-5.228930122202051,-5.321908016581595,-5.297020488484844
1770450068792,123,-5,-4.712871807780761,-4.392401025882093,-4.781750713470138
1770450068796,123,-5,-4.338921752949134,-4.194773847127499,-4.409227007372769
1770450068800,123,-5,-4.089826524735014,-4.464299907724053,-4.162727293821268
1770450068804,123,-5,-3.8454862900917073,-4.111725285664716,-3.9207937563858457
1770450068808,124,-4,-3.50459358870344,-3.544937079336231,-3.5813748972199204
1770450068812,124,-4,-3.070051011871162,-3.186694202348186,-3.1483639957000724
1770450068816,125,-3,-2.6201763365821527,-2.401641514899356,-2.701250748234683
1770450068820,125,-3,-2.2155962618706395,-2.3123462858272505,-2.300194556833099
1770450068824,125,-3,-1.84697776703226,-2.2213656161791357,-1.9341833847647405
1770450068828,126,-2,-1.4655030484263194,-1.508838932993032,-1.5536800162628062
1770450068832,126,-2,-1.0439939229876976,-1.1919698445050124,-1.1328200835072564
1770450068836,127,-1,-0.599725981280796,-0.4609508054432409,-0.6906516346942821
1770450068840,127,-1,-0.1727094855576423,-0.2277992306297518,-0.267139828659005
1770450068844,127,-1,0.1980706371657257,-0.3388283933678406,0.1005336094303785
1770450068848,128,0,0.4805950360424935,0.584232158804368,0.3815674009994747
1770450068852,128,0,0.6590984848758475,0.7253303878276651,0.55939081710138
1770450068856,128,0,0.7546962625036905,0.5429236425625291,0.6535703646445254
1770450068860,128,0,0.8243946563676295,0.8434357756239339,0.7208136750870805
1770450068864,128,0,0.9164730808474,0.4858607005190103,0.8103707459761527
1770450068868,128,0,1.0206673277814065,0.810920527796961,0.9126062241708668
1770450068872,129,1,1.074711967555193,1.4329268623630669,0.9648255405484012
1770450068876,128,0,1.0299153483494146,0.8376830579108003,0.9179214047232608
1770450068880,128,0,0.9062021092811852,0.5485918711390932,0.792298325557712
1770450068884,128,0,0.7779735626252399,0.7345924584089498,0.662904975691029
1770450068888,128,0,0.7118986639778673,0.5731140527806908,0.5959188805936907
1770450068892,128,0,0.7215220599886321,0.6121383273576257,0.6038145242489878
1770450068896,128,0,0.7706735346874984,0.6973530699315488,0.6501461813752109
1770450068900,128,0,0.8077297990777146,0.6302260066808694,0.6842450453636376
1770450068904,128,0,0.7993624107571782,0.6699330121792524,0.673977253254479
1770450068908,128,0,0.7484815993624612,0.5877239337714804,0.6224131442693609
1770450068912,128,0,0.6962693916602224,0.5849257285558401,0.5696864946729635
1770450068916,128,0,0.7081853555859483,0.7332471564287063,0.5801611436113114
1770450068920,128,0,0.8404235170603426,0.5544869460920377,0.7100738843170734
1770450068924,128,0,1.09735419036453,0.7537318647277851,0.9647440631659556
1770450068928,129,1,1.4141568223053682,1.4569857630228331,1.2799541692557994
1770450068932,129,1,1.6906392439397755,1.7037974006962815,1.555223713032548
1770450068936,129,1,1.8517945750773452,1.6249071217898794,1.7149817167442196
1770450068940,129,1,1.8776458673847545,1.6127938539861426,1.7390200757704872
1770450068944,129,1,1.7779921654861013,1.720293642953259,1.6372864019933937
1770450068948,129,1,1.5458548556504326,1.4063519167874334,1.4032652593556665
1770450068952,128,0,1.1398733179499705,0.7955823302687884,0.9961057463015272
1770450068956,128,0,0.5161677021881906,0.4894205052436784,0.3717928028133064
1770450068960,127,-1,-0.3130275003047968,-0.2505421274017589,-0.4583778950999555
1770450068964,126,-2,-1.2487334569483757,-1.4308411016570153,-1.3960898811022369
1770450068968,125,-3,-2.147370156912758,-2.509323037872069,-2.2971655621153215
1770450068972,124,-4,-2.9128503659850673,-3.234750297128805,-3.064337812137313
1770450068976,124,-4,-3.5504412080603567,-3.5694965196821844,-3.702631463283504
1770450068980,123,-5,-4.119792047938798,-4.108446542077202,-4.272661976928008
1770450068984,123,-5,-4.6312789481721,-4.687603749171401,-4.785659160694853
1770450068988,122,-6,-4.99929413136801,-5.206976500433152,-5.155649252777926
1770450068992,122,-6,-5.111716000059494,-5.604521641074287,-5.269515420413872
1770450068996,122,-6,-4.94939987465321,-5.186245972962233,-5.107968512778667
1770450069000,123,-5,-4.630786647064843,-4.484762665752422,-4.790415207594509
1770450069004,123,-5,-4.333608252726494,-4.372762501201239,-4.495247400284986
1770450069008,123,-5,-4.172939722344698,-4.493216632941904,-4.336870151535151
1770450069012,123,-5,-4.148650782202315,-4.408800748507793,-4.314066293346083
1770450069016,123,-5,-4.190003289923013,-4.328767454098656,-4.356032582486065
1770450069020,123,-5,-4.2331721914373315,-4.399910619927558,-4.399778749011974
1770450069024,123,-5,-4.260610458550818,-4.4348027489546515,-4.42826423942923
1770450069028,123,-5,-4.284830080882131,-4.478955447211196,-4.453780813350919
1770450069032,123,-5,-4.30555867706897,-4.447200706076462,-4.475813879807823
1770450069036,123,-5,-4.28316457883847,-4.288227518515257,-4.4548404519864295
1770450069040,123,-5,-4.158145178430313,-4.466176214911121,-4.3313546204812425
1770450069044,123,-5,-3.908306616582714,-4.3600727981437135,-4.082849898456512
1770450069048,124,-4,-3.5909630927125096,-3.6019996046974128,-3.7665599309136346
1770450069052,124,-4,-3.3181523581105017,-3.336694872462741,-3.4949035534498782
1770450069056,124,-4,-3.177221361704514,-3.4133128895627216,-3.355474877568204
1770450069060,124,-4,-3.1698603146296893,-3.34922394300945,-3.34964712687709
1770450069064,124,-4,-3.224901127338863,-3.4857972182613897,-3.405779589621912
1770450069068,124,-4,-3.2658181977941076,-3.5250860155520916,-3.447313135680546
1770450069072,124,-4,-3.266648036365024,-3.4103701077828035,-3.448717363109704
1770450069076,124,-4,-3.251082728511161,-3.3722981608223423,-3.4341283688164874
1770450069080,124,-4,-3.24829275900014,-3.372125914623151,-3.4327762377808293
1770450069084,124,-4,-3.2570769519420457,-3.4985266341379355,-3.4431818697824492
1770450069088,124,-4,-3.2537056773927406,-3.539560374846646,-3.4413775811410887
1770450069092,124,-4,-3.228662901457832,-3.415214248092098,-3.417839689022993
1770450069096,124,-4,-3.207135047514053,-3.378701310057455,-3.3977072079779216
1770450069100,124,-4,-3.2273599605853764,-3.3665601970269727,-3.4188742526675675
1770450069104,124,-4,-3.295400922091315,-3.5179296628491947,-3.4871291961425284
1770450069108,124,-4,-3.3587619279558436,-3.5740695927727204,-3.550395277405277
1770450069112,124,-4,-3.32792682337909,-3.371626064528619,-3.5201094137158475
1770450069116,124,-4,-3.1410428306275424,-3.4657189730567453,-3.334924541638109
1770450069120,124,-4,-2.831484904852906,-3.2436215901520273,-3.027805674036796
1770450069124,125,-3,-2.5382463196062206,-2.6887036710020635,-2.7370711723886507
1770450069128,125,-3,-2.4252455756505964,-2.426821986540643,-2.6262357662900304
1770450069132,125,-3,-2.553416741106033,-2.5349617689940103,-2.7556904152921784
1770450069136,124,-4,-2.8098216994967022,-3.331337748831737,-3.011730348100075
1770450069140,124,-4,-2.959503725190588,-3.3517698401650344,-3.159604860218927
1770450069144,125,-3,-2.7786038458603484,-2.63667884703805,-2.9773737199849455
1770450069148,125,-3,-2.171392580165441,-2.4720597363971524,-2.37142402163579
1770450069152,126,-2,-1.213622396132614,-1.5387299441424904,-1.4176039946273884
1770450069156,127,-1,-0.1220136158803721,-0.3034658819623465,-0.3305833522223272
1770450069160,128,0,0.8338205442067972,0.5821474730913315,0.6222965825387883
1770450069164,129,1,1.4522668938818422,1.4228682261149306,1.2402500421545355
1770450069168,129,1,1.7007387364193665,1.4346679827398827,1.4899542287287089
1770450069172,129,1,1.7330254862923629,1.521400490785584,1.5237849429286574
1770450069176,129,1,1.7994145749395751,1.6574849193019778,1.5908334670201696
1770450069180,129,1,2.096166178959915,1.5745777296576533,1.886729669383376
1770450069184,130,2,2.6478900396868146,2.4499408881212896,2.435946972622429
1770450069188,131,3,3.2993808629643215,3.354550435881563,3.0837685889538697
1770450069192,131,3,3.8153177066954096,3.594712013850868,3.5962629998438285
1770450069196,131,3,4.010121440601875,3.579351653000358,3.789476920510385
1770450069200,131,3,3.827334935106568,3.614508983703784,3.607246900821432
1770450069204,131,3,3.344057572892577,3.4225429171664388,3.1251881431238964
1770450069208,130,2,2.716730259057968,2.3144027018445623,2.4980467573469247
1770450069212,129,1,2.0938278801736256,1.6658601797046462,1.8739267207836003
1770450069216,129,1,1.536847097707611,1.4591434652811337,1.3149838519628605
1770450069220,128,0,1.0016609021846292,0.7490290613803353,0.7776564797356078
1770450069224,128,0,0.3945317137154763,0.2541312986679986,0.1683849597915131
1770450069228,127,-1,-0.3453116808889752,-0.5398818336851272,-0.5733374920033989
1770450069232,126,-2,-1.2029416017115957,-1.4877818428250214,-1.4320473885657714
1770450069236,125,-3,-2.107976754019216,-2.420482956835047,-2.337121945269939
1770450069240,124,-4,-2.9830882390565794,-3.3579739907167285,-3.211945190096358
1770450069244,124,-4,-3.7701927206488337,-3.687507285839791,-3.9997173825552466
1770450069248,123,-5,-4.423618435768127,-4.58582129006874,-4.655220255334123
1770450069252,122,-6,-4.904722050287423,-5.491916785250095,-5.138781220187333
1770450069256,122,-6,-5.200929904002102,-5.4029717920598195,-5.4365119379129485
1770450069260,122,-6,-5.3426568680930195,-5.412674617078259,-5.578728330478803
1770450069264,122,-6,-5.384321206813764,-5.633890917625756,-5.620841850657255
1770450069268,122,-6,-5.363793785059835,-5.667105806630539,-5.6015590007877725
1770450069272,122,-6,-5.284452151852515,-5.426732599002705,-5.524218912760654
1770450069276,122,-6,-5.136351120111298,-5.4879333491173945,-5.378227333066949
1770450069280,122,-6,-4.9287077409156765,-5.346676987028428,-5.172161968152095
1770450069284,123,-5,-4.694801479722825,-4.701375597239576,-4.938961020316678
1770450069288,123,-5,-4.463623997951194,-4.637182076549817,-4.7073372474353175
1770450069292,123,-5,-4.2388307551418425,-4.456310452811679,-4.480799990368307
1770450069296,123,-5,-4.026251886550941,-4.492636491357979,-4.266383857609241
1770450069300,123,-5,-3.8878160225796,-4.358212565027086,-4.129485704353204
1770450069304,124,-4,-3.9425515559618702,-3.6872549839876503,-4.192622199842746
1770450069308,123,-5,-4.2622751462574,-4.695720031816154,-4.5262881125141305
1770450069312,122,-6,-4.691783227022382,-5.384877874670346,-4.967149927157428
1770450069316,123,-5,-4.673933247866889,-4.615536913024698,-4.948031082040558
1770450069320,124,-4,-3.1757509668301096,-3.2347862776944347,-3.432713591343469
1770450069324,129,1,1.1583005900904677,1.1846519219541116,0.9259092149147672
1770450069328,137,9,9.508601178790611,9.415181330150684,9.29208654098537
1770450069332,149,21,22.08538692621675,21.533247461729584,21.86331866751435
1770450069336,164,36,37.38359398566739,36.38204995455861,37.13516815786548
1770450069340,178,50,52.052459522874315,50.83756641351084,51.77085070066751
1770450069344,190,62,61.806265883039714,61.975277326614915,61.50169918775997
1770450069348,192,64,63.21171165136019,64.69320293318572,62.90372038275805
1770450069352,184,56,55.44878230096842,56.098327078970655,55.1558040637705
1770450069356,167,39,40.89319401503712,39.81724891145419,40.62582265060886
1770450069360,150,22,24.018084901590573,22.360674713723057,23.775755112161296
1770450069364,136,8,9.264324368134098,8.443942401358264,9.03466278991558
1770450069368,127,-1,-0.7826637238875307,-0.6456899305990422,-1.019201356046317
1770450069372,122,-6,-5.919523390197381,-5.607432933203729,-6.17927296896917
1770450069376,120,-8,-7.565143094935672,-7.418520598400494,-7.851491932303155
1770450069380,120,-8,-7.507604999321568,-7.534173858820987,-7.809696109168558
1770450069384,120,-8,-7.009971267808826,-7.673002237322899,-7.310801184914377
1770450069388,120,-8,-6.618046250768207,-7.535847342942912,-6.905578165095809
1770450069392,121,-7,-6.443310842457322,-6.722105983968406,-6.716926111073507
1770450069396,121,-7,-6.477846089207471,-6.304191526453298,-6.746435449592284
1770450069400,121,-7,-6.693389493562133,-6.729849149360938,-6.967289523355648
1770450069404,120,-8,-6.9965553092322,-7.495145703080775,-7.2799249119459
1770450069408,120,-8,-7.227080513434931,-7.70412534312332,-7.516556597714734
1770450069412,120,-8,-7.253079306068374,-7.570144837866653,-7.542729059815916
1770450069416,120,-8,-7.061089447379787,-7.41881774557533,-7.348321351003916
1770450069420,121,-7,-6.742453179575921,-6.735768820717118,-7.029577786601557
1770450069424,121,-7,-6.401243379657682,-6.438974744843981,-6.692006786745714
1770450069428,121,-7,-6.090223055631602,-6.838301259111026,-6.38542980831869
1770450069432,121,-7,-5.8280089827675425,-6.3766041558379385,-6.124983110105762
1770450069436,122,-6,-5.636405465343774,-5.645078280588992,-5.9325230183411435
1770450069440,122,-6,-5.517527272726679,-5.584736916862702,-5.813207043512173
1770450069444,122,-6,-5.396706695314981,-5.545215329653134,-5.6942349632463
1770450069448,122,-6,-5.134482767065831,-5.831170221820262,-5.434693660922512
1770450069452,122,-6,-4.634559799144658,-5.282058358480329,-4.9360334416218405
1770450069456,124,-4,-3.940185416386534,-3.8438156195758,-4.241817500132537
1770450069460,124,-4,-3.207080506861668,-3.3619590219689064,-3.510157665273557
1770450069464,125,-3,-2.581648594951851,-2.8225658716217623,-2.8884203540111884
1770450069468,125,-3,-2.116825797008996,-2.558046493175249,-2.4274625390871414
1770450069472,125,-3,-1.795668748113071,-2.5436409644863147,-2.107643880059669
1770450069476,126,-2,-1.5958214049119137,-1.642778753234339,-1.906573519305812
1770450069480,126,-2,-1.494756266484082,-1.5352042232726797,-1.8043686913771777
1770450069484,126,-2,-1.4193931850900952,-1.7360362737305564,-1.7301868489616326
1770450069488,126,-2,-1.2383255470556045,-1.5839747534104052,-1.5522011027191245
1770450069492,126,-2,-0.8495406412865012,-1.5872256967300449,-1.166410007604432
1770450069496,127,-1,-0.2865721425985905,-0.5855584741262079,-0.6053326832815525
1770450069500,128,0,0.279957977216404,0.3757921191333112,-0.040177805418746
1770450069504,128,0,0.6651274173110499,0.3239168564949365,0.3435158204549149
1770450069508,128,0,0.8043515021316444,0.3679446695308643,0.4815246914499933
1770450069512,128,0,0.7793629348676909,0.420455995525795,0.4559770052267988
1770450069516,128,0,0.7271917610646698,0.3883011447817198,0.4033042410657345
1770450069520,128,0,0.7227609871776044,0.3917349382900654,0.3974413279381863
1770450069524,128,0,0.7285792655902754,0.278125490578524,0.4007312272905529
1770450069528,128,0,0.6414225484478805,0.4304899625815478,0.3107799597474949
1770450069532,128,0,0.3945701358313607,0.3075538368086431,0.0619404507452844
1770450069536,127,-1,0.0338508862940309,-0.498952027820584,-0.2994171889471855
1770450069540,127,-1,-0.2944291220147897,-0.7666974077443117,-0.6274147042359707
1770450069544,127,-1,-0.4333903149821005,-0.5506776333828812,-0.7663680686955233
1770450069548,127,-1,-0.313499278921296,-0.7672640160831913,-0.6477681809253915
1770450069552,127,-1,0.0074907625920783,-0.5028952746979175,-0.3294379364617676
1770450069556,128,0,0.3825637684615867,0.2889345760410784,0.0423681395944739
1770450069560,128,0,0.6633698527478371,0.4062756316827487,0.3203962139967122
1770450069564,128,0,0.7790738913998208,0.2872032809966093,0.4348193160808513
1770450069568,128,0,0.7560317108252734,0.3584335779207032,0.4122108085425163
1770450069572,128,0,0.6789014632139555,0.3741045109398001,0.3360739874616092
1770450069576,128,0,0.6341618376602639,0.3687017045727759,0.2910595057346814
1770450069580,128,0,0.667184389880842,0.321673277708396,0.3217565013016401
1770450069584,128,0,0.7564556457280616,0.3494772918842735,0.4077175754069445
1770450069588,128,0,0.8092836936269044,0.2968196129589289,0.4579701780405529
1770450069592,128,0,0.6981369414966742,0.3970627917601399,0.3455788454059998
1770450069596,128,0,0.3378387976257246,0.3463668929934524,-0.0153281437164001
1770450069600,127,-1,-0.2474867772235194,-0.7111752776009674,-0.6012473305251238
1770450069604,126,-2,-0.933478517017849,-1.5840798661718505,-1.287687991553874
1770450069608,126,-2,-1.5816323994740311,-1.8400726684361128,-1.9361357454385144
1770450069612,125,-3,-2.1262539130475804,-2.4208480786312334,-2.4816340724338923
1770450069616,125,-3,-2.591955413988253,-2.926151325000136,-2.9494342339531405
1770450069620,124,-4,-3.046102776908031,-3.3808074783602766,-3.4064285407017048
1770450069624,124,-4,-3.5397238824611117,-3.997734105778698,-3.902393952696268
1770450069628,123,-5,-4.075624307500778,-4.396632583815671,-4.439267327332679
1770450069632,123,-5,-4.607236407447465,-4.902347233624578,-4.970587049216659
1770450069636,122,-6,-5.057721923150204,-5.48244098684849,-5.420355329811146
1770450069640,122,-6,-5.350808868181539,-5.7800441592319105,-5.713420302239924
1770450069644,122,-6,-5.443992028697774,-5.708495337090713,-5.808124817358861
1770450069648,122,-6,-5.353367629187845,-5.587112243425855,-5.720388154458481
1770450069652,122,-6,-5.161820109750672,-5.853161486551506,-5.531763463471928
1770450069656,122,-6,-4.9981470922777875,-5.4397359935159955,-5.369728476506013
1770450069660,123,-5,-4.974765749308974,-4.923086037934184,-5.346595000875712
1770450069664,122,-6,-5.106863045385397,-5.538014874079077,-5.478350444172179
1770450069668,122,-6,-5.280649969270104,-5.779864377731063,-5.65185986471803
1770450069672,122,-6,-5.317451192597154,-5.710124729875031,-5.6887665841675314
1770450069676,122,-6,-5.09450308656889,-5.548685183235961,-5.466673583724726
1770450069680,123,-5,-4.6290387485263995,-4.895482296754257,-5.003046192479514
1770450069684,123,-5,-4.066226925418075,-4.503160172220507,-4.442649614729743
1770450069688,124,-4,-3.5881750580973137,-3.903154590386632,-3.966671990071185
1770450069692,124,-4,-3.3112931213522407,-3.554949658381477,-3.690777145087004
1770450069696,124,-4,-3.2374190610414013,-3.7638414481523927,-3.61674492194819
1770450069700,124,-4,-3.2812102437116812,-3.68469337469336,-3.6598833077053414
1770450069704,124,-4,-3.3422023335298294,-3.708902439357366,-3.720700729347624
1770450069708,124,-4,-3.3645500592525357,-3.750794564541188,-3.7439965002271913
1770450069712,124,-4,-3.3492590405599416,-3.679688409444908,-3.730569147297979
1770450069716,124,-4,-3.3266773645476833,-3.7112778542091576,-3.709819044264798
1770450069720,124,-4,-3.321287719365322,-3.710652350353106,-3.70529892300872
1770450069724,124,-4,-3.334367938841149,-3.725272499940209,-3.718174969616203
1770450069728,124,-4,-3.349143918912677,-3.7342829191085514,-3.732531667007988
1770450069732,124,-4,-3.347821392225645,-3.724192731304147,-3.731701586757685
1770450069736,124,-4,-3.3274897953511164,-3.6902107928341894,-3.7131142423874666
1770450069740,124,-4,-3.3061775968493974,-3.738704772465705,-3.693878256632871
1770450069744,124,-4,-3.3136215685532084,-3.725438673774331,-3.70226459288553
1770450069748,124,-4,-3.365484480992054,-3.728190768511889,-3.75334207305359
1770450069752,124,-4,-3.4325943846995215,-3.780993617152983,-3.8189420781748185
1770450069756,124,-4,-3.4344135251010997,-3.6249614431416783,-3.820254832692586
1770450069760,124,-4,-3.284044910591428,-3.842058875005278,-3.6712075454188633
1770450069764,124,-4,-2.9701575917196426,-3.628257703202704,-3.35977947800009
1770450069768,125,-3,-2.606116875788347,-2.8261524554267288,-2.9979987826325414
1770450069772,125,-3,-2.37776346322515,-2.7428076202566043,-2.7707744809319057
1770450069776,125,-3,-2.4053629135371866,-2.6272287418848363,-2.7980887864841315
1770450069780,125,-3,-2.627071507929182,-2.921931631778614,-3.0183286502993547
1770450069784,124,-4,-2.809883958747912,-3.5034855110811827,-3.1993105210837376
1770450069788,125,-3,-2.6925283557985806,-3.0225503914014036,-3.081066467806884
1770450069792,125,-3,-2.157424553335911,-2.521689111078519,-2.54697680017395
1770450069796,126,-2,-1.308522294107279,-1.8867183495337392,-1.7006993784747024
1770450069800,127,-1,-0.4037100604961481,-0.6700274399642968,-0.7986825932328778
1770450069804,128,0,0.3090154791012396,0.233397956486926,-0.0873536577187015
1770450069808,128,0,0.7386938810818888,0.1944766260409052,0.3430060108753633
1770450069812,128,0,0.9841586431439596,0.2682634577029893,0.5905390531321573
1770450069816,129,1,1.2427404578501973,1.2800461811227504,0.851003241032533
1770450069820,129,1,1.670251696159334,1.1730849374401724,1.2790972895188086
1770450069824,129,1,2.2832309939313165,1.3575341717452691,1.8913782652348352
1770450069828,131,3,2.956863093368548,3.06617983126413,2.563459703897118
1770450069832,131,3,3.512975658090159,3.3647207814767977,3.117575862117565
1770450069836,131,3,3.826105250857,3.1649089707235545,3.4292138524745464
1770450069840,131,3,3.8622142311984655,3.2871834823036963,3.46550262619554
1770450069844,131,3,3.6439535394396168,3.1996558992440396,3.2489457776007167
1770450069848,131,3,3.2134992178191393,3.2269985232767953,2.820108489652223
1770450069852,130,2,2.6341615585260003,2.173464067911076,2.241141295984939
1770450069856,129,1,1.9945638143572095,1.3427535427867472,1.6011052681655862
1770450069860,129,1,1.3767088242560686,1.1043249485332147,0.9828422592296168
1770450069864,128,0,0.811763628620994,0.3390258709534687,0.4174463875405277
1770450069868,128,0,0.2702996602078947,0.0941465557733679,-0.1248198928950186
1770450069872,127,-1,-0.3083231244927191,-0.7245943745718733,-0.7039353231020002
1770450069876,126,-2,-0.977188285419116,-1.7620856934393472,-1.3720460761642426
1770450069880,126,-2,-1.7500796161551275,-1.8310288500332983,-2.1434624385640144
1770450069884,125,-3,-2.5781451423640456,-2.7170326936529894,-2.9710523483451805
1770450069888,124,-4,-3.3556318405878263,-3.9155956828565808,-3.7496002751330586
1770450069892,123,-5,-3.976868934781053,-4.65235241453361,-4.371868781149882
1770450069896,123,-5,-4.406422779601887,-4.942498183776693,-4.800841961334873
1770450069900,123,-5,-4.681270064361277,-4.583207558003776,-5.0738876107519975
1770450069904,123,-5,-4.832067591628026,-5.0565713596879585,-5.223177060967179
1770450069908,122,-6,-4.8204819577693225,-5.539180146276462,-5.211127977605875
1770450069912,123,-5,-4.583276778333152,-5.064887541279564,-4.974396294645803
1770450069916,123,-5,-4.144457785405516,-4.5669246009239135,-4.536959287538422
1770450069920,124,-4,-3.6682043098045023,-3.9402845098229857,-4.06274085737742
1770450069924,124,-4,-3.382076382542528,-3.7642116927630056,-3.7777846244833793
1770450069928,124,-4,-3.425697822559074,-3.7835911279971217,-3.81947962288634
1770450069932,124,-4,-3.746699819514349,-3.910257515166675,-4.134815683574273
1770450069936,123,-5,-4.131908666660338,-4.687151218483028,-4.513357245321432
1770450069940,123,-5,-4.3635530410410475,-4.892021770892927,-4.742619939687812
1770450069944,123,-5,-4.388829409182341,-4.771553096859758,-4.774017502241181
1770450069948,123,-5,-4.355006906088362,-4.825491105873542,-4.753604792876173
1770450069952,123,-5,-4.430078174552697,-4.858040862637493,-4.841328836099839
1770450069956,123,-5,-4.468709274059885,-4.797938991063948,-4.881204789778212
1770450069960,124,-4,-3.719108304306784,-3.768500997702027,-4.1161949824265065
1770450069964,127,-1,-0.8266899755407273,-0.9442343226638914,-1.1975799275935028
1770450069968,133,5,5.687184304944214,5.400475081758943,5.338343428964523
1770450069972,144,16,16.538135799948847,15.841116952501467,16.192664251655824
1770450069976,157,29,30.783563813591,29.559506735686742,30.418943439812132
1770450069980,173,45,45.5242599178052,44.78802039487964,45.1280445877358
1770450069984,184,56,56.64484216312176,56.531933296165974,56.222154408164066
1770450069988,189,61,60.4668201356124,60.85283492115445,60.036793851026495
1770450069992,184,56,55.51969925911549,56.319530001323514,55.10435291514544
1770450069996,171,43,43.372963241649416,43.064019800112085,42.98617290334292
1770450070000,154,26,27.93062371790053,26.166523241188667,27.572495931081804
1770450070004,140,12,13.553785964571755,12.288949206889194,13.211408568763284
1770450070008,131,3,3.1495914585566496,3.0165811268619027,2.8034717280334864
1770450070012,125,-3,-2.678050452575145,-2.695289296027536,-3.0438163270147367
1770450070016,123,-5,-5.128218595158834,-5.022586831291824,-5.517294804384849
1770450070020,122,-6,-5.952823607160661,-5.7373506894489825,-6.355490109763498
1770450070024,121,-7,-6.377478552752041,-6.873346707686208,-6.777747457931597
1770450070028,120,-8,-6.76984016873165,-7.857340927573298,-7.155557329011705
1770450070032,120,-8,-6.992247838632877,-7.773212606287586,-7.36171332386622
1770450070036,121,-7,-6.933461047420144,-7.038222383708777,-7.294916934454872
1770450070040,121,-7,-6.7505027069104395,-6.662673311913105,-7.1151438871938835
1770450070044,121,-7,-6.736674687197298,-7.0640523857493625,-7.110281145806189
1770450070048,120,-8,-7.0636179955373155,-7.608392699756138,-7.443299578972288
1770450070052,120,-8,-7.659754540717238,-8.079792338718287,-8.0379849632449
1770450070056,119,-9,-8.281571167820465,-8.733366059577344,-8.65315434204082
1770450070060,119,-9,-8.66731898565265,-8.973479052952648,-9.032901661985806
1770450070064,119,-9,-8.654930619936998,-8.821009850924565,-9.018829071345577
1770450070068,119,-9,-8.225726639053464,-8.787042145737544,-8.591360483205563
1770450070072,120,-8,-7.489582823114816,-8.009821365967458,-7.85723203421889
1770450070076,121,-7,-6.6285227372102575,-6.713125758023215,-6.99663791003634
1770450070080,122,-6,-5.8154542492141745,-6.12611323569456,-6.182798382902429
1770450070084,122,-6,-5.147981679758249,-5.600331764132461,-5.514040431448122
1770450070088,123,-5,-4.637587322681245,-5.079726941452519,-5.001811242112107
1770450070092,123,-5,-4.245644689445063,-4.717225101347006,-4.607394622427676
1770450070096,124,-4,-3.917746990161584,-3.9996779651619465,-4.2770740931051385
1770450070100,124,-4,-3.592116339072291,-3.9134940578779753,-3.950020148806797
1770450070104,124,-4,-3.207953385240588,-3.75913046033266,-3.565631772058757
1770450070108,125,-3,-2.7399790634758756,-3.0161322160521657,-3.0979969531122644
1770450070112,125,-3,-2.2361705676603996,-2.719841590451593,-2.594311813210324
1770450070116,126,-2,-1.8089125110739983,-2.0865845316466216,-2.1664886181271465
1770450070120,126,-2,-1.5653480486326736,-1.777391671114541,-1.9215182846322505
1770450070124,126,-2,-1.5223500207998129,-1.9749703034186372,-1.8764145403383197
1770450070128,126,-2,-1.5743662119103443,-1.7734231687636772,-1.926081976742415
1770450070132,126,-2,-1.54734861895962,-2.0102841590006806,-1.89706834415669
1770450070136,126,-2,-1.3075815409044589,-1.7995983768051165,-1.656047441087999
1770450070140,127,-1,-0.8498500776038769,-1.0727263801948688,-1.1978102058296825
1770450070144,127,-1,-0.3004587986349925,-0.7147081653591187,-0.6483713499111236
1770450070148,128,0,0.167007493850847,-0.0320216791817132,-0.180859882218622
1770450070152,128,0,0.4392356388403578,0.2087557787782248,0.0919720282331357
1770450070156,128,0,0.5157472941184171,-0.0206758812312046,0.1701161334973194
1770450070160,128,0,0.4782624526971084,0.112258020663128,0.1352284461057475
1770450070164,128,0,0.4178252450581208,0.1076352661992872,0.0775273440022963
1770450070168,128,0,0.3842927896288781,0.0950670912366263,0.0458016252852461
1770450070172,128,0,0.3845987601964184,0.1076945813654959,0.0465811556033113
1770450070176,128,0,0.4062034392883993,0.0186259527911538,0.0679414384955515
1770450070180,128,0,0.4325421486956617,0.0904452176317026,0.0944312071756058
1770450070184,128,0,0.4442878460174185,0.0875240186047996,0.1074887353573084
1770450070188,128,0,0.4231748082467325,0.1047566406556292,0.0887479340618094
1770450070192,128,0,0.3692354289153035,0.0932777592716199,0.0373528784554305
1770450070196,128,0,0.3188218776180419,-0.0086553854873594,-0.0113629599033081
1770450070200,128,0,0.3377875902843645,0.1256968141453459,0.0082051752702053
1770450070204,128,0,0.4797987258293522,0.0085782815839272,0.1505610761288561
1770450070208,128,0,0.7368107648720452,0.1849536202134515,0.4087323452873058
1770450070212,129,1,1.0314681282974898,0.9900978008539196,0.7054751628146707
1770450070216,129,1,1.270732703602052,1.0806439474658855,0.9468726075181748
1770450070220,129,1,1.4132375389178906,1.0094546387834458,1.0907992140736629
1770450070224,129,1,1.478835703368531,1.12106485032084,1.1571865779973645
1770450070228,129,1,1.4888032922523196,1.0219085467647158,1.1678730309846292
1770450070232,129,1,1.4030276711156722,1.1818781445556843,1.0831877788924955
1770450070236,129,1,1.1262083484753505,0.8239314340338351,0.8079564096433698
1770450070240,128,0,0.5858512537359479,0.3027394650765553,0.2695346184363512
1770450070244,128,0,-0.1865530886848657,-0.2506442739786994,-0.5009081013129955
1770450070248,126,-2,-1.0489080240230229,-1.5732037737978906,-1.3615477845191677
1770450070252,126,-2,-1.8329558437969444,-2.29317256280699,-2.144192258259092
1770450070256,125,-3,-2.454071113183124,-2.657432963683065,-2.76411450550211
1770450070260,125,-3,-2.953102101484175,-3.281159188950976,-3.261989459639957
1770450070264,124,-4,-3.4353668201233516,-3.647087877595558,-3.743021235898844
1770450070268,124,-4,-3.9612896650856264,-4.220437489367519,-4.267704002532022
1770450070272,123,-5,-4.482162001142922,-4.66853838483286,-4.787351543302155
1770450070276,123,-5,-4.875619504977442,-5.267078470453889,-5.179204869585252
1770450070280,122,-6,-5.050245890585665,-5.739032587405191,-5.351460606266013
1770450070284,123,-5,-5.022223220463343,-5.136353620710036,-5.320895264744712
1770450070288,123,-5,-4.888282514101757,-4.832543632299264,-5.185543421295579
