timestamp_ms,ecg_u8_raw,ecg_counts_raw_int,ecg_counts_filt_monitor,ecg_counts_filt_diagnostic,ecg_counts_filt_st
1768736210764,125,-3,-2.053441573615135,-0.0202162189718002,-0.1323327192450829
1768736210768,125,-3,-1.594166091180326,0.2798629535292694,0.3132406886379808
1768736210772,126,-2,-1.1795109102123102,0.8907000048021025,0.7136899093304621
1768736210776,126,-2,-0.8684719237973958,1.225564442452022,1.0104158488548354
1768736210780,126,-2,-0.6482084810843474,1.0114876918040894,1.217400936763152
1768736210784,126,-2,-0.460537136372956,1.2241300741814367,1.3931380678879783
1768736210788,127,-1,-0.2523221289958823,1.8799419395495611,1.5893105622994614
1768736210792,127,-1,0.0008242044173825,2.1138323869126285,1.8286124565267636
1768736210796,127,-1,0.2963648834586161,1.85977014284357,2.1088009562782117
1768736210800,127,-1,0.602426717547587,2.2045799675406625,2.399982025957259
1768736210804,128,0,0.8595201439393803,2.9065526118634732,2.6438713814338364
1768736210808,128,0,1.0194374055377502,2.985853859257346,2.791568486624014
1768736210812,128,0,1.10371321542694,2.9056705488948262,2.8633679775161296
1768736210816,128,0,1.213362177460942,2.83824290661203,2.959918151859589
1768736210820,128,0,1.4604478066729647,3.1436025587952674,3.193586753410372
1768736210824,129,1,1.8772175806827895,3.739685493813663,3.596809645078256
1768736210828,129,1,2.3838997397978865,4.0519016553789164,4.089791563024768
1768736210832,130,2,2.8400575758970734,4.634167991558599,4.532150009208715
1768736210836,130,2,3.134187615124433,4.973228404440244,4.812538951824967
1768736210840,130,2,3.24286486664904,4.840189217865436,4.907677633808613
1768736210844,130,2,3.222169067856095,4.870174930254821,4.873773657265755
1768736210848,130,2,3.150950700071878,4.787455850314305,4.789766110884172
1768736210852,130,2,3.08181914442151,4.70225115391733,4.7081644845254695
1768736210856,130,2,3.0397789983063475,4.780489424628942,4.653628018367174
1768736210860,130,2,3.0548660372101337,4.845605665885258,4.655850201576228
1768736210864,130,2,3.1765665534161136,4.714250357908124,4.764256703186998
1768736210868,130,2,3.4373858313338004,4.785925830080965,5.011439217085589
1768736210872,131,3,3.7955217155498064,5.520216884353264,5.355586053807855
1768736210876,131,3,4.121826852992882,5.832677131409913,5.66771461751352
1768736210880,131,3,4.260001744914188,5.601034411197545,5.792178451187448
1768736210884,131,3,4.1233377248063405,5.818567709493054,5.642895826895904
1768736210888,131,3,3.761596959729744,5.5055503522191085,5.269450607895092
1768736210892,130,2,3.3490653543167817,4.621983812041233,4.845258454340974
1768736210896,130,2,3.0915932511820503,4.603964032350241,4.575402124055689
1768736210900,130,2,3.1076184293898876,4.628839462160611,4.578133702589669
1768736210904,130,2,3.3650203269843924,4.673459717670214,4.821618690751192
1768736210908,131,3,3.718045785618756,5.441676511419887,5.16056857560358
1768736210912,131,3,4.011624547907219,5.5615816217171865,5.44042890469826
1768736210916,131,3,4.169568725733309,5.456733535866712,5.5854920977364095
1768736210920,131,3,4.203606220746731,5.657065676477991,5.607579664774454
1768736210924,131,3,4.15402792211866,5.4381842951257555,5.546366702948477
1768736210928,131,3,4.028160000124517,5.54127061762079,5.40821017797383
1768736210932,131,3,3.789246745783033,5.286832897942885,5.155900056548504
1768736210936,130,2,3.392169381914661,4.5602174158410795,4.744799778541661
1768736210940,130,2,2.8258166250552987,4.410992466742849,4.164778762804231
1768736210944,129,1,2.1286146468418297,3.4845928804874235,3.4549766800165607
1768736210948,128,0,1.3723732880624169,2.3623220754649026,2.687117122563044
1768736210952,128,0,0.6338112300291205,2.269252419400461,1.9370437251359292
1768736210956,127,-1,-0.0249523079145365,1.4494693569431083,1.265941757392925
1768736210960,126,-2,-0.5662590665938059,0.3198325696435002,0.7112989502129334
1768736210964,126,-2,-0.9871781283782736,0.4414813009387011,0.2766214667460502
1768736210968,126,-2,-1.323990143812617,0.2138401632860365,-0.0736257168813683
1768736210972,125,-3,-1.6362923214954712,-0.7416063938514768,-0.3985384130591445
1768736210976,125,-3,-1.973132987537356,-0.6892874005387739,-0.747246915864789
1768736210980,125,-3,-2.339060404952815,-0.7348653094570334,-1.125012127349427
1768736210984,124,-4,-2.683298088012825,-1.6471933014574027,-1.4816576154088388
1768736210988,124,-4,-2.9307660131386597,-1.890556939704883,-1.7419185883572492
1768736210992,124,-4,-3.0407480766296997,-1.781477644990332,-1.8645589974160224
1768736210996,124,-4,-3.041284002273153,-1.8299104249814369,-1.877538326118568
1768736211000,124,-4,-3.0040570185731026,-1.7496695315733657,-1.8528150563365813
1768736211004,124,-4,-2.9859205888896456,-1.8065558456558133,-1.847321748586019
1768736211008,124,-4,-2.9945041903805008,-1.907660657994926,-1.8685003392795243
1768736211012,124,-4,-3.0043720193405625,-1.9222755196301888,-1.890818176922911
1768736211016,124,-4,-2.998461108042841,-1.8694089745662268,-1.897312470439356
1768736211020,124,-4,-2.990456499836731,-1.857761939268496,-1.9016783646412012
1768736211024,124,-4,-3.008572611058985,-1.8872667768485485,-1.93193064541864
1768736211028,124,-4,-3.0590821998206827,-1.979023012133787,-1.994309400867092
1768736211032,124,-4,-3.1043513530965816,-2.0455424417883883,-2.051613055417585
1768736211036,124,-4,-3.077945042326844,-1.8876367182002232,-2.037835697018199
1768736211040,124,-4,-2.932003044282632,-2.0265862325090236,-1.9048257829653332
1768736211044,124,-4,-2.683149740416781,-1.8740085488358584,-1.6684483847724767
1768736211048,125,-3,-2.411312495629352,-1.168595017860591,-1.4084628597923956
1768736211052,125,-3,-2.197632016068503,-1.0375031858455497,-1.206666505668677
1768736211056,125,-3,-2.0524516994697555,-1.0422153768937852,-1.07384025336093
1768736211060,125,-3,-1.9095641524604228,-1.0665930202187095,-0.9433313635614252
1768736211064,125,-3,-1.6997034089930576,-0.9781116527473176,-0.7453428300732847
1768736211068,126,-2,-1.4281267501802928,-0.270049988888303,-0.4854684727265006
1768736211072,126,-2,-1.1755724350770564,-0.0730448580706681,-0.2451978314036598
1768736211076,126,-2,-1.0266594845235115,-0.1990072815614914,-0.1091621798030049
1768736211080,126,-2,-1.0018354772405038,-0.0602128039410585,-0.0969943102286077
1768736211084,126,-2,-1.0520846648321107,-0.1736370964450255,-0.1590594030050693
1768736211088,126,-2,-1.107119665355843,-0.255498449312646,-0.2253094424389017
1768736211092,126,-2,-1.1266384594895558,-0.2346989846817937,-0.2561829079710174
1768736211096,126,-2,-1.115488967715461,-0.2265291342841742,-0.2570598964083928
1768736211100,126,-2,-1.1010166180662413,-0.1772636125063904,-0.2552473460339399
1768736211104,126,-2,-1.100890403480392,-0.2598148295169062,-0.2678960999905984
1768736211108,126,-2,-1.1113492682185178,-0.3339338990256557,-0.2906429880026966
1768736211112,126,-2,-1.1205499706689772,-0.3273686002577687,-0.3114276496563049
1768736211116,126,-2,-1.1256868120854433,-0.3002868172510418,-0.3277935347877205
1768736211120,126,-2,-1.133034641718337,-0.270223614285638,-0.34661325113876
1768736211124,126,-2,-1.1443055815137977,-0.3522206869194777,-0.3699127094455328
1768736211128,126,-2,-1.1502755411120995,-0.4199601888264066,-0.3882854670968978
1768736211132,126,-2,-1.142394506791842,-0.4069655555346276,-0.3927651023257255
1768736211136,126,-2,-1.1287931904882231,-0.3906658169449546,-0.3912016481163478
1768736211140,126,-2,-1.1329422350174136,-0.3483931896031027,-0.4070492971156483
1768736211144,126,-2,-1.1706163520984831,-0.452286587684255,-0.4562628282210736
1768736211148,126,-2,-1.2239045287468011,-0.5143589437383378,-0.5211939904959726
1768736211152,126,-2,-1.236703802547377,-0.4554186824804622,-0.5458942607128154
1768736211156,126,-2,-1.1404851115514507,-0.5495531541528349,-0.4616895702989136
1768736211160,126,-2,-0.894218230801784,-0.3077569495383754,-0.2272261899693459
1768736211164,127,-1,-0.5070206099523799,0.264121303316287,0.1484680244298273
1768736211168,127,-1,-0.0240526742689921,0.6542948885514237,0.6199125866222381
1768736211172,128,0,0.5093119214226018,1.1406074158855557,1.1413500635928262
1768736211176,128,0,1.0676741219546484,1.743793437269665,1.6874309495701505
1768736211180,129,1,1.6293055883996406,2.18045655721821,2.2369697124650143
1768736211184,129,1,2.1426282353938753,2.6167372067111137,2.7388174162550634
1768736211188,130,2,2.5185311512559694,3.120401095029637,3.1034939608302663
1768736211192,130,2,2.6706095618824013,3.4814022432530187,3.243745551704011
1768736211196,130,2,2.5714742184919124,3.2730924427127555,3.1320865572290346
1768736211200,129,1,2.2655779507051124,2.4282507977966343,2.8139724225957155
1768736211204,129,1,1.8242805282896288,2.2271058104062975,2.3614994983125204
1768736211208,129,1,1.2979323656588635,2.2937582330156694,1.8244231107236544
1768736211212,128,0,0.7152319901745023,1.1644866370787437,1.2304658211531336
1768736211216,127,-1,0.1086952521613939,0.408299632218533,0.612105094731989
1768736211220,127,-1,-0.4843084480186722,0.128415857632695,0.0071895322916573
1768736211224,126,-2,-1.0483533074910951,-0.6804571396274302,-0.5689341798511371
1768736211228,126,-2,-1.6072163089802909,-0.9618239919547182,-1.140375774674261
1768736211232,125,-3,-2.210670910209754,-1.760335396771448,-1.7564667386502233
1768736211236,124,-4,-2.9003959398405015,-2.820133075072926,-2.457918691861096
1768736211240,124,-4,-3.6698976350892822,-2.84641001767688,-3.2380520609054892
1768736211244,123,-5,-4.435134315085511,-3.8648056033721625,-4.013723928899518
1768736211248,122,-6,-5.046471044481841,-5.0071421574809225,-4.636174223317873
1768736211252,122,-6,-5.359851077989039,-4.816268885361528,-4.961376802944239
1768736211256,122,-6,-5.329228785838183,-4.995231139527118,-4.942823315862771
1768736211260,122,-6,-5.046094288554982,-4.811985713301345,-4.671780167305898
1768736211264,123,-5,-4.687568668096412,-4.097014034629477,-4.325623697275052
1768736211268,123,-5,-4.4090120823282195,-3.985059127630497,-4.0599601413807545
1768736211272,123,-5,-4.262304261725946,-3.949836241778721,-3.926162846229865
1768736211276,123,-5,-4.1972864638758836,-4.11356254757794,-3.872802491114008
1768736211280,123,-5,-4.129454524439776,-3.793688907036562,-3.814333198929649
1768736211284,124,-4,-4.005945961533614,-3.384921140306089,-3.698244130300607
1768736211288,123,-5,-3.82520216118246,-3.80299330210868,-3.525348039362731
1768736211292,124,-4,-3.620136905771052,-3.358468190754465,-3.3324843487470073
1768736211296,124,-4,-3.4300240124581136,-2.8420750813366507,-3.161786260982394
1768736211300,124,-4,-3.2633331730461994,-3.2695465258351977,-3.019458846870007
1768736211304,124,-4,-3.030845815947469,-3.1071966573387835,-2.807840669960105
1768736211308,125,-3,-2.426970254479908,-2.2200363325193333,-2.21217412764471
1768736211312,127,-1,-0.7925820874978942,-0.1739101224644237,-0.571790920720848
1768736211316,131,3,2.882028664118497,3.87682617211582,3.1138928760403433
1768736211320,137,9,9.587438183150454,9.7640243008308,9.821459920246143
1768736211324,146,18,19.51942733618909,18.727379082013876,19.737454699004736
1768736211328,158,30,31.282363232201146,30.73621096182224,31.467408917132406
1768736211332,169,41,41.75142909075963,41.712286378632875,41.89667570020911
1768736211336,175,47,47.0357424813897,47.795678286168354,47.14768345959363
1768736211340,173,45,44.24676948049444,45.64897350939969,44.342062103085475
1768736211344,161,33,33.08553576789429,33.57599354131425,33.18354260673705
1768736211348,143,15,16.223591873948536,15.705900202467951,16.337442221100453
1768736211352,125,-3,-1.823403010320039,-2.4725968849163547,-1.6936036276695248
1768736211356,110,-18,-16.66741340790369,-17.09186006319996,-16.53523255880154
1768736211360,102,-26,-25.724658843768474,-25.62584736108578,-25.610361652061105
1768736211364,99,-29,-28.76949463048759,-28.261652611120564,-28.689050460506852
1768736211368,101,-27,-27.323961922865877,-26.68101140812129,-27.280725814057753
1768736211372,104,-24,-23.500928370709616,-23.276035513616684,-23.484826303680983
1768736211376,108,-20,-19.04951624515934,-19.472411011835245,-19.043895649177337
1768736211380,112,-16,-14.984759012740376,-15.454787696236703,-14.976772991043417
1768736211384,116,-12,-11.694189328555494,-11.58567540799147,-11.682142300965108
1768736211388,119,-9,-9.193565471355717,-8.614485328260216,-9.185989339008776
1768736211392,120,-8,-7.324804680915464,-7.472245367087388,-7.332310457443582
1768736211396,121,-7,-5.890169104798138,-6.513600747706761,-5.917520382817664
1768736211400,123,-5,-4.755193969130913,-4.531183421587907,-4.800047013731325
1768736211404,124,-4,-3.883752986478356,-3.7376620335807775,-3.9410976536512345
1768736211408,124,-4,-3.2764867207203294,-3.6232006430435897,-3.3432487667972097
1768736211412,125,-3,-2.87499197590347,-2.662162981466772,-2.9513876544545825
1768736211416,125,-3,-2.534098871939033,-2.5027113505191725,-2.6221779895401056
1768736211420,125,-3,-2.1014873545262436,-2.722825567804663,-2.2029707135713172
1768736211424,126,-2,-1.5397556924349065,-1.7278395106978772,-1.6550400113357018
1768736211428,127,-1,-0.9713971366489058,-0.8177783726003716,-1.099992439975196
1768736211432,127,-1,-0.5859450991620185,-0.664406556512386,-0.7271133606039681
1768736211436,127,-1,-0.4806241970635238,-0.6607479866258235,-0.633558391456285
1768736211440,127,-1,-0.5734318395683757,-0.7823723828688234,-0.7375354306015485
1768736211444,127,-1,-0.6608064667179926,-0.8240655434323436,-0.8361951138892598
1768736211448,127,-1,-0.5690594538016271,-0.9394786668654876,-0.7565904823515321
1768736211452,127,-1,-0.2790163156658154,-0.6959495834229052,-0.4797308860902118
1768736211456,128,0,0.0726880745560958,0.1682538625081342,-0.1418668369051277
1768736211460,128,0,0.3147523199010318,0.2252870661235109,0.0864217069032635
1768736211464,128,0,0.3823308644763238,-0.0518249434477011,0.1410819944359467
1768736211468,128,0,0.3616043784309679,0.1292116685568931,0.1086117520275946
1768736211472,128,0,0.4122301008426501,0.0149824896257051,0.1481097677170391
1768736211476,128,0,0.6451537907671689,0.3105093368634204,0.3695083960045995
1768736211480,129,1,1.054057962489773,0.8780697052842887,0.7658325499758449
1768736211484,129,1,1.5390775460999715,1.1190533489759815,1.23718470857433
1768736211488,130,2,1.9871245097006465,1.7592471167346222,1.6708707630614024
1768736211492,130,2,2.3385147250575367,2.194964072422077,2.008033739229356
1768736211496,130,2,2.5908568148470468,1.9554587550822111,2.247401049436277
1768736211500,130,2,2.7538542425027797,2.0360586286038185,2.3990011931905015
1768736211504,131,3,2.8215714724797154,2.7903943330974466,2.4555538056767507
1768736211508,131,3,2.8031342322694948,2.8693662217861675,2.4244683320769966
1768736211512,130,2,2.7628566162965713,1.9284957351399887,2.370140404911311
1768736211516,130,2,2.792889881768946,2.0081708994041785,2.3862935595213637
1768736211520,131,3,2.932991114008858,2.8234548967843507,2.5134002115216374
1768736211524,131,3,3.1320022386891155,2.7867649502302037,2.699507661098258
1768736211528,131,3,3.294892137330731,2.7078408207827875,2.848939632787056
1768736211532,131,3,3.3597785274644116,2.8904390255329746,2.900249160774959
1768736211536,131,3,3.333762899668089,2.8603489240051294,2.86110851973491
1768736211540,131,3,3.2727470942344556,2.7752797717217237,2.7872608145160065
1768736211544,131,3,3.233975939206347,2.6527906586797876,2.7354528507540783
1768736211548,131,3,3.2372186247029533,2.64886422253521,2.7252767902358492
1768736211552,131,3,3.2597514277236637,2.773789348678692,2.734169581658935
1768736211556,131,3,3.2664755205702405,2.7723510293578864,2.7272383613304783
1768736211560,131,3,3.2469171686307927,2.6795301376380785,2.694150303148891
1768736211564,131,3,3.223341736372396,2.5563727793771767,2.657189178362251
1768736211568,131,3,3.223253999881309,2.5565800737990334,2.643626463269489
1768736211572,131,3,3.2467773186888382,2.6833290437852972,2.653237666657525
1768736211576,131,3,3.263350994308476,2.666008279777563,2.6555049691137587
1768736211580,131,3,3.240499201427313,2.5939949229608494,2.6185819886199138
1768736211584,131,3,3.1779917921295966,2.4600956526698377,2.5427930694786207
1768736211588,131,3,3.1208326797783426,2.444604392291549,2.472822909425314
1768736211592,131,3,3.141681567323595,2.635053618449749,2.480417963425994
1768736211596,131,3,3.296679708759384,2.4893257305637304,2.6213110413471155
1768736211600,131,3,3.5734985623624733,2.613157762243549,2.8835719812036036
1768736211604,132,4,3.871194278930534,3.220224573061653,3.166606605336426
1768736211608,132,4,4.044807109093659,3.5163320643683686,3.3253836301402515
1768736211612,132,4,3.990983557451048,3.3587425216000666,3.2568518110810434
1768736211616,131,3,3.701382744081151,2.585005054900916,2.953544198815152
1768736211620,131,3,3.2422943978078753,2.308103245879616,2.4818486030218914
1768736211624,131,3,2.6970209636507536,2.3446951728440997,1.92364358844032
1768736211628,130,2,2.127238031506959,1.1945205630899691,1.3392159974906388
1768736211632,129,1,1.5609641892701671,0.5010273380148345,0.7570157221096823
1768736211636,129,1,0.9895146730015651,0.2541370135605163,0.1699918096441326
1768736211640,128,0,0.3810335123761029,-0.5791995775520444,-0.4528703167277168
1768736211644,128,0,-0.2769143116271608,-0.9372696013091142,-1.1245535301273488
1768736211648,127,-1,-0.9345806855920488,-1.731427435842991,-1.7961027517685055
1768736211652,126,-2,-1.48770944041181,-2.7393177781932616,-2.3634129499905407
1768736211656,126,-2,-1.8419193970026384,-2.7232723290030245,-2.7320255714939705
1768736211660,126,-2,-1.9779586560678024,-2.779544005979224,-2.8829215784555196
1768736211664,126,-2,-1.960321368388166,-2.955841609292994,-2.8807352107397897
1768736211668,126,-2,-1.889740090252326,-2.861841518171725,-2.8257421614648557
1768736211672,126,-2,-1.844726407443305,-2.8322467971781684,-2.7958220952706316
1768736211676,126,-2,-1.8506551736180228,-2.8091716921508105,-2.816262658691167
1768736211680,126,-2,-1.8860021283044437,-2.907754898096634,-2.865967384798431
1768736211684,126,-2,-1.9140940531538924,-3.0167095838592575,-2.9086520804767044
1768736211688,126,-2,-1.916573300925435,-2.9760546082236212,-2.926073373729812
1768736211692,126,-2,-1.9040686139326983,-2.9199318810204957,-2.9288571630676072
1768736211696,126,-2,-1.8984552616978705,-2.9141703460471184,-2.9388012476706153
1768736211700,126,-2,-1.907860946443632,-3.010590497650699,-2.9637563085131795
1768736211704,126,-2,-1.9212333253057827,-3.102833416388159,-2.9923390204167415
1768736211708,126,-2,-1.9252080792920157,-3.0739530772763697,-3.0112322658917634
1768736211712,126,-2,-1.9204580815691903,-3.0153511286287067,-3.0216177194619167
1768736211716,126,-2,-1.9185323891597368,-3.0190559593028796,-3.0354189512599277
1768736211720,126,-2,-1.926408486494529,-3.107665699122167,-3.059254063870295
1768736211724,126,-2,-1.9395226959168783,-3.198867692667169,-3.087774653806921
1768736211728,126,-2,-1.9492681801293308,-3.1643586264044012,-3.1121980807785814
1768736211732,126,-2,-1.9513800105031984,-3.115350647293009,-3.1291741883494213
1768736211736,126,-2,-1.945048597982336,-3.124088705826793,-3.1390096737473474
1768736211740,126,-2,-1.9310635852351823,-3.198462232951657,-3.142397363516377
1768736211744,126,-2,-1.9191565810541955,-3.307758390823611,-3.147527517033139
1768736211748,126,-2,-1.933053140712517,-3.242253566012497,-3.1766369956236176
1768736211752,126,-2,-1.990127171773473,-3.2229377891880464,-3.247395094821666
1768736211756,126,-2,-2.060526344581764,-3.235701495600501,-3.3319514590327444
1768736211760,126,-2,-2.054086850666602,-3.2571113565127163,-3.3417963488503286
1768736211764,126,-2,-1.8799963423433217,-3.486433170502627,-3.1856483661561743
1768736211768,126,-2,-1.550312861127236,-3.207735490984563,-2.8736420311336186
1768736211772,127,-1,-1.222823053351263,-2.4914102082715868,-2.5624556278866732
1768736211776,127,-1,-1.1067628698073355,-2.1363492377194504,-2.461962115548653
1768736211780,127,-1,-1.2905040916787764,-2.568611003619689,-2.661544808834281
1768736211784,126,-2,-1.6507954201937411,-3.3855321788275052,-3.0379174499273383
1768736211788,126,-2,-1.938847563932972,-3.476431494558634,-3.341639199957685
1768736211792,126,-2,-1.968779678546888,-3.458258724514554,-3.38684176204484
1768736211796,126,-2,-1.7414278332163358,-3.3144903198864206,-3.175315789713519
1768736211800,127,-1,-1.407590815107128,-2.62470541856009,-2.8588158393178116
1768736211804,127,-1,-1.1236293859837625,-2.501982131275203,-2.5935174022088097
1768736211808,127,-1,-0.9375997338899704,-2.57743342644776,-2.4259059013814337
1768736211812,127,-1,-0.7968444395020322,-2.5588755028872407,-2.3016065772689416
1768736211816,127,-1,-0.6393668956508743,-2.3921927165778234,-2.1586198047848164
1768736211820,128,0,-0.4532017076399179,-1.7636341245610634,-1.9870095559372052
1768736211824,128,0,-0.2445684508059706,-1.533504853945388,-1.7949779805619182
1768736211828,128,0,0.022668636235606,-1.766024840794303,-1.5461544519213817
1768736211832,128,0,0.4196789523586473,-1.5720296905445563,-1.1674415399642522
1768736211836,129,1,0.9759352146229312,-0.5586679409184017,-0.6281556703771773
1768736211840,130,2,1.6251231724585709,0.1745953061670828,0.0048490393276328
1768736211844,130,2,2.2374938964769826,0.3849345309833083,0.600716474165143
1768736211848,131,3,2.70362856226164,1.064892727858842,1.0495977255524809
1768736211852,131,3,2.9898041744279222,1.4245652679332257,1.3180754983761966
1768736211856,131,3,3.122412954641684,1.2225283269519536,1.433157136540551
1768736211860,131,3,3.123442539232136,1.1992024445321254,1.4172504618603874
1768736211864,131,3,2.9623510081760607,1.1992594700705408,1.2394739597992626
1768736211868,131,3,2.5779686628917133,1.000288386207142,0.8377588276335359
1768736211872,130,2,1.952541913946178,0.3363669050674831,0.1941288409147619
1768736211876,129,1,1.1570452154271271,-0.9423393266268824,-0.6193910236455817
1768736211880,128,0,0.3154088939607858,-1.7981569173006022,-1.4778593348607592
1768736211884,128,0,-0.471765100471289,-2.0020747865706072,-2.281232128108833
1768736211888,127,-1,-1.1651150736455052,-3.0114285617696854,-2.991677717735332
1768736211892,126,-2,-1.7663236278404648,-3.8293351807945406,-3.611435485762722
1768736211896,126,-2,-2.2853384272138557,-4.009667521164593,-4.14942770768314
1768736211900,125,-3,-2.7320106963829205,-4.906157247361923,-4.614239931519925
1768736211904,125,-3,-3.1215534292138254,-5.105234643076947,-5.0209827044132025
1768736211908,125,-3,-3.467609601528047,-5.093302320303318,-5.384190325102079
1768736211912,124,-4,-3.764408659779808,-5.957637735205716,-5.698703782475864
1768736211916,124,-4,-3.984674026046152,-6.091112466483401,-5.936963459634152
1768736211920,124,-4,-4.103884766221771,-6.010971921406118,-6.073956681887853
1768736211924,124,-4,-4.127242625950744,-6.218892700932691,-6.114980801100531
1768736211928,124,-4,-4.09272503579522,-6.148599841797111,-6.098597859554788
1768736211932,124,-4,-4.050334062727844,-6.12605541869509,-6.075234227418922
1768736211936,124,-4,-4.036038722813602,-6.123948611068202,-6.080550316869282
1768736211940,124,-4,-4.056884266694468,-6.175868642121368,-6.120365946586444
1768736211944,124,-4,-4.093522093985361,-6.264099750943037,-6.173792838801427
1768736211948,124,-4,-4.11611915281955,-6.278136607719174,-6.210646848612486
1768736211952,124,-4,-4.1039485406316984,-6.223311840708089,-6.212409863362203
1768736211956,124,-4,-4.060978707595851,-6.211632958102569,-6.187291512436363
1768736211960,124,-4,-4.0211316431090225,-6.315507207960135,-6.172381102871684
1768736211964,124,-4,-4.025620613086815,-6.295167027125482,-6.207180920693092
1768736211968,124,-4,-4.040302471690118,-6.469021809563898,-6.250151013662256
1768736211972,124,-4,-3.798575282865589,-6.213515356176813,-6.026004982554663
1768736211976,126,-2,-2.633775001593005,-4.450096562352056,-4.8651720027729155
1768736211980,129,1,0.5238522905007708,-1.2565106396120722,-1.7044240534671091
1768736211984,135,7,6.781166805159611,4.44038489197856,4.550623479482307
1768736211988,144,16,16.527201417262017,13.619659732448143,14.278619500138916
1768736211992,156,28,28.635288249836428,25.49009103924883,26.351088733518495
1768736211996,168,40,40.2291248332295,37.63552701644328,37.899367368312944
1768736212000,176,48,47.4501993730116,45.46017566466672,45.07763112314997
1768736212004,176,48,47.05603283580648,45.47398718399335,44.65471252803131
1768736212008,167,39,38.0375615773524,36.377068777664945,35.626414334894186
1768736212012,150,22,22.28755067214119,19.45513658409993,19.881856622008883
1768736212016,131,3,3.8713635136903335,0.4811209984746192,1.4753905588314495
1768736212020,115,-13,-12.69098496451998,-15.558285181641596,-15.086805704118492
1768736212024,104,-24,-24.155642208043503,-26.645388169297547,-26.570305244980755
1768736212028,99,-29,-29.438755208511036,-31.641392251796315,-31.89027878468392
1768736212032,99,-29,-29.41931649688091,-31.74417706345531,-31.914768655891457
1768736212036,102,-26,-26.04194006720325,-28.53434933793161,-28.57475945739571
1768736212040,107,-21,-21.32755057885148,-23.77714259709173,-23.883292403415545
1768736212044,111,-17,-16.73556439139763,-19.61581553622947,-19.30112768692123
1768736212048,115,-13,-12.99285968914262,-15.883375099443386,-15.56317532563193
1768736212052,118,-10,-10.245249410339197,-12.716621124926558,-12.82429565860529
1768736212056,120,-8,-8.314709821399195,-10.804871898917224,-10.91117135946194
1768736212060,121,-7,-6.926913758937551,-9.702551722434658,-9.547719662985802
1768736212064,122,-6,-5.869714357168709,-8.875303685071962,-8.516148131833265
1768736212068,123,-5,-5.062667031070712,-7.81369181839515,-7.731596307616052
1768736212072,124,-4,-4.5143727852619255,-6.991558247084545,-7.202375019971018
1768736212076,124,-4,-4.2035566245257,-6.772535383105102,-6.909451666168087
1768736212080,124,-4,-3.9977828618212303,-6.911028250466377,-6.721963589849622
1768736212084,124,-4,-3.7004175981383622,-6.892577581637307,-6.443338393549023
1768736212088,125,-3,-3.186664131012125,-5.942376664070481,-5.948774122867853
1768736212092,126,-2,-2.496662366395105,-5.125851731474008,-5.279034278221582
1768736212096,126,-2,-1.8027088961391335,-4.808021417769732,-4.606616801986061
1768736212100,127,-1,-1.2895599583517077,-4.121177154765281,-4.115248673345409
1768736212104,127,-1,-1.046751091199653,-3.8528144583516273,-3.8929711576242902
1768736212108,127,-1,-1.0368822211046012,-4.184390264023124,-3.901788763816901
1768736212112,127,-1,-1.1359411509478856,-4.119974853650837,-4.018540255958446
1768736212116,127,-1,-1.2002277146360991,-3.9795612180663142,-4.101126918836814
1768736212120,127,-1,-1.119164249993698,-4.22324662761568,-4.0399848415727035
1768736212124,127,-1,-0.8442490333599577,-3.869290918643681,-3.7863003630647505
1768736212128,128,0,-0.4003142460992842,-3.4231497993365534,-3.363818832539309
1768736212132,128,0,0.1240461998707581,-3.07246826950544,-2.8603592365216173
1768736212136,129,1,0.6137685098704677,-2.2265223476263727,-2.3909485842977487
1768736212140,129,1,0.9806398895281928,-2.2336425756179294,-2.044092305603901
1768736212144,129,1,1.202442451593011,-1.9827877856775973,-1.842142136846908
1768736212148,130,2,1.3246049411716418,-1.5829018003421291,-1.739626528890004
1768736212152,129,1,1.4276767148280316,-2.06999077083661,-1.656095493239818
1768736212156,130,2,1.585628787029067,-1.4804923942460064,-1.51800814852957
1768736212160,130,2,1.84041653285886,-1.1696194007385747,-1.2838386864951317
1768736212164,130,2,2.1983765750144384,-1.2331876320811808,-0.9470853352654584
1768736212168,131,3,2.635704753201488,-0.559196204583349,-0.5308367116908528
1768736212172,131,3,3.106215268498978,-0.2700069937896865,-0.0808173394323401
1768736212176,132,4,3.558344704321403,0.4524817301229635,0.351201651526027
1768736212180,132,4,3.958396871931215,0.7438879738760504,0.7311543368265556
1768736212184,132,4,4.298871813206102,0.6201820820844004,1.0514188013905876
1768736212188,133,5,4.582812328576501,1.401191852827397,1.3148592661307763
1768736212192,133,5,4.804498734660947,1.5591296264597876,1.5154426768571838
1768736212196,133,5,4.947583498095489,1.3802980629656254,1.6370247243993208
1768736212200,133,5,4.99701497953799,1.6471317602105726,1.6654770880078376
1768736212204,133,5,4.952299334336263,1.5005964319117902,1.6009316570145158
1768736212208,133,5,4.839018209105034,1.3072166191568737,1.4682869986981304
1768736212212,133,5,4.713489316886792,1.4772329168255238,1.3224345754873847
1768736212216,133,5,4.643434253288144,1.180132124086879,1.2306197555160647
1768736212220,132,4,4.65870948147253,0.7245127149526844,1.2237797743982002
1768736212224,133,5,4.709256031003601,1.1491622054065895,1.2530787818891929
1768736212228,133,5,4.688875190171879,1.513882027337194,1.2122753987930324
1768736212232,133,5,4.526209918090836,1.018053682286983,1.0292422085495474
1768736212236,132,4,4.258465833703459,0.4329736785291178,0.7409142757912099
1768736212240,132,4,4.007244907691814,0.2851242685824595,0.4690470999883112
1768736212244,132,4,3.877009698831422,0.3395611781013263,0.317975593672021
1768736212248,132,4,3.871091290391035,0.1892986202014923,0.2907805793416971
1768736212252,132,4,3.8929362449963256,0.0541898660171544,0.2910133730397186
1768736212256,132,4,3.8239109130481417,0.2629209625827085,0.2003195074138433
1768736212260,132,4,3.614335333144354,0.1643321724963184,-0.0307406385818116
1768736212264,131,3,3.314518351867675,-0.6706918792560694,-0.3514539132429823
1768736212268,131,3,3.0179495957075995,-1.069805299700061,-0.6680854051543035
1768736212272,131,3,2.7705560496095982,-0.8364867869485719,-0.9354353723475292
1768736212276,131,3,2.534624398246314,-1.11545982788716,-1.1925463680969726
1768736212280,130,2,2.231809196831714,-1.6192210018994917,-1.5180450180832543
1768736212284,130,2,1.8049309589769789,-2.1226125873516,-1.9677589680581875
1768736212288,129,1,1.239101313634788,-2.8122388748605416,-2.5551673045636454
1768736212292,129,1,0.5500812902802547,-3.303278618417506,-3.264667216023315
1768736212296,128,0,-0.2203950323268626,-3.885662720126072,-4.05568930170648
1768736212300,127,-1,-0.9987165378691768,-5.008899894140227,-4.855043080391495
1768736212304,126,-2,-1.692986869600642,-5.998174822549819,-5.57028929176578
1768736212308,126,-2,-2.231013529442563,-6.077338506601263,-6.129176793379544
1768736212312,126,-2,-2.589136941822818,-6.321027810431811,-6.508915208647664
1768736212316,125,-3,-2.792905894332402,-7.019803724489574,-6.735415932794402
1768736212320,125,-3,-2.9068946805880307,-7.113220555301073,-6.872269649807831
1768736212324,125,-3,-3.0214652505005413,-7.0936052727361965,-7.008737931136133
1768736212328,125,-3,-3.2159145572068506,-7.182925792084834,-7.224209157365691
1768736212332,125,-3,-3.5001233981232738,-7.458326497057401,-7.52929993095694
1768736212336,124,-4,-3.786973714534632,-8.050368482804727,-7.837068580248966
1768736212340,124,-4,-3.939318995392274,-8.329156069633804,-8.010184880807916
1768736212344,124,-4,-3.8612321251536903,-8.058463879070992,-7.953217372903738
1768736212348,125,-3,-3.556108808693446,-7.442299584934754,-7.670446816034201
1768736212352,125,-3,-3.114466670845378,-7.412269986794801,-7.252173234703608
1768736212356,125,-3,-2.662200736480611,-7.280683682895037,-6.822820604660131
1768736212360,126,-2,-2.309631633355123,-6.348320419385655,-6.491759805137342
1768736212364,126,-2,-2.1117073564172877,-6.21080933583413,-6.314573202648917
1768736212368,126,-2,-2.048924139483951,-6.543694470765874,-6.2728807794580455
1768736212372,126,-2,-2.0510896116662565,-6.47944207605292,-6.296792932740239
1768736212376,126,-2,-2.055935359921717,-6.44985077790539,-6.32371608007919
1768736212380,126,-2,-2.051207595247176,-6.381651621219359,-6.34119867583278
1768736212384,126,-2,-2.061811086287771,-6.3846409702227245,-6.374111629484921
1768736212388,126,-2,-2.101465399349793,-6.587413369187407,-6.435993609545793
1768736212392,126,-2,-2.14001565386656,-6.637677976617872,-6.49645666778998
1768736212396,126,-2,-2.1152888154773404,-6.502989091608489,-6.493311074768148
1768736212400,126,-2,-1.977029027047201,-6.554621855784132,-6.376499398380746
1768736212404,126,-2,-1.727449755383129,-6.398544497809996,-6.1485794487319065
1768736212408,127,-1,-1.42668859516818,-5.8045878166420835,-5.870144733711896
1768736212412,127,-1,-1.1583191472926706,-5.613347986642402,-5.624948384884243
1768736212416,127,-1,-0.9844706822728228,-5.744875027240013,-5.474504634140303
1768736212420,127,-1,-0.926634231501894,-5.543829505856186,-5.439179151822745
1768736212424,127,-1,-0.975133057405665,-5.581660495356814,-5.508787836977214
1768736212428,127,-1,-1.0999280300048793,-5.888510525045156,-5.65412133551992
1768736212432,127,-1,-1.2476060307144188,-5.66719089061398,-5.823239940688764
1768736212436,127,-1,-1.3447487778433658,-5.970819849404696,-5.9433133297063705
1768736212440,126,-2,-1.33442232697179,-6.4822715199137875,-5.956505089617441
1768736212444,127,-1,-1.2301034142197176,-5.882720679549748,-5.875051808313734
1768736212448,127,-1,-1.1284143958727246,-5.790827589178533,-5.795446368369041
1768736212452,127,-1,-1.147188373255699,-5.957566074691939,-5.8363972675643145
1768736212456,127,-1,-1.334361460719009,-5.920463760768522,-6.046390172980365
1768736212460,126,-2,-1.6314268575894153,-6.711911534197505,-6.36640456216888
1768736212464,126,-2,-1.92305428353886,-6.923270144507162,-6.680222985026939
1768736212468,126,-2,-2.1196147432270687,-6.890160890488903,-6.898111867060566
1768736212472,126,-2,-2.19411172493247,-7.134940338879802,-6.993973151608202
1768736212476,126,-2,-2.1528043101605654,-6.880643056276042,-6.975074158016148
1768736212480,126,-2,-1.9909644087437175,-7.027552475367072,-6.836855537439659
1768736212484,126,-2,-1.6923167400249053,-6.7956971664584085,-6.562273527707283
1768736212488,127,-1,-1.271251386971499,-6.230970479650307,-6.16469201676664
1768736212492,127,-1,-0.8006855343350762,-6.015537214967061,-5.7165318720582174
1768736212496,128,0,-0.3771315038516845,-5.174249735925568,-5.314640312212947
1768736212500,128,0,-0.0409638107242377,-4.992095180043461,-5.000192513332855
1768736212504,128,0,0.2727091645342758,-5.016535089884076,-4.708869517049575
1768736212508,129,1,0.6917484534478395,-4.256634686697804,-4.3127515060329955
1768736212512,129,1,1.2936835685617547,-4.153754375417445,-3.733866687316392
1768736212516,130,2,2.014926096050957,-3.2886031121386843,-3.0356056729135195
1768736212520,131,3,2.667320779687985,-2.0390543953539613,-2.4063819134902733
1768736212524,131,3,3.054716663170382,-2.245979834973162,-2.0424985761115058
1768736212528,131,3,3.0898769126002343,-2.201036046942978,-2.030784218150752
1768736212532,131,3,2.8162936562874985,-2.4330666863660846,-2.327268420758807
1768736212536,130,2,2.3366073443643787,-3.230391820988057,-2.829434023587861
1768736212540,130,2,1.731038285528517,-3.280964514286257,-3.4574964497080716
1768736212544,129,1,1.0364394617836998,-4.253105911174526,-4.174620198038885
1768736212548,128,0,0.2834107661521181,-5.38203898699241,-4.950009443517175
1768736212552,128,0,-0.4614090993192348,-5.472138472447162,-5.717449697869201
1768736212556,127,-1,-1.0968799115511398,-6.399926969612715,-6.376578456905438
1768736212560,126,-2,-1.5457680855067708,-7.3273578161669795,-6.850029503253485
1768736212564,126,-2,-1.8307313530342215,-7.411478795090609,-7.159308133193084
1768736212568,126,-2,-2.0872183325115827,-7.454168246307944,-7.439064054015517
1768736212572,126,-2,-2.4678143729159734,-7.591306020945574,-7.84212511312105
1768736212576,125,-3,-3.005339191611295,-8.504565976208527,-8.401849982359415
1768736212580,124,-4,-3.5674126263008077,-9.43300078594145,-8.986201857368709
1768736212584,124,-4,-3.956892629641767,-9.525212401704492,-9.398568126258484
1768736212588,124,-4,-4.0717750905260885,-9.561515469109963,-9.537470409145566
1768736212592,124,-4,-3.989166376777128,-9.672862792769156,-9.47958378772632
1768736212596,124,-4,-3.911604555661573,-9.64634093538908,-9.42624415899833
1768736212600,124,-4,-4.018497662868225,-9.485655532502047,-9.556474334469492
1768736212604,124,-4,-4.327756637922625,-9.73268966193694,-9.889084470399244
1768736212608,123,-5,-4.673907736776337,-10.531024190047305,-10.259083949949735
1768736212612,123,-5,-4.833742562369241,-10.945389656526569,-10.442079380273626
1768736212616,123,-5,-4.704561300017358,-10.544914059369216,-10.333939417921234
1768736212620,124,-4,-4.379045264320274,-9.824033689922343,-10.028073116468311
1768736212624,124,-4,-4.054524862348861,-9.610897072680851,-9.72505567306948
1768736212628,124,-4,-3.875125038616628,-9.852552774112407,-9.572580048329216
1768736212632,124,-4,-3.8486101923212264,-9.865830727585818,-9.579187580632585
1768736212636,124,-4,-3.861015173414004,-9.797925169068488,-9.626737705924509
1768736212640,124,-4,-3.6811768156089455,-9.823265482105471,-9.475898453263824
1768736212644,125,-3,-2.8598978113912477,-8.80050277772767,-8.670646107423954
1768736212648,128,0,-0.5891728863622214,-5.874191198342231,-6.404043977196107
1768736212652,133,5,4.23725448821815,-1.071942502691856,-1.5800674512164727
1768736212656,140,12,12.522547175299014,6.243707748259213,6.691423547818385
1768736212660,151,23,24.09024341944745,16.876712552608236,18.22682231808136
1768736212664,164,36,36.96018707201231,30.327967298961624,31.04887066100698
1768736212668,176,48,47.48643072717045,41.76327888353447,41.522647868376424
1768736212672,180,52,51.63978274403199,46.055858098530294,45.63258464207789
1768736212676,176,48,46.9000329807648,41.90462785935697,40.86822861669779
1768736212680,162,34,33.662442284966836,27.89307956797504,27.62579232757948
1768736212684,142,14,15.253033029562443,8.122766523580141,9.22241912880484
1768736212688,124,-4,-3.505364670789959,-10.275948541630475,-9.533793881709736
1768736212692,109,-19,-18.33626970947639,-25.009087286469867,-24.379302039122155
1768736212696,101,-27,-27.018849012495185,-33.209116082143744,-33.097066052604724
1768736212700,99,-29,-29.68184375187153,-35.16367601856689,-35.80831529713025
1768736212704,100,-28,-28.015885522469148,-34.05637005644145,-34.189730388338646
1768736212708,104,-24,-24.105713687159913,-30.350303343287205,-30.314323233680955
1768736212712,108,-20,-19.58588421567623,-26.117787461222782,-25.81379298558346
1768736212716,112,-16,-15.395109911678537,-22.358971225584575,-21.63341251893848
1768736212720,116,-12,-11.94748438523484,-18.19608649320471,-18.197750583398975
1768736212724,119,-9,-9.377513676757594,-15.2885529730994,-15.648124059935896
1768736212728,120,-8,-7.665518426202846,-14.333877199187365,-13.964043152425784
1768736212732,121,-7,-6.668369443433041,-13.335996820637607,-12.996643956099115
1768736212736,122,-6,-6.150557908111339,-12.343493778527662,-12.50584240211822
1768736212740,122,-6,-5.8492894591307065,-12.436145044500009,-12.22858848314976
1768736212744,122,-6,-5.550559686360985,-12.246749599886533,-11.953207019734997
1768736212748,123,-5,-5.144319666176996,-11.627212835455808,-11.571383539213365
1768736212752,123,-5,-4.633632713234032,-11.212681886562232,-11.08608195839636
1768736212756,124,-4,-4.0915480749694755,-10.698584499881846,-10.569333164056475
1768736212760,124,-4,-3.5919468082286197,-10.278825733778907,-10.094519227133636
1768736212764,125,-3,-3.1596502205842096,-9.632908922087372,-9.686865315579036
1768736212768,125,-3,-2.772603825563172,-9.478002803592018,-9.324779179044947
1768736212772,125,-3,-2.410452993386056,-9.53368716152212,-8.987763518222403
1768736212776,126,-2,-2.099685903403924,-8.635798771520664,-8.701993874603769
1768736212780,126,-2,-1.8998134289740232,-8.481144416156123,-8.527048644732398
1768736212784,126,-2,-1.8340995411630931,-8.744915500541236,-8.486335929122372
1768736212788,126,-2,-1.835711675026245,-8.49320353893316,-8.512804667161804
1768736212792,126,-2,-1.7722116708399347,-8.810634933193235,-8.473759402427037
1768736212796,126,-2,-1.5339643820845847,-8.507789484476705,-8.259904629727195
1768736212800,127,-1,-1.1104132826310231,-7.839705303684965,-7.861569180147664
1768736212804,127,-1,-0.5912461208044393,-7.620630458679083,-7.36893964657896
1768736212808,128,0,-0.0978236508887714,-6.804829253670708,-6.902599310053803
1768736212812,128,0,0.2941324251984563,-6.747707574588887,-6.536588341011285
1768736212816,128,0,0.5860875049665406,-6.754996729057724,-6.26853556923921
1768736212820,129,1,0.8389613024094795,-5.811806232427541,-6.038620328165299
1768736212824,129,1,1.134999451720076,-5.876263461899794,-5.76675164878862
1768736212828,129,1,1.5353551351943744,-5.7533985692785645,-5.392766945883619
1768736212832,130,2,2.037016249914418,-5.020473157757162,-4.918657787651394
1768736212836,130,2,2.554037702017566,-4.689956428551637,-4.428635053698803
1768736212840,131,3,2.958491364676971,-4.083098491386665,-4.0498042497018325
1768736212844,131,3,3.172071603327831,-3.839120875449858,-3.86084802408833
1768736212848,131,3,3.239174069349052,-3.98267284645352,-3.818145342240584
1768736212852,131,3,3.310731834871139,-4.046646351543455,-3.771284871630687
1768736212856,131,3,3.540143196465543,-3.8202016137259776,-3.567159861679506
1768736212860,132,4,3.971784449122463,-3.227693497583355,-3.1616009663273794
1768736212864,132,4,4.51031623362867,-2.84069554448303,-2.6498885728319204
1768736212868,133,5,4.990029340966273,-2.2578728942685777,-2.197230492525823
1768736212872,133,5,5.285090886029891,-1.9450425339806925,-1.9287285790356912
1768736212876,133,5,5.377957603669466,-2.1590067158296185,-1.861435517645268
1768736212880,133,5,5.3449866035229245,-2.1058434064049343,-1.9191256488523392
1768736212884,133,5,5.286022843648698,-2.148500009039244,-2.002696572140822
1768736212888,133,5,5.2609499302061415,-2.2096595225750475,-2.0531213095532
1768736212892,133,5,5.274759781847536,-2.153529673939311,-2.065765075732312
1768736212896,133,5,5.303688078725039,-2.215857613338165,-2.0640453812648474
1768736212900,133,5,5.3268031178953406,-2.2228546244813345,-2.068133390678216
1768736212904,133,5,5.3371499389918435,-2.271112863034307,-2.0842820237104016
1768736212908,133,5,5.3346928096812904,-2.2932640503055772,-2.112272059714136
1768736212912,133,5,5.320316840139966,-2.280152228952552,-2.1515954012917304
1768736212916,133,5,5.301942074248522,-2.313908158060339,-2.1951805028486535
1768736212920,133,5,5.301746508107972,-2.325867887468522,-2.221591521436472
1768736212924,133,5,5.34369062672901,-2.393669552877238,-2.2068415308166967
1768736212928,133,5,5.4187203317386174,-2.38075912510634,-2.1591343885523804
1768736212932,133,5,5.4573971751852275,-2.405740334570381,-2.1470584469933636
1768736212936,133,5,5.349509307411451,-2.407232520540739,-2.280848581106194
1768736212940,133,5,5.012843140571217,-2.4392923981388703,-2.6434122734448304
1768736212944,132,4,4.455959653314371,-3.5003311334101426,-3.226585439752027
1768736212948,131,3,3.771703848838835,-4.492083189158454,-3.93734258992288
1768736212952,131,3,3.064716963827416,-4.50653171573379,-4.670862107603021
1768736212956,130,2,2.383162635379116,-5.518950585422729,-5.378984555483026
1768736212960,129,1,1.7125145846947318,-6.544087501146683,-6.076103406316731
1768736212964,129,1,1.0245528214307036,-6.589132513568297,-6.790319808624066
1768736212968,128,0,0.3316014662759223,-7.6501071593611405,-7.509578773748261
1768736212972,127,-1,-0.3038286184243055,-8.542570355137794,-8.171727348861033
1768736212976,127,-1,-0.8186880350911578,-8.708101210220082,-8.713613253750767
1768736212980,126,-2,-1.217590194413154,-9.558483969882252,-9.139463610229194
1768736212984,126,-2,-1.5890011457143205,-9.78834036695202,-9.537741477876608
1768736212988,126,-2,-2.0373297576898755,-9.669001221560224,-10.013179902044364
1768736212992,125,-3,-2.583371643395921,-10.742487097144243,-10.586292347278087
1768736212996,124,-4,-3.130650704124912,-11.722713824195887,-11.159625138494237
1768736213000,124,-4,-3.5355051537610303,-11.750804648937796,-11.589418628178484
1768736213004,124,-4,-3.7113769440818314,-11.81361321625603,-11.790831673592248
1768736213008,124,-4,-3.673667998983371,-11.861079617740277,-11.781008841792657
1768736213012,124,-4,-3.511113834015567,-11.74278061370218,-11.647997992989058
1768736213016,124,-4,-3.3353429539668493,-11.97420337070913,-11.50077852075524
1768736213020,124,-4,-3.239484680299332,-11.670600477167556,-11.430953615844826
1768736213024,125,-3,-3.2561053034801235,-11.157692092113791,-11.47231003716282
1768736213028,124,-4,-3.3253146846306576,-11.684337735521334,-11.56705798291937
1768736213032,124,-4,-3.323036666217624,-12.16192367100127,-11.591693610451925
1768736213036,124,-4,-3.159280913541142,-11.757020645251536,-11.455536223505169
1768736213040,125,-3,-2.8640485277308736,-11.10580527626391,-11.188217918300976
1768736213044,125,-3,-2.570540680905849,-10.9495880414811,-10.922893115620282
1768736213048,125,-3,-2.409621907652356,-11.066368421671717,-10.789742766160035
1768736213052,125,-3,-2.4137158386843316,-11.034150173955709,-10.820316104655888
1768736213056,125,-3,-2.5013532890600327,-11.071396981803296,-10.933432303717602
1768736213060,125,-3,-2.53632598685058,-11.04432194926829,-10.994230412945
1768736213064,125,-3,-2.4148347145371103,-11.189361251754342,-10.899769731861545
1768736213068,125,-3,-2.1314538778764645,-11.046228053235856,-10.644282194677752
1768736213072,126,-2,-1.782941473839715,-10.259854503571924,-10.32381603393342
1768736213076,126,-2,-1.5010113983178095,-10.075499846690516,-10.069754544904583
1768736213080,126,-2,-1.362857494833501,-10.257528614688246,-9.959112732364405
1768736213084,126,-2,-1.3525998301469515,-10.184298716723914,-9.97575587057483
1768736213088,126,-2,-1.3974399235062067,-10.25226608503981,-10.04690220239126
1768736213092,126,-2,-1.4327916422827522,-10.282016876226278,-10.108445444368645
1768736213096,126,-2,-1.4373241619091544,-10.25505863172917,-10.139616819999013
1768736213100,126,-2,-1.421979636723614,-10.315042083153202,-10.151601568414724
1768736213104,126,-2,-1.400618752267747,-10.31500110099541,-10.15817738581408
1768736213108,126,-2,-1.376253548765009,-10.342016750938178,-10.162067339083627
1768736213112,126,-2,-1.351397091305352,-10.40248775166128,-10.165278293006647
1768736213116,126,-2,-1.3423404673604369,-10.358203299891136,-10.183481589747144
1768736213120,126,-2,-1.3709693687308782,-10.420374406987952,-10.23830314708979
1768736213124,126,-2,-1.4308200212833324,-10.43334716499679,-10.32383551527908
1768736213128,126,-2,-1.458280102068756,-10.400794004988036,-10.37758279079069
1768736213132,126,-2,-1.3507974241635254,-10.603518775172088,-10.297733067914733
1768736213136,126,-2,-1.0387993187420634,-10.326342086054789,-10.014399662626126
1768736213140,127,-1,-0.5586346955219677,-9.717074165881884,-9.562865098290654
1768736213144,127,-1,-0.0517815066296989,-9.301176582569775,-9.08372832039968
1768736213148,128,0,0.3313861387018895,-8.762690159482453,-8.727296377231514
1768736213152,128,0,0.5552635563179531,-8.457751422104574,-8.529673978225802
1768736213156,128,0,0.7406626469922042,-8.674302270715149,-8.370482704595158
1768736213160,128,0,1.0738485598105614,-8.628178008264268,-8.063723687147062
1768736213164,129,1,1.6507348665686652,-7.540308102620194,-7.513879884337635
1768736213168,130,2,2.3867384075049647,-6.778139871786896,-6.80582588664312
1768736213172,130,2,3.062198766807946,-6.614401912199942,-6.158896205028111
1768736213176,131,3,3.45769510343347,-5.76025585108343,-5.791802145010198
1768736213180,131,3,3.4747708363147667,-5.77016288217126,-5.802484244837798
1768736213184,130,2,3.162681943805339,-6.584879950567047,-6.1413602824672395
1768736213188,130,2,2.645591697150875,-6.969593318089532,-6.684155139075225
1768736213192,129,1,2.022810571210817,-7.591642446406348,-7.332308220779084
1768736213196,129,1,1.3334501550176905,-8.046411970400438,-8.048290765876596
1768736213200,128,0,0.60178481704169,-8.666033682535776,-8.808574454069628
1768736213204,127,-1,-0.1149021712718044,-9.917548633249991,-9.554411384556634
1768736213208,126,-2,-0.7495068643294824,-10.83826697328912,-10.2164658013543
1768736213212,126,-2,-1.2878864856118415,-10.921062609395008,-10.780516955877196
1768736213216,126,-2,-1.7766215975369135,-10.963857607275449,-11.295397400315192
1768736213220,125,-3,-2.256354455333234,-11.930202810763555,-11.803098347580082
1768736213224,124,-4,-2.7099165826266423,-12.88568629822029,-12.284955791315433
1768736213228,124,-4,-3.09251246433421,-13.065407369952585,-12.694205626200324
1768736213232,124,-4,-3.3919755687262363,-12.9180504381075,-13.01927603497461
1768736213236,124,-4,-3.6333522278109993,-13.179479213500864,-13.287409814222386
1768736213240,123,-5,-3.836427454746518,-13.919542653574482,-13.51883395316182
1768736213244,123,-5,-4.001752460105765,-14.103128533657266,-13.712159644364602
1768736213248,123,-5,-4.143001815011289,-14.076389453610936,-13.879606262054232
1768736213252,123,-5,-4.3039320615879575,-14.104473785881972,-14.066037754552626
1768736213256,123,-5,-4.521433895317034,-14.2293498973162,-14.310529622021118
1768736213260,122,-6,-4.780276062122441,-15.034008821286289,-14.598311935918488
1768736213264,122,-6,-5.021104049710675,-15.25195876494415,-14.868173427803614
1768736213268,122,-6,-5.190259628589594,-15.094541903617904,-15.064091359759814
1768736213272,122,-6,-5.266661107185207,-15.349856665989076,-15.164019616994764
1768736213276,122,-6,-5.240715062353409,-15.15115757413561,-15.159633532741587
1768736213280,122,-6,-5.090469811107711,-15.321977727589156,-15.032556964488345
1768736213284,122,-6,-4.801496235649461,-15.209334728077192,-14.772964085349416
1768736213288,123,-5,-4.408413649465109,-14.301074774981451,-14.417389102813267
1768736213292,123,-5,-3.981289097461675,-14.433276765940702,-14.03106855385226
1768736213296,123,-5,-3.4958509440450363,-14.184645460974757,-13.579133537610566
1768736213300,125,-3,-2.605362139140626,-12.564883064294548,-12.706394695481492
1768736213304,127,-1,-0.4554748855985404,-10.13129798198165,-10.56060762507703
1768736213308,132,4,4.20173604532777,-5.625217230915922,-5.906694415452204
1768736213312,139,11,12.390456795043708,1.6972490018399815,2.264850138320986
1768736213316,150,22,23.932379913811324,12.506981126163694,13.76931008951209
1768736213320,163,35,36.7115448010171,25.50689692572453,26.495895542459557
1768736213324,174,46,46.913932566663846,36.6288582390196,36.643098845580255
1768736213328,179,51,50.46543465520183,41.317959558726045,40.14994987701294
1768736213332,173,45,45.0143384122723,35.56440528977183,34.673366522385095
1768736213336,158,30,31.264171180448127,20.34669102779251,20.917492227884964
1768736213340,139,11,12.785356858400077,1.445750733642308,2.4436234160146864
1768736213344,121,-7,-5.582979549756441,-16.48660467873313,-15.9248459540538
1768736213348,107,-21,-19.764182135782136,-30.762141700822653,-30.124706490496703
1768736213352,99,-29,-27.80125411004974,-38.4301133406335,-38.20149483483056
1768736213356,98,-30,-30.001975358528306,-39.90900079807584,-40.453550971617254
1768736213360,99,-29,-28.10040174102036,-38.47165356220981,-38.60037853404329
1768736213364,103,-25,-24.12811808471853,-34.85425796300101,-34.66282397717949
1768736213368,107,-21,-19.6390378165885,-30.581083393460705,-30.19323469058027
1768736213372,111,-17,-15.510020645538834,-26.828515170046693,-26.075668700145293
1768736213376,115,-13,-12.116722276885245,-22.72767928022033,-22.696300368883556
1768736213380,118,-10,-9.559710644906865,-19.86636881176635,-20.162227396658867
1768736213384,119,-9,-7.782859735468857,-18.724665759601955,-18.415830587675885
1768736213388,120,-8,-6.62709456312191,-17.859919565659446,-17.29137321212856
1768736213392,121,-7,-5.89186122423243,-16.801050059491427,-16.58346520599374
1768736213396,122,-6,-5.393048067231027,-15.899581153543892,-16.108744069168054
1768736213400,122,-6,-4.9846406343748875,-15.968981037801171,-15.724782845194024
1768736213404,122,-6,-4.565878142393293,-15.790980745015494,-15.332533673182702
1768736213408,123,-5,-4.104458014533639,-15.042586603097766,-14.898416954642965
1768736213412,123,-5,-3.648754255376927,-14.774004235203584,-14.468921365357732
1768736213416,124,-4,-3.282473615489567,-14.171016604854934,-14.127385889156333
1768736213420,124,-4,-3.0375511747969353,-13.867359031867371,-13.906753165546547
1768736213424,124,-4,-2.8446046739414217,-14.166906547359725,-13.738684889977508
1768736213428,124,-4,-2.578255285137393,-13.820692060063784,-13.498080362912734
1768736213432,125,-3,-2.1630430000690586,-13.246505105334409,-13.109057214009663
1768736213436,125,-3,-1.642751378824034,-12.848704002157469,-12.614683095979622
1768736213440,126,-2,-1.1467143700434916,-12.442355545690894,-12.14387676600459
1768736213444,126,-2,-0.7762491669173566,-11.782545894081196,-11.798259633865683
1768736213448,127,-1,-0.5057031019417377,-11.436075965907492,-11.552658196256898
1768736213452,126,-2,-0.1924841004031361,-11.82923761433419,-11.264257897587733
1768736213456,127,-1,0.2979871609432698,-11.444108313744549,-10.798069000289487
1768736213460,128,0,0.9643441638006522,-10.103234068941584,-10.15613000253024
1768736213464,129,1,1.6657296380683952,-9.26881171843922,-9.480481348166942
1768736213468,129,1,2.2404975433261023,-9.247874374912374,-8.932440057876729
1768736213472,129,1,2.621178791331893,-9.113698682232132,-8.577585135654468
1768736213476,130,2,2.8506189026526703,-8.474281802893604,-8.372002591252526
1768736213480,130,2,3.022778923858994,-8.191850712820399,-8.222727988077338
1768736213484,130,2,3.219674752581641,-8.462967790965127,-8.049349275780717
1768736213488,130,2,3.479227149294217,-8.210331551109494,-7.814533606700036
1768736213492,131,3,3.795347082825249,-7.370714995707849,-7.523974874946644
1768736213496,131,3,4.141509012385862,-7.429829953975361,-7.203455791765147
1768736213500,131,3,4.496293241396228,-7.432996405501858,-6.873646046512853
1768736213504,132,4,4.850567745399785,-6.448421453170511,-6.543281869383634
1768736213508,132,4,5.200057164522982,-6.412754464778823,-6.216878286165771
1768736213512,132,4,5.538096511940069,-6.387513572431288,-5.9018665095896
1768736213516,133,5,5.85242105335909,-5.598130848160588,-5.611438348607491
1768736213520,133,5,6.122196613033148,-5.502066340053174,-5.366848147577884
1768736213524,133,5,6.3118104828919686,-5.562414536441779,-5.202954122251191
1768736213528,133,5,6.365349595079766,-5.526905015004283,-5.174174912728103
1768736213532,133,5,6.221555809571365,-5.452217617501387,-5.341068037335425
1768736213536,133,5,5.863236172849455,-5.763110798028181,-5.72171847141174
1768736213540,132,4,5.369617501448708,-6.522930521655607,-6.2383150489908115
1768736213544,132,4,4.907580498118907,-6.776672053833542,-6.724258199349775
1768736213548,131,3,4.638108290242521,-7.487462051428474,-7.017579568933671
1768736213552,131,3,4.602749823202187,-7.722099840183489,-7.076135909135695
1768736213556,132,4,4.696163882141613,-6.6700391258997245,-7.006153476980183
1768736213560,132,4,4.758239377786133,-6.836577931184152,-6.968664828330787
1768736213564,131,3,4.693221941795557,-7.675305845532766,-7.058448317023549
1768736213568,131,3,4.498086043805291,-7.774666334541585,-7.276670440611091
1768736213572,131,3,4.199904817564349,-7.682403519473305,-7.596271219693217
1768736213576,131,3,3.801908542480554,-7.862133680532434,-8.016017698452014
1768736213580,130,2,3.2917948663802328,-8.891772677529747,-8.549481192405889
1768736213584,129,1,2.6700561924048634,-9.778143201565545,-9.195408472934094
1768736213588,129,1,1.9539137239016775,-9.932378371430593,-9.935322069450764
1768736213592,128,0,1.1694150748877317,-10.69165051883831,-10.742760487316117
1768736213596,127,-1,0.3518172996025988,-12.083176983742296,-11.582513203269723
1768736213600,126,-2,-0.4542412027013542,-12.840216034490076,-12.41019141666857
1768736213604,126,-2,-1.1998422148778751,-13.047093997962516,-13.177710826016355
1768736213608,125,-3,-1.8348590310884645,-13.89189615374295,-13.835706853736292
1768736213612,124,-4,-2.3196823030558376,-14.902747771138948,-14.344043612509193
1768736213616,124,-4,-2.6560702190180367,-15.11425248228552,-14.703228822447338
1768736213620,124,-4,-2.903357644765047,-14.950892375125088,-14.972394671202
1768736213624,124,-4,-3.1389958709950307,-15.200508475014445,-15.229929098822875
1768736213628,123,-5,-3.3913656190298473,-15.901896744729893,-15.504661986586582
1768736213632,123,-5,-3.61953067123031,-16.133125961169164,-15.755030897252068
1768736213636,123,-5,-3.7620654150655617,-16.063522856811677,-15.91908091122807
1768736213640,123,-5,-3.7984271584845217,-16.201901395318444,-15.976686534091687
1768736213644,123,-5,-3.763271060294507,-16.16247177503734,-15.96326043313866
1768736213648,123,-5,-3.712948121568099,-16.12591780742602,-15.935316999488888
1768736213652,123,-5,-3.685379687233887,-16.14805987788578,-15.930230714067426
1768736213656,123,-5,-3.687061800943491,-16.213690299547174,-15.95381099444496
1768736213660,123,-5,-3.7074989581755218,-16.284082847425253,-15.995355087386304
1768736213664,123,-5,-3.736048009009156,-16.247901186631488,-16.044684741584682
1768736213668,123,-5,-3.759682581028528,-16.275372315956815,-16.08944343921643
1768736213672,123,-5,-3.748261914213765,-16.18565106291762,-16.09957470625357
1768736213676,123,-5,-3.6547937821183583,-16.384726831112367,-16.027439140247182
1768736213680,123,-5,-3.442405542869019,-16.311302368213504,-15.835690549982022
1768736213684,124,-4,-3.1137051478664235,-15.410186369035712,-15.527419094152473
1768736213688,124,-4,-2.7129762363715377,-15.33370360678104,-15.147772032261914
1768736213692,124,-4,-2.3057010193609595,-15.316139592662008,-14.762352887530682
1768736213696,125,-3,-1.959268785894866,-14.46893090658036,-14.437813509238769
1768736213700,125,-3,-1.7294684632472692,-14.411187616484924,-14.229091867751034
1768736213704,125,-3,-1.642751884900578,-14.531206311278272,-14.16228645827312
1768736213708,125,-3,-1.6770284001362306,-14.3863378395427,-14.215740803745383
1768736213712,125,-3,-1.756373921681979,-14.501875833691008,-14.31458669925168
1768736213716,125,-3,-1.7736799468439473,-14.451777014651094,-14.352451192612284
1768736213720,125,-3,-1.6442317141818152,-14.6469742604493,-14.244180493425704
1768736213724,125,-3,-1.3654466180183995,-14.48353450953968,-13.986149016516318
1768736213728,126,-2,-1.0303106813242062,-13.633528442791215,-13.671063077786275
1768736213732,126,-2,-0.7655879135574278,-13.468033111298215,-13.426339528269938
1768736213736,126,-2,-0.6405672149223732,-13.67138579779066,-13.321677031506466
1768736213740,126,-2,-0.6304994280210829,-13.63959382870788,-13.331866037458775
1768736213744,126,-2,-0.6628178719388319,-13.67890578542656,-13.383723181700528
1768736213748,126,-2,-0.6890350482781988,-13.655268637803063,-13.428807559038123
1768736213752,126,-2,-0.7098371150417001,-13.626140881991075,-13.468443103949689
1768736213756,126,-2,-0.740388611494923,-13.724233244164145,-13.518436470999893
1768736213760,126,-2,-0.7638004803229194,-13.776409758396042,-13.562061328251504
1768736213764,126,-2,-0.7266549994311949,-13.744046546939416,-13.545368291277786
1768736213768,126,-2,-0.584668469907578,-13.806059146189265,-13.423127782959211
1768736213772,126,-2,-0.3519356900264784,-13.64267826342786,-13.20897903343758
1768736213776,127,-1,-0.094690041534827,-12.94085198143047,-12.969835283474524
1768736213780,127,-1,0.1358826270096896,-12.710081804947196,-12.757982635854386
1768736213784,127,-1,0.3627134529653919,-13.061923718005414,-12.55067512006482
1768736213788,127,-1,0.6615218202885051,-12.648628403210967,-12.2713718612467
1768736213792,128,0,1.074598749410498,-12.026814994057126,-11.877126585462896
1768736213796,128,0,1.5508576239806375,-11.737222114879188,-11.419210398089753
1768736213800,129,1,1.97473487293469,-11.098684549323105,-11.013710327814843
1768736213804,129,1,2.2534036970812426,-10.891991521821929,-10.753643915601163
1768736213808,129,1,2.377829398061744,-11.005179661080597,-10.647868945771885
1768736213812,129,1,2.40394618829653,-10.888656174904163,-10.64027307024972
1768736213816,129,1,2.377617070633397,-11.05122637872303,-10.684994384024836
1768736213820,129,1,2.277536720695422,-10.98500218164222,-10.803355940115685
1768736213824,129,1,2.030084955122471,-11.192121343279249,-11.068899500095808
1768736213828,128,0,1.582807689017616,-11.921421995388984,-11.534099699445584
1768736213832,128,0,0.970797222047439,-12.16377535286969,-12.16403454956304
1768736213836,127,-1,0.3130013947983107,-12.976832407452031,-12.839675132810417
1768736213840,126,-2,-0.2691190473030748,-14.233936869280114,-13.439211804834494
1768736213844,126,-2,-0.7446797555622179,-14.162571209434123,-13.931977344527272
1768736213848,126,-2,-1.1877437810124984,-14.111178813921237,-14.392978439778616
1768736213852,125,-3,-1.6960491160003617,-15.234907393884146,-14.92018871379337
1768736213856,124,-4,-2.300015715017477,-16.017827839747532,-15.542707888551693
1768736213860,124,-4,-2.9487932958492578,-16.46528335195541,-16.20836694516744
1768736213864,123,-5,-3.5620488773651275,-17.0623407069463,-16.837368129449708
1768736213868,123,-5,-4.076742518195764,-17.458407884651148,-17.36842142481617
1768736213872,122,-6,-4.456844148055812,-18.05207412935824,-17.76625387490587
1768736213876,122,-6,-4.68902570010533,-18.394525893081145,-18.016516487687465
1768736213880,122,-6,-4.785905406168041,-18.299141330357376,-18.13045094781736
1768736213884,122,-6,-4.787480770324747,-18.394824313064134,-18.14800483846736
1768736213888,122,-6,-4.746625105121053,-18.367200038006743,-18.123419843645618
1768736213892,122,-6,-4.706613296549278,-18.28109980651129,-18.101304603524177
1768736213896,122,-6,-4.690416011595202,-18.40659346485877,-18.1042984207307
1768736213900,122,-6,-4.706955018536149,-18.44379616344131,-18.139020330927067
1768736213904,122,-6,-4.757390522116937,-18.47010656767798,-18.204034228978713
1768736213908,122,-6,-4.823306187040735,-18.481981116210314,-18.280725280129353
1768736213912,122,-6,-4.847005458868679,-18.343503594030985,-18.315015031511905
1768736213916,122,-6,-4.741765764935442,-18.551595159022167,-18.22592034493318
1768736213920,122,-6,-4.448858358521492,-18.4749902178672,-17.95810478090875
1768736213924,123,-5,-3.9868570606466536,-17.653669878861187,-17.52687468339702
1768736213928,123,-5,-3.3899808445145885,-17.47314767310199,-16.956621837246573
1768736213932,124,-4,-2.4854272389345695,-16.558348579590906,-16.06461695294439
1768736213936,127,-1,-0.6182366231260916,-13.49789759165248,-14.194412753862489
1768736213940,131,3,3.3953849018990745,-9.74977662543832,-10.17180710199166
1768736213944,137,9,10.795723860797688,-3.5432255947383133,-2.771076014049312
1768736213948,148,20,21.907959165893384,7.213544498425236,8.32278138763705
1768736213952,161,33,35.20310536502392,20.58888894767879,21.58063380964674
1768736213956,174,46,47.18186027210867,33.160837659799924,33.512796720164175
1768736213960,181,53,53.502082982241575,40.394706865781544,39.79180640564219
1768736213964,179,51,50.936582881969514,38.078555355644305,37.203353105702504
1768736213968,166,38,39.074366578465856,25.33864628196241,25.341050297870332
1768736213972,147,19,20.721663399410645,6.258103977062877,7.004394198251848
1768736213976,127,-1,0.7310212870565884,-13.71671200251076,-12.969338669102193
1768736213980,110,-18,-16.063788879483003,-30.81143220360523,-29.76221359768021
1768736213984,100,-28,-26.66229128678008,-40.9051892279938,-40.38159377490771
1768736213988,97,-31,-30.594337032941244,-43.75334111644147,-44.35302485467868
1768736213992,98,-30,-29.39014616998311,-42.92833779718515,-43.1926254948836
1768736213996,101,-27,-25.39947054611088,-39.64901189696605,-39.23429158527307
1768736214000,106,-22,-20.71237099657975,-35.154425941724284,-34.56032729891831
1768736214004,110,-18,-16.607115867721557,-30.71173479489874,-30.45402347122401
1768736214008,114,-14,-13.515544882176378,-27.17970110151835,-27.359986024796203
1768736214012,115,-13,-11.291553535750836,-25.688124142156433,-25.14224400617306
1768736214016,117,-11,-9.57723157901949,-24.082466332378267,-23.444245587429982
1768736214020,119,-9,-8.10618164652719,-21.923033811136648,-21.994323002975765
1768736214024,120,-8,-6.826623058291087,-21.08888194217705,-20.734786285064565
1768736214028,121,-7,-5.826528344758072,-20.037737649163944,-19.75101177973166
1768736214032,122,-6,-5.165914055461787,-18.938433758457172,-19.103826716453945
1768736214036,122,-6,-4.767973793602507,-19.128304052405227,-18.718410354289137
1768736214040,122,-6,-4.454374905660673,-18.966069920172743,-18.41762703886981
1768736214044,123,-5,-4.080696443072602,-18.31623115926685,-18.0573229051676
1768736214048,123,-5,-3.638584622266316,-17.916703934228856,-17.62930604527376
1768736214052,124,-4,-3.2280884040033513,-17.288618552090895,-17.23373513755362
1768736214056,124,-4,-2.935555744206633,-16.950904244902546,-16.956320164972624
1768736214060,124,-4,-2.7429048309009567,-17.337010091044405,-16.77774751490003
1768736214064,124,-4,-2.550060366086516,-17.151157711550503,-16.597543324799272
1768736214068,125,-3,-2.270559943035584,-16.219672076681846,-16.330431467609287
1768736214072,125,-3,-1.9003497366753712,-16.213120189410677,-15.973761538821297
1768736214076,125,-3,-1.5111502398205907,-16.166627595416475,-15.599202615058976
1768736214080,126,-2,-1.1936185262140186,-15.35384814814704,-15.2962790237391
1768736214084,126,-2,-0.9953756144617508,-15.295711943091156,-15.111871376967454
1768736214088,126,-2,-0.8890446657588952,-15.271862345101583,-15.018611018345558
1768736214092,126,-2,-0.7920331657568588,-15.316947266955056,-14.934137444857829
1768736214096,126,-2,-0.6246845415364004,-15.275065960382433,-14.77920610912452
1768736214100,127,-1,-0.3558527292038104,-14.411372592206714,-14.523338495219631
1768736214104,127,-1,-0.0001068337349267,-14.446686344114338,-14.181364792276288
1768736214108,127,-1,0.4129366548433857,-14.278334421948289,-13.78225833732549
1768736214112,128,0,0.8557780207848198,-13.490992541264063,-13.352751634288676
1768736214116,128,0,1.3005411915980305,-13.297739692253876,-12.92083983016083
1768736214120,129,1,1.718856570731217,-12.572952449701448,-12.515533807732195
1768736214124,129,1,2.091106714850498,-12.465821326322938,-12.156506196114538
1768736214128,129,1,2.4132112776126973,-12.444621350790296,-11.847260030424614
1768736214132,130,2,2.6984901100910816,-11.478508280429187,-11.574241064828003
1768736214136,130,2,2.9812509436045365,-11.53087637400693,-11.303604560002388
1768736214140,130,2,3.313434866220897,-11.49502347163143,-10.983934995261276
1768736214144,131,3,3.739184756676151,-10.753372292203078,-10.571202235312349
1768736214148,131,3,4.258948252425165,-10.302062369088508,-10.064722919500324
1768736214152,132,4,4.815752399764116,-9.823617872539266,-9.521018869044829
1768736214156,132,4,5.319703492340214,-9.351955346617348,-9.029597292168244
1768736214160,133,5,5.69683848641429,-8.866958608033425,-8.664550203558445
1768736214164,133,5,5.931293573738138,-8.581372002741427,-8.44226391267642
1768736214168,133,5,6.068077202091784,-8.598519677929627,-8.317890613404096
1768736214172,133,5,6.167264634468832,-8.777448552057004,-8.230994400475382
1768736214176,133,5,6.247556927607379,-8.491333977734106,-8.162800511887118
1768736214180,134,6,6.277656364337928,-8.006811354637764,-8.145106762495955
1768736214184,133,5,6.225035873892771,-8.536366387350629,-8.210567136681144
1768736214188,133,5,6.10467495284363,-8.8735796115824,-8.34344205870809
1768736214192,133,5,5.975210419763505,-8.648191291863558,-8.484491121934786
1768736214196,133,5,5.895919309484415,-8.811470436054734,-8.57497189419399
1768736214200,133,5,5.891446052908426,-8.88624952578585,-8.591235661596492
1768736214204,133,5,5.944141882800294,-8.795899633493628,-8.55110241455753
1768736214208,133,5,6.003669744135634,-8.81921313214784,-8.504182173046576
1768736214212,133,5,6.004394026162055,-8.858801440483935,-8.515546732187918
1768736214216,133,5,5.889777751284101,-8.789794072821904,-8.641968535020172
1768736214220,133,5,5.635802580730166,-9.105175541876148,-8.907894242848492
1768736214224,132,4,5.2544659557904065,-9.71394185498741,-9.301103392674593
1768736214228,132,4,4.770714118714245,-10.11473203784837,-9.796100499001868
1768736214232,131,3,4.197064612960085,-10.698265322222412,-10.380607923866108
1768736214236,131,3,3.536681735498873,-11.17133112078064,-11.052553186052783
1768736214240,130,2,2.8079308382817834,-11.869896851099064,-11.794035371419993
1768736214244,129,1,2.048855559278433,-13.13722502643003,-12.565881263347986
1768736214248,128,0,1.2858804212944808,-13.856928662157266,-13.340239633071414
1768736214252,128,0,0.5103410237164585,-14.129631964551638,-14.126009780599055
1768736214256,127,-1,-0.2929602730512832,-14.93286704778252,-14.940019750250498
1768736214260,126,-2,-1.0949336644008063,-16.259150857815776,-15.754080180314856
1768736214264,125,-3,-1.8205842796104212,-16.94394672032433,-16.49239885981489
1768736214268,125,-3,-2.4084056354957006,-17.19454896027935,-17.092138368533625
1768736214272,124,-4,-2.863473060536146,-18.00503029826615,-17.557937680376803
1768736214276,124,-4,-3.2430699515552517,-18.188785068461947,-17.947767982715142
1768736214280,124,-4,-3.5894864638679778,-18.216444144489124,-18.304954027863307
1768736214284,123,-5,-3.882394095088368,-19.11144145519556,-18.609589005919716
1768736214288,123,-5,-4.066498263629356,-19.256520685906885,-18.80589679892913
1768736214292,123,-5,-4.131642842985841,-19.061145690858705,-18.882943524013953
1768736214296,123,-5,-4.159624349852196,-19.3607399538257,-18.922198016246647
1768736214300,123,-5,-4.277185375527092,-19.16115921624263,-19.050650126575334
1768736214304,123,-5,-4.54728598881509,-19.36424801368741,-19.33162441425803
1768736214308,122,-6,-4.8976925997078125,-20.182674867906613,-19.69290095835212
1768736214312,122,-6,-5.159889754609578,-20.286893629024657,-19.965707479620207
1768736214316,122,-6,-5.192456689063059,-20.34674641697401,-20.008677436005136
1768736214320,122,-6,-4.983596507786983,-20.283266223891463,-19.81069190277401
1768736214324,123,-5,-4.645701123788436,-19.461340988554284,-19.484802154008953
1768736214328,123,-5,-4.315187387880149,-19.204881075621792,-19.166921282012808
1768736214332,123,-5,-4.056049602097229,-19.501611091979775,-18.919386304906944
1768736214336,123,-5,-3.8477985697267063,-19.248853686708443,-18.720796213985217
1768736214340,124,-4,-3.640206354522302,-18.591757967978957,-18.522277287179634
1768736214344,124,-4,-3.4009921570461015,-18.279193698731063,-18.293692473032554
1768736214348,124,-4,-3.126987994067724,-18.57051282870342,-18.031995799288264
1768736214352,124,-4,-2.8433618587928624,-18.320995585713405,-17.760402331814152
1768736214356,125,-3,-2.5971012070202706,-17.576170731310647,-17.5246384524357
1768736214360,125,-3,-2.4230772720720353,-17.47206185735636,-17.36045084529276
1768736214364,125,-3,-2.299442747847342,-17.497434526316148,-17.247338120020608
1768736214368,125,-3,-2.1521284757697803,-17.57754107293781,-17.11118555292131
1768736214372,125,-3,-1.924249909533544,-17.44170720715846,-16.8942237920067
1768736214376,126,-2,-1.6408159331194645,-16.675762493264923,-16.62131603322788
1768736214380,126,-2,-1.3936542127418363,-16.4906986552636,-16.38492498855389
1768736214384,126,-2,-1.260810946662335,-16.657548387310403,-16.26328989681329
1768736214388,126,-2,-1.2451551777791716,-16.566966759604657,-16.25867903727793
1768736214392,126,-2,-1.2866747149771278,-16.645877097178527,-16.31060329704959
1768736214396,126,-2,-1.3226037814404936,-16.65047310221896,-16.356572346091234
1768736214400,126,-2,-1.3332228989709765,-16.647523213867487,-16.37746132666266
1768736214404,126,-2,-1.3390677018165729,-16.674957202419478,-16.394078973142076
1768736214408,126,-2,-1.362328605241343,-16.683572610264576,-16.42849119260456
1768736214412,126,-2,-1.390664928564982,-16.75023584394851,-16.46802313281797
1768736214416,126,-2,-1.3755009597879209,-16.68528547083249,-16.463587328280653
1768736214420,126,-2,-1.2676277171391197,-16.791580419957935,-16.365534154474517
1768736214424,126,-2,-1.0585039072823328,-16.647385892459074,-16.165683868845097
1768736214428,127,-1,-0.785429046926067,-15.903903213778335,-15.902663101529011
1768736214432,127,-1,-0.4951395328656309,-15.685249966029692,-15.624124427522869
1768736214436,127,-1,-0.2116203542267904,-15.950440803350304,-15.353125135943197
1768736214440,127,-1,0.0533258113998587,-15.64682384949548,-15.099527665426756
1768736214444,128,0,0.2764886155036667,-14.963485347393874,-14.885846442205494
1768736214448,128,0,0.442843285856426,-14.734106528812177,-14.728245843870528
1768736214452,128,0,0.5968115223526143,-15.038520687024848,-14.583707487790434
1768736214456,128,0,0.8497670522089198,-14.769634726756063,-14.341214830831523
1768736214460,129,1,1.3063339962831066,-13.971898686425511,-13.895631469649858
1768736214464,129,1,1.9623160634590229,-13.789808592658336,-13.25054692485466
1768736214468,130,2,2.6642151332177963,-13.06489486112913,-12.559384837731852
1768736214472,131,3,3.1767747879598764,-11.870313966977989,-12.057918018159487
1768736214476,131,3,3.3182068161724776,-12.12898510309776,-11.92812271296402
1768736214480,130,2,3.0580222383562607,-12.74823944362024,-12.199510976071975
1768736214484,130,2,2.5022150499726745,-13.168035207922374,-12.76487595122012
1768736214488,129,1,1.8009680775060382,-13.854023887798494,-13.474383268232598
1768736214492,129,1,1.0789092418567956,-14.220894654884988,-14.205242089358393
1768736214496,128,0,0.4307166971685359,-14.985470293637052,-14.863933934150676
1768736214500,127,-1,-0.0678880827785281,-15.982665064324385,-15.37395698251586
1768736214504,127,-1,-0.3863881540922564,-16.15091745155051,-15.703481977357647
1768736214508,127,-1,-0.5788272619509276,-15.95673875673582,-15.906576405523063
1768736214512,127,-1,-0.7755550624369685,-16.351334553885714,-16.114522961797157
1768736214516,126,-2,-1.1174896810098849,-16.960102782202135,-16.468248022681323
1768736214520,126,-2,-1.6808038842136497,-17.188368180436175,-17.04258280912073
1768736214524,125,-3,-2.436905377019845,-18.10037374598984,-17.807766450048145
1768736214528,124,-4,-3.2579389849976645,-19.133245122529253,-18.6364928781019
1768736214532,124,-4,-3.9590054839651,-19.391348320461592,-19.34591949762369
1768736214536,123,-5,-4.367373969419414,-19.99810566532203,-19.764936611722604
1768736214540,123,-5,-4.405490688697036,-20.385118715263715,-19.815482634913188
1768736214544,123,-5,-4.152301574239022,-19.967087894678716,-19.5744932109695
1768736214548,124,-4,-3.82602011917061,-19.495655367033248,-19.25895251384981
1768736214552,124,-4,-3.6660321908071687,-19.140882751955793,-19.108891558680774
1768736214556,124,-4,-3.7833693499037824,-19.417122437112223,-19.23659222938899
1768736214560,123,-5,-4.100369388193346,-20.13415804754086,-19.56450696916544
1768736214564,123,-5,-4.431204754345815,-20.33203103310688,-19.905620830461544
1768736214568,123,-5,-4.627287635545176,-20.33615269335127,-20.110068389860196
1768736214572,123,-5,-4.662802656860256,-20.39957926993287,-20.152022101940418
1768736214576,123,-5,-4.609153576343056,-20.345831805224396,-20.105021436962968
1768736214580,123,-5,-4.550090785802969,-20.325216482578774,-20.056773670800695
1768736214584,123,-5,-4.517836752248191,-20.316142999100578,-20.04258355360716
1768736214588,123,-5,-4.474136390779481,-20.4989560884733,-20.022248393615783
1768736214592,123,-5,-4.282997575511529,-20.38888561904573,-19.85144582522328
1768736214596,124,-4,-3.603614561613449,-19.49811855108558,-19.179658245409566
1768736214600,126,-2,-1.7243246852643674,-17.31637324521349,-17.29271603555004
1768736214604,131,3,2.472322759983639,-12.478252946900092,-13.081902507783264
1768736214608,138,10,10.138546655704385,-5.472355902793666,-5.40959862708257
1768736214612,148,20,21.609600777274228,4.4287796656267595,6.049104737442455
1768736214616,162,34,35.47207674385524,18.562186932469707,19.880715376056685
1768736214620,176,48,48.31949521042335,32.467020715618425,32.68781442175688
1768736214624,184,56,55.73640561678244,40.57482098184602,40.0684448082591
1768736214628,183,55,54.230217350261675,39.314286884517294,38.54254401346381
1768736214632,171,43,43.04486636186999,27.41103260724052,27.35983004084402
1768736214636,152,24,24.73162556116224,8.428051448620113,9.066381153663636
1768736214640,131,3,4.1012692171209615,-12.582648810319832,-11.541829539094197
1768736214644,113,-15,-13.827859270437116,-30.427965867141697,-29.462900545592156
1768736214648,102,-26,-25.73652314524665,-41.7846262131575,-41.38602581610295
1768736214652,97,-31,-30.838267107942897,-46.568344036184065,-46.52063619992636
1768736214656,98,-30,-30.450338895204105,-45.75924485538461,-46.170556182875856
1768736214660,101,-27,-26.82986799861791,-42.55110294711385,-42.578360996357134
1768736214664,105,-23,-22.05803496963918,-38.61738106058685,-37.81765077083363
1768736214668,110,-18,-17.477373649235673,-33.750461868477856,-33.23406257080711
1768736214672,114,-14,-13.69070364632466,-29.735491041373955,-29.44122959545909
1768736214676,117,-11,-10.82288113418112,-26.790459956506105,-26.574531715403765
1768736214680,119,-9,-8.774256724418457,-24.633240302807636,-24.53745063490033
1768736214684,120,-8,-7.378289213766425,-23.711558190467265,-23.15863104387052
1768736214688,121,-7,-6.484378814911091,-22.759636706373975,-22.28047864770668
1768736214692,122,-6,-5.981159442286334,-21.873644989126863,-21.78856180965928
1768736214696,122,-6,-5.763320287324026,-21.808860324038147,-21.57940914102167
1768736214700,122,-6,-5.6847553015964465,-21.742478301068857,-21.509933433918704
1768736214704,122,-6,-5.567237553170517,-21.757632176723952,-21.40267143831071
1768736214708,122,-6,-5.278659151277523,-21.82959222871618,-21.12440781564318
1768736214712,123,-5,-4.8055593083342725,-20.95259379496217,-20.66130026972789
1768736214716,124,-4,-4.235130266086056,-19.866933489642147,-20.10156888841163
1768736214720,124,-4,-3.6615392280121872,-19.827840368923894,-19.53976498622692
1768736214724,124,-4,-3.121062258876349,-19.814471731897825,-19.01076858762175
1768736214728,125,-3,-2.6152842475490097,-18.896419789788176,-18.514922756270003
1768736214732,126,-2,-2.1624613407735245,-18.04995205984865,-18.071271209772604
1768736214736,126,-2,-1.795802061308192,-17.875334858023898,-17.714543086553057
1768736214740,126,-2,-1.5214131887152105,-17.9875613344389,-17.450894005665553
1768736214744,126,-2,-1.3036593574653297,-17.760104648380604,-17.24371489945751
1768736214748,127,-1,-1.0931345584187937,-17.123673389501565,-17.04349300204974
1768736214752,127,-1,-0.8569666828958403,-16.93074398103962,-16.818032270542446
1768736214756,127,-1,-0.5899391284228426,-17.146436613413687,-16.562011148045094
1768736214760,127,-1,-0.3153165131031228,-16.83006782578833,-16.297862266884444
1768736214764,128,0,-0.0703695018771175,-16.07515971444271,-16.062833594342592
1768736214768,128,0,0.1323606368562249,-15.933618094171337,-15.870353091933351
1768736214772,128,0,0.3349848100667851,-16.267392107737525,-15.678589258750453
1768736214776,128,0,0.6094099068097001,-15.917707334555711,-15.41489792800467
1768736214780,129,1,0.995060532007201,-15.217760894869624,-15.03936975021916
1768736214784,129,1,1.46903946536748,-14.79887528205028,-14.575341618462176
1768736214788,130,2,1.9788128793073343,-14.371338034165582,-14.075904676043844
1768736214792,130,2,2.4930661130019582,-13.9276025985992,-13.57234986590266
1768736214796,131,3,3.014975367850375,-13.417666357472037,-13.061231758236746
1768736214800,131,3,3.5525999786715294,-12.828204350836076,-12.53441486839397
1768736214804,132,4,4.084060418554249,-12.34014927249292,-12.013719428485397
1768736214808,132,4,4.554435821918179,-11.95333931758729,-11.553826195413752
1768736214812,133,5,4.9118346577764065,-11.462119961138418,-11.20648470936732
1768736214816,133,5,5.155890851789532,-11.041918730967303,-10.97225688278053
1768736214820,133,5,5.3531094257088725,-11.287962034403092,-10.784982234519369
1768736214824,133,5,5.5935158905771845,-11.084841376910902,-10.554906550608491
1768736214828,134,6,5.917141646947867,-10.245045946116733,-10.24211340745396
1768736214832,134,6,6.272695120291561,-10.393479331024444,-9.897723271451795
1768736214836,134,6,6.5457360055262805,-10.138582142670357,-9.63579607953985
1768736214840,135,7,6.638686359949565,-9.406733603517168,-9.553630998439434
1768736214844,134,6,6.544875840156145,-10.037440821052616,-9.657705904417677
1768736214848,134,6,6.356915865457895,-10.461412770976615,-9.855207036237916
1768736214852,134,6,6.199638669547804,-10.273772309266374,-10.021581904717074
1768736214856,134,6,6.146523608049342,-10.389459090112762,-10.084417365027615
1768736214860,134,6,6.188620030033941,-10.2914545786282,-10.053554922323489
1768736214864,134,6,6.2641806515472105,-10.256514079234574,-9.990192525233285
1768736214868,134,6,6.304500973234528,-10.400642115709932,-9.961361438215796
1768736214872,134,6,6.261345075235553,-10.429306852343462,-10.014320347992722
1768736214876,134,6,6.118981261281949,-10.36987367182254,-10.165601129706568
1768736214880,134,6,5.899638434163161,-10.446571311880415,-10.394429406123551
1768736214884,133,5,5.647571282232619,-11.186033882753083,-10.656919032995797
1768736214888,133,5,5.382716142634036,-11.659234517463013,-10.932535517734232
1768736214892,133,5,5.062358253617717,-11.2196796513371,-11.26379636904148
1768736214896,133,5,4.601270450567867,-11.767092179879604,-11.736145209647953
1768736214900,131,3,3.937463310626726,-13.12097103379574,-12.411066213490887
1768736214904,131,3,3.0790322810944257,-13.648226328711525,-13.279487869410122
1768736214908,130,2,2.1009079514543787,-14.350959655485283,-14.266517893627302
1768736214912,129,1,1.1135029495276627,-15.588492795191527,-15.262945716465085
1768736214916,128,0,0.2241680434195525,-16.599614110325916,-16.16237829134993
1768736214920,127,-1,-0.5044703947126541,-17.28959244859705,-16.902090317580114
1768736214924,127,-1,-1.081799588207193,-17.729088215635606,-17.490780391289366
1768736214928,126,-2,-1.5763659412336044,-18.27090463175211,-17.996342947007566
1768736214932,126,-2,-2.0655081854613475,-18.89613399749088,-18.495774613505937
1768736214936,125,-3,-2.5817740712324575,-19.319323778627293,-19.02176294800238
1768736214940,125,-3,-3.0908732063970934,-19.73449418630217,-19.540513853329134
1768736214944,124,-4,-3.514323284584707,-20.39394854293249,-19.97384271459352
1768736214948,124,-4,-3.783359024635213,-20.710302012380524,-20.25281771890124
1768736214952,124,-4,-3.8868500073235026,-20.61162235354141,-20.366160640741235
1768736214956,124,-4,-3.875444343663483,-20.655993096052836,-20.364855446212307
1768736214960,124,-4,-3.820988971979701,-20.573998499562972,-20.321197704611308
1768736214964,124,-4,-3.7724072645463926,-20.606459953342817,-20.28389316962968
1768736214968,124,-4,-3.74808071504999,-20.69286996482851,-20.270350514976418
1768736214972,124,-4,-3.759979425046972,-20.67054431426726,-20.29176689622576
1768736214976,124,-4,-3.8271381099835295,-20.771917706828585,-20.367610839117745
1768736214980,124,-4,-3.951379968339629,-20.50381587783119,-20.5010088398881
1768736214984,124,-4,-4.084574155960179,-20.844839324685086,-20.644482796061215
1768736214988,123,-5,-4.144146936838107,-21.53957098491172,-20.71477899519183
1768736214992,124,-4,-4.081784288692324,-20.959463091111225,-20.662729603297297
1768736214996,124,-4,-3.935437934963157,-20.575943693884604,-20.526398581082375
1768736215000,124,-4,-3.802693629457997,-20.80084619155412,-20.40385329376135
1768736215004,124,-4,-3.760439073810238,-20.67462446422089,-20.37180003597239
1768736215008,124,-4,-3.807730588627851,-20.802211933954155,-20.428792000443615
1768736215012,124,-4,-3.873171675435764,-20.864009136442903,-20.50353392321247
1768736215016,124,-4,-3.86787575667436,-20.7036274192236,-20.507693761345298
1768736215020,124,-4,-3.7418953224837943,-20.845039714725207,-20.391491742950812
1768736215024,124,-4,-3.5099866863871174,-20.665316894543466,-20.169444185576836
1768736215028,125,-3,-3.2305513706803684,-19.99692198739315,-19.899955752482107
1768736215032,125,-3,-2.9533761288307567,-19.73554120072373,-19.63297121726096
1768736215036,125,-3,-2.6855635044670825,-19.960500871308906,-19.37525645453519
1768736215040,125,-3,-2.411945127435148,-19.66904278159794,-19.1111183233073
1768736215044,126,-2,-2.141765108461447,-18.950802596086508,-18.85004799020831
1768736215048,126,-2,-1.9202372497837317,-18.843298196436557,-18.638063092779262
1768736215052,126,-2,-1.7919471242696534,-18.974194228338213,-18.51988443599622
1768736215056,126,-2,-1.7623050402994782,-18.845802998336225,-18.500168764165224
1768736215060,126,-2,-1.795387009495748,-18.849668506958693,-18.542451413221567
1768736215064,126,-2,-1.8404021837794904,-18.911583028426904,-18.596306461124165
1768736215068,126,-2,-1.8599788850683991,-18.96217030110939,-18.625085055721055
1768736215072,126,-2,-1.8452548545807308,-18.98956695502872,-18.620182074800873
1768736215076,126,-2,-1.8147103022288444,-18.899778848297533,-18.599721767141418
1768736215080,126,-2,-1.7984889250774987,-18.90724743752081,-18.593298818174475
1768736215084,126,-2,-1.816007427257773,-18.954809978164423,-18.620060205507393
1768736215088,126,-2,-1.859477207639393,-19.023471250623707,-18.67243835991777
1768736215092,126,-2,-1.892616258155229,-19.04701715099991,-18.714623831563284
1768736215096,126,-2,-1.865955673143575,-18.91047869872129,-18.697277921816827
1768736215100,126,-2,-1.7434074691857993,-19.01710802028917,-18.583882031514484
1768736215104,126,-2,-1.525687268918043,-18.917633434301937,-18.37487155678837
1768736215108,127,-1,-1.2493847927901651,-18.200245015754867,-18.10741283087104
1768736215112,127,-1,-0.9576778789705488,-17.937891533895602,-17.825447173693775
1768736215116,127,-1,-0.6738145243762045,-18.141713832466476,-17.55190122187603
1768736215120,127,-1,-0.4078635929891984,-17.845252213107504,-17.29566010232675
1768736215124,128,0,-0.1764682857689458,-17.22084113761327,-17.072816777845617
1768736215128,128,0,0.0092776722729729,-16.98425702580012,-16.89502730314501
1768736215132,128,0,0.1829589308614513,-17.252894436994932,-16.72943440197089
1768736215136,128,0,0.433190813319366,-16.920882615005176,-16.487687222681533
1768736215140,129,1,0.8545632807407562,-16.14070666126966,-16.075218499422533
1768736215144,129,1,1.4714963879843856,-16.04875991696328,-15.4675222923277
1768736215148,130,2,2.193905983601506,-15.236300781220312,-14.75444729781433
1768736215152,131,3,2.8428896018579803,-14.100326753762491,-14.114724815008511
1768736215156,131,3,3.237338887269256,-14.159802702841658,-13.729448744375102
1768736215160,131,3,3.28341937370999,-13.994372999165943,-13.69233652678343
1768736215164,131,3,3.002920765474566,-14.286357001926891,-13.981330797191738
1768736215168,130,2,2.490161644521834,-15.125271465387073,-14.502042697058876
1768736215172,130,2,1.8471117398653312,-15.253304494452872,-15.152789947915329
1768736215176,129,1,1.150983689983366,-16.141196023223856,-15.856701455484313
1768736215180,128,0,0.4617414397912748,-17.043480223366736,-16.55398756446938
1768736215184,128,0,-0.1635375588438783,-17.38699702404705,-17.18778037934253
1768736215188,127,-1,-0.6786411099776826,-18.07679764208889,-17.71210122072652
1768736215192,127,-1,-1.0774651721168622,-18.42707304104522,-18.12054410624768
1768736215196,126,-2,-1.4176470536239254,-19.00618764862172,-18.469810304584783
1768736215200,126,-2,-1.802609335586002,-19.29538218736869,-18.86270018253248
1768736215204,126,-2,-2.309567901786864,-19.21255012132478,-19.37680562248699
1768736215208,125,-3,-2.910245156110001,-20.34863158992239,-19.984588981096184
1768736215212,124,-4,-3.465958928180143,-21.258401244513436,-20.54771451592487
1768736215216,124,-4,-3.8219513559506906,-21.208887140560364,-20.911627469931616
1768736215220,124,-4,-3.924652210457172,-21.23196608026167,-21.022983344875804
1768736215224,124,-4,-3.862246647723402,-21.304696978898154,-20.969546970258342
1768736215228,124,-4,-3.8039174932564097,-21.400064737708195,-20.919458712948806
1768736215232,124,-4,-3.890246861660753,-21.24577884013943,-21.013040979937777
1768736215236,124,-4,-4.1476338564055775,-21.336032493563373,-21.277865822117818
1768736215240,123,-5,-4.481552417427408,-22.159898230581152,-21.620464662494715
1768736215244,123,-5,-4.7565712306016,-22.482201066520428,-21.904548992957174
1768736215248,123,-5,-4.900821758992477,-22.297553982224088,-22.055922375811885
1768736215252,123,-5,-4.941497002148273,-22.422968982555595,-22.10040571384091
1768736215256,123,-5,-4.9414611672158255,-22.259706450555083,-22.102591854125546
1768736215260,123,-5,-4.909955322871221,-22.253476734934345,-22.07637787218885
1768736215264,123,-5,-4.7862625674770864,-22.569178697938256,-21.965510453414
1768736215268,123,-5,-4.504947733249242,-22.181093972089744,-21.70431048596521
1768736215272,124,-4,-4.030875131664768,-21.73934302177522,-21.25047031018234
1768736215276,124,-4,-3.235089126143636,-20.898302050433095,-20.464399217189296
1768736215280,127,-1,-1.6268112685097669,-18.76707406096827,-18.849399828254295
1768736215284,130,2,1.82305536327104,-15.099418089082434,-15.381564523675232
1768736215288,137,9,8.42856060701445,-8.722333019998693,-8.761177438445985
1768736215292,146,18,18.96179798640672,0.6794161907621685,1.769892286739026
1768736215296,159,31,32.58745309341882,13.721480372486518,15.37191027513223
1768736215300,174,46,46.325704268368256,28.4244728978761,29.072399830690564
1768736215304,184,56,55.72662894309404,38.756607446997165,38.43608413080749
1768736215308,186,58,56.70851727916494,40.179048811106725,39.39606100732691
1768736215312,176,48,47.61823046486402,30.76945766929693,30.307314665652108
1768736215316,158,30,30.257468462016824,12.43811479891275,12.968449665854765
1768736215320,136,8,9.200816334193195,-9.33936816444343,-8.05983364115419
1768736215324,117,-11,-10.202702423709288,-28.50171990753345,-27.44630513985609
1768736215328,104,-24,-23.985102168617814,-41.61823477700463,-41.23436280047289
1768736215332,97,-31,-30.749100787860975,-48.357675360368354,-48.02497801067859
1768736215336,97,-31,-31.483596553697424,-48.59531981231508,-48.79415004330749
1768736215340,100,-28,-28.424126184107788,-45.27997398796042,-45.76201058515216
1768736215344,104,-24,-23.791700616249265,-41.76835535690598,-41.140390370127314
1768736215348,108,-20,-19.073083176573466,-37.33982251290941,-36.4171448324349
1768736215352,113,-15,-14.973112430050136,-32.7635607882745,-32.30660274734406
1768736215356,116,-12,-11.717688239206025,-29.251638209199665,-29.045802812277454
1768736215360,119,-9,-9.325402671684474,-26.679181974472332,-26.658525477521277
1768736215364,120,-8,-7.710165970884168,-25.49960048584949,-25.05534795184125
1768736215368,121,-7,-6.698827303269506,-24.589989807197988,-24.05580282589225
1768736215372,122,-6,-6.066027461370665,-23.667475653069168,-23.43011985968719
1768736215376,122,-6,-5.596253137271618,-23.304128733789327,-22.963930480142626
1768736215380,123,-5,-5.135595681283897,-22.801641154668403,-22.507063116705545
1768736215384,123,-5,-4.616388757172215,-22.33520968276252,-21.993877339339917
1768736215388,124,-4,-4.0587872137442185,-21.91304676903445,-21.443578762292685
1768736215392,124,-4,-3.54519921633112,-21.326770695763052,-20.93664208318289
1768736215396,125,-3,-3.1606007044421225,-20.75206521732178,-20.55731340545837
1768736215400,125,-3,-2.922586633968889,-20.40617720978359,-20.323736666678887
1768736215404,125,-3,-2.757444502346428,-20.7702390984617,-20.162878730941124
1768736215408,125,-3,-2.552884801530285,-20.597320522975735,-19.962898485420386
1768736215412,126,-2,-2.2436038889841465,-19.619783444700175,-19.65894855705129
1768736215416,126,-2,-1.853224882744257,-19.601023088094664,-19.274654418498823
1768736215420,126,-2,-1.466529534828563,-19.533180938433777,-18.89390794479001
1768736215424,127,-1,-1.1663803471981606,-18.766857274594113,-18.598716874185005
1768736215428,127,-1,-0.9789194181462604,-18.629298466124915,-18.415503922467696
1768736215432,127,-1,-0.8570492456875985,-18.655044785532414,-18.29804535777352
1768736215436,127,-1,-0.7179876240494978,-18.62347955348163,-18.163788468862258
1768736215440,127,-1,-0.5123966727088227,-18.53954158520331,-17.963014164059267
1768736215444,128,0,-0.2613128219534848,-17.860593333925227,-17.716652024313493
1768736215448,128,0,-0.0190427219076158,-17.54452606089231,-17.479199135487768
1768736215452,128,0,0.2002594514335541,-17.840774473904567,-17.264625037716453
1768736215456,128,0,0.4534764428313418,-17.44509341739164,-17.015607617723695
1768736215460,129,1,0.8275903220962175,-16.795922728906476,-16.645265462180152
1768736215464,129,1,1.371253659471941,-16.663186574818504,-16.10561819135729
1768736215468,130,2,2.058882192066628,-15.769074052524006,-15.422613538087145
1768736215472,131,3,2.8085185299347497,-14.70083646405665,-14.6777126693816
1768736215476,131,3,3.530795516361974,-14.585749028038888,-13.959493541987516
1768736215480,132,4,4.17049737580843,-13.76245090104215,-13.323194915031712
1768736215484,133,5,4.717913547116008,-12.697914048471713,-12.779490255029534
1768736215488,133,5,5.1891248858072645,-12.836133076957571,-12.312879082148694
1768736215492,133,5,5.588258570031817,-12.629756054271647,-11.918502494564056
1768736215496,134,6,5.884108185763433,-11.73525082404141,-11.626452531779911
1768736215500,134,6,6.037571792211064,-11.64483566698701,-11.475682672965211
1768736215504,134,6,6.066297888372185,-11.87781401386446,-11.449312796972562
1768736215508,134,6,6.074353548043644,-11.693851678896063,-11.444060706226647
1768736215512,134,6,6.194799871321321,-11.815246098765126,-11.327212514285137
1768736215516,134,6,6.481462639437852,-11.599709120042265,-11.044899279426035
1768736215520,135,7,6.845823078527502,-10.808960467237377,-10.685225726719818
1768736215524,135,7,7.103641344836051,-10.784571453721052,-10.431651610643652
1768736215528,135,7,7.103517983221705,-10.79734148736565,-10.434817210340189
1768736215532,135,7,6.839624974683909,-10.78945008215634,-10.70047164067508
1768736215536,134,6,6.460839268546687,-11.632712172263412,-11.080555969283568
1768736215540,134,6,6.166415198774323,-11.862607618542864,-11.376976643695851
1768736215544,134,6,6.064504516564066,-11.718502905300015,-11.48222124950675
1768736215548,134,6,6.098975148864749,-11.95189081238206,-11.452029428696608
1768736215552,134,6,6.096487058686952,-11.624978725397922,-11.458579725038597
1768736215556,134,6,5.892763842319835,-11.866990271501573,-11.665147772566108
1768736215560,133,5,5.440202000645795,-12.671815497386085,-12.119342363731024
1768736215564,133,5,4.819667113241241,-12.924510812836616,-12.741237816287123
1768736215568,132,4,4.15600870725701,-13.822150835635371,-13.4068933956403
1768736215572,131,3,3.5093786008129912,-14.73483867638928,-14.056246305357794
1768736215576,131,3,2.832190931211854,-14.844440586924152,-14.73636298020458
1768736215580,130,2,2.02965154817589,-15.685720902564585,-15.541562862519552
1768736215584,129,1,1.071612555609435,-16.987393698832886,-16.50178637117322
1768736215588,128,0,0.0525859612860601,-17.76442996716076,-17.522464072932387
1768736215592,127,-1,-0.8585708601839805,-18.83063557758122,-18.434818077391338
1768736215596,126,-2,-1.5374927601113115,-19.800657724076483,-19.114836815921507
1768736215600,126,-2,-1.9889033040176485,-19.719748154448993,-19.56787071850939
1768736215604,126,-2,-2.32643755387242,-20.035858711867363,-19.907952576661607
1768736215608,125,-3,-2.673687947674889,-20.695891301483307,-20.258167682117584
1768736215612,125,-3,-3.080733801255639,-20.96388863331312,-20.66742531652958
1768736215616,124,-4,-3.5206978831003957,-21.689764595597627,-21.108292733207968
1768736215620,124,-4,-3.9429432103557422,-21.857294680380555,-21.53090162168538
1768736215624,124,-4,-4.315791933851401,-21.937925136751243,-21.904674660877713
1768736215628,123,-5,-4.62753923468382,-22.793807094139503,-22.21795093850264
1768736215632,123,-5,-4.866606555508646,-22.91799063720358,-22.45836787489648
1768736215636,123,-5,-5.00826962693549,-22.747222390265136,-22.60093508880313
1768736215640,123,-5,-5.016627160473581,-22.84554080224323,-22.610218406251334
1768736215644,123,-5,-4.86630137801355,-22.960489778977063,-22.46101135616929
1768736215648,123,-5,-4.57947766201391,-22.78331733554763,-22.175151974264654
1768736215652,124,-4,-4.243536343864908,-21.974959473863663,-21.84002969660035
1768736215656,124,-4,-3.973883692949663,-21.695681959933715,-21.57150996034413
1768736215660,124,-4,-3.8438731058748146,-21.944238278477155,-21.44285764970127
1768736215664,124,-4,-3.8468932999405534,-21.86568885038693,-21.44662619370031
1768736215668,124,-4,-3.919208978129976,-21.892253004936215,-21.51865734788768
1768736215672,124,-4,-3.986640894606608,-21.916152822442932,-21.585457980622593
1768736215676,124,-4,-3.98994583825657,-21.738111475889724,-21.588704114918563
1768736215680,124,-4,-3.8878486010531463,-21.960272967927196,-21.48717694486058
1768736215684,124,-4,-3.6616630720942345,-21.831498967768383,-21.26162230536533
1768736215688,125,-3,-3.325514461963962,-20.960408239915168,-20.92589303381496
1768736215692,125,-3,-2.926543814206915,-20.870407132531096,-20.527241349321756
1768736215696,125,-3,-2.5309274952590997,-20.788289473252966,-20.131825221836603
1768736215700,126,-2,-2.204573747836675,-19.94526177135495,-19.80541002136735
1768736215704,126,-2,-1.992171213861289,-19.838092763166102,-19.59269938397043
1768736215708,126,-2,-1.8996195616828917,-19.992706847344856,-19.499642339870192
1768736215712,126,-2,-1.894270752374217,-19.831681578870224,-19.493569148489023
1768736215716,126,-2,-1.9266356134263056,-19.860649841632487,-19.525151124770375
1768736215720,126,-2,-1.9561774459002803,-19.876352136513233,-19.55420093078162
1768736215724,126,-2,-1.96440740425318,-19.91222233607496,-19.56231547436542
1768736215728,126,-2,-1.9543532425388177,-19.94177931801327,-19.552131315542173
1768736215732,126,-2,-1.941808853036367,-19.878248736844547,-19.53897493049466
1768736215736,126,-2,-1.9415085601667623,-19.84649126009738,-19.537525355407983
1768736215740,126,-2,-1.954177897275586,-19.882197777080187,-19.548864784029
1768736215744,126,-2,-1.9652292948255885,-19.924684301917992,-19.55879239359503
1768736215748,126,-2,-1.9594779007332417,-19.92732705355897,-19.55225065040463
1768736215752,126,-2,-1.9399558739680955,-19.90981167058527,-19.532136464627733
1768736215756,126,-2,-1.9307572815779552,-19.823660807560813,-19.522272543278618
1768736215760,126,-2,-1.9558238123769904,-19.900958849076407,-19.546305538926312
1768736215764,126,-2,-2.0079385810788235,-19.929553540001457,-19.59681214593055
1768736215768,126,-2,-2.034234505305335,-19.889864633405686,-19.62094791791823
1768736215772,126,-2,-1.954942962811265,-20.008473709915148,-19.539320812785775
1768736215776,126,-2,-1.7069764848796385,-19.667053661005976,-19.28951262749398
1768736215780,127,-1,-1.283129506733405,-19.121724397422337,-18.864792698740413
1768736215784,127,-1,-0.7408834870789804,-18.65199224235655,-18.322261748469327
1768736215788,128,0,-0.1776164898655817,-18.20183820056199,-17.75816432758931
1768736215792,128,0,0.3144270301093187,-17.698884909534133,-17.264010459993635
1768736215796,129,1,0.6963617369571766,-16.95349080221088,-16.87918420646369
1768736215800,129,1,1.0085903694298315,-16.888846356058835,-16.56429903566091
1768736215804,129,1,1.3444588442189955,-16.801770387736596,-16.226273121207488
1768736215808,130,2,1.7745377312299486,-16.13437323449461,-15.79402112570176
1768736215812,130,2,2.278145839162722,-15.689948836820928,-15.287988240675917
1768736215816,131,3,2.7442026875334937,-15.024026332549631,-14.819769038540418
1768736215820,131,3,3.0403295974081175,-14.77033159044446,-14.522253927872484
1768736215824,131,3,3.085271456505173,-14.92073670437748,-14.476302936287116
1768736215828,131,3,2.8655686478856017,-15.040292685964465,-14.69425178246432
1768736215832,130,2,2.402823303363966,-15.728023181900364,-15.153818357888223
1768736215836,130,2,1.728260020265505,-16.061966709361975,-15.82434194559535
1768736215840,129,1,0.8996451768163014,-16.62281884713982,-16.64923796431847
1768736215844,128,0,0.0281031544535226,-18.139997285912553,-17.517918391199025
1768736215848,127,-1,-0.7438482399834647,-18.760124230276617,-18.28751398773052
1768736215852,127,-1,-1.316870573006099,-19.021834305145266,-18.858257965254825
1768736215856,126,-2,-1.6984799158674608,-19.7882817913662,-19.237600794016505
1768736215860,126,-2,-1.995097911493326,-19.804624160718333,-19.53191380026183
1768736215864,126,-2,-2.334250354951668,-20.02862663666321,-19.868411304057943
1768736215868,125,-3,-2.774729762511218,-20.779124857379593,-20.305555546675592
1768736215872,125,-3,-3.270036804777267,-21.08141140301529,-20.796908127424537
1768736215876,124,-4,-3.7080480747077686,-21.651667235499232,-21.23089139913069
1768736215880,124,-4,-3.991602525393837,-21.959383082931435,-21.51095085517413
1768736215884,124,-4,-4.098408638531231,-21.82308180931983,-21.614839837761732
1768736215888,124,-4,-4.082579826740568,-21.981437913597816,-21.596035533861823
1768736215892,124,-4,-4.027945935916888,-21.89030730285949,-21.53777950718947
1768736215896,124,-4,-3.9940576712558937,-21.7913321079902,-21.499968454548466
1768736215900,124,-4,-3.992010057401832,-21.8406980212453,-21.49478973180717
1768736215904,124,-4,-4.001080269147613,-21.86191682055179,-21.50193695864803
1768736215908,124,-4,-4.00686482350988,-21.976004339901564,-21.505626993035904
1768736215912,124,-4,-4.0226307187935655,-21.857167398201696,-21.516738169871346
1768736215916,124,-4,-4.067177600931743,-21.81133261010071,-21.553060396252818
1768736215920,124,-4,-4.118003314837188,-21.805725359734836,-21.59432097423341
1768736215924,124,-4,-4.098795008120867,-21.823906112779135,-21.56903214522979
1768736215928,124,-4,-3.937897974727567,-22.059986868265,-21.40971847119456
1768736215932,124,-4,-3.644865657730715,-21.689750987182585,-21.125494805553327
1768736215936,125,-3,-3.279833668970582,-21.027422933100368,-20.769596240758705
1768736215940,125,-3,-2.7400594656011386,-20.484533279623257,-20.228803388358635
1768736215944,127,-1,-1.4610153997527076,-19.15809754049088,-18.932088895370537
1768736215948,130,2,1.7031423420881922,-15.67893038773599,-15.73811899307604
1768736215952,137,9,8.143869574038042,-9.05641623276872,-9.270071876575091
1768736215956,146,18,18.64861568073626,0.3594787811665867,1.244590601202173
1768736215960,159,31,32.378488836907295,13.221102660828652,14.96222682075252
1768736215964,174,46,46.370148052099765,28.13026447979741,28.927246906043223
1768736215968,185,57,56.19497722784906,39.09416655425195,38.72582710028634
1768736215972,187,59,57.74936340666913,41.1077681326918,40.2689426309357
1768736215976,178,50,49.28513473712637,32.22996988531774,31.8169194045684
1768736215980,160,32,32.452271226142344,14.311455997323248,15.017596623519726
1768736215984,139,11,11.677820860679502,-6.903040186431136,-5.715790960601945
1768736215988,120,-8,-7.756237964473481,-25.84755577202203,-25.120502017768228
1768736215992,106,-22,-21.832524062453466,-39.799745145134,-39.19190199911375
1768736215996,99,-29,-29.03666651477769,-46.84338515615816,-46.41324241566787
1768736216000,98,-30,-30.27642727587641,-47.43944839218052,-47.67721275020279
1768736216004,101,-27,-27.79877028535451,-45.27375995292632,-45.21428005562032
1768736216008,104,-24,-23.862238543510788,-41.32502072191711,-41.27532135318055
1768736216012,109,-19,-19.881312507059988,-37.42702437151026,-37.278046805248096
1768736216016,110,-18,-16.33543068327498,-35.07994384325323,-33.71118540268868
1768736216020,115,-13,-13.215916607144743,-31.221497925111706,-30.575260966230474
1768736216024,118,-10,-10.509780256492276,-27.45984446454879,-27.862068077565475
1768736216028,120,-8,-8.360042241324894,-26.06277029167606,-25.71311964769521
1768736216032,121,-7,-6.920495494190903,-24.721695601732826,-24.276090922704064
1768736216036,122,-6,-6.166752695210662,-23.61206408747382,-23.520751002197883
1768736216040,122,-6,-5.868047511560495,-23.796751309456837,-23.21491624840042
1768736216044,122,-6,-5.7206215760728645,-23.71199955707724,-23.057813579550665
1768736216048,123,-5,-5.508492889914894,-22.871876375484852,-22.83747054789827
1768736216052,123,-5,-5.16839339420906,-22.7790013092996,-22.492262171219856
1768736216056,123,-5,-4.742416737134913,-22.53180155994293,-22.062861301708725
1768736216060,124,-4,-4.291951730319019,-21.832244026559735,-21.608351491883234
1768736216064,124,-4,-3.846977678701202,-21.635544931268782,-21.157964611657604
1768736216068,125,-3,-3.4095597268108015,-20.912571291430815,-20.714624315751077
1768736216072,125,-3,-2.9876827531425927,-20.65612119499655,-20.286994788728464
1768736216076,125,-3,-2.6214782464204007,-20.60784821609029,-19.91485976777139
1768736216080,126,-2,-2.36788170967422,-19.71063503994553,-19.65479448173629
1768736216084,126,-2,-2.241486034550995,-19.71102181538264,-19.521893316609173
1768736216088,126,-2,-2.1642026499382085,-19.80949392138151,-19.438678496823428
1768736216092,126,-2,-1.9932984279234909,-19.644311372592934,-19.262131905949616
1768736216096,126,-2,-1.6281255510698558,-19.610565329422876,-18.89095917660144
1768736216100,127,-1,-1.1013024393296604,-18.61318857065378,-18.358017399097637
1768736216104,128,0,-0.5579513844975139,-17.79829147639148,-17.80930656729482
1768736216108,128,0,-0.1371605582480752,-17.64596176418744,-17.38378871010623
1768736216112,128,0,0.1292570269230901,-17.729271456508954,-17.11179711564417
1768736216116,128,0,0.3148644510561179,-17.492276190481988,-16.91887938879192
1768736216120,129,1,0.5233725088792538,-16.649196902765155,-16.702443260001473
1768736216124,129,1,0.8235343885994797,-16.746622208164258,-16.395455474768454
1768736216128,129,1,1.2283388351435978,-16.591288520950744,-15.985132847273794
1768736216132,130,2,1.7013071205423982,-15.733586856542187,-15.506874972187603
1768736216136,130,2,2.178762725528906,-15.415003207771852,-15.02371180760492
1768736216140,131,3,2.6066678991889867,-14.685637016693248,-14.589858051796297
1768736216144,131,3,2.9696020297486787,-14.637347091695608,-14.220744092865832
1768736216148,131,3,3.2858730032659147,-14.645553762143573,-13.89768562881639
1768736216152,132,4,3.581790676636196,-13.578651138310477,-13.594481656094056
1768736216156,132,4,3.8821532608496128,-13.533689047056397,-13.287085738043896
1768736216160,132,4,4.22067097233392,-13.483731846958944,-12.942206648598829
1768736216164,133,5,4.636999349005178,-12.79365142070016,-12.519789802005375
1768736216168,133,5,5.146501378900193,-12.395999424124687,-12.00392175165024
1768736216172,134,6,5.711573345515345,-11.769243251290586,-11.43220527882318
1768736216176,134,6,6.2477321068888445,-11.249640488722576,-10.889587305811666
1768736216180,135,7,6.664992466808929,-10.726917088951064,-10.466371001280685
1768736216184,135,7,6.914287445858685,-10.469950783855772,-10.211261795315815
1768736216188,135,7,7.005272666059052,-10.639854149368803,-10.113702198494632
1768736216192,135,7,6.988366691484395,-10.465908175631968,-10.12276696401128
1768736216196,135,7,6.925426779247966,-10.434756403236118,-10.177294739785255
1768736216200,135,7,6.873664724343931,-10.53086015207478,-10.22154340878372
1768736216204,135,7,6.877762458508384,-10.527930684642016,-10.211655805430295
1768736216208,135,7,6.950312797499649,-10.56052223197819,-10.134272118475389
1768736216212,135,7,7.0449526358175305,-10.412233348541816,-10.033999454689786
1768736216216,135,7,7.0577763684486445,-10.4393109369227,-10.013726478162004
1768736216220,135,7,6.883567207927643,-10.4415709510352,-10.17950921201866
1768736216224,135,7,6.498169205631525,-10.535965746718023,-10.55725292909886
1768736216228,134,6,5.988740010580409,-11.48093174223538,-11.060355342178893
1768736216232,133,5,5.481046592455607,-12.390330662849191,-11.56188826700436
1768736216236,133,5,5.018816756780117,-12.387223210478927,-12.017053804484242
1768736216240,133,5,4.519875370819763,-12.415918825413662,-12.508466952045971
1768736216244,132,4,3.861594839148312,-13.45668402003351,-13.159740188564918
1768736216248,131,3,3.005643672321034,-14.504818392541535,-14.009213184734294
1768736216252,130,2,2.033625931977087,-15.230724959133218,-14.97454808583773
1768736216256,129,1,1.0693201739593563,-16.52715184404193,-15.9316883578711
1768736216260,128,0,0.1767888212032249,-17.12830883385179,-16.81693194242535
1768736216264,128,0,-0.6685503122167584,-17.693058678781984,-17.65505607332898
1768736216268,126,-2,-1.520054474403662,-19.145009674453014,-18.499188456655055
1768736216272,126,-2,-2.374655265344575,-19.512067613768803,-19.34627843326025
1768736216276,125,-3,-3.1406723816659645,-20.168494835918445,-20.105137589260742
1768736216280,124,-4,-3.692627938873876,-21.383415302650945,-20.650410425431566
1768736216284,124,-4,-3.977096963497157,-21.352982117553747,-20.92801911135043
1768736216288,124,-4,-4.077831589293304,-21.35526163205829,-21.02126297530907
1768736216292,124,-4,-4.165607831864905,-21.249477204088887,-21.10146341309806
1768736216296,124,-4,-4.363581938888306,-21.29582171352382,-21.29251918074305
1768736216300,123,-5,-4.653588518144323,-22.209251953326675,-21.57601057732714
1768736216304,123,-5,-4.915243412043322,-22.390218910293452,-21.830587000844833
1768736216308,123,-5,-5.052727158113866,-22.2318144137975,-21.96006503533849
1768736216312,123,-5,-5.077017327358021,-22.273235409738703,-21.976085652937115
1768736216316,123,-5,-5.068830423034764,-22.15975246069613,-21.96019086948382
1768736216320,123,-5,-5.075302909283923,-22.262146184505603,-21.95966831685371
1768736216324,123,-5,-5.053325220389036,-22.225768884141612,-21.930917416288764
1768736216328,123,-5,-4.917199907193074,-22.294351638403185,-21.787699043877172
1768736216332,123,-5,-4.641731718919967,-22.108862064538947,-21.5047883546497
1768736216336,124,-4,-4.313727866448155,-21.213916433594974,-21.16945844974763
1768736216340,124,-4,-4.072305001469039,-21.09860250839203,-20.92104913803832
1768736216344,124,-4,-3.989436033819074,-21.300458923189613,-20.8309779332992
1768736216348,124,-4,-4.002114776030226,-21.084998374262337,-20.835532323933993
1768736216352,124,-4,-3.955697440935109,-21.24906253813877,-20.78028466949516
1768736216356,124,-4,-3.717751541057016,-20.928214608713667,-20.53392997377884
1768736216360,125,-3,-3.271675546596766,-20.292060743925465,-20.08073657298297
1768736216364,125,-3,-2.7270340053321345,-19.98422011827255,-19.5299850829072
1768736216368,126,-2,-2.248524802277451,-19.28871899151888,-19.045282240329172
1768736216372,126,-2,-1.9571281924623576,-18.95042409292085,-18.74672687384103
1768736216376,126,-2,-1.868844695573551,-19.095644616047437,-18.650218533726523
1768736216380,126,-2,-1.906510525540068,-19.03139255675422,-18.679115536946775
1768736216384,126,-2,-1.9669587776466435,-19.095696771558313,-18.730955131783897
1768736216388,126,-2,-1.9880125382286236,-19.10006955808848,-18.74406800383109
1768736216392,126,-2,-1.9687743998811205,-18.98204325964005,-18.717650440637808
1768736216396,126,-2,-1.9411674520792397,-18.98427004920186,-18.68329017990815
1768736216400,126,-2,-1.9286981877886655,-18.989380277790865,-18.66391456104033
1768736216404,126,-2,-1.9295273355964548,-19.03746826609511,-18.657195293024376
1768736216408,126,-2,-1.9301268694537548,-19.031266463828867,-18.649541327315415
1768736216412,126,-2,-1.925605422742404,-18.93112649254259,-18.636495965361725
1768736216416,126,-2,-1.9223174380456944,-18.91428783160807,-18.62501290140551
1768736216420,126,-2,-1.9240180964972815,-18.92945297989724,-18.61913170757061
1768736216424,126,-2,-1.9229461375275472,-18.97229957239189,-18.610884641301908
1768736216428,126,-2,-1.9090450858495835,-18.97847095023913,-18.58975807493397
1768736216432,126,-2,-1.8861883845338865,-18.854962496973396,-18.559248879113035
1768736216436,126,-2,-1.8741255791843603,-18.86133017327263,-18.53896693617415
1768736216440,126,-2,-1.8901634373496707,-18.857748424826593,-18.546399103347383
1768736216444,126,-2,-1.9265650092674789,-18.89687950564658,-18.574379659191543
1768736216448,126,-2,-1.945248132059076,-18.955793934211624,-18.585504800751533
1768736216452,126,-2,-1.8980326539457304,-18.719129172247428,-18.531607817903375
1768736216456,126,-2,-1.760348828793446,-18.883461113261017,-18.387065188519056
1768736216460,126,-2,-1.5495896961008542,-18.69558488996924,-18.16806525259106
1768736216464,127,-1,-1.3009356077162413,-17.90102064537228,-17.909888023268763
1768736216468,127,-1,-1.0106448975963211,-17.874226034520323,-17.610261990913763
1768736216472,127,-1,-0.6067420505772275,-17.590266886034744,-17.198462244474026
1768736216476,128,0,-0.0015787802847826,-16.965386209718382,-16.58656355404622
1768736216480,128,0,0.8013327842932108,-16.375527787276756,-15.776747997247346
1768736216484,130,2,1.6496804133543126,-15.178978991681566,-14.920483519559728
1768736216488,130,2,2.3109643848425456,-14.368088255956271,-14.25066065924785
1768736216492,131,3,2.625868892605554,-14.033122184795308,-13.92741586520376
1768736216496,130,2,2.6111580143690403,-14.330797268633193,-13.934111841227567
1768736216500,130,2,2.415131255108461,-14.893583994163158,-14.121984506497522
1768736216504,130,2,2.171184074080992,-14.532283037140292,-14.357498894894762
1768736216508,130,2,1.8917136923978184,-14.814458090557588,-14.628601438144326
1768736216512,129,1,1.493895509659279,-15.520682632617572,-15.01829690474247
1768736216516,129,1,0.9166513764760178,-15.591323757674704,-15.587490867272354
1768736216520,128,0,0.2116388899948805,-16.6048812005934,-16.284403711968885
1768736216524,127,-1,-0.4754200614986601,-17.57756000352222,-16.963341143980767
1768736216528,127,-1,-1.0170901872850484,-17.696805608196023,-17.49678572001691
1768736216532,126,-2,-1.4095393510577556,-18.416738897798652,-17.880789843542736
1768736216536,126,-2,-1.7706724651775627,-18.59230491446264,-18.23350161885672
1768736216540,126,-2,-2.224473760221205,-18.41929428718244,-18.679323333786485
1768736216544,125,-3,-2.775794604394553,-19.64009272561093,-19.22284677484827
1768736216548,124,-4,-3.299283744667861,-20.48288045876089,-19.73777539578395
1768736216552,124,-4,-3.655567226860205,-20.434497408763008,-20.08454733728196
1768736216556,124,-4,-3.814689849714393,-20.4860658562918,-20.234492174193043
1768736216560,124,-4,-3.866957701540145,-20.275612627947933,-20.279017848426975
1768736216564,124,-4,-3.9314304529535433,-20.726694532750912,-20.336325137897497
1768736216568,123,-5,-4.06757692317295,-21.152568847513784,-20.46411438282361
1768736216572,124,-4,-4.2587341152462574,-20.67644498811544,-20.645615743351723
1768736216576,123,-5,-4.449381257536721,-21.040061333742877,-20.82712529660013
1768736216580,123,-5,-4.591090509981864,-21.567023753404673,-20.96145979677812
1768736216584,123,-5,-4.672159551256775,-21.291541529476444,-21.035772650951028
1768736216588,123,-5,-4.715481163606154,-21.378090840961043,-21.07044617458582
1768736216592,123,-5,-4.739766775134266,-21.371491762445913,-21.08278002140651
1768736216596,123,-5,-4.71668322115332,-21.076548143225924,-21.045777562731494
1768736216600,123,-5,-4.579396034610372,-21.451334845220067,-20.896577736568293
1768736216604,123,-5,-4.29368143243506,-21.182606912577548,-20.60549812657909
1768736216608,124,-4,-3.9183880737858625,-20.33061188665586,-20.232661339341306
1768736216612,124,-4,-3.550237373480364,-20.30776181085579,-19.869407487463395
1768736216616,124,-4,-3.1192770808166648,-19.85222880823553,-19.435196739910335
1768736216620,126,-2,-2.1274095813042457,-18.64413436143245,-18.423962206753536
1768736216624,128,0,0.4731846268987576,-15.670689395589353,-15.790742924662302
1768736216628,135,7,6.033874178364524,-9.8008997618333,-10.197707078240754
1768736216632,142,14,15.486569596398276,-1.560220334473934,-0.727653721269597
1768736216636,155,27,28.36597352493759,10.555489236960288,12.148400810801164
1768736216640,169,41,42.19083762086328,25.10586697981992,25.955041339695025
1768736216644,181,53,52.86959960959447,36.82745492943722,36.613542481037825
1768736216648,185,57,56.24828057029307,40.71953723034547,39.98346587995713
1768736216652,178,50,50.07852210233848,34.22394229727832,33.825312447449946
1768736216656,163,35,35.24955530733956,18.738293071306657,19.028167321007295
1768736216660,142,14,15.51512051898199,-1.7717041977970478,-0.6647229542153035
1768736216664,123,-5,-4.121557963050941,-21.200453431048807,-20.26637865111742
1768736216668,108,-20,-19.423074979776473,-35.94292340270069,-35.55195688919321
1768736216672,99,-29,-28.28117700963286,-44.87101723258858,-44.41440588143481
1768736216676,97,-31,-30.902413041727435,-46.994778649550184,-47.050378670396
1768736216680,99,-29,-29.012292817027703,-44.79748860534808,-45.17173272378055
1768736216684,103,-25,-24.732490226402277,-41.10737836599483,-40.89076813164591
1768736216688,107,-21,-19.77128788038874,-36.74975119265898,-35.91461594029646
1768736216692,112,-16,-15.177684692822115,-31.9684171075699,-31.29853565593852
1768736216696,116,-12,-11.47753778975974,-27.642766482538136,-27.57744476383292
1768736216700,119,-9,-8.86435366234116,-25.040546133049233,-24.950549055805965
1768736216704,120,-8,-7.285367388597653,-23.64627078698001,-23.36411311118061
1768736216708,121,-7,-6.4797298430266705,-23.0190215429992,-22.552144873319275
1768736216712,121,-7,-6.067213155592867,-22.50646807325181,-22.130659214710462
1768736216716,122,-6,-5.690432190538662,-21.87149428324991,-21.742725721171336
1768736216720,122,-6,-5.140110523411446,-21.680121621671137,-21.1817431016743
1768736216724,123,-5,-4.402850095753239,-20.741367996219253,-20.43566047498377
1768736216728,124,-4,-3.6178508473069577,-19.785942778948673,-19.642481895675417
1768736216732,124,-4,-2.9699888172122852,-19.469989201633947,-18.98501387361197
1768736216736,125,-3,-2.5732100985826145,-18.761428454779715,-18.57656435454072
1768736216740,125,-3,-2.4042685726239066,-18.56696332907265,-18.395190887456845
1768736216744,125,-3,-2.3255971414470435,-18.674330464209376,-18.304949739615388
1768736216748,125,-3,-2.1873259043613844,-18.63682762635689,-18.156254197461912
1768736216752,125,-3,-1.937527498916172,-18.39533517304855,-17.896344055429005
1768736216756,126,-2,-1.6477843201197602,-17.649544458624774,-17.59618958373702
1768736216760,126,-2,-1.4260472237219743,-17.46258661288122,-17.363763135419752
1768736216764,126,-2,-1.297775074750218,-17.5841277493301,-17.224504562949566
1768736216768,126,-2,-1.1722664081211047,-17.52043045140923,-17.087421276679834
1768736216772,126,-2,-0.9252713673478798,-17.268074401620506,-16.828341599219314
1768736216776,127,-1,-0.5137880596716493,-16.61800889077503,-16.405012808309156
1768736216780,127,-1,-0.0154616919017726,-16.21789235865189,-15.895789381329744
1768736216784,128,0,0.4360536517401993,-15.687399963794627,-15.43410302825848
1768736216788,128,0,0.7555655243892239,-15.141442933768529,-15.10396175907862
1768736216792,128,0,0.9610056964683786,-15.46313640965562,-14.886319338051331
1768736216796,128,0,1.1428235374637947,-15.217613048301178,-14.69098739293835
1768736216800,129,1,1.390655271644603,-14.355091743572832,-14.430005878294764
1768736216804,129,1,1.74311083625074,-14.40888616951331,-14.06606647343776
1768736216808,129,1,2.182073595717645,-14.10225667852938,-13.61660631520702
1768736216812,130,2,2.6524676338776354,-13.365271992095815,-13.134863324226156
1768736216816,130,2,3.094499329639239,-13.040574218384611,-12.67986206908112
1768736216820,131,3,3.4833049275162673,-12.343135720529144,-12.277470453747398
1768736216824,131,3,3.850006501480504,-12.190592103796796,-11.897867469082392
1768736216828,131,3,4.252835956225275,-12.068998161589835,-11.482930590376132
1768736216832,132,4,4.712536816533233,-11.217203272069767,-11.011076124104328
1768736216836,132,4,5.176114631168193,-10.906590463678516,-10.534745969455418
1768736216840,133,5,5.556398392993303,-10.326102592899735,-10.141333571483624
1768736216844,133,5,5.817538805097125,-9.886493384459232,-9.867015928568476
1768736216848,133,5,6.021786122710895,-10.224457341798727,-9.64932610549615
1768736216852,133,5,6.285267819825367,-9.768682253854928,-9.371768073268246
1768736216856,134,6,6.680449244700009,-9.167102433730635,-8.96219817471243
1768736216860,134,6,7.174545873541882,-8.825014290041599,-8.454346583277625
1768736216864,135,7,7.653321348343264,-8.115516868796224,-7.962932565352268
1768736216868,135,7,7.998433191588192,-7.808480829807799,-7.605518606995039
1768736216872,135,7,8.148764163711752,-7.892944825256034,-7.4417530317458365
1768736216876,135,7,8.108808547220253,-7.886220963914685,-7.466512570577393
