timestamp_ms,ecg_u8_raw,ecg_counts_raw_int,ecg_counts_filt_monitor,ecg_counts_filt_diagnostic,ecg_counts_filt_st
1768726620156,119,-9,-0.8139389461324578,-9.030923552924282,-8.948931196560707
1768726620160,120,-8,-0.4026407447834654,-8.060685751017129,-8.560229077922285
1768726620164,120,-8,-0.1464512938069184,-8.039749225371647,-8.325176458253491
1768726620168,120,-8,-0.0822827091810496,-8.327331807044025,-8.28041290331084
1768726620172,120,-8,-0.2052480448852284,-7.8584164743876865,-8.421618644917764
1768726620176,120,-8,-0.4462721466807726,-8.364202870315907,-8.681129772892817
1768726620180,119,-9,-0.665481708580864,-8.728904434941391,-8.920303247605926
1768726620184,120,-8,-0.7016758918714089,-8.482036800838934,-8.97761484196809
1768726620188,119,-9,-0.4702267698493725,-8.926882711702746,-8.766637596240352
1768726620192,120,-8,-0.0334096342091045,-8.26907967913431,-8.348306393970402
1768726620196,121,-7,0.4395735005148138,-7.0687284518039535,-7.892476071660344
1768726620200,121,-7,0.8100191459868205,-7.02655929220902,-7.539476191225951
1768726620204,121,-7,1.0773719824800565,-7.328437331424732,-7.290338636107198
1768726620208,121,-7,1.344465319639662,-7.066662155195638,-7.041325913412441
1768726620212,122,-6,1.6796971171036408,-6.2253886980944575,-6.723211403687603
1768726620216,122,-6,2.026398199647284,-6.143010202228296,-6.392639357421696
1768726620220,122,-6,2.2520049017496664,-6.012537256169218,-6.182540864399885
1768726620224,123,-5,2.284886105993205,-5.441223136174891,-6.164910789176194
1768726620228,122,-6,2.204761982381082,-5.966622809355231,-6.260189576720256
1768726620232,122,-6,2.1928423060531728,-6.428676711854692,-6.287018063719226
1768726620236,122,-6,2.375029714781992,-5.9452470594533855,-6.119361751336433
1768726620240,123,-5,2.7002920450926817,-5.303313579812173,-5.808437533441635
1768726620244,123,-5,2.971966104404651,-5.210173992767239,-5.551001972939858
1768726620248,123,-5,3.005990365929171,-5.2312402474603665,-5.530689659023977
1768726620252,123,-5,2.775637898965027,-5.267703336127686,-5.773662745690071
1768726620256,122,-6,2.423337259803909,-6.098954268017224,-6.13742209819223
1768726620260,122,-6,2.1393167134230096,-6.2978456125520275,-6.432225763413118
1768726620264,122,-6,2.015387891838885,-6.17941357834056,-6.566903572095444
1768726620268,122,-6,1.9954266511733976,-6.417254250865322,-6.597959936570354
1768726620272,122,-6,1.9544547740751923,-6.032797785685845,-6.650255383175047
1768726620276,122,-6,1.8253615462863988,-6.482874463125741,-6.7902936025769165
1768726620280,121,-7,1.6574889095510823,-6.9194358003980225,-6.967956324055837
1768726620284,122,-6,1.562600849461546,-6.657532807688168,-7.071065282546862
1768726620288,121,-7,1.609678804283138,-6.981046524913323,-7.030968706139562
1768726620292,122,-6,1.7698139528609789,-6.5099667327779605,-6.8775244183100765
1768726620296,122,-6,1.9542802449122096,-6.0816082747811535,-6.700327780291453
1768726620300,122,-6,2.0942481143857377,-6.367978773170829,-6.5681915148664975
1768726620304,122,-6,2.173952824732937,-6.301932651976175,-6.495968034163414
1768726620308,122,-6,2.189283808961188,-6.363972723582864,-6.486934356909331
1768726620312,122,-6,2.09448450708436,-6.207006815707532,-6.586862669740417
1768726620316,122,-6,1.8148813117891671,-6.411289772623857,-6.870896587983237
1768726620320,121,-7,1.3269834170711383,-7.129753472561422,-7.3626372551876464
1768726620324,121,-7,0.729855148567447,-7.590633318445983,-7.962728208659426
1768726620328,120,-8,0.2334669975631834,-8.149432624721216,-8.461074348520876
1768726620332,120,-8,0.0582988502846583,-8.453285356960038,-8.637542127712953
1768726620336,120,-8,0.3111230427104174,-8.241628662400284,-8.386018672742313
1768726620340,121,-7,0.9231139094729546,-7.325719501801622,-7.775900696309463
1768726620344,122,-6,1.6916609898770674,-6.511836738496126,-7.009744182232002
1768726620348,122,-6,2.389357368084716,-6.231582674873842,-6.314065001566752
1768726620352,123,-5,2.862878614330263,-5.4843810545747935,-5.841023435349603
1768726620356,123,-5,3.0726385737095643,-5.213735884910828,-5.629554122929991
1768726620360,123,-5,3.076043816020283,-5.464520352195371,-5.622370351314834
1768726620364,123,-5,2.98233812721001,-5.407923976258812,-5.711072922360372
1768726620368,123,-5,2.90471578773705,-5.407215960077632,-5.783905982430696
1768726620372,123,-5,2.9205314907262374,-5.3650190295915845,-5.764794319901096
1768726620376,123,-5,3.034759577279598,-5.368327113214711,-5.648679032268948
1768726620380,123,-5,3.148590495642883,-5.406920730908125,-5.532742952091497
1768726620384,123,-5,3.067099686520591,-5.490361983601979,-5.610195445730499
1768726620388,123,-5,2.5861349359221943,-5.438677398308444,-6.084772634220551
1768726620392,122,-6,1.6338628114480205,-6.3223770996235285,-7.028887192328092
1768726620396,120,-8,0.3609853792006156,-8.53851070840206,-8.292443218981138
1768726620400,119,-9,-0.911653118754422,-9.23653068363053,-9.555217524479064
1768726620404,119,-9,-1.861993718194224,-9.78415159849182,-10.495967475677054
1768726620408,117,-11,-2.3342092607966327,-11.1653043155575,-10.959195285801002
1768726620412,118,-10,-2.401365373977163,-10.64921033361133,-11.017468868640304
1768726620416,118,-10,-2.2955575895748264,-10.273558611843054,-10.902347989102996
1768726620420,118,-10,-2.2576822677907296,-10.560031082307878,-10.854574805451838
1768726620424,118,-10,-2.4124909258991916,-10.55600393512512,-10.998502512819782
1768726620428,117,-11,-2.750697118390429,-11.419631417706263,-11.32401901445434
1768726620432,117,-11,-3.198062579847555,-11.48851363705466,-11.756508124471884
1768726620436,117,-11,-3.6774355140012087,-11.436874190273045,-12.219413536524002
1768726620440,116,-12,-4.1099635231802,-12.511048154786778,-12.63491937415892
1768726620444,116,-12,-4.396147592331687,-12.646526648815204,-12.904501539157131
1768726620448,116,-12,-4.44285184776256,-12.386159621052794,-12.935913256854946
1768726620452,116,-12,-4.239120021506567,-12.60717442956658,-12.7185747830605
1768726620456,116,-12,-3.912544921918222,-12.316405107271011,-12.37918685487259
1768726620460,117,-11,-3.6844654926877407,-11.753811955413592,-12.136852778133026
1768726620464,117,-11,-3.707678643211936,-11.431783352437211,-12.141407559029515
1768726620468,117,-11,-3.8908260207617382,-11.686846475849771,-12.29903562015004
1768726620472,116,-12,-3.882133017691894,-12.35785017351075,-12.258655663811544
1768726620476,117,-11,-3.292444206052675,-11.603665979361146,-11.637500985003308
1768726620480,119,-9,-2.0419234094245136,-9.563059540836946,-10.365362881862737
1768726620484,120,-8,-0.6045006250308615,-8.638131827434936,-8.920441864499738
1768726620488,120,-8,0.0278684434194227,-8.596549908611493,-8.28698947528915
1768726620492,119,-9,-1.2711834811784537,-9.442117913825363,-9.576099636057206
1768726620496,116,-12,-5.094154838552423,-12.66054142997192,-13.370007941118107
1768726620500,111,-17,-10.828124479357475,-17.530412937057882,-19.058582384840793
1768726620504,105,-23,-16.47751981830296,-23.751037474209987,-24.65838839023663
1768726620508,100,-28,-19.37114310840542,-28.548113469062788,-27.51027480487535
1768726620512,102,-26,-17.561997890150177,-26.486283456758912,-25.673571038567083
1768726620516,110,-18,-11.075474940559763,-18.72568197259656,-19.17371179730918
1768726620520,119,-9,-2.099790644044075,-9.42537591411802,-10.192917039021758
1768726620524,128,0,6.086686484618443,-0.9811525375496766,-1.998413722000238
1768726620528,132,4,10.770326883589991,3.644913652971648,2.7076876787184787
1768726620532,132,4,11.012299303075276,3.162967149329159,2.991072429370404
1768726620536,128,0,7.777592263692664,-0.4680293808022897,-0.1895822169126466
1768726620540,124,-4,3.091726598756107,-4.685548772984168,-4.822134257463483
1768726620544,120,-8,-1.1210654860538254,-8.807232674113619,-8.994024851140772
1768726620548,117,-11,-3.828607501093256,-11.46483420507087,-11.675949199159472
1768726620552,117,-11,-5.002218978740704,-11.915814899621092,-12.832512382977018
1768726620556,116,-12,-5.204900667646576,-12.360805625707558,-13.01535525205144
1768726620560,116,-12,-5.057974167805469,-12.935297539872847,-12.836978981135932
1768726620564,116,-12,-4.913776675312695,-12.534833263055615,-12.648976776399836
1768726620568,117,-11,-4.807865830229729,-11.823010259804123,-12.494258005665676
1768726620572,117,-11,-4.583616713283188,-11.659670445719804,-12.225295729304436
1768726620576,117,-11,-4.076243983391791,-11.643184013032188,-11.68078694703905
1768726620580,118,-10,-3.285038945197893,-10.776116612461824,-10.856494103214022
1768726620584,119,-9,-2.4461702310912945,-9.6485845360319,-9.982968956103804
1768726620588,120,-8,-1.9259646664817616,-8.846574080415046,-9.42386560371838
1768726620592,120,-8,-1.977495451672961,-8.65546100485196,-9.432997614431308
1768726620596,119,-9,-2.5457665430827365,-9.761728969002466,-9.956988595295211
1768726620600,118,-10,-3.2924140188663156,-10.715017999822663,-10.658483082145176
1768726620604,118,-10,-3.824595584640429,-10.721355461940002,-11.1455103541722
1768726620608,118,-10,-3.9390937196003426,-10.875717900057657,-11.215923260364542
1768726620612,118,-10,-3.7000544256784655,-10.63570114514372,-10.934308146522143
1768726620616,119,-9,-3.325932309710079,-9.90568760697563,-10.51811067543954
1768726620620,119,-9,-3.00846812214749,-9.60538862434009,-10.156945138797568
1768726620624,119,-9,-2.811380207744847,-9.884507052199815,-9.91286494495062
1768726620628,119,-9,-2.698623083323622,-9.790821445435505,-9.7504429052737
1768726620632,120,-8,-2.619026787485087,-8.749388223204395,-9.62122023173986
1768726620636,120,-8,-2.551623200836818,-8.91208080936218,-9.50603841629952
1768726620640,119,-9,-2.500246718447742,-9.614295459034754,-9.407347168110851
1768726620644,120,-8,-2.481903314332152,-8.95331324238652,-9.3395574002798
1768726620648,120,-8,-2.5166031440623557,-8.776678054520428,-9.32257325556492
1768726620652,120,-8,-2.600117457254462,-8.818570173641945,-9.354562720087692
1768726620656,120,-8,-2.6876928513910654,-8.940187614858097,-9.39209490031119
1768726620660,119,-9,-2.736194408900168,-9.59711146009475,-9.390434234779782
1768726620664,120,-8,-2.7736508624269764,-9.093504088089215,-9.37540824879893
1768726620668,120,-8,-2.8959886159879287,-8.617210028427312,-9.44297404280572
1768726620672,120,-8,-3.159796710840881,-9.124236634556198,-9.651449228362669
1768726620676,119,-9,-3.4816376870790577,-9.62586397201752,-9.918360862996794
1768726620680,119,-9,-3.6755071659499654,-10.024957319029085,-10.0573114626754
1768726620684,119,-9,-3.6128392766932143,-9.715446166876731,-9.939452536626264
1768726620688,120,-8,-3.348698979391656,-9.02677475538417,-9.620255023571657
1768726620692,120,-8,-3.0883889967513194,-8.824641149630851,-9.304906526178751
1768726620696,120,-8,-3.0238271786615907,-8.910362274363168,-9.1840637120448
1768726620700,120,-8,-3.176766071241375,-8.904569784016196,-9.278404984306302
1768726620704,120,-8,-3.3636946991196135,-8.811500041797414,-9.40486146892037
1768726620708,120,-8,-3.3023726517541383,-9.076029132952184,-9.28260230432856
1768726620712,120,-8,-2.7896521602896853,-8.745838726035068,-8.709573028100753
1768726620716,122,-6,-1.8312863507318065,-7.108958193899339,-7.691916209248669
1768726620720,123,-5,-0.632786397432842,-5.738766603265306,-6.434880711098695
1768726620724,124,-4,0.5312937941786737,-5.056242443154499,-5.212012001503695
1768726620728,125,-3,1.4586498034777668,-3.9086120299776614,-4.2243109545137845
1768726620732,126,-2,2.076149537189311,-2.9245740538487213,-3.544289258740516
1768726620736,126,-2,2.4072806206469024,-3.064502986910773,-3.148946984371775
1768726620740,126,-2,2.509248089313124,-2.7703450301487123,-2.982289902610735
1768726620744,127,-1,2.4388748177532915,-2.1668648531793733,-2.9886464636248484
1768726620748,126,-2,2.259107893440583,-2.7918486105521594,-3.1052717692950256
1768726620752,126,-2,2.0477871173377684,-3.140443591456372,-3.253405963160423
1768726620756,126,-2,1.8750247392385069,-2.8897497545106368,-3.361948519242907
1768726620760,126,-2,1.768383023866365,-3.016963313821474,-3.403281602750493
1768726620764,126,-2,1.707583725376728,-2.9996323981310957,-3.3982058838889047
1768726620768,126,-2,1.654551458538544,-2.9802662329794756,-3.3849949513688866
1768726620772,126,-2,1.5873737604289702,-3.0539805350642366,-3.385393343661596
1768726620776,126,-2,1.5105646094176144,-2.9986172884382305,-3.394985710220745
1768726620780,126,-2,1.440364462408349,-3.0157286531728023,-3.3980407835319535
1768726620784,126,-2,1.3819749990060546,-3.0366745774372057,-3.389619333966752
1768726620788,126,-2,1.3181712440765403,-3.0122686212846457,-3.3863913524609903
1768726620792,126,-2,1.221480975888233,-3.0709919339000917,-3.414833128710676
1768726620796,126,-2,1.0876067968706953,-3.06089052814531,-3.47883555367824
1768726620800,126,-2,0.967502210014642,-3.0030919675068604,-3.5281742496452115
1768726620804,126,-2,0.9630242162258068,-3.142986943796552,-3.462284991238062
1768726620808,126,-2,1.168362511059204,-2.9166992897024486,-3.1877061791624883
1768726620812,127,-1,1.586481921540874,-2.2761402884162862,-2.7010091044594797
1768726620816,127,-1,2.087029224192233,-1.8679402232503637,-2.131330258811143
1768726620820,128,0,2.456271753905739,-1.3163400972467976,-1.691571490982478
1768726620824,128,0,2.5222542186729515,-0.8511720332270185,-1.5539257240621391
1768726620828,128,0,2.268384388089931,-1.2891330688836415,-1.7357652191384498
1768726620832,127,-1,1.841078871183926,-1.969045191296044,-2.091096941033424
1768726620836,127,-1,1.4400026052378216,-2.208476462732185,-2.420260301973116
1768726620840,127,-1,1.1873021033975228,-2.1072851135843256,-2.601063131465396
1768726620844,127,-1,1.0888284660105272,-2.0299974009453843,-2.6274007604446794
1768726620848,127,-1,1.1032510975139875,-2.257590842010694,-2.540057412676931
1768726620852,127,-1,1.2343059661243223,-1.97420910626318,-2.3352817558501986
1768726620856,128,0,1.5553222761366432,-1.3464569034122826,-1.9407793938756956
1768726620860,128,0,2.1432722360319985,-0.999121522001566,-1.2804698379066743
1768726620864,129,1,2.9726724852073456,-0.1976080293718958,-0.3791375042397047
1768726620868,130,2,3.86156397911082,0.8323157798568346,0.5828229195748094
1768726620872,131,3,4.544194875133142,1.9238248311230224,1.339992549826746
1768726620876,132,4,4.845597308908454,2.610695783630609,1.7161603948691375
1768726620880,131,3,4.816041373542948,2.0521876295473365,1.7606771937396193
1768726620884,131,3,4.687223766969876,1.614074745040852,1.7058055270537582
1768726620888,131,3,4.675712040138283,2.032805883463777,1.7689631085811215
1768726620892,132,4,4.81852219228193,2.61717559613686,1.9869458560954487
1768726620896,132,4,4.991188212207738,2.8713593431903695,2.2345725639928897
1768726620900,132,4,5.0660282582066944,2.740942434935986,2.384104779939508
1768726620904,132,4,5.036708992119382,2.81562675771154,2.429574773217559
1768726620908,132,4,4.990996716665277,2.8338178978977315,2.4586540735962004
1768726620912,132,4,4.970908684997041,2.6761693327255016,2.512919690367607
1768726620916,132,4,4.862749331379218,2.832299600539855,2.4786568841169654
1768726620920,132,4,4.435039428965792,2.650086415415406,2.124926169945974
1768726620924,131,3,3.517083583924842,1.8894995200636675,1.2816897547155124
1768726620928,130,2,2.1792023860257403,0.6643827541010134,0.0198009804858538
1768726620932,128,0,0.751310815272112,-1.209046692197192,-1.330644365609491
1768726620936,127,-1,-0.3592485495077578,-2.3393200278030175,-2.3631399545452627
1768726620940,127,-1,-0.916843818401834,-2.2506976437036776,-2.844056258569452
1768726620944,127,-1,-0.9852976161083884,-2.242060813392233,-2.8388670785285006
1768726620948,127,-1,-0.8605108527444449,-2.299830048807914,-2.6429012360361037
1768726620952,127,-1,-0.8879060620947463,-2.2627074073196916,-2.5990567430697347
1768726620956,127,-1,-1.2926976870403224,-2.419899370611126,-2.9302683252830413
1768726620960,126,-2,-2.0979242120692225,-3.166595167382331,-3.659044845238026
1768726620964,125,-3,-3.139650321447572,-4.455415841096765,-4.622417446301081
1768726620968,124,-4,-4.149977025650763,-5.079374403867241,-5.554135272154512
1768726620972,124,-4,-4.862552786491604,-5.598565563861108,-6.189592611717975
1768726620976,123,-5,-5.104524504132743,-6.117964996713629,-6.357155317781655
1768726620980,124,-4,-4.859073589545584,-5.544137468744117,-6.040143507141448
1768726620984,124,-4,-4.282314044869014,-5.132838976785718,-5.393727602296861
1768726620988,125,-3,-3.6451227052274833,-4.455525342787161,-4.687106316319053
1768726620992,126,-2,-3.191107536815115,-3.304814118060645,-4.161599375936984
1768726620996,126,-2,-2.9701689191432545,-3.4553336541318744,-3.8645179103916174
1768726621000,126,-2,-2.764307796845762,-3.316186153385912,-3.5767155344389465
1768726621004,127,-1,-2.1925750908536044,-2.355536100943754,-2.9202485813297816
1768726621008,128,0,-0.9703039208199328,-1.371342323283277,-1.6179301080382955
1768726621012,130,2,0.8080034816890806,0.6353997571835182,0.2284794098790326
1768726621016,132,4,2.5263180538182928,2.4653440574613494,2.002976987699741
1768726621020,132,4,3.173962761544954,2.754875291261281,2.704614215693735
1768726621024,131,3,1.7832282833953053,1.4670601463056094,1.3786314074924393
1768726621028,128,0,-1.9332447733374991,-1.2528094461332548,-2.25661348555111
1768726621032,124,-4,-7.068597006153048,-5.543894367771872,-7.299908065224567
1768726621036,118,-10,-11.579969489538266,-11.443411892235826,-11.719849656099464
1768726621040,115,-13,-13.145763898206996,-14.34759135813542,-13.204290932492128
1768726621044,119,-9,-10.460788629089626,-10.535693593294129,-10.452303206638192
1768726621048,126,-2,-4.127878564245177,-3.225836508695979,-4.065435644242482
1768726621052,134,6,3.5252121756608332,4.324701609111596,3.635938859661072
1768726621056,140,12,9.6287803121902,10.67974997055684,9.793562482199995
1768726621060,143,15,12.202718079940936,13.381688181192562,12.436250854728332
1768726621064,141,13,10.98735429970476,11.62349021598532,11.304475970746768
1768726621068,137,9,7.278012414790703,7.570250200534147,7.684815733704007
1768726621072,133,5,3.001632106130012,3.4459178622241584,3.492382838898718
1768726621076,130,2,-0.3192359924543146,0.6029003573216225,0.2419415600767385
1768726621080,129,1,-2.120577229077976,-0.6729791593159642,-1.5020343998096366
1768726621084,128,0,-2.6938818859060967,-1.3385105058312616,-2.0231760419570843
1768726621088,128,0,-2.689250413877934,-1.579984219551056,-1.961806154115704
1768726621092,128,0,-2.6368718986567217,-1.4327468219814523,-1.8430210218226435
1768726621096,128,0,-2.7384512783087156,-1.5640326442734225,-1.8709639048961857
1768726621100,128,0,-2.9257875600144287,-1.6155958426240389,-1.984396249869795
1768726621104,128,0,-3.039201878684787,-1.4264713788540746,-2.0291430968632356
1768726621108,128,0,-2.982529266194928,-1.6151585292005106,-1.9094118582619537
1768726621112,128,0,-2.783373229763383,-1.3922099152779168,-1.649431425090273
1768726621116,129,1,-2.552767958829502,-0.6837879008827406,-1.3572208958183225
1768726621120,129,1,-2.3877419348551294,-0.564149038736586,-1.129369204769029
1768726621124,129,1,-2.2967392466561094,-0.5441137585650582,-0.9752632318152492
1768726621128,129,1,-2.213441979458996,-0.5930166131496226,-0.8290376034108422
1768726621132,129,1,-2.081273212515142,-0.4309657505059987,-0.6341028542271316
1768726621136,130,2,-1.9148402781346203,0.2792483908621292,-0.4055951066947401
1768726621140,130,2,-1.7713693038426002,0.421399333517809,-0.2015797386662821
1768726621144,130,2,-1.6723209556070444,0.3848124176707972,-0.0434173430816278
1768726621148,130,2,-1.5734891232879824,0.403592681535363,0.114243859300581
1768726621152,130,2,-1.419137787380482,0.5340402285375059,0.327833174702083
1768726621156,131,3,-1.2134974052894614,1.24259273311096,0.5924113151579018
1768726621160,131,3,-1.0275708476200227,1.4217083656534415,0.8359347991630877
1768726621164,131,3,-0.9390450451040194,1.2803181815664075,0.9808782162936414
1768726621168,131,3,-0.9713153715947968,1.457038916170312,1.0049645534509637
1768726621172,131,3,-1.0829773488896492,1.4124758539646614,0.9500756889149238
1768726621176,131,3,-1.2031297851274931,1.3118475812305546,0.8862502524479208
1768726621180,131,3,-1.278496117427803,1.30616130356991,0.8655486801692689
1768726621184,131,3,-1.303429218359435,1.3017109066363846,0.8933898963974349
1768726621188,131,3,-1.318129878223162,1.381090233575013,0.9306110310163672
1768726621192,131,3,-1.375529476045194,1.4160744002213006,0.9256436084731244
1768726621196,131,3,-1.4948620071098262,1.2714389012834717,0.8596324739002652
1768726621200,131,3,-1.6320302632875197,1.267555065154678,0.7755493406794702
1768726621204,131,3,-1.692679308480977,1.2959276582352386,0.7660476770737614
1768726621208,131,3,-1.5908942156418422,1.262239354133338,0.9164411850156072
1768726621212,131,3,-1.3207883326637455,1.5525144310558685,1.2337697619535666
1768726621216,132,4,-0.9808242881702284,1.9946471234344856,1.6212546729785395
1768726621220,132,4,-0.7082595957895823,2.5821891817913727,1.9421352292136664
1768726621224,133,5,-0.5559539628780203,2.8144012369705895,2.1426686067742553
1768726621228,132,4,-0.4174041095392455,2.7381090716082626,2.328423989489535
1768726621232,133,5,-0.0879210496098266,2.98188191542405,2.7039948226447024
1768726621236,133,5,0.5700168628493402,3.5108975231736865,3.407022745328155
1768726621240,135,7,1.4984281929195618,5.050332283519517,4.3790828583788795
1768726621244,136,8,2.468230905381626,6.205226571948312,5.390689373128324
1768726621248,136,8,3.229857198144169,6.366950001568025,6.192960200902534
1768726621252,137,9,3.656970962828632,7.183687642229994,6.660930214414607
1768726621256,137,9,3.781572445499032,7.357626543357813,6.8271961826422665
1768726621260,137,9,3.727167785087724,7.040020743853555,6.814523822791626
1768726621264,137,9,3.616534814321715,7.241573440785388,6.744393613144985
1768726621268,137,9,3.5241415580648967,7.196205704211567,6.69048800062023
1768726621272,137,9,3.488277472862838,7.325974813236646,6.691379578132608
1768726621276,137,9,3.542124528950509,7.155911275127684,6.781261413711798
1768726621280,137,9,3.716643957245821,7.156859804806212,6.991695115692355
1768726621284,138,10,4.014412631149805,8.098577047268675,7.32475462890376
1768726621288,138,10,4.390332909915797,8.228241764881778,7.734552966581337
1768726621292,138,10,4.761453639838553,8.269042130277633,8.138263687631412
1768726621296,139,11,5.039942699605749,9.124730259554989,8.448893056081232
1768726621300,139,11,5.175826008808283,9.151236205791289,8.616864652458624
1768726621304,139,11,5.190773888675129,9.005446502035293,8.663408096269219
1768726621308,139,11,5.174828460707338,9.2937611432386,8.677916870840605
1768726621312,139,11,5.234334436475412,9.100501000605906,8.766497787224305
1768726621316,139,11,5.421056672553054,9.267522999415435,8.981057878232104
1768726621320,140,12,5.696499783837434,9.932767422242652,9.283294963154423
1768726621324,140,12,5.960191884747063,10.150251075751354,9.57293784154087
1768726621328,140,12,6.114700721968325,10.114755091113524,9.752807654905755
1768726621332,140,12,6.11147219354502,10.161892530717626,9.774302079925794
1768726621336,140,12,5.9501394117612625,10.212440171987732,9.636504525251958
1768726621340,140,12,5.649231115944261,9.84688799971411,9.357605908112102
1768726621344,139,11,5.220735984877254,9.256972922070537,8.950202585920836
1768726621348,139,11,4.671052809532355,8.863117589836104,8.42161019564547
1768726621352,138,10,4.034063951416302,8.416751905026619,7.805647548931335
1768726621356,138,10,3.411175621633002,7.844399506225704,7.2026995565044105
1768726621360,137,9,2.9640595943082695,7.187503130565945,6.773793707573857
1768726621364,137,9,2.830747290788554,6.84085997703947,6.657284255401786
1768726621368,137,9,3.017905058709994,7.210978197927879,6.8601983041483745
1768726621372,138,10,3.37180996266271,8.015981888993174,7.228515931428332
1768726621376,138,10,3.6698752294144255,8.174556776195667,7.53947554911336
1768726621380,138,10,3.7597281142414647,7.806777536387459,7.641481382757837
1768726621384,138,10,3.635220145643582,8.141817504762852,7.529437598685912
1768726621388,138,10,3.4099043203286534,7.853871250464557,7.316974130473191
1768726621392,137,9,3.233821817277123,7.281601247858106,7.153063114262872
1768726621396,138,10,3.2209845032418234,7.904621445165794,7.150458060462131
1768726621400,138,10,3.420962964093778,7.955383983867113,7.358380052187323
1768726621404,138,10,3.8218789688730768,7.99811104761954,7.765769978231837
1768726621408,139,11,4.355867386865363,8.84856394658131,8.305739872630541
1768726621412,139,11,4.903726065921438,9.299970463342447,8.85895622104735
1768726621416,140,12,5.320158050896742,9.759785243795752,9.27909003214897
1768726621420,140,12,5.484442683240994,10.104349280620305,9.445181340668372
1768726621424,140,12,5.348515192421049,9.734564480279468,9.310685842218811
1768726621428,139,11,4.954823010555293,9.057799638804354,8.919841063001167
1768726621432,139,11,4.428589052881556,9.030040169985195,8.397514829399928
1768726621436,139,11,3.9581018414386846,8.955966172149164,7.929485508619778
1768726621440,138,10,3.741910554223048,7.887762344158345,7.71225339381448
1768726621444,138,10,3.8778650338513136,7.851467472971278,7.843767540672447
1768726621448,139,11,4.249630592207373,8.888501705212212,8.208977400147356
1768726621452,139,11,4.530993443365778,9.124638286064222,8.48291427973777
1768726621456,139,11,4.353420452402036,8.80448581641675,8.29837182703315
1768726621460,138,10,3.532486811650194,8.011813228239008,7.472170791875181
1768726621464,137,9,2.1918198980122945,6.608571840400051,6.127750244610214
1768726621468,135,7,0.7024943451382897,5.090336214849588,4.633950798922099
1768726621472,134,6,-0.5205525900364916,3.832474530647327,3.4030441656937573
1768726621476,133,5,-1.2428189018597218,3.069614950438241,2.6687354663267056
1768726621480,133,5,-1.52342533115623,2.7107551985125165,2.3733892928271176
1768726621484,133,5,-1.645911903932978,2.801484301893548,2.2355507594752666
1768726621488,133,5,-1.9073201561221584,2.8605657425437245,1.9593673325362275
1768726621492,132,4,-2.4114747140240405,1.9453349180157709,1.4414191442230382
1768726621496,131,3,-3.0198059880146633,0.9573551218316844,0.8203217322440648
1768726621500,131,3,-3.487611118524668,0.7347023790112153,0.3398695544506216
1768726621504,131,3,-3.6590284423324473,0.7241578679591951,0.1536519756592529
1768726621508,131,3,-3.56382582355387,0.8519252655714662,0.229639073236517
1768726621512,131,3,-3.3699754175896626,0.9061258407117544,0.3997151230546887
1768726621516,131,3,-3.263152665392917,0.9311037683060404,0.4806201082949237
1768726621520,131,3,-3.340169760375224,0.7334388495595627,0.3788358653249419
1768726621524,131,3,-3.548756019177937,0.5941152052182539,0.1488885124145778
1768726621528,131,3,-3.675694409132295,0.9775253173876304,0.0045809310241136
1768726621532,131,3,-3.4074629349160253,0.6506367536404967,0.258129863452929
1768726621536,131,3,-2.492995512871011,1.2082913601102565,1.1563069129043857
1768726621540,134,6,-0.967873662707595,3.3526943657805894,2.6563855600273723
1768726621544,135,7,0.6864893946443161,4.912332915608702,4.271899056408659
1768726621548,136,8,1.5753480709963794,5.604766501677156,5.112232863389196
1768726621552,134,6,0.6708267028385984,3.9231814614416294,4.162866485157834
1768726621556,131,3,-2.677607516342574,0.9287788447870636,0.7853814382071915
1768726621560,128,0,-8.144565485629057,-2.5036581853098863,-4.694800866241323
1768726621564,121,-7,-14.107354081016982,-9.240977448831645,-10.666335380307448
1768726621568,115,-13,-18.05425412817073,-15.358374645738518,-14.630272293950808
1768726621572,115,-13,-17.785764728105235,-15.114084211684858,-14.393866705677354
1768726621576,121,-7,-12.762309413304418,-9.092486644097711,-9.417617534965038
1768726621580,130,2,-4.628903648055572,-0.5310497674877102,-1.3412057862682554
1768726621584,138,10,3.5497874034744834,7.777316035687482,6.780268023532269
1768726621588,144,16,8.885289333720154,13.47345752589544,12.068410662822307
1768726621592,144,16,10.069171126324877,13.99779671117157,13.219696022729934
1768726621596,141,13,7.753979996597312,10.640055735388485,10.883165083360822
1768726621600,137,9,3.818486770597053,6.721044528670531,6.927410818790174
1768726621604,134,6,0.1480378264232308,3.48946556855459,3.2265438707178395
1768726621608,132,4,-2.2417503868682864,1.720925212074738,0.7904823787374955
1768726621612,131,3,-3.3212185961493774,0.7121520126683718,-0.3475607864769214
1768726621616,130,2,-3.5968142599974273,-0.1947994265190007,-0.683567456035107
1768726621620,130,2,-3.589702116167324,-0.4671862823718657,-0.7287677501274046
1768726621624,130,2,-3.582684719334083,-0.415951123741858,-0.7634427547483411
1768726621628,130,2,-3.637433663703406,-0.384753214395876,-0.8549193106178539
1768726621632,130,2,-3.7018166577056,-0.2898935688991728,-0.959425728892222
1768726621636,130,2,-3.683322033469027,-0.2362470007544295,-0.9889462978853784
1768726621640,130,2,-3.4966291699646703,-0.5261381276341845,-0.8565046600556587
1768726621644,130,2,-3.127508162652338,-0.3795069821013501,-0.5431015093232867
1768726621648,131,3,-2.684521700692021,0.5123857318128913,-0.1540542870876562
1768726621652,131,3,-2.365094457869746,0.7516513537900034,0.1131640231108237
1768726621656,131,3,-2.3289304783396516,0.6553801747803245,0.0972472148806713
1768726621660,131,3,-2.5758772846153875,0.48829944620564,-0.2026046066213433
1768726621664,130,2,-2.9374982040884996,-0.4097595186351392,-0.6180649145703194
1768726621668,130,2,-3.1929169468258145,-0.5658785890783729,-0.9286248190811746
1768726621672,130,2,-3.2136975604374527,-0.16192115327197,-1.0066626903398244
1768726621676,130,2,-3.0304477553612323,-0.5711907419797004,-0.8829313650041901
1768726621680,130,2,-2.788881455041607,-0.2917638418348056,-0.7020139097617033
1768726621684,131,3,-2.6411376574565653,0.2760455634659609,-0.6145753701971444
1768726621688,130,2,-2.6478521655810288,-0.2994281163470231,-0.6807260024453892
1768726621692,130,2,-2.751887163565048,-0.4800450882380143,-0.8441104503112957
1768726621696,130,2,-2.8354966741722905,-0.344546528672965,-0.9884172356379924
1768726621700,130,2,-2.814500820302515,-0.562044263714351,-1.0303698009295454
1768726621704,130,2,-2.702187399347556,-0.5283320526167639,-0.9828903841160364
1768726621708,130,2,-2.601811032442864,-0.530646600243913,-0.9481804891358712
1768726621712,130,2,-2.631532752330494,-0.3311164486009141,-1.0437901465398998
1768726621716,130,2,-2.8315360037254313,-0.5443197497327188,-1.309861504000994
1768726621720,129,1,-3.1265527267346225,-1.4529285123053797,-1.6710667094027287
1768726621724,129,1,-3.378166375449218,-1.6690414147706136,-1.989085350770992
1768726621728,129,1,-3.4775276373334263,-1.4707161138588165,-2.1558774899294817
1768726621732,129,1,-3.3952994511357515,-1.4230289161510328,-2.1429618155299797
1768726621736,129,1,-3.165004712493147,-1.549603175315791,-1.9835281514226164
1768726621740,129,1,-2.843576400490174,-1.4782400337113006,-1.7334012363587836
1768726621744,130,2,-2.486054578375139,-0.7479344636293828,-1.4473714984172663
1768726621748,130,2,-2.1317989961330497,-0.4019599295627334,-1.165531816922941
1768726621752,130,2,-1.798271866888146,-0.59737045600819,-0.9054799529530584
1768726621756,130,2,-1.490404373892251,-0.3943810348461829,-0.6712035397117151
1768726621760,131,3,-1.2121618762139794,0.253497272140867,-0.4661117091092288
1768726621764,131,3,-0.9535739275012902,0.4952939097152331,-0.2810370095100736
1768726621768,131,3,-0.6670553960208274,0.2719644267732972,-0.0696519880221395
1768726621772,131,3,-0.2823359417725184,0.6948312722862768,0.2378506915092448
1768726621776,132,4,0.2298510834088549,1.2341247011300784,0.6712719872600967
1768726621780,132,4,0.8036985999303607,1.5480059857319062,1.1658514905498565
1768726621784,133,5,1.2998094564058154,2.1690315147164516,1.58314472989617
1768726621788,133,5,1.604004476677085,2.499617374020147,1.8092500677201575
1768726621792,133,5,1.7306998091968049,2.4733522325349018,1.8579701234086348
1768726621796,133,5,1.8382597055167,2.3046663054883725,1.886561797176128
1768726621800,133,5,2.1247290090207267,2.491949454097633,2.092211186072547
1768726621804,134,6,2.6726477125637524,3.085340777618101,2.5574549748594726
1768726621808,134,6,3.3633844523535332,3.6088015519764216,3.16450148468791
1768726621812,135,7,3.934999596241856,4.2540924406596625,3.6522984556263
1768726621816,135,7,4.149435689904787,4.4852399838881105,3.782942112742514
1768726621820,135,7,3.9471099407898,4.217959118869462,3.496561450557229
1768726621824,134,6,3.4687574276002993,3.303872091156268,2.9340045704716062
1768726621828,133,5,2.9298798744813443,2.3390001567143464,2.3110574216796484
1768726621832,133,5,2.4653790483742073,2.475133776739928,1.7619978671210816
1768726621836,133,5,2.0865415758761463,2.1885170383217227,1.2968445795412396
1768726621840,132,4,1.7667851789798634,1.4589229802988002,0.8889360052956419
1768726621844,132,4,1.534576213287747,0.988643460077168,0.5683741042917929
1768726621848,131,3,1.464733437739825,0.6090732780592232,0.4111794015004757
1768726621852,132,4,1.5932715620991915,1.1423205855093044,0.4522763520516117
1768726621856,132,4,1.8604769568044,1.4542410317281291,0.6300178329067374
1768726621860,132,4,2.133707736516059,1.1486118789704385,0.8118594888774378
1768726621864,132,4,2.2758731137136303,1.1994142378814048,0.8628962939378719
1768726621868,132,4,2.2123024435926313,1.3905501479569713,0.7098550954013088
1768726621872,132,4,1.9746517843248328,1.230508131187317,0.3833362479501319
1768726621876,131,3,1.696767394771752,0.3864382147465881,0.0152386034426044
1768726621880,131,3,1.5373563588197616,0.0747598218732035,-0.2363910128902087
1768726621884,131,3,1.5632183550258578,0.2835818753189287,-0.3039896568000588
1768726621888,131,3,1.688455252957724,0.1821955640947989,-0.2725110416630247
1768726621892,131,3,1.7341841297807736,0.4313767060453086,-0.3204583488890575
1768726621896,131,3,1.5660868103899788,0.0996586094681535,-0.5821782202124788
1768726621900,130,2,1.1948151362366153,-0.6952064075920603,-1.0471350972146072
1768726621904,130,2,0.7588815082687881,-1.0121860743000632,-1.5769674326122884
1768726621908,129,1,0.4143657332795299,-1.594869286276178,-2.015788753598678
1768726621912,129,1,0.2314925733675199,-1.8288985010359684,-2.293522597785148
1768726621916,129,1,0.1816209399096167,-1.7053139306468192,-2.4388912950343857
1768726621920,129,1,0.2122533457303317,-1.9392883386279056,-2.5044317849320445
1768726621924,129,1,0.3293504700796159,-1.8612961491138695,-2.4840347769746547
1768726621928,129,1,0.6024104772708541,-1.7791810991951242,-2.307746356177874
1768726621932,129,1,1.0838836771799183,-1.7346836906200007,-1.922760637290014
1768726621936,130,2,1.7235175151817472,-0.8128716192232375,-1.3797274119530851
1768726621940,131,3,2.3703129217051493,0.0725487601369847,-0.8305536852966506
1768726621944,131,3,2.867503479748959,0.0847298311209678,-0.4321784684141097
1768726621948,131,3,3.1492667597423964,0.1846414539099741,-0.2493276354601756
1768726621952,131,3,3.252178424020757,0.27160936943427,-0.2442852943087432
1768726621956,131,3,3.2487810091840656,0.0885382235830793,-0.3447995150952869
1768726621960,131,3,3.1797693802007028,0.1600278484819774,-0.5116383516630831
1768726621964,131,3,3.0392149962198656,-0.1186062580895352,-0.7516661855695861
1768726621968,130,2,2.801308174381963,-0.6262577661582078,-1.0900508836222662
1768726621972,130,2,2.4465697284296404,-1.0187937306250103,-1.5449106165634143
1768726621976,129,1,1.9695045663428163,-1.6493399711032253,-2.1213470635583613
1768726621980,129,1,1.381690125075366,-2.1722826065295493,-2.8087178474289134
1768726621984,128,0,0.7204962702806543,-2.8526522608020555,-3.5704446808099366
1768726621988,127,-1,0.049468473080259,-3.9356956398695337,-4.3423589231217115
1768726621992,126,-2,-0.5603426286176969,-4.803060005460854,-5.0522421204936245
1768726621996,126,-2,-1.0470217314410126,-4.881368890427019,-5.638249804953375
1768726622000,126,-2,-1.350437896530474,-5.0380334525818675,-6.041443993573574
1768726622004,125,-3,-1.4075915584228067,-6.006332286133098,-6.199364762072586
1768726622008,125,-3,-1.1942559086813689,-5.880659935133769,-6.087231364784429
1768726622012,126,-2,-0.7905431472608242,-4.890906274627895,-5.784872331179039
1768726622016,126,-2,-0.3913221706076326,-4.883079373966714,-5.487663079783593
1768726622020,126,-2,-0.2281877475286186,-5.054053377677029,-5.427398768004242
1768726622024,126,-2,-0.4552602450263496,-5.087520789323935,-5.75738734578335
1768726622028,125,-3,-1.072085287263978,-5.82956989901273,-6.475922511400338
1768726622032,124,-4,-1.918822600277471,-7.056066293202493,-7.422341654645361
1768726622036,123,-5,-2.738124494056325,-7.722520512306623,-8.339484891916946
1768726622040,123,-5,-3.2735537636406753,-8.305562150933838,-8.972437284104704
1768726622044,122,-6,-3.3666550924860874,-8.860941226130995,-9.165278867653129
1768726622048,123,-5,-3.022340900374114,-8.137610193236053,-8.925030952044372
1768726622052,123,-5,-2.4223972137024004,-7.815631759327273,-8.433205063007222
1768726622056,123,-5,-1.8694249010038104,-8.002908628222233,-7.989094673057934
1768726622060,124,-4,-1.6474505757507882,-7.103643773298573,-7.8720809453693565
1768726622064,124,-4,-1.8249439395624385,-7.087510448344685,-8.14730088023458
1768726622068,123,-5,-2.1135627845686256,-8.023612306447202,-8.526284121898925
1768726622072,123,-5,-1.9443813399228984,-7.952481620352371,-8.444271668011917
1768726622076,124,-4,-0.8184565312757524,-6.9495650479632385,-7.410479255738593
1768726622080,126,-2,1.2281295656279507,-5.19628468532994,-5.469297244679596
1768726622084,128,0,3.350215687830036,-3.027057339203596,-3.4673984575549888
1768726622088,129,1,4.065720686311361,-2.190070182149137,-2.8772508595309887
1768726622092,126,-2,1.9102518463410896,-4.80763217853907,-5.147115993632426
1768726622096,121,-7,-3.664317847580592,-10.232880669168036,-10.81460095173616
1768726622100,114,-14,-11.602341893089903,-16.91980015806052,-18.828046698451736
1768726622104,106,-22,-19.273510518915653,-25.40206915060645,-26.572160116856537
1768726622108,99,-29,-23.467321372730623,-31.831286019275264,-30.85083491412112
1768726622112,101,-27,-22.00046782670466,-30.218086328482183,-29.486668550076985
1768726622116,109,-19,-14.99750375833222,-21.858399706198178,-22.60156406229309
1768726622120,120,-8,-4.941940068148789,-11.3215677208634,-12.670427861811737
1768726622124,129,1,4.60081510479521,-2.043147308236346,-3.2468693973862788
1768726622128,135,7,10.76158312331047,3.696457921460459,2.8098016759748665
1768726622132,136,8,12.548730086869266,5.1435631990335065,4.50986542560206
1768726622136,134,6,10.852005979360488,2.660849856767979,2.7356818051587135
1768726622140,130,2,7.501898373281747,-0.8457947188603709,-0.6940045257932206
1768726622144,128,0,4.1396937480197264,-3.5408624487866596,-4.147048543409808
1768726622148,125,-3,1.5951450967104217,-5.838808363675039,-6.795780129916876
1768726622152,124,-4,-0.04067934578399,-7.401336260712841,-8.543612849558027
1768726622156,122,-6,-0.9828533618466266,-8.893827583450907,-9.59577688864238
1768726622160,121,-7,-1.4275037159516986,-10.29501158272716,-10.140450516482105
1768726622164,121,-7,-1.5147604912825972,-10.177159324372516,-10.317431300805325
1768726622168,122,-6,-1.412363696217421,-9.182850502757525,-10.301696248811012
1768726622172,122,-6,-1.3028127725097862,-9.225902466929105,-10.283636112833934
1768726622176,121,-7,-1.2805606893034511,-10.065904295364042,-10.359115947339095
1768726622180,121,-7,-1.321669273000579,-10.24304143549685,-10.49933136337092
1768726622184,121,-7,-1.3826230955810483,-10.214582524936116,-10.656063484746712
1768726622188,121,-7,-1.5009379831620704,-10.230990067994007,-10.86690110903179
1768726622192,121,-7,-1.7675989206589189,-10.230022802006069,-11.225864142198674
1768726622196,120,-8,-2.2066217787757245,-11.14465877965579,-11.75836088357284
1768726622200,119,-9,-2.707251966881559,-12.214142599680065,-12.352097902096911
1768726622204,119,-9,-3.083317491145783,-12.296649371521362,-12.819299457675454
1768726622208,119,-9,-3.1900786969597026,-12.179832627788608,-13.0159899835928
1768726622212,119,-9,-2.989699026730171,-12.375102400171356,-12.906281270325554
1768726622216,119,-9,-2.539018878010899,-12.02770236233272,-12.547533507014847
1768726622220,120,-8,-1.9469172294533543,-11.429927436360307,-12.04725514613621
1768726622224,120,-8,-1.339219449881915,-11.098452696805085,-11.529786157120952
1768726622228,121,-7,-0.829311511609959,-10.448249414500191,-11.108392281704944
1768726622232,121,-7,-0.4860432023592137,-10.163746380484133,-10.852846373298124
1768726622236,121,-7,-0.3119242975550257,-10.301028631651914,-10.766328746523262
1768726622240,121,-7,-0.2522491798587476,-10.233886687539956,-10.793933577744262
1768726622244,121,-7,-0.2325938683825686,-10.31741314731406,-10.86070701969647
1768726622248,121,-7,-0.1962584582513195,-10.314155974975666,-10.90986588796893
1768726622252,121,-7,-0.1179855182793278,-10.311296521168671,-10.916610119447585
1768726622256,121,-7,0.0016145789677086,-10.2738207104438,-10.882016597508612
1768726622260,121,-7,0.1398890581838964,-10.261367305756249,-10.82873782264711
1768726622264,121,-7,0.2462222555096551,-10.404541050259464,-10.806975172016736
1768726622268,121,-7,0.2439480151974355,-10.214158333528149,-10.892935882380364
1768726622272,121,-7,0.0615713473577375,-10.523505885387424,-11.157778432202894
1768726622276,120,-8,-0.3143038882405493,-11.092479672282908,-11.614649197359824
1768726622280,120,-8,-0.8029126299915175,-11.515007163345008,-12.182799892098348
1768726622284,119,-9,-1.244955866013588,-12.218893080058296,-12.703516583863951
1768726622288,119,-9,-1.4693907251028968,-12.406367191324016,-13.006722857748994
1768726622292,119,-9,-1.3756888276019037,-12.446224178750844,-12.99245279634722
1768726622296,119,-9,-0.9841608972470656,-12.166851777329407,-12.680545735410444
1768726622300,120,-8,-0.4224834241329805,-11.560973675915047,-12.197464760227405
1768726622304,120,-8,0.1486870609222013,-11.182376052497132,-11.702924436108692
1768726622308,121,-7,0.629345012351723,-10.512045929474244,-11.29696304375924
1768726622312,121,-7,1.0311823396392008,-10.4069777687587,-10.968642159919032
1768726622316,121,-7,1.4456665767378625,-10.242055175163337,-10.627241869260564
1768726622320,122,-6,1.94958568580787,-9.586453104148482,-10.196327103215689
1768726622324,122,-6,2.522584183620761,-9.169121238471018,-9.69624877973389
1768726622328,123,-5,3.044382766039712,-8.594245276612376,-9.247038336257418
1768726622332,123,-5,3.373830369426701,-8.385508484712794,-8.989428527522477
1768726622336,123,-5,3.4471377066025064,-8.295348482584409,-8.986678028100927
1768726622340,123,-5,3.321581523564663,-8.660232640735085,-9.180977615880488
1768726622344,122,-6,3.1380010736708255,-9.065370628046816,-9.431285891185368
1768726622348,123,-5,3.039843050058879,-8.829190117078287,-9.59470534500376
1768726622352,122,-6,3.112417747169771,-9.12621792198892,-9.587141364585824
1768726622356,123,-5,3.3724295314228567,-8.67612703520971,-9.392900807106784
1768726622360,123,-5,3.7850418542711,-8.307648802114043,-9.046640597471612
1768726622364,123,-5,4.272292825927704,-8.475605109974573,-8.624947304452828
1768726622368,124,-4,4.713459746525301,-7.496199736560352,-8.247168158149142
1768726622372,124,-4,4.973853920474156,-7.4473724458598,-8.047778159812468
1768726622376,124,-4,4.977138763204145,-7.518732020523666,-8.103897098182426
1768726622380,124,-4,4.773165942134694,-7.401700219218358,-8.36636538363488
1768726622384,123,-5,4.529038140837571,-8.568404440918115,-8.668208108035532
1768726622388,123,-5,4.429856219002922,-8.334124500632406,-8.824453362625722
1768726622392,124,-4,4.560728564180158,-7.748941396479497,-8.750432903305382
1768726622396,123,-5,4.858489685269625,-8.220897709288792,-8.509412468923621
1768726622400,124,-4,5.158654080268625,-7.779659434144789,-8.265237335473413
1768726622404,124,-4,5.296562099133768,-7.248982865710683,-8.18176231557388
1768726622408,124,-4,5.197757680748266,-7.690107786192653,-8.332999034561055
1768726622412,123,-5,4.903398974087363,-8.477601110941617,-8.677762058629629
1768726622416,123,-5,4.522566874205738,-8.505865671544893,-9.10751923022744
1768726622420,123,-5,4.161370437835748,-8.603646236009077,-9.517093972052985
1768726622424,122,-6,3.883351145208215,-9.42983607755825,-9.843326827359618
1768726622428,122,-6,3.7066759343205815,-9.597088855679008,-10.067565420875397
1768726622432,122,-6,3.6164775571297705,-9.59744236815137,-10.204246942970276
1768726622436,122,-6,3.582462442423451,-9.461173730572549,-10.283716897858064
1768726622440,122,-6,3.5735797501379425,-9.697482923257336,-10.3367652578244
1768726622444,121,-7,3.556760403566965,-10.39303760378126,-10.3958166962343
1768726622448,122,-6,3.4930575310421945,-9.682406680052464,-10.500048751387396
1768726622452,122,-6,3.363135417257271,-9.570961022880358,-10.66997867438966
1768726622456,121,-7,3.2080579732967753,-10.537902714348023,-10.864796699586034
1768726622460,121,-7,3.124468620081882,-10.68739540364075,-10.986543565503968
1768726622464,121,-7,3.201956279684219,-10.438343838573932,-10.944791003850208
1768726622468,122,-6,3.4717769697001533,-9.722377370543736,-10.709280982648886
1768726622472,122,-6,3.915836947290522,-9.537753951309696,-10.29931046845136
1768726622476,122,-6,4.494888716450023,-9.665130385556534,-9.753818124542248
1768726622480,123,-5,5.142726025478607,-8.586004622547048,-9.13822274562883
1768726622484,124,-4,5.748555916242408,-7.623740744081805,-8.563620160165561
1768726622488,124,-4,6.179101930154899,-7.578976243678791,-8.163818731277509
1768726622492,124,-4,6.335467086516583,-7.722016581832249,-8.036829883356715
1768726622496,124,-4,6.199921028883777,-7.54583462718891,-8.198699728673162
1768726622500,124,-4,5.851588268581557,-7.758723244553514,-8.569925401079567
1768726622504,123,-5,5.451164711338348,-8.524677048433173,-8.991478705937892
1768726622508,123,-5,5.185220599515583,-8.704384871906724,-9.279170068931688
1768726622512,123,-5,5.169956289801259,-8.658111509711386,-9.31786371030116
1768726622516,123,-5,5.356555697815601,-8.64754860644311,-9.15508091358031
1768726622520,123,-5,5.5101331296735605,-8.730888367049285,-9.023164322387206
1768726622524,123,-5,5.314025338877353,-8.610019215729395,-9.237420036308178
1768726622528,123,-5,4.570465040174884,-8.658253997291915,-9.996314905252426
1768726622532,121,-7,3.36422649904426,-10.763807084585675,-11.216162724404722
1768726622536,119,-9,2.0400738663194913,-12.58795022818457,-12.552330994703793
1768726622540,119,-9,0.9888970098562404,-12.859954351861484,-13.614026019625722
1768726622544,118,-10,0.4135250793509755,-13.540847178629814,-14.199467887530412
1768726622548,118,-10,0.2525548244055642,-13.75020956844321,-14.371127035937588
1768726622552,118,-10,0.2828137644772455,-13.71904382006333,-14.351953036602712
1768726622556,118,-10,0.2834008906021732,-13.693276422600825,-14.361410093429312
1768726622560,118,-10,0.1370625447562155,-13.825098836606731,-14.514999680926945
1768726622564,117,-11,-0.1715636210957296,-14.647801172228933,-14.82695288228012
1768726622568,117,-11,-0.6098604348575265,-14.657395902804367,-15.265068826823608
1768726622572,117,-11,-1.1231408958736449,-14.872162571094371,-15.776710891026486
1768726622576,116,-12,-1.6144417210705824,-15.57656369539944,-16.267002770407537
1768726622580,116,-12,-1.9454117403121056,-16.034545770186845,-16.597833755010427
1768726622584,115,-13,-2.016644397232467,-16.47990324751109,-16.668325831918125
1768726622588,116,-12,-1.8761828224621149,-15.87464012580989,-16.525287808975648
1768726622592,116,-12,-1.7315126924271254,-15.67681396638242,-16.376451105546835
1768726622596,116,-12,-1.8088292215624189,-15.839437349346287,-16.448812456887293
1768726622600,116,-12,-2.1511354830418155,-15.833840703069365,-16.784774662575188
1768726622604,115,-13,-2.522901577689592,-16.755668534401,-17.146092701169934
1768726622608,115,-13,-2.5195798201227206,-16.63434905327075,-17.125419884273473
1768726622612,116,-12,-1.8254653047040184,-15.941932212564977,-16.40812402187163
1768726622616,117,-11,-0.4539655295415241,-14.637005003857368,-15.014603498708633
1768726622620,120,-8,1.1683962179890646,-12.079788870953047,-13.380258769015098
1768726622624,120,-8,2.285935270113785,-11.599663072059794,-12.262791958433
1768726622628,119,-9,1.998730085374178,-12.81106185338402,-12.552454328486249
1768726622632,117,-11,-0.4573717660326917,-14.843824857855733,-14.998332061857877
1768726622636,113,-15,-5.2756323701575685,-18.753850647624496,-19.785925018924964
1768726622640,108,-20,-11.587206403936786,-24.085285356621636,-26.05214439471049
1768726622644,101,-27,-17.326630757231385,-30.57424164677097,-31.74493628709305
1768726622648,97,-31,-19.891122734024115,-34.94771286213077,-34.27251970611958
1768726622652,99,-29,-17.487381065128922,-32.67268446119207,-31.845660109639702
1768726622656,108,-20,-10.34650437157375,-24.002120596752977,-24.69336871713451
1768726622660,118,-10,-0.8662473334096294,-13.848427405586303,-15.206007475800542
1768726622664,126,-2,7.5466457838720675,-5.848067208000706,-6.779078314516221
1768726622668,131,3,12.217056840761163,-0.790605677773407,-2.078229639633923
1768726622672,131,3,12.426774454879896,-0.8932612324593876,-1.8207029677065831
1768726622676,127,-1,9.433940192900586,-4.9283885897109005,-4.75665155984665
1768726622680,123,-5,5.417222583797262,-8.883173917472197,-8.719021855480683
1768726622684,120,-8,2.138983591812983,-11.871635598590755,-11.953570614546376
1768726622688,119,-9,0.2019366252481113,-12.753956345211936,-13.858715318242828
1768726622692,119,-9,-0.7659228427546582,-13.005579760803869,-14.800423029842564
1768726622696,117,-11,-1.384588725724897,-14.896027814732824,-15.388461908061675
1768726622700,116,-12,-1.944541978849627,-15.9454192360701,-15.905280633415847
1768726622704,116,-12,-2.3543475084610908,-15.87202889496747,-16.259822753680275
1768726622708,116,-12,-2.4452957458412117,-15.771406831167488,-16.291934372107107
1768726622712,117,-11,-2.2306922357253365,-15.067413404812555,-16.02399885217175
1768726622716,117,-11,-1.909123636893841,-14.865603144455026,-15.656348739392543
1768726622720,117,-11,-1.7012941132759147,-15.057422415832884,-15.403658665369516
1768726622724,117,-11,-1.711182978412551,-14.787078733289494,-15.362740050002856
1768726622728,117,-11,-1.8984932247631303,-14.901398393637402,-15.491538836011786
1768726622732,117,-11,-2.127700218761455,-15.017152629239586,-15.658669439123752
1768726622736,117,-11,-2.2387825076855004,-14.911483021957135,-15.709261338198212
1768726622740,117,-11,-2.1228911496984617,-15.136883354980302,-15.535808512729275
1768726622744,117,-11,-1.7921800542960615,-14.68037334702034,-15.14760490433924
1768726622748,118,-10,-1.3988237359242397,-14.1085485609571,-14.693367290143758
1768726622752,118,-10,-1.155862559413173,-13.831617942806847,-14.385506397729884
1768726622756,119,-9,-1.1878543403546176,-13.14861750584854,-14.350522513257117
1768726622760,118,-10,-1.4313891203787952,-13.97356952866512,-14.526536057415507
1768726622764,117,-11,-1.6929023896444422,-14.866343000168314,-14.71954435652342
1768726622768,118,-10,-1.8251727601376813,-13.998836016371476,-14.781506962262604
1768726622772,118,-10,-1.8524563257962887,-13.957903929800478,-14.737210715602242
1768726622776,118,-10,-1.9239143239066017,-14.094476956418385,-14.736832196554944
1768726622780,118,-10,-2.156067812848848,-14.04642432607134,-14.896559862270976
1768726622784,117,-11,-2.5264612737783025,-14.87616411533659,-15.192336377614469
1768726622788,117,-11,-2.905952486668819,-15.033399203432392,-15.49397398728105
1768726622792,117,-11,-3.1738720647318956,-14.95926085730729,-15.681474788103422
1768726622796,117,-11,-3.3001664213660113,-15.153017080721169,-15.726439569825155
1768726622800,117,-11,-3.3370903761141446,-15.002873760372424,-15.682269903903824
1768726622804,117,-11,-3.3554905950406377,-14.998733941545613,-15.619754818496874
1768726622808,117,-11,-3.3959415048587673,-14.966222948307564,-15.57842919458251
1768726622812,117,-11,-3.4700438353463,-15.053300914911166,-15.568446275727068
1768726622816,117,-11,-3.5885706338329375,-15.133233775547906,-15.599594246016077
1768726622820,117,-11,-3.7642824602267937,-15.016549350683656,-15.68507005770393
1768726622824,117,-11,-3.967494362907218,-15.091043166617956,-15.79696414262991
1768726622828,117,-11,-4.081006283676947,-14.893206305116651,-15.819496140889576
1768726622832,117,-11,-3.933245652028219,-15.18699598924057,-15.580612116811215
1768726622836,117,-11,-3.421866817585241,-15.047024582082493,-14.976464548227131
1768726622840,119,-9,-2.6233462209473544,-13.11122678104566,-14.083240962499714
1768726622844,120,-8,-1.764426807293433,-12.09669646279268,-13.128717590950515
1768726622848,120,-8,-1.066019394267523,-11.891834717554003,-12.333971394501187
1768726622852,121,-7,-0.6063346061035608,-11.275899633236824,-11.775808129691852
1768726622856,121,-7,-0.3171229861095153,-10.979000422651584,-11.38512639661667
1768726622860,122,-6,-0.081551748152832,-10.24085260645408,-11.046332928788525
1768726622864,122,-6,0.171665680160528,-10.005311799432976,-10.68999996305234
1768726622868,122,-6,0.4371568673784338,-10.026073416537564,-10.321744911958035
1768726622872,123,-5,0.6571542057771405,-9.202204208460088,-9.99795636055515
1768726622876,123,-5,0.7711842493202914,-9.07843459148554,-9.77782956837915
1768726622880,123,-5,0.760316813282294,-9.222114848594025,-9.680289798740471
1768726622884,123,-5,0.6581271850480921,-9.027222806649764,-9.672798198275997
1768726622888,123,-5,0.5224027451776811,-9.087593784411627,-9.69857373990469
1768726622892,123,-5,0.3923474328127159,-9.16282399056752,-9.718354467855477
1768726622896,123,-5,0.2661841367839461,-9.178520711219376,-9.73276488043821
1768726622900,123,-5,0.1188633359803943,-9.162768016264476,-9.76582996748817
1768726622904,123,-5,-0.0499861277677735,-9.128136967125794,-9.818233706292208
1768726622908,123,-5,-0.1800506591692032,-9.035548230845787,-9.8310360080543
1768726622912,123,-5,-0.1755461528650082,-9.260470107445212,-9.709486350774302
1768726622916,123,-5,0.0063362806771214,-9.133129803862047,-9.410673325024096
1768726622920,124,-4,0.276583809050503,-8.24398297462716,-9.022801635434991
1768726622924,124,-4,0.435611498668913,-8.098560684498167,-8.744575303152807
1768726622928,124,-4,0.3036524435055079,-8.099611198315587,-8.754997142743978
1768726622932,124,-4,-0.137156375480743,-8.252457197062316,-9.071561256537528
1768726622936,123,-5,-0.7079065517536414,-9.191655154861948,-9.515975471723689
1768726622940,123,-5,-1.1402285803987142,-9.233922831145136,-9.82153727166947
1768726622944,123,-5,-1.2501336455378365,-9.13801824104889,-9.805842821361717
1768726622948,123,-5,-1.0565387227109424,-9.109392718828168,-9.487796869636432
1768726622952,124,-4,-0.7663556388484649,-8.275221436151782,-9.072519353728763
1768726622956,124,-4,-0.6377476180116259,-8.22818971518602,-8.816192500675093
1768726622960,124,-4,-0.809646034986367,-8.253884737326446,-8.857259586655228
1768726622964,124,-4,-1.210423843052547,-8.1421398807671,-9.125079987201534
1768726622968,123,-5,-1.6140712750840185,-9.165106339558289,-9.39484497631506
1768726622972,123,-5,-1.8095929766061387,-9.250316385085291,-9.45637595641366
1768726622976,124,-4,-1.7535911503135146,-8.304418416370817,-9.267001246258122
1768726622980,124,-4,-1.5837596747579972,-8.227911312825375,-8.964698689878684
1768726622984,124,-4,-1.4957422404979392,-8.1988863055703,-8.7440385149946
1768726622988,124,-4,-1.6000073318213923,-8.14476020788464,-8.713497222012005
1768726622992,124,-4,-1.862458588110822,-8.342242752549875,-8.837906294904716
1768726622996,124,-4,-2.137819348008545,-8.240326359877788,-8.972756560720896
1768726623000,124,-4,-2.2458343888000307,-8.35005831494574,-8.939385179402874
1768726623004,124,-4,-2.0470661266893004,-8.10717460363434,-8.599447543465207
1768726623008,125,-3,-1.4978832373650828,-7.249946843235884,-7.909757847476586
1768726623012,126,-2,-0.6731834365120795,-6.343311877405,-6.945394246289424
1768726623016,127,-1,0.2477091013098249,-5.214330994322287,-5.885358354129144
1768726623020,128,0,1.0265727967228249,-4.502854913161722,-4.966615375396522
1768726623024,128,0,1.437047157766071,-3.9053512772415178,-4.413861288459671
1768726623028,129,1,1.3550946691994183,-3.5619541165286948,-4.350323440732998
1768726623032,128,0,0.8410587599201058,-4.047381852115523,-4.716316862312798
1768726623036,128,0,0.1518022111105943,-4.562186858867964,-5.256555471254924
1768726623040,127,-1,-0.3661769722633168,-5.226395967540146,-5.626182855785807
1768726623044,127,-1,-0.4702154230138506,-5.148851361047292,-5.5837532641287835
1768726623048,128,0,-0.1827775304736092,-4.441574329625843,-5.152054572994162
1768726623052,128,0,0.1985503234924621,-4.119614162496159,-4.627464919830794
1768726623056,129,1,0.2633161781489384,-3.63208059403373,-4.417767677263798
1768726623060,128,0,-0.2731963040133363,-4.118588103820702,-4.805123243959409
1768726623064,127,-1,-1.3983524635753994,-5.358602600067023,-5.776639767753819
1768726623068,126,-2,-2.796397391193913,-6.239273372830137,-7.01919879329291
1768726623072,125,-3,-4.013368545925372,-7.375466301922343,-8.082334843605587
1768726623076,124,-4,-4.70817694987827,-8.431754894021593,-8.626615292815902
1768726623080,124,-4,-4.849349377001976,-8.32423659468167,-8.619766810711193
1768726623084,125,-3,-4.7258082552147656,-7.2232820890791825,-8.348679547335141
1768726623088,125,-3,-4.751111905630577,-7.379956416886838,-8.224609917456185
1768726623092,124,-4,-5.197662440754067,-8.318034101957561,-8.518127934894206
1768726623096,124,-4,-6.047498166882246,-8.504521040324454,-9.211392796920707
1768726623100,123,-5,-7.037221506524992,-9.333046781426503,-10.043648067233155
1768726623104,122,-6,-7.834395011515843,-10.21358059208804,-10.685431336997802
1768726623108,122,-6,-8.227392326466891,-10.44675876155806,-10.925588600333237
1768726623112,122,-6,-8.226096349351169,-10.274731368116068,-10.771918536450258
1768726623116,123,-5,-8.021244684370384,-9.602139462576597,-10.413053999381384
1768726623120,123,-5,-7.836211744829159,-9.289581862749332,-10.072292510229426
1768726623124,123,-5,-7.7858778044455885,-9.264145285199564,-9.866275295779165
1768726623128,123,-5,-7.848410120660633,-9.476908344004665,-9.775090653927816
1768726623132,123,-5,-7.945297688325563,-9.234797136947591,-9.720387435289313
1768726623136,124,-4,-8.021570393117312,-8.750506258417388,-9.64440765796813
1768726623140,123,-5,-8.032690517660773,-9.122809446137971,-9.498033383244536
1768726623144,124,-4,-7.857019049227443,-8.502541743095984,-9.15745883901718
1768726623148,125,-3,-7.249760642801309,-7.254708758212754,-8.382149621039016
1768726623152,126,-2,-5.9573153213270755,-6.496613750603097,-6.927852477340765
1768726623156,128,0,-4.004280778912164,-4.573082598880521,-4.826298001834671
1768726623160,130,2,-1.983173919154464,-2.264660718635941,-2.667680125425107
1768726623164,131,3,-1.0461222023989754,-1.4877385044507951,-1.5924395110249012
1768726623168,130,2,-2.3905618263311803,-2.206079218662329,-2.78557935589722
1768726623172,128,0,-6.386593131883727,-4.702382839684286,-6.61373822322055
1768726623176,122,-6,-11.906132081330764,-10.335204955837714,-11.956050536002362
1768726623180,116,-12,-16.503518991873477,-16.614880598564746,-16.37820928080964
1768726623184,114,-14,-17.60576087880989,-18.10593505613081,-17.315911791350782
1768726623188,119,-9,-14.05408177421024,-13.631016523447736,-13.614082686475433
1768726623192,127,-1,-6.919950082967706,-5.282626145004799,-6.342374907012134
1768726623196,136,8,1.0242561156759855,3.2454688954901147,1.734770922322312
1768726623200,141,13,6.8194694502241,8.696237087356899,7.6699531546587565
1768726623204,143,15,8.796667722728353,10.56228429424822,9.802780881125326
1768726623208,141,13,7.138852134243861,8.536243505482556,8.315657352174343
1768726623212,137,9,3.3719146774657713,4.599821128105418,4.724778306024494
1768726623216,134,6,-0.6845195428987982,1.2810348953787276,0.8373834641913387
1768726623220,131,3,-3.7781112766089993,-1.269982943944104,-2.1015264281559545
1768726623224,130,2,-5.491761275646014,-2.5773595754481837,-3.673107553392858
1768726623228,129,1,-6.015199494605862,-3.3281512663921817,-4.05823014558069
1768726623232,129,1,-5.784751643022673,-3.609683353153459,-3.6838715026379583
1768726623236,130,2,-5.25262861596152,-2.5143975509333543,-2.9987992975920528
1768726623240,131,3,-4.791652707610657,-1.494614463593709,-2.379313847289268
1768726623244,131,3,-4.628877065273749,-1.423090606221484,-2.0583576024942385
1768726623248,131,3,-4.781105848902936,-1.5140095722019482,-2.056159405838866
1768726623252,131,3,-5.058528991451736,-1.496834597821861,-2.182834845085146
1768726623256,131,3,-5.1802441672933055,-1.6265377168992652,-2.1558187899928125
1768726623260,131,3,-4.951288743036686,-1.4154502712013013,-1.7787758143308992
1768726623264,132,4,-4.387063364743727,-0.5286803953928549,-1.066665740859812
1768726623268,133,5,-3.693602378548081,0.5260621652114592,-0.2256479582274604
1768726623272,134,6,-3.1158304079386245,1.428802317063152,0.499499695598927
1768726623276,134,6,-2.774344292086245,1.4169217822821345,0.988799163682314
1768726623280,134,6,-2.617271028824508,1.5182365524440993,1.2941679516913789
1768726623284,135,7,-2.50429115862868,2.4976142809662996,1.5546502129677764
1768726623288,135,7,-2.3326436011494676,2.4439936489035503,1.871628967365619
1768726623292,135,7,-2.108195310911548,2.472084333899442,2.239448626627037
1768726623296,136,8,-1.924597726768481,3.366909754072343,2.565872562201349
1768726623300,136,8,-1.8715971173877264,3.518255000845075,2.762004682394556
1768726623304,136,8,-1.9397077715599176,3.483551287507428,2.8370258559133745
1768726623308,136,8,-2.0047081651013317,3.3754643846204715,2.9145271179437264
1768726623312,136,8,-1.9180989453736703,3.5335180410867206,3.142653243582018
1768726623316,137,9,-1.630646746251104,4.253421405417406,3.5703991853109063
1768726623320,137,9,-1.2395446349892194,4.644723294192036,4.10028113394892
1768726623324,138,10,-0.9181890493406302,5.280756733159913,4.558786292390827
1768726623328,138,10,-0.7906225479646123,5.562981037642647,4.822274146226828
1768726623332,138,10,-0.8539912372226686,5.272365927430992,4.894572000469258
1768726623336,138,10,-1.0022762514356536,5.506823015414401,4.882693730814395
1768726623340,138,10,-1.1140202991140562,5.376926083526965,4.908047845328909
1768726623344,138,10,-1.1181989396132508,5.483358817672131,5.039925226329153
1768726623348,139,11,-0.9890105345593369,6.361227924597332,5.30178880328132
1768726623352,139,11,-0.7056508677765807,6.3788307758570655,5.7139868516370305
1768726623356,139,11,-0.2534664358603016,6.426205052650788,6.293660530542232
1768726623360,140,12,0.3220510517935113,7.397702097086343,6.998313825921839
1768726623364,141,13,0.8954197385055895,8.448611727529725,7.702554374893191
1768726623368,142,14,1.3470084891012872,9.336757548849604,8.283949356172883
1768726623372,142,14,1.6865405492875558,9.380063677016311,8.749954351986881
1768726623376,142,14,2.0645654319891045,9.38337930714712,9.251702089118762
1768726623380,143,15,2.629930024885523,10.424701356244997,9.940065319386427
1768726623384,144,16,3.3711106347970343,11.378112966457929,10.804276418157713
1768726623388,145,17,4.111339620860302,12.369259923432558,11.666535919308748
1768726623392,146,18,4.670109589959813,13.33521029053523,12.34535689368769
1768726623396,146,18,5.031570408901629,13.366948171902829,12.825489040404095
1768726623400,146,18,5.354420480968025,13.440892263618046,13.266970883086724
1768726623404,147,19,5.81960066495516,14.283974817508284,13.850674710450129
1768726623408,148,20,6.469288420595938,15.471086277359994,14.616908111050122
1768726623412,149,21,7.180315586270564,16.1794533719539,15.44106322140222
1768726623416,149,21,7.768198815297215,16.522627471265256,16.13953483321915
1768726623420,150,22,8.110253265145019,17.225000250191986,16.591802745689122
1768726623424,150,22,8.198668845463676,17.46209009734887,16.7911020856244
1768726623428,150,22,8.114905306329618,17.264838502145405,16.818045524529786
1768726623432,150,22,7.965322210622354,17.355956363601223,16.777440109558498
1768726623436,150,22,7.824260709704217,17.345841570503147,16.74273436937403
1768726623440,150,22,7.714053642417087,17.32828448602098,16.73644373803214
1768726623444,150,22,7.621769094823296,17.35386590260188,16.746470061363006
1768726623448,150,22,7.528493437759659,17.30620680222256,16.75464025262722
1768726623452,150,22,7.427021056275997,17.329002169798514,16.75386519646812
1768726623456,150,22,7.321692458892933,17.325861242444518,16.74802437965702
1768726623460,150,22,7.219200181602978,17.31952602559883,16.743296537794446
1768726623464,150,22,7.12131081003889,17.317755050786854,16.741363474656325
1768726623468,150,22,7.024434109318603,17.31036626238209,16.738965536016487
1768726623472,150,22,6.92474056046916,17.31449825104865,16.732563133196045
1768726623476,150,22,6.8239777608179315,17.308987521649474,16.723744045846853
1768726623480,150,22,6.730260450013509,17.303197403689744,16.72009747776452
1768726623484,150,22,6.650962564013461,17.28806027016677,16.72865726789804
1768726623488,150,22,6.581784960099366,17.3136415229818,16.745464827945025
1768726623492,150,22,6.502877709796389,17.297642711894035,16.751534355605113
1768726623496,150,22,6.391956391036345,17.294847887201566,16.72511669330723
1768726623500,150,22,6.251497442499257,17.291050157683188,16.668145613402707
1768726623504,150,22,6.128342817528637,17.242865714916434,16.626204221920457
1768726623508,150,22,6.0966167570842735,17.348348039310682,16.672806925956465
1768726623512,150,22,6.197428819787061,17.23467682205643,16.849856357888296
1768726623516,150,22,6.377581776288717,17.34022267809913,17.105284411815767
1768726623520,151,23,6.497238127755028,18.213038650679163,17.299186851934685
1768726623524,151,23,6.427004672487806,18.26546496518029,17.30122523710027
1768726623528,150,22,6.1561982672378335,17.32635232781674,17.100533964759215
1768726623532,150,22,5.806890817808646,17.20042087814919,16.82005740724716
1768726623536,150,22,5.5442526091352855,17.39505633829094,16.625518783030703
1768726623540,150,22,5.477364130867017,17.07135923058487,16.625449606993794
1768726623544,150,22,5.634500161891676,17.42425632630622,16.847170926972076
1768726623548,151,23,6.006557791403689,18.114060620099675,17.281190610345117
1768726623552,151,23,6.58979993609185,18.399162263741,17.924214683699507
1768726623556,152,24,7.373380703171519,19.183223797790166,18.766134991246393
1768726623560,153,25,8.28564789458379,20.215908942407403,19.735418407439024
1768726623564,154,26,9.169464511581934,21.287927331210003,20.674213823954904
1768726623568,155,27,9.836148135974277,22.19384540107989,21.39338156983238
1768726623572,155,27,10.165443570099276,22.323559882988004,21.77356650670013
1768726623576,155,27,10.168674714711477,22.216463397139258,21.827596181714497
1768726623580,155,27,9.970456026623085,22.140364889382425,21.680142533945823
1768726623584,155,27,9.736428984786649,22.351029926553867,21.49494686858568
1768726623588,155,27,9.594252809755496,22.09299857386076,21.39783044064807
1768726623592,154,26,9.569078902844783,21.43416591240135,21.413987806224668
1768726623596,155,27,9.5536670596619,22.053005936574564,21.43744713375077
1768726623600,155,27,9.351083935748536,22.27930292052052,21.272332236730403
1768726623604,154,26,8.790263292457626,21.17738428014266,20.74837493367985
1768726623608,153,25,7.839641065618993,20.250008945656152,19.83474206539986
1768726623612,152,24,6.637200325164265,19.26990329809086,18.669118596490012
1768726623616,151,23,5.4273689023029235,18.16188116365546,17.494132962895925
1768726623620,150,22,4.450676114987862,17.15669419587192,16.548541004422933
1768726623624,149,21,3.83524415582898,16.271962187270095,15.960424366604991
1768726623628,149,21,3.536673759361416,16.134709490846717,15.686705864579276
1768726623632,149,21,3.369850303699563,16.3925509055912,15.543386322264933
1768726623636,149,21,3.1284644732251765,15.965462834689214,15.324511800815536
1768726623640,148,20,2.713810669581431,15.358739280408445,14.931499450823331
1768726623644,148,20,2.1798660535951493,15.015123655576057,14.41839102193548
1768726623648,147,19,1.673684335039522,14.389101946258984,13.931853883893334
1768726623652,147,19,1.3317067164073464,14.123128334173364,13.607481527816796
1768726623656,147,19,1.2074327079005087,14.192709226174047,13.498099932616308
1768726623660,147,19,1.2597744462313702,14.122796769365166,13.562614331803482
1768726623664,147,19,1.3818798195899236,14.20418011926449,13.694459903012069
1768726623668,147,19,1.4411861016662373,14.202809940629166,13.760864400766948
1768726623672,147,19,1.3248200106270005,14.27479963628218,13.648461908404466
1768726623676,147,19,0.9954476205404488,14.020247590308502,13.320768815175816
1768726623680,146,18,0.5425679597565765,13.26648059514696,12.8704556701842
1768726623684,146,18,0.1949321053225006,13.0285165770818,12.52971367247299
1768726623688,146,18,0.2670131479256943,13.375650605326785,12.6126320809257
1768726623692,147,19,1.0289810449805827,14.071267966587389,13.38320543832969
1768726623696,148,20,2.5087355443222403,15.217552765670176,14.8605395033843
1768726623700,150,22,4.288817294333424,17.029082273701253,16.622726823269243
1768726623704,151,23,5.444540266931297,18.25101591382261,17.750439361176177
1768726623708,150,22,4.7934385675277795,17.119514816272257,17.07448476974512
1768726623712,147,19,1.501394091432024,14.313642175832657,13.772260991644782
1768726623716,143,15,-4.1781443772516695,9.932570219817263,8.09769365782293
1768726623720,136,8,-10.528220636335169,3.2881126915708134,1.7574382478350037
1768726623724,130,2,-14.846088426259856,-3.0261306169593536,-2.558441608527245
1768726623728,129,1,-14.766705570404625,-3.615877212632476,-2.4929269434827814
1768726623732,136,8,-9.692508616025302,3.0798664841791803,2.5499395705757273
1768726623736,145,17,-1.3193103351086073,12.135238382460892,10.87937114561485
1768726623740,153,25,7.180175266740635,20.127798892562076,19.333675327750537
1768726623744,159,31,12.800791289166735,26.020866966935195,24.919581330144467
1768726623748,160,32,14.136590163210204,27.325105768252776,26.236118198678792
1768726623752,157,29,11.790559165169302,24.009413771868864,23.881286929772568
1768726623756,152,24,7.666599730500569,19.269655671816885,19.74806523898684
1768726623760,149,21,3.7384721696828223,15.95484342387146,15.79984085066696
1768726623764,147,19,1.1235993237387252,14.243532459176608,13.14915839876148
1768726623768,146,18,-0.0726724486122636,13.046310434968602,11.904379216566884
1768726623772,145,17,-0.3111423617271773,12.277351684380193,11.614133630862964
1768726623776,145,17,-0.0974495704428539,11.97475908138179,11.782514216906405
1768726623780,145,17,0.2451445238950422,12.24306153477374,12.089238648070271
1768726623784,146,18,0.5341417458844782,12.937026005662863,12.346317953780147
1768726623788,146,18,0.6494962171410448,13.323081358785744,12.425315008013603
1768726623792,146,18,0.546340700454536,12.979507921390317,12.277583331060784
1768726623796,145,17,0.293494607163129,12.241355720206618,11.974934357621713
1768726623800,145,17,0.0364643849636898,11.983794318476496,11.668058088333238
1768726623804,145,17,-0.1009314555982214,12.149573754777382,11.48255071839458
1768726623808,145,17,-0.0819449786130586,12.133641429475617,11.452788911971531
1768726623812,145,17,0.053408535941724,12.104268936765957,11.535935861361782
1768726623816,145,17,0.2278868842106476,12.145039804449716,11.654606249656982
1768726623820,145,17,0.3439079845997042,12.0204335786774,11.713196396298612
1768726623824,145,17,0.2904455593475572,12.121189314306722,11.602229494576518
1768726623828,145,17,-0.017518400569854,12.137394219353,11.236635705117758
1768726623832,144,16,-0.5736759743360862,11.07669755358427,10.621955595665394
1768726623836,143,15,-1.2524414510642257,10.173954240337842,9.88318274206178
1768726623840,143,15,-1.861353503051451,9.943114258790724,9.212194868836946
1768726623844,142,14,-2.2433340645672786,9.212994946375606,8.765484483574738
1768726623848,142,14,-2.358942630285956,9.003082748360463,8.582662715589896
1768726623852,142,14,-2.2994673596082778,9.234944293071454,8.573586444693802
1768726623856,142,14,-2.225150534796781,8.965571799964035,8.579030100754034
1768726623860,142,14,-2.2636690746186843,9.146188231423336,8.471089188371263
1768726623864,142,14,-2.4330420319169517,8.992533708695904,8.230714569859828
1768726623868,141,13,-2.6476843744324965,8.191269456486134,7.943119037739582
1768726623872,141,13,-2.8077882837854062,8.072892893920164,7.70880040280792
1768726623876,141,13,-2.8937434996621474,8.064645374257369,7.54790362043083
1768726623880,141,13,-2.9726990648489644,8.07216459904401,7.392717964210568
1768726623884,141,13,-3.1116400331031153,8.011974852089539,7.175388202474155
1768726623888,140,12,-3.2945591273438444,7.20338718984424,6.912038331513419
1768726623892,140,12,-3.4372050172964825,6.9991395723061505,6.687892903091784
1768726623896,140,12,-3.480810264815603,7.169867635962747,6.562275119364139
1768726623900,140,12,-3.4571181378249323,6.896692254601382,6.503040822339528
1768726623904,140,12,-3.4515186210746545,7.228055797946986,6.424246154529403
1768726623908,140,12,-3.502918237167009,6.948610639955587,6.287082753674565
1768726623912,139,11,-3.5431438643821305,6.24367360846842,6.160111913203146
1768726623916,140,12,-3.434995127086169,6.910953605355542,6.1804271973053915
1768726623920,140,12,-3.07471930918389,7.124085537636454,6.451391747805567
1768726623924,140,12,-2.476459724228805,7.014447526329347,6.958913002184014
1768726623928,141,13,-1.7755712943248303,8.148739744469745,7.567836517603872
1768726623932,142,14,-1.142135224961982,9.028490999828971,8.107811044135754
1768726623936,142,14,-0.6657409817014437,9.095467957197217,8.489218614011238
1768726623940,142,14,-0.3123839847541934,8.933657269985758,8.747133671814277
1768726623944,142,14,0.0064096368446409,9.1888729437726,8.971029437584287
1768726623948,143,15,0.332620329237439,9.980237483951722,9.202025828165429
1768726623952,143,15,0.6381482490777179,10.170845548947495,9.409969716034247
1768726623956,143,15,0.8825838586380581,9.950475661400302,9.553737149414644
1768726623960,143,15,1.0611462050454332,10.043459076820826,9.630049863473216
1768726623964,143,15,1.186036183925231,10.097221555100358,9.652964617002372
1768726623968,143,15,1.2430953275399377,10.027464719891508,9.608498305801172
1768726623972,143,15,1.1945068815527096,10.158937051745117,9.45753690707426
1768726623976,143,15,1.0326123292066036,9.905146134796215,9.19151578663926
1768726623980,142,14,0.8200388706750519,9.110144704111695,8.873569456305056
1768726623984,142,14,0.6628698875563774,8.988821895024698,8.610665197486105
1768726623988,142,14,0.6395621439724408,9.150788314707787,8.481084443251845
1768726623992,142,14,0.7523781925318804,9.016812870434649,8.486143539285854
1768726623996,142,14,0.9334923321768108,9.046912489590872,8.55770018618737
1768726624000,142,14,1.0847972617115156,8.951575754508278,8.598314755289698
1768726624004,142,14,1.1216372594177864,9.121958658311089,8.524097342183342
1768726624008,142,14,1.006456723165813,9.029205544297776,8.297797910016257
1768726624012,141,13,0.7613646699297965,8.109634845733353,7.941504792246113
1768726624016,141,13,0.4530971468660132,7.975907068296539,7.521566486132799
1768726624020,141,13,0.1636801818538987,7.9754509295096305,7.119242842532641
1768726624024,140,12,-0.035192061400449,7.116274781252771,6.805808013622711
1768726624028,140,12,-0.1046186387787313,6.996757223334706,6.620691797164111
1768726624032,140,12,-0.0595156116496113,7.181152724223528,6.54979558405573
1768726624036,140,12,0.0308203723166816,6.854276447020008,6.523839080769437
1768726624040,140,12,0.077722412398701,7.112237325200198,6.45345798146524
1768726624044,140,12,0.0220996472952028,6.961206712600009,6.279343523017843
1768726624048,139,11,-0.1447917409536504,6.121985187404247,5.993610295119204
1768726624052,139,11,-0.4014238129966851,6.106420853599354,5.618702011484788
1768726624056,139,11,-0.7224213645061401,5.850191647036534,5.179615163134682
1768726624060,138,10,-1.076013204163958,5.175505882557722,4.706706238430467
1768726624064,138,10,-1.4072115610943985,4.83315555233062,4.254152919798198
1768726624068,137,9,-1.6498835471256117,4.279059089584048,3.888827979389739
1768726624072,137,9,-1.7728892286378315,3.941105163984761,3.643276581232083
1768726624076,137,9,-1.8094939371476289,3.980175771906276,3.4847140284439866
1768726624080,137,9,-1.8222052188462772,4.096820434048304,3.3498578412097517
1768726624084,137,9,-1.825711304823533,3.820583554418304,3.223241654890001
1768726624088,136,8,-1.7491368904647342,3.3872114387033125,3.1759706964668197
1768726624092,137,9,-1.48610402049917,3.72269319135644,3.3150833342654566
1768726624096,137,9,-0.9881387491951672,4.283508855928203,3.6890745617625846
1768726624100,138,10,-0.3145038965649295,4.719185399894692,4.238073203029162
1768726624104,138,10,0.3983600215103875,5.241865472136158,4.825167229595241
1768726624108,139,11,1.011201400076747,5.941016931431251,5.3111963753570395
1768726624112,139,11,1.4384089197123988,6.155598133036452,5.611152209222919
1768726624116,139,11,1.6530042685050683,5.857917807636391,5.698839073987712
1768726624120,139,11,1.6573905732322771,6.117216602402746,5.577019082895966
1768726624124,139,11,1.4672328090103046,5.8765855983645645,5.26095649517173
1768726624128,138,10,1.1300206316462729,5.261482314478011,4.797455593031177
1768726624132,138,10,0.7435023388894028,4.8802223766834025,4.283952581328824
1768726624136,137,9,0.4256062021082925,4.063099579987666,3.838362483900437
1768726624140,137,9,0.2393542627471081,3.9772068063627017,3.5235530680397265
1768726624144,137,9,0.1320226124450386,3.9517632767572426,3.2866788380350376
1768726624148,136,8,-0.0555105528259805,3.25077603713453,2.96907926091224
1768726624152,136,8,-0.5054030356298296,2.827840895062121,2.389466263165711
1768726624156,135,7,-1.3106616608287576,2.148625682723466,1.4553642126043385
1768726624160,134,6,-2.4008350624384085,0.8571126236076858,0.2372556063668685
1768726624164,132,4,-3.5606800857529537,-0.913963421282701,-1.0498348609302743
1768726624168,131,3,-4.53893363809738,-1.8712523991085668,-2.155403082732136
1768726624172,131,3,-5.171394350020089,-2.0812677262564927,-2.9166526866717613
1768726624176,130,2,-5.435632035579944,-2.9073291460148076,-3.311984453363041
1768726624180,130,2,-5.424601215804852,-3.1319895439199956,-3.4333446659084403
1768726624184,130,2,-5.282657803788247,-2.875431402163389,-3.422924989841031
1768726624188,130,2,-5.1396087189941095,-2.954705918896904,-3.4092073898923116
1768726624192,130,2,-5.056328039250033,-2.9715227001644866,-3.4536343573632835
1768726624196,130,2,-4.999651477673903,-3.041146722110211,-3.524735828301768
1768726624200,130,2,-4.869270909997708,-2.98723870176401,-3.5233804662755013
1768726624204,130,2,-4.5760867396416725,-3.0222457983294455,-3.360181908236763
1768726624208,130,2,-4.128967095258633,-2.8031757728194657,-3.0429745888173136
1768726624212,131,3,-3.6616211083755914,-2.132932224480105,-2.70527210970692
1768726624216,131,3,-3.362375864004395,-1.8701803130921224,-2.536468597131248
1768726624220,131,3,-3.3490693771281412,-2.169884109238452,-2.655310278637303
1768726624224,130,2,-3.581973577988191,-2.826991385553585,-3.0211922174687893
1768726624228,130,2,-3.868805196318879,-3.010628129971185,-3.4390297980605284
1768726624232,130,2,-3.9364334822835945,-2.9236316745675506,-3.632455576625435
1768726624236,130,2,-3.519528175361075,-3.071234231065061,-3.335151941454406
1768726624240,131,3,-2.4545541849995174,-1.966236758691379,-2.3875733404393937
1768726624244,133,5,-0.7965930340796405,-0.0208633983337331,-0.8533306507055207
1768726624248,134,6,1.0451762013177452,1.178920123380483,0.8512707919845832
1768726624252,135,7,2.2240987552708473,1.8715822488552656,1.8814638969054984
1768726624256,134,6,1.5766262650512886,1.1629749479983684,1.085754763026341
1768726624260,131,3,-1.904874936972246,-2.2503796661629174,-2.529602913107281
1768726624264,125,-3,-8.312515958377103,-7.687516872209878,-9.05179636345694
1768726624268,118,-10,-16.209702756432897,-15.213710757406847,-17.051466192279324
1768726624272,109,-19,-22.780740029709733,-23.686927815507772,-23.726149213823792
1768726624276,106,-22,-25.00276129781713,-27.299579901880257,-26.064157794162423
1768726624280,110,-18,-21.307589907513993,-22.73467084345111,-22.50235109356544
1768726624284,120,-8,-12.644322551119002,-13.174512030026197,-13.98724485656567
1768726624288,130,2,-2.140985181193006,-2.703987540975321,-3.636546560244647
1768726624292,139,11,6.475593821055098,5.819049362042726,4.83677441539832
1768726624296,143,15,10.708542980332378,10.085763278834897,8.944947739302197
1768726624300,142,14,10.280148349822223,8.892179610958221,8.40889809888284
1768726624304,137,9,6.81144279919299,4.118419390895832,4.8394126510824265
1768726624308,133,5,2.5786550266184753,0.1328923789057605,0.499925781791068
1768726624312,131,3,-0.7463761697815414,-2.0618890653890176,-2.9463827571823673
1768726624316,129,1,-2.624557309444257,-3.94275919877004,-4.960289943435101
1768726624320,128,0,-3.362476356944187,-5.163983464515315,-5.83930367089669
1768726624324,127,-1,-3.4975511259223637,-5.749293577603699,-6.10879234227642
1768726624328,127,-1,-3.3865981390453426,-6.054295640215722,-6.119220162216012
1768726624332,127,-1,-3.1607801547932297,-5.799074529358385,-6.005308832107743
1768726624336,128,0,-2.8658071474259263,-5.2566318831933785,-5.8222541285936895
1768726624340,128,0,-2.5596152087819672,-4.819825562455712,-5.634847887248597
1768726624344,128,0,-2.310842044748939,-5.111003215825914,-5.510709623471068
1768726624348,127,-1,-2.175532119669893,-5.672974131462071,-5.49979844793725
1768726624352,128,0,-2.19775577907901,-5.162523962468147,-5.64220678215447
1768726624356,128,0,-2.39726719280022,-4.908962586838949,-5.9590096498577605
1768726624360,127,-1,-2.729810149576561,-6.1303261134562606,-6.40903462469483
1768726624364,126,-2,-3.0826477740984086,-6.847563109116283,-6.8800799698021535
1768726624368,126,-2,-3.342836878745313,-6.85002196448314,-7.257653708032304
1768726624372,126,-2,-3.470149933667675,-7.072735629916506,-7.500980090737387
1768726624376,126,-2,-3.489850124024214,-6.883720022256281,-7.636445138766621
1768726624380,126,-2,-3.4260722497021128,-7.237352880932547,-7.6889648032157
1768726624384,125,-3,-3.2719111100300156,-7.672852836687682,-7.650965099994064
1768726624388,126,-2,-3.034903952642182,-7.047206361650052,-7.52906412648809
1768726624392,126,-2,-2.791756392034483,-6.879470874644312,-7.400023550019177
1768726624396,126,-2,-2.6728324356179756,-7.014225861813848,-7.394734171548301
1768726624400,126,-2,-2.779648827521594,-7.161176480581341,-7.614712625946073
1768726624404,125,-3,-3.107493227321243,-7.671190684072686,-8.054779599077646
1768726624408,125,-3,-3.5364980296362813,-8.121951007134843,-8.594769239817186
1768726624412,124,-4,-3.899080223747359,-8.738474476476917,-9.067225335371743
1768726624416,124,-4,-4.078558388641461,-9.155193083229646,-9.35605587597116
1768726624420,124,-4,-4.070655001390788,-9.022808035210158,-9.457972879271718
1768726624424,124,-4,-3.966498991983044,-8.743818483007082,-9.46469422845141
1768726624428,124,-4,-3.882398143612914,-9.142570137465444,-9.49158075742426
1768726624432,123,-5,-3.901847381583995,-9.59546321688726,-9.620057293860452
1768726624436,124,-4,-4.058524962219118,-9.38906510916944,-9.882789381833026
1768726624440,123,-5,-4.330934860152233,-9.685205739907609,-10.259515981721211
1768726624444,123,-5,-4.62981443104613,-10.131215648063945,-10.662912962421789
1768726624448,122,-6,-4.81331668990291,-10.725692368772146,-10.95170087816968
1768726624452,122,-6,-4.757949728474277,-10.99036861748155,-11.001682552511884
1768726624456,123,-5,-4.439531061615556,-10.020769060217376,-10.788089414886787
1768726624460,123,-5,-3.947609318039608,-9.961209722548908,-10.400294748467273
1768726624464,123,-5,-3.418905801122646,-9.931811486316697,-9.974612070922046
1768726624468,124,-4,-2.9485504904361277,-8.82716107346513,-9.605632161171547
1768726624472,124,-4,-2.5446749352697893,-8.963050528043894,-9.301591857233664
1768726624476,124,-4,-2.150014103031177,-8.983103184587232,-9.006182090535994
1768726624480,125,-3,-1.707073982205733,-7.986799324756754,-8.662988425865208
1768726624484,125,-3,-1.215320867645569,-7.910228346205334,-8.271603441939936
1768726624488,125,-3,-0.7381535578917706,-7.804111401493456,-7.89424288125819
1768726624492,126,-2,-0.354548121151522,-7.021450690096331,-7.608400440978617
1768726624496,126,-2,-0.0862682960612928,-6.8670425619490585,-7.435463798362021
1768726624500,126,-2,0.1456708792696535,-7.118031606980447,-7.297505396846221
1768726624504,126,-2,0.4889651218853101,-6.726687350567401,-7.04841100778156
1768726624508,127,-1,1.0586789116031454,-6.010243542400438,-6.573881127795638
1768726624512,127,-1,1.833628687450996,-5.782679933389865,-5.894374128996866
1768726624516,128,0,2.632498606836427,-5.097624346559741,-5.189860338520099
1768726624520,129,1,3.2079870419528964,-3.861472428314129,-4.707140854266398
1768726624524,129,1,3.4098172233424786,-3.9570298800201726,-4.596813348507177
1768726624528,128,0,3.2908452804365957,-4.797951213306018,-4.805980333852193
1768726624532,128,0,3.0598292789519763,-4.952832712348157,-5.1255159446877085
1768726624536,128,0,2.9237005534058684,-4.948070831308644,-5.349043923887825
1768726624540,128,0,2.9622514738725982,-4.94369803677417,-5.39825308950911
1768726624544,128,0,3.1253445064384566,-4.874634380360495,-5.323992318151215
1768726624548,128,0,3.314688381879497,-4.857511248601381,-5.223474881961147
1768726624552,128,0,3.4555989958703273,-4.890760415978022,-5.169671753842224
1768726624556,128,0,3.5122350875232167,-5.005786077637227,-5.197977198475348
1768726624560,128,0,3.471333779007994,-4.837116145566203,-5.322706740537213
1768726624564,128,0,3.3347472776232348,-4.972555344628862,-5.542834916311507
1768726624568,127,-1,3.124371511352014,-5.727802056291987,-5.835869663535837
1768726624572,127,-1,2.8811318693727728,-6.034774326681099,-6.160134606140604
1768726624576,127,-1,2.6588580372962816,-5.834261872462917,-6.462662953827487
1768726624580,127,-1,2.520830354166413,-5.982019064633007,-6.681730801675646
1768726624584,126,-2,2.518530148080961,-6.790794106735594,-6.765648368612673
1768726624588,126,-2,2.6400594122341077,-6.894165291089017,-6.724391848902248
1768726624592,127,-1,2.7832795547896114,-5.8771884285362,-6.659025265597528
1768726624596,127,-1,2.8205548725786405,-5.9610706166367455,-6.697949485045775
1768726624600,126,-2,2.7153528982276667,-6.835453020279832,-6.878695885202568
1768726624604,126,-2,2.565165508489086,-6.879042733271755,-7.103942203249642
1768726624608,126,-2,2.514234637609713,-6.826334081525651,-7.229474360764851
1768726624612,126,-2,2.6161055697406304,-6.922122926557229,-7.20205363082916
1768726624616,126,-2,2.7686309898352506,-6.906345814701486,-7.123873444411629
1768726624620,126,-2,2.775652768192457,-6.832372098920146,-7.190686166985209
1768726624624,126,-2,2.492595053788338,-6.863667096284017,-7.546519097592952
1768726624628,125,-3,1.9491117604950108,-7.82657771739964,-8.161048943539669
1768726624632,124,-4,1.3520067824464066,-8.933433964773142,-8.826856517683057
1768726624636,124,-4,0.9665110086377686,-8.863121871036174,-9.27898217028352
1768726624640,124,-4,0.9740992016142755,-8.820463783767437,-9.33746413916422
1768726624644,124,-4,1.4054063919835786,-8.858437452855238,-8.973382752529162
1768726624648,125,-3,2.1603048945617243,-7.787679963761199,-8.287333686365733
1768726624652,126,-2,3.0609499519466397,-7.0142727053271825,-7.455887102131125
1768726624656,126,-2,3.892614875606337,-6.723978829040669,-6.6916352062959135
1768726624660,127,-1,4.438475683297489,-5.941656265516909,-6.210191854170925
1768726624664,127,-1,4.544630888466819,-5.679034714478597,-6.166219474751246
1768726624668,127,-1,4.213843906523909,-5.975333689827958,-6.558469753863136
1768726624672,126,-2,3.6512979806449097,-6.81063108262976,-7.181895157854661
1768726624676,125,-3,3.181286406384683,-7.917684817001669,-7.711109898712653
1768726624680,125,-3,3.064060270491226,-7.693205239623819,-7.88606197500039
1768726624684,126,-2,3.348241879920831,-6.880033819490179,-7.6605257660271215
1768726624688,126,-2,3.857887659498474,-6.769388235507173,-7.212306854004825
1768726624692,126,-2,4.2834680254184825,-6.987447818642238,-6.849557298643829
1768726624696,126,-2,4.294608892631195,-6.756761574319681,-6.899204853420789
1768726624700,126,-2,3.6503630802035896,-6.783871809886106,-7.599894357680488
1768726624704,124,-4,2.3125931835212983,-8.774735769293939,-8.98994920435031
1768726624708,122,-6,0.5164425664847108,-10.830891101818771,-10.836143973884676
1768726624712,121,-7,-1.275495336829734,-11.929990820043644,-12.678349608641431
1768726624716,119,-9,-2.5499331750506684,-13.79795830083856,-14.00494681207553
1768726624720,118,-10,-2.978057550320142,-14.690118421079926,-14.486988046359691
1768726624724,119,-9,-2.5804477036877524,-13.81470166527914,-14.143662842361032
1768726624728,120,-8,-1.7054419447913371,-12.767710979921516,-13.321997892901312
1768726624732,121,-7,-0.8181207228761262,-11.981419211656553,-12.486134630809527
1768726624736,121,-7,-0.2458110485439184,-11.742862055853902,-11.962561744867996
1768726624740,121,-7,-0.0580671803758389,-11.699442322529396,-11.820789294767057
1768726624744,121,-7,-0.1326383620584134,-11.769229073207798,-11.940141630987258
1768726624748,121,-7,-0.3099925444288917,-11.775479629566448,-12.16317223218086
1768726624752,121,-7,-0.506754135278914,-11.96529655044169,-12.406708289457578
1768726624756,120,-8,-0.7325537092604126,-12.734295849020675,-12.678313220511168
1768726624760,120,-8,-1.0319678498753575,-12.671160121743318,-13.02097348064128
1768726624764,120,-8,-1.4036156686628745,-12.74993867156932,-13.434670155234448
1768726624768,119,-9,-1.7558749038243195,-13.769173220411863,-13.830763454703073
1768726624772,119,-9,-1.9429622206416628,-13.946196853259526,-14.064179237688876
1768726624776,119,-9,-1.859649303402365,-13.744820858357638,-14.02606872161217
1768726624780,119,-9,-1.5033552374685288,-13.60495553821338,-13.708321208322255
1768726624784,120,-8,-0.9322255416392357,-12.789092710392334,-13.167082841943888
1768726624788,121,-7,-0.1638554708239197,-11.663421902047077,-12.425174358126757
1768726624792,122,-6,0.8373797334846129,-11.074416896928389,-11.456897621379104
1768726624796,122,-6,1.975996936756318,-10.561406686546825,-10.364348975058087
1768726624800,123,-5,2.7452237405181346,-9.782524691002184,-9.65077122968374
1768726624804,122,-6,2.171064387915881,-10.542469084280633,-10.277723826551355
1768726624808,120,-8,-0.7325060305651556,-12.885153702542478,-13.219134045582056
1768726624812,116,-12,-6.098000740998081,-16.836968167555,-18.60489162837691
1768726624816,109,-19,-12.527109190047916,-23.78209897964117,-25.04438895021684
1768726624820,102,-26,-17.32301383507444,-30.539247522662084,-29.852410324661577
1768726624824,101,-27,-17.798681820509472,-31.70953958646131,-30.35126600895642
1768726624828,107,-21,-12.922875479920098,-25.67315818841637,-25.51406336971459
1768726624832,117,-11,-4.134489514442054,-15.961551831781597,-16.777139001148385
1768726624836,126,-2,5.316128495215268,-6.643996590209538,-7.38063523624232
1768726624840,133,5,12.080556335333956,0.3665311892856371,-0.6594685207565343
1768726624844,135,7,14.36106907871978,2.3230725096188145,1.5969730496089598
1768726624848,132,4,12.51895032965298,-0.6636720852821321,-0.2525490217794894
1768726624852,128,0,8.44057117928184,-4.987692245750996,-4.333329167499434
1768726624856,124,-4,4.2610611591756475,-8.48706064382598,-8.523573199257417
1768726624860,122,-6,1.3273837569130125,-10.78395051105827,-11.48311364259364
1768726624864,120,-8,-0.0804610884651856,-12.423805369700196,-12.928518051972688
1768726624868,120,-8,-0.3780100923605637,-12.943935033835004,-13.265074951955356
1768726624872,120,-8,-0.1310173336715662,-12.641050838031909,-13.04909317662839
1768726624876,120,-8,0.2669076119439167,-12.80695272350079,-12.671179148296066
1768726624880,120,-8,0.6178994372130067,-12.421811545320791,-12.332861200401474
1768726624884,121,-7,0.8190139081626525,-11.725111459004548,-12.143553873439885
1768726624888,121,-7,0.8240696199406323,-11.66554131765015,-12.15402497707055
1768726624892,121,-7,0.687184933511213,-11.835359836320633,-12.310309829173312
1768726624896,120,-8,0.5680606530074898,-12.611256605622865,-12.449705834482549
1768726624900,120,-8,0.6239675279556687,-12.53828382682511,-12.4124718777281
1768726624904,121,-7,0.8686969103204809,-11.58612405017796,-12.18488620417681
1768726624908,121,-7,1.1404164364831533,-11.76859879777474,-11.929705609302305
1768726624912,121,-7,1.2184591196817367,-11.6986989783818,-11.866960602664816
1768726624916,121,-7,0.99467063673291,-11.685436851998263,-12.103148188845406
1768726624920,120,-8,0.5707759463814678,-12.459220624108568,-12.536490553638291
1768726624924,120,-8,0.2143261323503257,-12.580567023954242,-12.901884978739613
1768726624928,120,-8,0.1943588535850826,-12.790599565594029,-12.933010260900875
1768726624932,120,-8,0.5918200606425725,-12.582684113165808,-12.54912223892407
1768726624936,121,-7,1.2118182800150472,-11.790336743076583,-11.942670795292049
1768726624940,121,-7,1.6829493175725747,-11.284819358918735,-11.482470767771115
1768726624944,122,-6,1.7065424585210751,-10.736065241435885,-11.46652623219349
1768726624948,121,-7,1.284218546984833,-11.592903532791532,-11.894125479805457
1768726624952,120,-8,0.7344660293841112,-12.743082547301372,-12.447905339072564
1768726624956,120,-8,0.4670342175571889,-12.589788319959675,-12.719141690627556
1768726624960,120,-8,0.6931013723916557,-12.418765847173438,-12.497844522446991
1768726624964,121,-7,1.302455974581469,-11.585070911775295,-11.894903704204818
1768726624968,122,-6,1.9833551709773989,-10.656781983106695,-11.221064118142028
1768726624972,122,-6,2.4565533131008452,-10.687533257328376,-10.753132202893848
1768726624976,122,-6,2.6305345462610408,-10.570256496713736,-10.580833189662112
1768726624980,122,-6,2.5908140586348396,-10.420797392280464,-10.619355897803771
1768726624984,122,-6,2.483543321641893,-10.527009602501938,-10.725058971084032
1768726624988,122,-6,2.4079517921957327,-10.657628314813492,-10.800424596618615
1768726624992,122,-6,2.3833800776747447,-10.654033877496245,-10.8254501657377
1768726624996,122,-6,2.3838192182920723,-10.55308198066951,-10.824154793549368
1768726625000,122,-6,-8.453841889883046,8.545070468351529,8.950017705606937
1768726625004,123,-5,-8.34576148417026,9.24138242419352,9.044239167980331
1768726625008,123,-5,-8.059851238792298,9.392453115487983,9.315420613054007
1768726625012,123,-5,-7.711145508855232,9.267665532745418,9.649967804381069
1768726625016,124,-4,-7.410805542130507,10.14362551410277,9.937231881992703
1768726625020,124,-4,-7.19055456373103,10.417245184157393,10.144765645202556
1768726625024,124,-4,-6.977370245821515,10.180874732629896,10.34495071662877
1768726625028,124,-4,-6.651474979095568,10.294944216792524,10.657786724113404
1768726625032,125,-3,-6.147514464009628,11.189313866251942,11.148803366341715
1768726625036,126,-2,-5.50634205408416,12.02223244787178,11.776550093824548
1768726625040,126,-2,-4.834210360594353,12.39530401262662,12.434264943401026
1768726625044,127,-1,-4.224833235022141,12.980653365603189,13.028720282550546
1768726625048,127,-1,-3.723654138918539,13.374424499657724,13.515354266449323
1768726625052,128,0,-3.347221908347782,13.88071452890453,13.877825983336988
1768726625056,128,0,-3.110647728368798,14.1853704690792,14.100622901295289
1768726625060,128,0,-3.024555006485961,14.041470522270316,14.172903743354112
1768726625064,128,0,-3.0670936909822655,14.154728109431192,14.116639311680402
1768726625068,128,0,-3.1629358751222076,14.05288851696405,14.007128357081
1768726625072,128,0,-3.197930500064774,13.98045927035849,13.958216104895795
1768726625076,128,0,-3.075263563389928,13.953299827881605,14.066454617401885
1768726625080,128,0,-2.782766438001627,14.063623134438204,14.343870381182548
1768726625084,129,1,-2.4159286307107535,14.973964310852695,14.694917749274955
1768726625088,129,1,-2.126355237193991,15.07812021558148,14.96840574967855
1768726625092,129,1,-2.029980687942413,14.7230845653246,15.04942228841734
1768726625096,129,1,-2.1425069709181144,15.10758268536383,14.922955965079694
1768726625100,129,1,-2.3779542085089544,14.643264243311783,14.674330071541885
1768726625104,128,0,-2.5986755093579053,14.301929652306915,14.43965799514486
1768726625108,129,1,-2.6864191083298223,14.525472210523905,14.336333741086053
1768726625112,128,0,-2.602581748626177,14.12513733639318,14.403563978305632
1768726625116,129,1,-2.4058084219355127,14.525120382523324,14.583946859603293
1768726625120,129,1,-2.209646234915278,15.028166798969382,14.764504355320174
1768726625124,129,1,-2.103107729433724,14.783026923208457,14.85582613639903
1768726625128,129,1,-2.094625719741996,14.820850844654112,14.848838431795262
1768726625132,129,1,-2.1260493992011615,14.717072917021104,14.801449400599928
1768726625136,129,1,-2.139274546344771,14.672427789898602,14.771981893823511
1768726625140,129,1,-2.129494959914417,14.78950176829879,14.765669014169616
1768726625144,129,1,-2.136089188854915,14.775402668917136,14.74339060579712
1768726625148,129,1,-2.18407660975135,14.726843825195685,14.679846210912745
1768726625152,129,1,-2.23604603339814,14.577513539335916,14.611686602901363
1768726625156,129,1,-2.2064596149171645,14.664570261122034,14.623956466346348
1768726625160,129,1,-2.0347561892535406,14.602392142496065,14.777732886323474
1768726625164,129,1,-1.754300362280238,14.80390175836551,15.040813213389766
1768726625168,130,2,-1.482748459313389,15.534479652725366,15.29606143670521
1768726625172,130,2,-1.3215850266026123,15.57896836948889,15.441250867667888
1768726625176,130,2,-1.2470902337452467,15.493531391412487,15.498981084079777
1768726625180,130,2,-1.104201156315785,15.581010941022411,15.624093579946877
1768726625184,130,2,-0.7281017052059449,15.674067556537608,15.98220129720018
1768726625188,131,3,-0.0906618812369712,16.477164973190128,16.602122415481134
1768726625192,132,4,0.6681518907303907,17.49018100843415,17.34355921098613
1768726625196,133,5,1.3602435205164256,18.36755899017089,18.017627875266715
1768726625200,133,5,1.9067995988650988,18.568482295689215,18.54551090956688
1768726625204,133,5,2.3798922503859674,18.47332358017671,19.000033623365663
1768726625208,134,6,2.897488755609582,19.536708291427836,19.499407411446136
1768726625212,135,7,3.491350065078401,20.24351560313826,20.074790937432244
1768726625216,135,7,4.079665393800667,20.437428201070833,20.64412876398671
1768726625220,136,8,4.556131677033954,21.348850265381383,21.10189514644661
1768726625224,136,8,4.89766424963804,21.479644024511337,21.42567645600132
1768726625228,136,8,5.187659746900727,21.394554384094192,21.698082149010432
1768726625232,137,9,5.530174426508684,22.171284401551777,22.02140226300504
1768726625236,137,9,5.920395339329199,22.383397272501448,22.39010394791671
1768726625240,137,9,6.176435390031752,22.18932631305225,22.623662447779136
1768726625244,137,9,6.007415479312328,22.50153590552433,22.433203309248583
1768726625248,137,9,5.204573061800278,22.16834077499519,21.610682489167015
1768726625252,135,7,3.830804344709573,20.2268685642419,20.218466376258935
1768726625256,133,5,2.2434471718729654,18.178546933951317,18.61317617677043
1768726625260,132,4,0.9003703661542526,17.175517225969173,17.251812224473177
1768726625264,131,3,0.0889192157609433,16.406991856752676,16.420348480792363
1768726625268,131,3,-0.2157345742453618,16.021874604324186,16.092907053580703
1768726625272,131,3,-0.2761394927475203,16.281907031839946,16.007548093469197
1768726625276,131,3,-0.3888877809107108,15.890784345168132,15.870002154142677
1768726625280,130,2,-0.7119640415267712,15.315402618511294,15.524687628965577
1768726625284,130,2,-1.222438840677607,15.077125492796924,14.994993074246729
1768726625288,129,1,-1.7870201834969042,14.172553376418165,14.412118609422654
1768726625292,129,1,-2.2607006925974344,13.984017735213891,13.918091319097185
1768726625296,129,1,-2.5514959040050726,14.015493813087309,13.603778010516798
1768726625300,128,0,-2.6499004631284473,13.000992720936928,13.480463821987708
1768726625304,128,0,-2.6392074084514,13.23534420599696,13.467289450994004
1768726625308,129,1,-2.669691799415851,13.814642253982177,13.413987623102184
1768726625312,128,0,-2.876304943899216,13.204036222810954,13.183255358997553
1768726625316,128,0,-3.2800490750367466,12.617603133706524,12.752640757262336
1768726625320,127,-1,-3.7497100284290057,12.209096935165594,12.25535378815064
1768726625324,127,-1,-4.0479044758171465,11.876515836769263,11.9331981598538
1768726625328,127,-1,-3.913410030761371,11.939447904284082,12.05030620369974
1768726625332,128,0,-3.131825792764782,13.02431545524285,12.818619898210418
1768726625336,130,2,-1.6068408390116389,14.513130155656476,14.326500022531178
1768726625340,131,3,0.5211796453756294,16.264412155096633,16.425463162942904
1768726625344,134,6,2.7221410361448464,18.512697398065292,18.584682437319184
1768726625348,134,6,4.0320351318708525,19.22241823508993,19.849486322856517
1768726625352,134,6,3.329577842180816,18.53063538651704,19.11165976236185
1768726625356,132,4,-0.0047360446500768,16.833455505028248,15.75819409050288
1768726625360,127,-1,-5.359084775548782,11.815112130427693,10.396564945270804
1768726625364,120,-8,-10.707096659897392,4.668176417409466,5.042640473682726
1768726625368,116,-12,-13.397568990042696,1.0323124647080943,2.337817390373834
1768726625372,119,-9,-11.619015245542696,3.4411073650977713,4.087882042637398
1768726625376,125,-3,-5.583159752458742,9.909283634356411,10.080958102913549
1768726625380,134,6,2.4458474861910036,18.514470689308244,18.05942008927225
1768726625384,141,13,9.344481130886347,25.81943494965849,24.9111255631845
1768726625388,144,16,12.763792377306286,28.66419600741528,28.297231085342844
1768726625392,143,15,12.18000746965763,27.54716478090584,27.696299225774695
1768726625396,139,11,8.813227592455277,23.70780790339672,24.32137909915133
1768726625400,135,7,4.648837920574758,19.47127405158564,20.145843418159263
1768726625404,132,4,1.3117107516495992,16.82727853440428,16.784880756614413
1768726625408,131,3,-0.527921006252095,15.396053386643024,14.906995255605084
1768726625412,130,2,-1.0495769754695392,14.710101009061768,14.339494024085688
1768726625416,130,2,-0.8053412493247476,14.343280369060508,14.540640288874112
1768726625420,130,2,-0.308590440840309,14.668101170045585,15.00363172605898
1768726625424,131,3,0.1164686647202751,15.496285594096085,15.403233416606206
1768726625428,131,3,0.3084378592950019,15.493065848238524,15.571860902531808
1768726625432,131,3,0.2225590441366284,15.495033120373288,15.459046769401644
1768726625436,131,3,-0.0774217976205952,15.339377073886274,15.126901967416288
1768726625440,130,2,-0.4329456196091743,14.539533240872684,14.736017702306652
1768726625444,130,2,-0.65844991652526,14.445404477418707,14.475031951839815
1768726625448,130,2,-0.643611216272862,14.370535924483104,14.456023489186112
1768726625452,130,2,-0.4130393703378049,14.453491664884226,14.653967454659842
1768726625456,131,3,-0.0857520768046859,15.208807166941927,14.94814312348664
1768726625460,131,3,0.2356662455854316,15.50659512304759,15.234955298801236
1768726625464,131,3,0.5427318445654601,15.31874124425981,15.506774914489403
1768726625468,131,3,0.891280073989496,15.296956030629268,15.8208593442816
1768726625472,132,4,1.3074774356308998,16.389060555955766,16.203133529755313
1768726625476,133,5,1.7409450372279394,17.06377238660464,16.601509888378594
1768726625480,132,4,2.1066792204779263,16.546139751995444,16.930272303172856
1768726625484,133,5,2.351514289417116,17.059733462167436,17.137533219288095
1768726625488,133,5,2.4772390599354055,17.417540471735727,17.22660462409868
1768726625492,133,5,2.522114427689268,17.0583366053881,17.23578258764057
1768726625496,133,5,2.5347975834903007,17.250717392179983,17.212541790015848
1768726625500,133,5,2.5557009820088155,17.21857169793281,17.196226714615058
1768726625504,133,5,2.6027499429248984,17.1747229897421,17.204668597497367
1768726625508,133,5,2.6598921625595446,17.187211940925017,17.222528153345614
1768726625512,133,5,2.677013199906464,17.03100116637362,17.200351505896656
1768726625516,133,5,2.594103668899932,17.204492446799573,17.078201768871303
1768726625520,133,5,2.3845212395140205,17.035164218677636,16.829359655774706
1768726625524,132,4,2.0836681394365586,16.250868746822352,16.4894819638154
1768726625528,132,4,1.7740054024679432,15.87858550816618,16.141001500638396
1768726625532,132,4,1.541206587396981,16.19905347727947,15.868614230699237
1768726625536,132,4,1.43893006090776,15.85735626232525,15.72500584898515
1768726625540,131,3,1.4727777508205362,15.24696705272068,15.716241305029593
1768726625544,132,4,1.595915307771823,15.863075362943466,15.796917229677284
1768726625548,132,4,1.7288934891071082,16.083477660879396,15.888238940765698
1768726625552,132,4,1.814177844950525,15.811352638021752,15.93206088669029
1768726625556,132,4,1.8691691733015217,16.10119198020923,15.94499619145156
1768726625560,132,4,1.9817569391071,15.848097197487958,16.014852315324042
1768726625564,132,4,2.241883738967971,16.079717647889225,16.231908221695885
1768726625568,133,5,2.6670681670459357,16.71096956185332,16.6136779538232
1768726625572,133,5,3.187900560936212,16.96600394525269,17.090282774158506
1768726625576,134,6,3.702646510605129,17.84930952160561,17.559789109448403
1768726625580,134,6,4.145350529624963,17.901185100190723,17.956904586361034
1768726625584,134,6,4.5060482151594625,17.88004864975936,18.272572478353748
1768726625588,135,7,4.800381903607962,18.715528646888423,18.522372248032703
1768726625592,135,7,5.037964186030073,18.782585922061017,18.714895941381243
1768726625596,135,7,5.221657460111811,18.898291809151004,18.8523903788118
1768726625600,135,7,5.359677981669563,18.69954908037439,18.94346857021904
1768726625604,135,7,5.466143831197823,18.887366613339992,19.002715826863103
1768726625608,136,8,5.555804487498974,19.55962294444285,19.04482378113608
1768726625612,135,7,5.642131480445542,18.71220956250734,19.08338208708666
1768726625616,135,7,5.730124989992321,18.893036949321164,19.123914931177744
1768726625620,136,8,5.805987046024313,19.484875644243676,19.15247694526836
1768726625624,135,7,5.844837827808158,18.982931195306335,19.14296554738121
1768726625628,136,8,5.834786203872252,19.229882947806516,19.08264565097104
1768726625632,135,7,5.783453531588467,18.913796718639624,18.980087698485494
1768726625636,135,7,5.693771612719935,18.51917520807367,18.840170211244924
1768726625640,135,7,5.547483360303778,18.7131527469613,18.645302176206272
1768726625644,135,7,5.338066715333304,18.59308632078963,18.38748115857889
1768726625648,135,7,5.126435831945699,18.401534465642573,18.125805774618108
1768726625652,134,6,5.034972554358875,17.626715995183936,17.982560031596652
1768726625656,134,6,5.146461702520868,17.604601470211385,18.04163423155264
1768726625660,135,7,5.397253327562896,18.512143937274818,18.239776004854058
1768726625664,135,7,5.589050417716827,18.609330315623513,18.37828652317292
1768726625668,135,7,5.527042666679769,18.191627514164622,18.262723230322884
1768726625672,134,6,5.162398989143062,17.709606538574967,17.845543039183305
1768726625676,134,6,4.623676336420463,17.307799679136387,17.255700159146393
1768726625680,133,5,4.129957164665111,16.704130577104458,16.71081697267156
1768726625684,133,5,3.859497942249966,16.22193066969988,16.387209033906572
1768726625688,133,5,3.85421590740646,16.40693560731387,16.326312405386368
1768726625692,133,5,4.006458743937046,16.368747735558117,16.4217591790149
1768726625696,133,5,4.129701785432232,16.40778756857658,16.48867931415224
1768726625700,133,5,4.07135881645374,16.562446660141823,16.375093445475095
1768726625704,133,5,3.7999618009612735,16.060452727205774,16.049076569537256
1768726625708,132,4,3.40955076193413,15.532611416497309,15.60409428443787
1768726625712,132,4,3.0390876722092224,14.954300672341471,15.17875465372905
1768726625716,131,3,2.7737618086052462,14.753970930381188,14.857618802223463
1768726625720,132,4,2.610399337045911,15.01467423557726,14.636749778258384
1768726625724,131,3,2.502071038687485,14.45257250155766,14.469462032688638
1768726625728,131,3,2.4194214352812766,13.998927953761385,14.32793861473597
1768726625732,131,3,2.3703730618186554,14.255295336286016,14.221415566483609
1768726625736,131,3,2.385029071705875,14.372775589059342,14.179698552706927
1768726625740,131,3,2.500201288537281,14.157950830996803,14.23819581080367
1768726625744,131,3,2.748536005248386,14.233705542082046,14.428417132551386
1768726625748,132,4,3.1386499759102127,14.976649204407476,14.758786670651626
1768726625752,132,4,3.62994125212964,15.148038882016229,15.18939750136089
1768726625756,132,4,4.122848112637769,15.302982512707173,15.62174407159914
1768726625760,133,5,4.484661278998658,16.07428257867271,15.923663544570005
1768726625764,133,5,4.612387336701206,16.17976366118254,15.991879629509189
1768726625768,133,5,4.495675234463193,15.819547886209437,15.815588467896044
1768726625772,132,4,4.222088628668576,15.174398970226964,15.482192657142708
1768726625776,132,4,3.9104591746528414,15.077627229305602,15.110293852303794
1768726625780,132,4,3.6258448958251495,15.176107344039828,14.764562882552127
1768726625784,131,3,3.33970150766428,13.925090474287671,14.416408920893078
1768726625788,131,3,2.954506239010299,13.86662654468396,13.968588704408658
1768726625792,131,3,2.37245580162993,14.022572821851607,13.32352418106267
1768726625796,129,1,1.564650226461707,11.97559263028443,12.452737328714392
1768726625800,128,0,0.5917903233056996,11.2192470322757,11.417670973416325
1768726625804,128,0,-0.4320178318447913,10.665218482537057,10.33258270010363
1768726625808,126,-2,-1.3865100319279264,8.973551302783275,9.31669652628072
1768726625812,126,-2,-2.1649054352568005,8.765660719724867,8.475569242120207
1768726625816,125,-3,-2.681804602971413,8.03075634863894,7.894614613882377
1768726625820,124,-4,-2.9030667333048212,7.067777775217659,7.609032230367638
1768726625824,125,-3,-2.8864337794113224,7.609299333788834,7.561505411643235
1768726625828,125,-3,-2.778841160976805,7.902233813951262,7.604256485200352
1768726625832,125,-3,-2.747918374460587,7.630359338735258,7.5692053510208686
1768726625836,124,-4,-2.89962970671811,7.036581444416423,7.351754755276583
1768726625840,124,-4,-3.2455059408022535,6.893969484098595,6.942190295518547
1768726625844,124,-4,-3.719472799103335,6.617698326298011,6.406372727051812
1768726625848,123,-5,-4.20710299203657,5.747309809699369,5.856267277058431
1768726625852,123,-5,-4.579756200659541,5.58672848339548,5.418041939025787
1768726625856,122,-6,-4.748064546219487,4.970598064341941,5.180622984920922
1768726625860,122,-6,-4.712475455818227,4.754768167144329,5.1452901643820095
1768726625864,123,-5,-4.548435897081582,5.642571835841684,5.239513042521943
1768726625868,123,-5,-4.302086227839924,5.525653283126067,5.420314777225516
1768726625872,123,-5,-3.8755484468125054,5.657853875141038,5.787489399624605
1768726625876,124,-4,-3.034298452855923,6.7505860184562785,6.573626866288537
1768726625880,125,-3,-1.595308709519346,7.792090851741547,7.954642763036382
1768726625884,127,-1,0.2905232355272117,9.4775368657862,9.770827143382853
1768726625888,129,1,1.9508324170089244,11.501872748876377,11.347070418694166
1768726625892,129,1,2.282547615756896,11.547284970145803,11.589069372998011
1768726625896,126,-2,0.1939163130404497,8.66546649817832,9.420957128970375
1768726625900,122,-6,-4.706732965734962,4.7357125972985,4.461207641635982
1768726625904,117,-11,-11.496052746285017,-0.666784842697723,-2.371486520806581
1768726625908,109,-19,-17.87964183952732,-8.479783826591596,-8.797930305646009
1768726625912,104,-24,-21.03941189961641,-13.640051470175582,-12.013834410034583
1768726625916,106,-22,-19.12864384456149,-11.273186938011616,-10.177337542951117
1768726625920,114,-14,-12.49380495400096,-3.4712967055432618,-3.6308076117178913
1768726625924,123,-5,-3.6876142237363663,5.399968666243609,5.083032636895554
1768726625928,131,3,3.8552162890720423,13.320814433867357,12.541098674843798
1768726625932,135,7,7.639223559721506,17.33826791825879,16.25560659632979
1768726625936,133,5,7.250714988310432,15.542616233114297,15.812463041552984
1768726625940,129,1,4.166104343901635,11.506974922542266,12.679905122570023
1768726625944,126,-2,0.522183191654638,8.306182129079275,8.98317943894467
1768726625948,124,-4,-2.190496293640468,6.298710035247737,6.204207492773275
1768726625952,123,-5,-3.6573351872961943,5.24491508584999,4.65707259221604
1768726625956,122,-6,-4.360030663065725,4.437278009989308,3.8682430453885086
1768726625960,121,-7,-4.834544599065793,3.440450367750647,3.313142253010394
1768726625964,120,-8,-5.222940381243691,2.1960389811241683,2.856206946116409
1768726625968,120,-8,-5.351083491260527,2.288296039614204,2.6686538566708933
1768726625972,121,-7,-5.074283366090675,3.1191752097543555,2.885740028853162
1768726625976,121,-7,-4.4975105150771615,3.373263649590805,3.3946028603709806
1768726625980,122,-6,-3.9131836233999975,4.348298284726163,3.9027526243649575
1768726625984,122,-6,-3.5936324374554274,4.100179475225097,4.1446818677941355
1768726625988,121,-7,-3.648669244296626,3.261675405910496,4.017329864571429
1768726625992,122,-6,-4.01846434733705,3.9948461623237472,3.581134853975229
1768726625996,121,-7,-4.532748958380473,3.3306708342124445,3.001594399659721
1768726626000,120,-8,-4.974642943379392,2.211773911712516,2.4912957111832963
1768726626004,120,-8,-5.156961291359945,2.090303516450419,2.2373113785925973
1768726626008,120,-8,-5.00682112081077,2.1182979490657177,2.314868118333945
1768726626012,121,-7,-4.596430448170466,2.999901652606204,2.6533286114214114
1768726626016,121,-7,-4.081753445858135,3.172124172516522,3.096891341832995
1768726626020,121,-7,-3.6014001009903276,3.174701285707692,3.5067789876204944
1768726626024,122,-6,-3.220095977037288,3.993543439541836,3.818122755214805
1768726626028,122,-6,-2.9430670508615564,4.037469569348506,4.0252997324260145
1768726626032,122,-6,-2.7645886600710754,3.9602239589013815,4.13351525786757
1768726626036,122,-6,-2.7011180310870406,4.043744560594752,4.125970678964949
1768726626040,122,-6,-2.780966411771124,4.131568452947468,3.974373603681227
1768726626044,122,-6,-3.000855816559928,3.8764467709132937,3.682713407908156
1768726626048,121,-7,-3.29534379136029,3.0046898561688096,3.317665258614788
1768726626052,121,-7,-3.5547645790708255,2.853218222020651,2.989265202822285
1768726626056,121,-7,-3.673914372742896,2.9937806477382267,2.8012232636757126
1768726626060,121,-7,-3.5910281442653376,3.006058221753543,2.813374943242355
1768726626064,121,-7,-3.3116979686337387,2.853544473728713,3.020134016467665
1768726626068,121,-7,-2.9303858111487413,2.8674777707513446,3.328869292090684
1768726626072,122,-6,-2.6229231163739115,3.8594564211605418,3.5649654485484117
1768726626076,122,-6,-2.5691696899507783,3.815645790472681,3.5480378136933988
1768726626080,121,-7,-2.8365435052110115,3.0227153534682945,3.209888258304982
1768726626084,121,-7,-3.3230770327647967,2.679590724572527,2.652839297815218
1768726626088,120,-8,-3.815515961011781,1.879399168360269,2.090906270372765
1768726626092,120,-8,-4.109890596177861,1.7167396066020366,1.727737705890089
1768726626096,120,-8,-4.09669762408523,1.7922339642477283,1.671347746873943
1768726626100,120,-8,-3.767371098250051,1.901734541783343,1.929132063484941
1768726626104,121,-7,-3.178326114700652,2.6226407312856077,2.44522149602863
1768726626108,121,-7,-2.4289274205669704,2.8050349818471805,3.1221617040234015
1768726626112,122,-6,-1.659876178543433,3.6144953992880833,3.8206054057565937
1768726626116,123,-5,-1.0285612835999394,4.771095316548353,4.382659125117694
1768726626120,123,-5,-0.640800832637336,4.739711351822197,4.701056669449863
1768726626124,123,-5,-0.4900582159743325,4.6349939202254395,4.781707567326064
1768726626128,123,-5,-0.4719589189849218,4.643367849310875,4.729432053156997
1768726626132,123,-5,-0.4689741834443173,4.602837807793477,4.662157850587535
1768726626136,123,-5,-0.4283405465984109,4.666094556873005,4.632453018881124
1768726626140,123,-5,-0.369823370478834,4.658631341944552,4.6203386406368745
1768726626144,123,-5,-0.3312733215421179,4.589306716141586,4.588253826660419
1768726626148,123,-5,-0.309676451510388,4.504337079342493,4.539733304867908
1768726626152,123,-5,-0.2483909455072774,4.610381349717771,4.531625981100063
1768726626156,123,-5,-0.0782008328865431,4.494492251044729,4.632832377897252
1768726626160,123,-5,0.2232327064626118,4.687641217389948,4.864987028715572
1768726626164,124,-4,0.603506550401878,5.404632252475572,5.17507556529308
1768726626168,124,-4,0.960986082841622,5.522023605175185,5.461692597879348
1768726626172,124,-4,1.1972055142651616,5.4569361842559285,5.62750834215667
1768726626176,124,-4,1.255192162011666,5.4772393645824256,5.61634280135493
1768726626180,124,-4,1.1338096426307211,5.572031371521301,5.4264383596198185
1768726626184,124,-4,0.8890793534549006,5.343986232960906,5.1126948325042605
1768726626188,123,-5,0.6169638527238728,4.450678351974514,4.7711578533957955
1768726626192,123,-5,0.409451492833301,4.350733554479131,4.494895039755094
1768726626196,123,-5,0.3126010248482791,4.468799035267022,4.330178329176586
1768726626200,123,-5,0.3277963922265523,4.378458993613378,4.277172536610107
1768726626204,123,-5,0.4456668484812067,4.452124391566342,4.325490958434005
1768726626208,123,-5,0.6571916924696353,4.1139807677552795,4.46671130410219
1768726626212,123,-5,0.9229573027710932,4.60580676274145,4.6629332497250395
1768726626216,124,-4,1.1521149294093174,4.9992707145461015,4.824087086291385
1768726626220,123,-5,1.2443939474449257,4.738880868918721,4.849381094983796
1768726626224,124,-4,1.172821299617004,4.932552782064962,4.7107880037774
1768726626228,123,-5,1.0249708581066923,4.457684502176323,4.495285185031109
1768726626232,123,-5,0.9476841210724838,4.150705796191381,4.349878560102257
1768726626236,123,-5,1.0298964717823498,4.234333249604498,4.363940068075175
1768726626240,123,-5,1.22474410837781,4.444171322715859,4.4907707608896
1768726626244,124,-4,1.3845022978587045,4.9908994266556554,4.582692884672468
1768726626248,123,-5,1.3779199643356672,4.333977910355361,4.508759175346173
1768726626252,123,-5,1.1848674243392534,4.036781052548765,4.249050979358509
1768726626256,123,-5,0.8936243986200973,4.242837347506686,3.8914290024462286
1768726626260,122,-6,0.6165391490765535,3.276111877900851,3.547607816066739
1768726626264,122,-6,0.3999166813771233,2.9910491821969014,3.2638200931883388
1768726626268,122,-6,0.2030289652394656,3.2512473418648744,2.999777158665002
1768726626272,122,-6,-0.032755943489914,2.86395857580817,2.6973581521270713
1768726626276,121,-7,-0.2858844822903378,2.359781526605854,2.3785487432262133
1768726626280,121,-7,-0.4259295512742189,1.932490114566532,2.17377873316652
1768726626284,121,-7,-0.2902631919841841,2.2390742609203675,2.2448160000331736
1768726626288,122,-6,0.1967064057013881,2.844878175929109,2.6661325708649697
1768726626292,122,-6,0.9548171211964184,3.0890355794157287,3.357443053099072
1768726626296,123,-5,1.776521426587392,4.032176941204163,4.112183138176486
1768726626300,124,-4,2.435721895538213,5.05229761008255,4.705256431142004
1768726626304,124,-4,2.810811849635252,5.03016003355783,5.015490136070796
1768726626308,124,-4,2.936758170175144,4.852597532448524,5.077932631495591
1768726626312,124,-4,2.947570835024274,4.960648059157994,5.026208148741422
1768726626316,124,-4,2.9613722169486256,4.988383669979851,4.977268163822669
1768726626320,124,-4,3.0026309796628525,4.9533562228914985,4.954255687365585
1768726626324,124,-4,3.006767695624345,5.008017543060981,4.89246778431799
1768726626328,124,-4,2.8761853074575323,4.688877351027491,4.695822924530775
1768726626332,123,-5,2.5339188433985,4.009811194273954,4.289190184618327
1768726626336,123,-5,1.9547545770984425,3.73518628974332,3.64775398581904
1768726626340,122,-6,1.183289669792244,3.109075171646965,2.8149336740689472
