timestamp_ms,ecg_u8_raw,ecg_counts_raw_int,ecg_counts_filt_monitor,ecg_counts_filt_diagnostic,ecg_counts_filt_st
1769158069704,132,4,3.4636700046786197,8.185297337383748,12.98973357468697
1769158069708,132,4,3.780194777238032,8.47254031544578,13.27127772119792
1769158069712,132,4,4.0701797903044605,8.218664792045493,13.525492406636806
1769158069716,132,4,4.338543499057263,8.448880781631976,13.75853296559782
1769158069720,133,5,4.5994600661605585,9.119126865720515,13.985062835606776
1769158069724,133,5,4.861695319103095,9.432451453226168,14.213105045940608
1769158069728,133,5,5.137051849901562,9.192281992242648,14.453794223747046
1769158069732,133,5,5.439581908424706,9.480514374218398,14.721200698901988
1769158069736,134,6,5.762696989922013,10.175846627995568,15.008749223896077
1769158069740,134,6,6.062642676922793,10.318338964132488,15.272587928070038
1769158069744,134,6,6.269299091336492,10.253368367417728,15.443110700576815
1769158069748,134,6,6.31541882094192,10.292721147890369,15.453970924636211
1769158069752,134,6,6.172733802054021,10.420290214069563,15.277018878892132
1769158069756,134,6,5.884554509674231,10.146201523494444,14.954737218349113
1769158069760,133,5,5.5656601760106215,9.36163126709027,14.601221731166769
1769158069764,133,5,5.345996976067487,9.145929643475842,14.346445204711008
1769158069768,133,5,5.288930631385196,9.39387377735509,14.254026781475805
1769158069772,133,5,5.351682894051503,9.30753086824479,14.281331905015268
1769158069776,133,5,5.41938253896747,9.198919134528747,14.31366932313091
1769158069780,133,5,5.379485647780686,9.326604066742618,14.238629626242046
1769158069784,133,5,5.179427615952852,9.075995643293483,14.00355163531458
1769158069788,132,4,4.832606014823048,8.514927375433466,13.621793108671351
1769158069792,132,4,4.377776975953437,8.093627835840422,13.132413206086872
1769158069796,131,3,3.833242677286087,7.449743670846011,12.553927314817631
1769158069800,131,3,3.192566650002827,6.987173883525935,11.879460143540149
1769158069804,130,2,2.4653049389016934,6.420573259210023,11.117852370726162
1769158069808,129,1,1.7106646260999634,5.1249087152009976,10.32825750858251
1769158069812,128,0,1.0128127823106516,4.463740487478366,9.595531592193046
1769158069816,128,0,0.4145855678061851,4.068955207191668,8.963001140929766
1769158069820,127,-1,-0.1178034573638977,3.2973715925071283,8.396637819721136
1769158069824,127,-1,-0.6552736375210024,3.1226627914925817,7.825192021044432
1769158069828,126,-2,-1.2294108059645643,2.3607441445543644,7.217390493957758
1769158069832,125,-3,-1.7961962705293426,1.227984229937853,6.617703141587959
1769158069836,125,-3,-2.271831674244608,1.259200935338982,6.109431671145005
1769158069840,125,-3,-2.600734041217308,1.0749421391280514,5.747024278421992
1769158069844,124,-4,-2.7990403387280773,0.3180307454301925,5.51420368561806
1769158069848,124,-4,-2.950507369386736,0.1459570925038171,5.328468181368959
1769158069852,124,-4,-3.1563292092696935,0.4073223750932371,5.0896947526335445
1769158069856,124,-4,-3.4575131959799372,0.0556641802636805,4.756659890950999
1769158069860,123,-5,-3.783671059070647,-0.7757819636512275,4.398982540164395
1769158069864,123,-5,-3.986839635309357,-0.8302927784674097,4.164233121540811
1769158069868,123,-5,-3.948969837017534,-0.7657299681275802,4.170290636793146
1769158069872,123,-5,-3.6750471978487824,-0.6700261216254431,4.411851122837678
1769158069876,124,-4,-3.292954419604795,0.0629572988463964,4.760904367505169
1769158069880,124,-4,-2.9653066316167624,0.2209791385553359,5.055465379523529
1769158069884,124,-4,-2.7899914642396957,0.1072736512427194,5.198814859392703
1769158069888,124,-4,-2.7621662357529333,0.2939659817383857,5.196421715393729
1769158069892,124,-4,-2.807425965654334,0.2226123111404279,5.122024498074472
1769158069896,124,-4,-2.843377905878532,0.1438062205649029,5.056608954994799
1769158069900,124,-4,-2.8256985556447782,0.1206313146506206,5.043586473156635
1769158069904,124,-4,-2.7616070202261764,0.1564243638151392,5.075944643984423
1769158069908,124,-4,-2.693796603285451,0.2400111616034435,5.111999962474517
1769158069912,124,-4,-2.666919942871595,0.2191115744254022,5.108219429841805
1769158069916,124,-4,-2.6938243775128305,0.1405363541436237,5.0523573986669295
1769158069920,124,-4,-2.7384821621940216,0.0717148513885286,4.980137239446128
1769158069924,124,-4,-2.7259476839383,0.1919736761618331,4.965393982461865
1769158069928,124,-4,-2.5802001742627616,0.1567867757536012,5.082894480790422
1769158069932,124,-4,-2.276886135024876,0.2893464089825626,5.356431048536521
1769158069936,125,-3,-1.8807316884408147,1.020270163083565,5.72193429976981
1769158069940,125,-3,-1.5349147436532855,1.1844602394424992,6.037906070466373
1769158069944,125,-3,-1.3948742183531344,1.017713996548978,6.150369038724381
1769158069948,125,-3,-1.534444335906585,1.3298738108037806,5.985223476859114
1769158069952,125,-3,-1.877825290233614,1.0525939450932622,5.616441645374062
1769158069956,124,-4,-2.2174804228188556,0.248113861621837,5.250248873955428
1769158069960,124,-4,-2.336847575006379,-0.0853172896281666,5.103707868948411
1769158069964,124,-4,-2.162115140065851,0.2581276188183761,5.251720640967904
1769158069968,125,-3,-1.811049883806708,1.0635985995212298,5.5765487970060095
1769158069972,125,-3,-1.486760245254055,1.280767564088407,5.874443517280643
1769158069976,125,-3,-1.3162198530249136,1.003658201723609,6.018535234655951
1769158069980,125,-3,-1.2826970333428136,1.096718123267908,6.02643339598558
1769158069984,125,-3,-1.293175145734997,1.0733612200554017,5.9916283174290665
1769158069988,125,-3,-1.2890510892072389,1.1639833906050212,5.972332381613845
1769158069992,125,-3,-1.2893403176831553,1.229651433075019,5.94886477315542
1769158069996,125,-3,-1.3415682898387993,0.9460356142265898,5.873188395423406
1769158070000,125,-3,-1.4442217870592446,1.1909749274467822,5.746468920568909
1769158070004,125,-3,-1.5247901693317492,0.875294735915527,5.641357547375245
1769158070008,124,-4,-1.5039247645591245,0.365381433692832,5.6381511205755634
1769158070012,125,-3,-1.3888021022031525,1.0027657157080432,5.730720582210961
1769158070016,125,-3,-1.2936922671371247,1.123506980766317,5.80471496988127
1769158070020,125,-3,-1.3460623084098344,1.012583047378591,5.731385338009199
1769158070024,125,-3,-1.5584715438088932,0.9644180675382126,5.497115068965569
1769158070028,124,-4,-1.7985866142525933,0.2907301978250878,5.234722227251845
1769158070032,124,-4,-1.9024178931518525,0.0001546723072687,5.109681010590551
1769158070036,124,-4,-1.8272603427291256,0.1504035549573963,5.165137943822045
1769158070040,125,-3,-1.6858540040764642,0.9010929007724516,5.28691098584762
1769158070044,125,-3,-1.619406285383774,1.0858143859303355,5.332445066426075
1769158070048,124,-4,-1.6431555615480278,0.0902806774110986,5.28747864271565
1769158070052,124,-4,-1.6281852631412448,0.20357608989306,5.283202227192329
1769158070056,125,-3,-1.425800490084088,0.8819444541691306,5.468792808135829
1769158070060,125,-3,-0.9921825011933452,1.1642671547632002,5.885967846528498
1769158070064,126,-2,-0.400769220363441,1.7701542370107268,6.459068104328768
1769158070068,126,-2,0.2337270762671606,2.3969246557541477,7.073436149813956
1769158070072,127,-1,0.8247358403901401,2.83247421339221,7.644603799624466
1769158070076,127,-1,1.3244026058451135,3.228361272368176,8.126761212523455
1769158070080,128,0,1.7003338430816208,3.7859095542984136,8.48772397943508
1769158070084,128,0,1.9301437578196976,4.103136208912603,8.703448248768762
1769158070088,128,0,2.0252346100429732,4.066772385628187,8.783337735215573
1769158070092,128,0,2.04400818651169,4.073383941739516,8.78516421248677
1769158070096,128,0,2.057306279153565,3.9971276941403104,8.781023976051145
1769158070100,128,0,2.0850507923569284,3.939285826906085,8.792851489322995
1769158070104,128,0,2.0697408021677424,3.95948071436969,8.763972085469204
1769158070108,128,0,1.931491132217956,4.157472557593432,8.613254832706383
1769158070112,128,0,1.665629205689409,3.950184676755635,8.33411548816634
1769158070116,127,-1,1.3778881871311477,3.0755270706476185,8.031957226299584
1769158070120,127,-1,1.1956564627209605,2.825165523365869,7.835639865852974
1769158070124,127,-1,1.1281476009833449,3.0419087256294617,7.755515306306734
1769158070128,127,-1,1.0249562112046404,3.062152663367209,7.640439358026499
1769158070132,127,-1,0.6931816382387704,2.976337472346835,7.296086149021994
1769158070136,126,-2,0.065050339376293,2.058061073065821,6.6548343745615846
1769158070140,125,-3,-0.7486014129969548,0.7293277261207898,5.829352063468474
1769158070144,124,-4,-1.5616947802100465,0.1821272688545976,5.006800855041925
1769158070148,124,-4,-2.25426236846059,-0.17908409337356,4.305761607315498
1769158070152,123,-5,-2.8138562794649573,-0.7525347533805,3.7363259355106018
1769158070156,123,-5,-3.2694378653838356,-1.2854866268439284,3.2690861346733424
1769158070160,122,-6,-3.622192750295853,-1.9641697542124623,2.904823057148514
1769158070164,122,-6,-3.8491065818507537,-2.1526459656418737,2.668492346136208
1769158070168,122,-6,-3.9495102373519657,-1.9037523479197551,2.560529351584746
1769158070172,122,-6,-3.962736249359162,-2.0097499072853937,2.5398832841408705
1769158070176,122,-6,-3.9398970187282374,-2.1159875233915386,2.5544490450249135
1769158070180,122,-6,-3.9125630530079576,-2.1267635168035683,2.573181091245422
1769158070184,122,-6,-3.8915241066085215,-2.090292970068803,2.5861998922056593
1769158070188,122,-6,-3.8827488674343855,-1.9496210073591456,2.58777507457779
1769158070192,122,-6,-3.893347104919764,-2.019653297199608,2.570623018494514
1769158070196,122,-6,-3.9238020754495806,-2.1246561434633904,2.5342717180330308
1769158070200,122,-6,-3.9606921831336,-2.1679389347519926,2.492074192707065
1769158070204,122,-6,-3.977257216770473,-2.1117571373575625,2.470103547643255
1769158070208,122,-6,-3.9398871973333702,-1.932022086986331,2.501175983472564
1769158070212,122,-6,-3.821803248637253,-2.0899382278220617,2.612394553330949
1769158070216,122,-6,-3.621822933575497,-2.0562822496593993,2.8065738927810706
1769158070220,123,-5,-3.3685195274665656,-1.322302117887439,3.056791501834139
1769158070224,123,-5,-3.094744237789176,-0.9709062361216878,3.3304785303467597
1769158070228,123,-5,-2.809648550623915,-1.135072005407439,3.616694528473925
1769158070232,123,-5,-2.5125784841806422,-0.8778955777918354,3.9121035443124423
1769158070236,124,-4,-2.2365927453317695,-0.3325675318476691,4.179134584600785
1769158070240,124,-4,-2.044153255594903,-0.0867926970988088,4.3548883900574555
1769158070244,124,-4,-1.9144916804347083,-0.2465967728274556,4.467789543395767
1769158070248,124,-4,-1.5460545601939173,0.0913501136570964,4.8321914589302
1769158070252,126,-2,-0.1799854935837439,1.9084487939744204,6.214391351499074
1769158070256,130,2,3.384729461251748,5.795047160696154,9.8083988074717
1769158070260,137,9,10.389866987161865,12.797128238084236,16.83702628687598
1769158070264,147,19,21.268181178162344,22.789875767905823,27.715765975577167
1769158070268,159,31,34.65185022292772,35.06698359507599,41.074183599996005
1769158070272,172,44,46.952033863250094,47.88328670491474,53.336466268891336
1769158070276,180,52,53.20728458534269,55.761572936473414,59.55989069199215
1769158070280,177,49,49.18765729692283,52.77012465627512,55.528431037251025
1769158070284,161,33,33.71850591936304,36.69707815224672,40.0722984007203
1769158070288,135,7,9.738571375933796,11.120076362120606,16.12586002673587
1769158070292,108,-20,-16.71873469341341,-16.25847331033577,-10.29063129274146
1769158070296,86,-42,-39.07247931208999,-38.05575142641946,-32.61483255069099
1769158070300,74,-54,-52.76812452098745,-50.38533472150522,-46.30682543237872
1769158070304,70,-58,-56.54471447260875,-54.09206235380487,-50.105842930699716
1769158070308,74,-54,-52.06541804016817,-50.10910170674102,-45.65968211390184
1769158070312,84,-44,-42.53653929267443,-40.12388783832463,-36.1546075106509
1769158070316,95,-33,-31.244080510115,-29.255057768559347,-24.86522054432423
1769158070320,105,-23,-20.6386394933929,-19.26521828266351,-14.24432560421718
1769158070324,114,-14,-12.090167203115453,-10.205758951234174,-5.673089944273588
1769158070328,120,-8,-6.064299917453008,-4.079309179520325,0.3709603521716555
1769158070332,124,-4,-2.4047645364268084,-0.2263864127174564,4.0381541771454135
1769158070336,126,-2,-0.5741082254888763,1.7945508584513812,5.868076329730805
1769158070340,126,-2,0.1239926171146872,1.6487074537773836,6.564106698797546
1769158070344,126,-2,0.3140518859510419,1.8965332473543703,6.756356469948448
1769158070348,127,-1,0.3860761288919354,2.7817187455420296,6.834635156475449
1769158070352,127,-1,0.4924062380167751,2.8271489260105276,6.947175455190992
1769158070356,127,-1,0.6648982313915992,2.727384194709944,7.123454414226725
1769158070360,127,-1,0.9069957184444428,2.6443821328541244,7.368777506252499
1769158070364,127,-1,1.1864789661717503,2.934492252186625,7.653804232824471
1769158070368,128,0,1.4070305889422774,3.65726022080948,7.882024308732008
1769158070372,128,0,1.4611902398780865,3.9188483689977778,7.94330332472442
1769158070376,128,0,1.3365637853271848,3.5696540702472337,7.824200294882808
1769158070380,127,-1,1.1486829546997916,2.771288122459275,7.642383944277048
1769158070384,127,-1,1.0507740122975089,2.8048112210201155,7.553038801813014
1769158070388,128,0,1.1215078753089216,3.706254970202538,7.633278249005636
1769158070392,128,0,1.3468074258587093,3.863575860757005,7.865777987569731
1769158070396,128,0,1.6753930728523514,3.5275621574894265,8.19882379254016
1769158070400,128,0,2.0448854367786824,3.8303876375541326,8.573127515546318
1769158070404,129,1,2.3586873777012465,4.672763569007494,8.894794291207505
1769158070408,129,1,2.4966438520446705,4.816883583292033,9.042919632558338
1769158070412,129,1,2.4002132685267323,4.697148408475079,8.956188651662524
1769158070416,129,1,2.1501747283038544,4.642216103911508,8.714094764167612
1769158070420,128,0,1.930157431267133,3.69732181070504,8.50160447498954
1769158070424,128,0,1.8866941230280945,3.736409731107663,8.466913981847505
1769158070428,129,1,2.0205413119350912,4.752961074081157,8.610370356099448
1769158070432,129,1,2.219942492724553,4.678935653691387,8.818558276435962
1769158070436,129,1,2.3904852012179334,4.6494853632625395,8.996808722173167
1769158070440,129,1,2.5361064263723003,4.634155720559144,9.150615994050217
1769158070444,129,1,2.721131573804063,4.745157715839947,9.345374414845942
1769158070448,130,2,2.983705575349754,5.7201666643640925,9.618439799845708
1769158070452,130,2,3.301577733862753,5.661630323652224,9.946318465309606
1769158070456,130,2,3.626721728644267,5.629236916828472,10.280929455084996
1769158070460,131,3,3.935543729132023,6.625978105656374,10.599348873437616
1769158070464,131,3,4.24853628578796,6.666649985830774,10.922244565433662
1769158070468,131,3,4.60829791724521,6.798713239396976,11.291909014207668
1769158070472,132,4,5.031693030042216,7.510141130708062,11.725093636058238
1769158070476,132,4,5.475848012224538,7.777937504981506,12.179070424527572
1769158070480,133,5,5.857795961757817,8.39580817286351,12.571009960672724
1769158070484,133,5,6.121123029698438,8.874196849345388,12.844712455632758
1769158070488,133,5,6.289811808954508,8.53141032643006,13.02446551072196
1769158070492,133,5,6.455282997530141,8.740573250131686,13.20150455823426
1769158070496,134,6,6.70734129130206,9.53129268520406,13.464678464097844
1769158070500,134,6,7.06836521327997,9.549301600848036,13.83562037899647
1769158070504,134,6,7.475501675407706,9.732701227696069,14.25200481993516
1769158070508,135,7,7.8162980871131,10.57239279770502,14.602658251845812
1769158070512,135,7,7.998765602420658,10.70716611225454,14.796228299536072
1769158070516,135,7,8.0165100669539,10.49029588363448,14.825840536341008
1769158070520,135,7,7.959956841403291,10.558411708872596,14.78101825797692
1769158070524,135,7,7.956465909775456,10.674522870449172,14.788721572713838
1769158070528,135,7,8.078143318330165,10.577839057903924,14.921390999828803
1769158070532,135,7,8.286051002802502,10.679479936347882,15.140356419377088
1769158070536,136,8,8.458826964955778,11.466379128478234,15.32372666732191
1769158070540,136,8,8.487090751099743,11.534515169713355,15.361645910328145
1769158070544,135,7,8.348074902906362,10.663605981431958,15.232307349371697
1769158070548,135,7,8.090703616314448,10.508884588880449,14.986319542480556
1769158070552,135,7,7.764345956280382,10.75631797730276,14.673157991185706
1769158070556,135,7,7.385374966706818,10.292828450837376,14.307242918540386
1769158070560,134,6,6.968725556202,9.721423161076512,13.90169062475929
1769158070564,134,6,6.556047568768929,9.388091097005162,13.498396156001345
1769158070568,133,5,6.181550345711251,8.747054487960348,13.133299395560856
1769158070572,133,5,5.809586779653893,8.486596590892045,12.77197302259268
1769158070576,133,5,5.3285638625252165,8.489779718756184,12.302546087411
1769158070580,132,4,4.630501809560524,7.542026020796616,11.616073813472
1769158070584,131,3,3.708579318912792,6.446506401141229,10.705301997960952
1769158070588,130,2,2.6780510642945696,5.703530981648634,9.685766531786133
1769158070592,129,1,1.697803540808943,4.422163415419602,8.716674466695263
1769158070596,128,0,0.8615962119795038,3.558836967111022,7.891602546123842
1769158070600,128,0,0.1523978733263433,3.4305684760519264,7.1929807095317075
1769158070604,127,-1,-0.506856626819784,2.488493776551524,6.543546954612462
1769158070608,126,-2,-1.1606802412019812,1.6426420795111256,5.899381132421141
1769158070612,126,-2,-1.7727348855159688,1.3860227092141302,5.2977503357288995
1769158070616,125,-3,-2.2567447239025675,0.6027044995425346,4.825287060786419
1769158070620,125,-3,-2.548136463585352,0.3133059971268297,4.545885574113528
1769158070624,125,-3,-2.6511033709056835,0.587064213295557,4.454028787421394
1769158070628,125,-3,-2.6288324357154664,0.4754196191529045,4.4856828342136525
1769158070632,125,-3,-2.561363492320686,0.4929991173508226,4.5614320303525595
1769158070636,125,-3,-2.5183833080759697,0.4878935516472946,4.613286253449745
1769158070640,125,-3,-2.5589921192385052,0.3398117272372198,4.58316938700968
1769158070644,125,-3,-2.7263428554304334,0.57004194267427,4.427145035677117
1769158070648,125,-3,-3.0169828655398403,0.3836400657033518,4.147087219721735
1769158070652,124,-4,-3.358578131050951,-0.4252071984676924,3.8148733339828738
1769158070656,124,-4,-3.6423040364666894,-0.658009213842357,3.540278759559097
1769158070660,124,-4,-3.795794233326572,-0.5467333032491517,3.396488161661633
1769158070664,124,-4,-3.827553694361368,-0.5861818359825026,3.374609848278604
1769158070668,124,-4,-3.802050690622293,-0.5226896653668236,3.4092520630345806
1769158070672,124,-4,-3.779064445508619,-0.5506129440373542,3.4403959594991225
1769158070676,124,-4,-3.779365627218163,-0.6015188081150695,3.447984755921354
1769158070680,124,-4,-3.798417729765291,-0.620729142574767,3.4374746022067004
1769158070684,124,-4,-3.8356953061230223,-0.5872876646424183,3.409639265253144
1769158070688,124,-4,-3.896736074178248,-0.5419877968225153,3.3583001993293884
1769158070692,124,-4,-3.9640102668306936,-0.6082053312430284,3.300078474588908
1769158070696,124,-4,-3.9774984611175745,-0.5652896797235005,3.29469843573771
1769158070700,124,-4,-3.865249120961421,-0.7222780096054908,3.4145835684895065
1769158070704,124,-4,-3.610401304729199,-0.5192620291266525,3.6770106154067417
1769158070708,125,-3,-3.288944671332348,0.3331451088905206,4.005737423114105
1769158070712,125,-3,-3.0296357840713983,0.4739421245514279,4.27175144332329
1769158070716,125,-3,-2.925436627597568,0.3013756262493121,4.382727212235125
1769158070720,125,-3,-2.9732159943652863,0.3698722577289439,4.34273658464445
1769158070724,125,-3,-3.082336947635071,0.3259167798532996,4.24226376102558
1769158070728,125,-3,-3.13091325269283,0.4485542553118407,4.2019245924193935
1769158070732,125,-3,-3.0309661682839004,0.3100865107482731,4.308726021757735
1769158070736,125,-3,-2.776162159703747,0.4216031341769364,4.569110996163252
1769158070740,126,-2,-2.449008131267162,1.204245958337832,4.901184500530199
1769158070744,126,-2,-2.174285599989469,1.4300066568959484,5.180742776607746
1769158070748,126,-2,-2.0443780235933575,1.305763592690301,5.316085895811323
1769158070752,126,-2,-2.0702595467539218,1.3948210414802331,5.296796739680676
1769158070756,126,-2,-2.1863481224814607,1.3066510753773226,5.188043974851775
1769158070760,126,-2,-2.2907600853320553,1.2416370804531378,5.090273855183117
1769158070764,126,-2,-2.291073033338038,1.3763643772912282,5.094805345327771
1769158070768,126,-2,-2.143861819897441,1.2755603068524928,5.245514968018624
1769158070772,126,-2,-1.879909712054028,1.4172289533264335,5.513035088383697
1769158070776,127,-1,-1.5926358152869522,2.198555132311089,5.804652085469441
1769158070780,127,-1,-1.378880011701145,2.333583981277401,6.023002567838015
1769158070784,127,-1,-1.2706131676890322,2.196391095396975,6.135495226011544
1769158070788,127,-1,-1.2219958094708918,2.447486490814044,6.188156788841786
1769158070792,127,-1,-1.167957610181003,2.156188960946905,6.246396305249865
1769158070796,127,-1,-1.0945246717100805,2.440269670821494,6.323610198055052
1769158070800,128,0,-1.048251289712438,3.0282030096317065,6.372212029259625
1769158070804,127,-1,-1.0814871050658077,2.4529861235812973,6.340067714054719
1769158070808,127,-1,-1.1993289003296643,2.157027092969879,6.223901932810511
1769158070812,127,-1,-1.35811689535209,2.3649567014216473,6.068737890699412
1769158070816,127,-1,-1.495500518830781,2.215204634842295,5.935902869256767
1769158070820,127,-1,-1.550771821139663,2.1649429419738997,5.883619086915113
1769158070824,127,-1,-1.4774775110225398,2.3204222789099433,5.957166735888038
1769158070828,127,-1,-1.2745304938250832,2.1914953902893464,6.159025261998097
1769158070832,127,-1,-1.0217176527368286,2.310233174813156,6.411645909393164
1769158070836,128,0,-0.8611256749833562,3.1935030844881727,6.573605636237053
1769158070840,128,0,-0.9020320882681376,3.1533199036685113,6.534584004576697
1769158070844,127,-1,-1.1239032879733148,2.2858091985707674,6.314083273746095
1769158070848,127,-1,-1.3828329525815857,2.170623374529688,6.055761109093577
1769158070852,127,-1,-1.5293622227808763,2.2660132024250066,5.908946105406678
1769158070856,127,-1,-1.5317546724086957,2.1935071776803063,5.905167529829186
1769158070860,127,-1,-1.4982656770419258,2.10799704168453,5.936503877331628
1769158070864,127,-1,-1.5853307039655975,2.2990154979688575,5.847409887514168
1769158070868,127,-1,-1.865988560506535,2.0908912048573787,5.565508102900763
1769158070872,126,-2,-2.2585282875814903,1.2749795196699187,5.172425609172699
1769158070876,126,-2,-2.5708362434640244,1.1479075596572867,4.859585969183405
1769158070880,126,-2,-2.6267678372959287,1.0918346534768988,4.8022989521563595
1769158070884,126,-2,-2.376719680406924,1.306820739300095,5.0496958931484315
1769158070888,127,-1,-1.9130014276922864,1.996384922832159,5.509611575149846
1769158070892,127,-1,-1.390594878388718,2.32896385114391,6.027659046438211
1769158070896,128,0,-0.9242712694812252,3.020640441799426,6.489800832001376
1769158070900,128,0,-0.541907934852125,3.186452522461535,6.868739958665188
1769158070904,128,0,-0.2182749601732196,3.1717297841064456,7.189654309701505
1769158070908,129,1,0.0602011722567753,4.059311509536042,7.465119089873935
1769158070912,129,1,0.2704469197188161,4.229494206892154,7.670854030327543
1769158070916,129,1,0.3831280847376686,4.0294475510012,7.777484154489912
1769158070920,129,1,0.4006222004882501,4.1780615394107405,7.788719430730074
1769158070924,129,1,0.3595611514684266,4.099487960168573,7.742453867195203
1769158070928,129,1,0.3060811977085911,4.092286337123265,7.684652668803881
1769158070932,129,1,0.2752521919893244,4.13206298262766,7.649014881783145
1769158070936,129,1,0.2850502996737237,4.06707319993426,7.652350970956514
1769158070940,129,1,0.3319888502447534,4.110119049855572,7.691306556880418
1769158070944,129,1,0.3812311321439155,4.114165519364078,7.73226525845212
1769158070948,129,1,0.3671322243608223,4.012491491040431,7.71065203393232
1769158070952,129,1,0.2257461310940074,4.1645449737338485,7.562493090041721
1769158070956,129,1,-0.0504291446501138,3.964382364930273,7.279503846870316
1769158070960,128,0,-0.3848462084852426,3.187156128361975,6.937659956843758
1769158070964,128,0,-0.6567601322746485,2.976441462721728,6.657546197651026
1769158070968,128,0,-0.7839915784265894,3.093117020014808,6.521160638711922
1769158070972,128,0,-0.7766666417291137,3.0267318947924102,6.518343899397585
1769158070976,128,0,-0.7185527932708109,3.047158935656241,6.566045366437869
1769158070980,128,0,-0.6983854131996237,3.0719999811575835,6.576616893446701
1769158070984,128,0,-0.7452709151803105,3.0269679530212237,6.521063598578152
1769158070988,128,0,-0.8084123290870597,2.9852898405904877,6.448855082939453
1769158070992,128,0,-0.7928659447676155,3.072970180900028,6.453573527632718
1769158070996,128,0,-0.6337472827168306,2.9517333642303063,6.600376079956158
1769158071000,128,0,-0.3595111411944247,3.129799543674092,6.862399100788404
1769158071004,129,1,-0.082827215949157,3.910618120796042,7.127902996196654
1769158071008,129,1,0.0952107925433921,4.041110966250439,7.295066415382155
1769158071012,129,1,0.1913883701377137,3.955225566972336,7.379511201641367
1769158071016,129,1,0.3451550152431801,4.021310955988629,7.520647172788496
1769158071020,129,1,0.6962296070000833,4.014493327412225,7.859012646459531
1769158071024,130,2,1.2433928879670706,4.965351371498333,8.393568689852868
1769158071028,131,3,1.8244587555521488,5.9423482976711615,8.961264923834667
1769158071032,131,3,2.2398517344120763,5.978059562144587,9.361887852805904
1769158071036,131,3,2.4003925676745466,5.9677530743370415,9.506849429644175
1769158071040,131,3,2.368611821267671,5.994786287529804,9.459925885219617
1769158071044,131,3,2.2797599269947906,5.936365411071825,9.357276171387868
1769158071048,131,3,2.2329896833904828,5.914693868838819,9.298376470572222
1769158071052,131,3,2.241748249830315,5.951128209979666,9.296106627040992
1769158071056,131,3,2.261704209756984,5.956035397502285,9.30370194976657
1769158071060,131,3,2.255571355881697,5.929932907216447,9.27972187384325
1769158071064,131,3,2.2463240774752378,5.966944522622287,9.244556035324267
1769158071068,131,3,2.346454980602723,5.7940192802912165,9.314273034638456
1769158071072,131,3,2.7988294588323654,6.0611176167707885,9.74186861089992
1769158071076,133,5,4.070688693945982,7.755427445035035,11.00444106846746
1769158071080,136,8,6.953869716647758,11.11426863270227,13.894019384176156
1769158071084,142,14,12.474460621897256,16.702238613324237,19.424295346471297
1769158071088,150,22,21.380137761082896,25.020942584979625,28.32552202855175
1769158071092,161,33,33.237415869033164,35.799284826832675,40.153966093006765
1769158071096,173,45,45.65254227365489,47.92458296961596,52.519634469236856
1769158071100,183,55,54.40145649779567,57.94573785091449,61.21339624185009
1769158071104,185,57,54.883646910890576,59.70981706363315,61.65232269800701
1769158071108,174,46,44.38488514870253,49.013439597744664,51.13412824335917
1769158071112,153,25,23.848816579024593,27.61186321357692,30.603428902797365
1769158071116,126,-2,-2.04767666157049,1.0960732993127156,4.726051525456425
1769158071120,101,-27,-26.712703226492643,-24.314006376073948,-19.924519655831133
1769158071124,83,-45,-44.36005813314824,-41.98917486008688,-37.57861501542278
1769158071128,77,-51,-52.12995740114123,-48.23654688863997,-45.382217774928506
1769158071132,79,-49,-50.59262217002641,-46.1874676103419,-43.89733013797141
1769158071136,86,-42,-42.68735722727516,-39.121125630498334,-36.0459107074112
1769158071140,97,-31,-32.00685436490222,-28.266451062860853,-25.40451546126666
1769158071144,107,-21,-21.443841679291427,-18.052240873570273,-14.859914997712076
1769158071148,115,-13,-12.682986172090034,-10.304804028547718,-6.102941595011238
1769158071152,122,-6,-6.370944188352212,-3.122217605489932,0.2066560041922116
1769158071156,127,-1,-2.4933651161172765,1.6965548218443915,4.071865545091158
1769158071160,128,0,-0.6373695555918188,2.8439865907442345,5.902958686334017
1769158071164,128,0,-0.1473053679692052,2.7988242184169003,6.36194618699089
1769158071168,128,0,-0.3114405722548081,2.7819835725781097,6.168851883119371
1769158071172,128,0,-0.5815658343530667,2.7714035416315825,5.8747647631476685
1769158071176,128,0,-0.6949601004869896,2.73434155505742,5.739285613796441
1769158071180,128,0,-0.6289053502030816,2.735549057990923,5.781223891785112
1769158071184,128,0,-0.465290615265633,2.873325998991787,5.9183288660878475
1769158071188,128,0,-0.2891007040571274,2.625091075355,6.0681333021767605
1769158071192,128,0,-0.162718743872484,2.909572094858322,6.170024897854268
1769158071196,129,1,-0.1278883960453163,3.5024395965003245,6.181435203264608
1769158071200,128,0,-0.1905807018254915,2.9257701376614076,6.094574872220233
1769158071204,128,0,-0.3074904054966366,2.613966544971287,5.9521516997297566
1769158071208,128,0,-0.4095752572369591,2.833222675750436,5.823837276891233
1769158071212,128,0,-0.4494031792652193,2.654607066121116,5.757592892270745
1769158071216,128,0,-0.4276506866038977,2.6756460490922436,5.7527108842668815
1769158071220,128,0,-0.380128401061885,2.728071739327996,5.773314104552878
1769158071224,128,0,-0.3445364887545227,2.707581964133377,5.7819205647662875
1769158071228,128,0,-0.3351686062074838,2.731304992051662,5.764483717662829
1769158071232,128,0,-0.3400951635634727,2.6561838296607396,5.732864098229438
1769158071236,128,0,-0.3373873397274167,2.6470018609477757,5.7085782524974755
1769158071240,128,0,-0.3152219453395458,2.676591781551587,5.703021446976665
1769158071244,128,0,-0.2809602719315424,2.7082691292400014,5.70883305064985
1769158071248,128,0,-0.2548793190242899,2.676036639030269,5.706291562317007
1769158071252,128,0,-0.2546622290980701,2.644574722181993,5.678340032888384
1769158071256,128,0,-0.2790989937047716,2.61380713808777,5.626167803862414
1769158071260,128,0,-0.2982565152308956,2.626738085858424,5.5789850912986765
1769158071264,128,0,-0.2596086910086704,2.7267374269416003,5.588760326625047
1769158071268,128,0,-0.1171181641596571,2.5706582527774664,5.701840217105177
1769158071272,128,0,0.1308560727635622,2.723354864026251,5.920491277758138
1769158071276,129,1,0.4326056589043346,3.445271365043989,6.192956926955034
1769158071280,129,1,0.723671073513489,3.757405520369218,6.454290297115561
1769158071284,129,1,0.9811459000415236,3.5237768250294854,6.681707475726243
1769158071288,129,1,1.234078341469616,3.7192901006642622,6.904931476761343
1769158071292,130,2,1.524250045356281,4.5184898251634955,7.165860727803712
1769158071296,130,2,1.8659995503808533,4.574410031567694,7.478105624018841
1769158071300,130,2,2.2409262979844717,4.593136296918569,7.82255546446472
1769158071304,131,3,2.61897237895514,5.604326981451321,8.16916992313492
1769158071308,131,3,2.980376257105085,5.6091551358939675,8.498936809891635
1769158071312,131,3,3.3222921339076894,5.525796307965473,8.809973694655941
1769158071316,132,4,3.6515594539369247,6.549029379678654,9.109438797549066
1769158071320,132,4,3.978996798023411,6.5265251863519,9.407333322216695
1769158071324,132,4,4.32194722181712,6.628151060663714,9.71963904112978
1769158071328,133,5,4.700625977808466,7.537399960795446,10.065959929935604
1769158071332,133,5,5.1147560925778786,7.493420009668341,10.446933185984433
1769158071336,133,5,5.514905303250136,7.577213357681024,10.814764208099904
1769158071340,134,6,5.808886324560448,8.376564616799644,11.077811671250682
1769158071344,134,6,5.926606823247838,8.783554070081996,11.16494206313855
1769158071348,134,6,5.896858379003309,8.26498349582193,11.103914685406702
1769158071352,133,5,5.846029162979662,7.743016007728736,11.02124743279658
1769158071356,134,6,5.8979090869885065,8.240131828389018,11.041091463370876
1769158071360,134,6,6.067821329600368,8.651430239128066,11.1784496040014
1769158071364,134,6,6.252607833709601,8.489589122258982,11.329983877125208
1769158071368,134,6,6.3157589741861635,8.445032609480705,11.359917691348102
1769158071372,134,6,6.18821198707981,8.565552797643845,11.199972006738925
1769158071376,134,6,5.913794589913906,8.268508693549169,10.893840282259422
1769158071380,133,5,5.6151215401388725,7.629348248594246,10.56350893753601
1769158071384,133,5,5.403330523990313,7.424059278644243,10.319739200164603
1769158071388,133,5,5.29690282269056,7.459640431709381,10.180779068314756
1769158071392,133,5,5.215165689094544,7.507792518735146,10.065657310031945
1769158071396,133,5,5.047721974102572,7.206299014132596,9.864089538388116
1769158071400,132,4,4.731181070069539,6.692754798992153,9.513539243045631
1769158071404,132,4,4.268881597291197,6.250301450944084,9.018233909197328
1769158071408,131,3,3.698308418413912,5.613107782910035,8.41560405651921
1769158071412,131,3,3.0590983660003825,5.268287422871932,7.7443944867352545
1769158071416,130,2,2.3926561766734418,4.3750621867482895,7.045331684407076
1769158071420,129,1,1.7539860752047602,3.4874797542671927,6.3735083774016275
1769158071424,129,1,1.2037220395763704,3.364804673241923,5.789889550916158
1769158071428,128,0,0.7785957559797232,2.4823690232217075,5.331186354498252
1769158071432,128,0,0.4660633465337931,2.278963026756527,4.984708067194472
1769158071436,128,0,0.206697523728947,2.3566490568607605,4.691339362184779
1769158071440,127,-1,-0.073190697950922,1.3909972234939127,4.378088394743694
1769158071444,127,-1,-0.4157384306301463,1.4441845538272997,4.003059245263939
1769158071448,127,-1,-0.7977756614740255,1.3221964905952888,3.5887689514871592
1769158071452,126,-2,-1.134960173393908,0.3631858243975312,3.2187446241441826
1769158071456,126,-2,-1.3351819849457118,0.2359661051024746,2.9849915277904344
1769158071460,126,-2,-1.3715813970940345,0.4127889307578423,2.914847291038514
1769158071464,126,-2,-1.3138971173998382,0.4044114943591879,2.938976964696721
1769158071468,126,-2,-1.2853769622744633,0.266602644836901,2.9341266745543084
1769158071472,126,-2,-1.378211375082231,0.3767294385551363,2.8078087188382117
1769158071476,126,-2,-1.5953611858717751,0.1394303832586816,2.556974152023157
1769158071480,125,-3,-1.8639664427325648,-0.5564671602126339,2.255013995653026
1769158071484,125,-3,-2.104893117584458,-0.664636208008826,1.981679555200703
1769158071488,125,-3,-2.289833923351601,-0.7567592693258334,1.7649123844178884
1769158071492,125,-3,-2.4295833081824205,-0.6280829438463487,1.5926650336452042
1769158071496,125,-3,-2.5172887397899393,-0.9537243692403284,1.4711425056265934
1769158071500,124,-4,-2.507094248418321,-1.5114336980369316,1.447019079644674
1769158071504,125,-3,-2.36324603354897,-0.7695462261898118,1.5573494340618126
1769158071508,125,-3,-2.1222424684476886,-0.7316614486592243,1.7659869008441902
1769158071512,125,-3,-1.8898256024026892,-0.688085166741935,1.9664113358208952
1769158071516,126,-2,-1.766798392595769,0.0122789669544234,2.0568998357525974
1769158071520,125,-3,-1.7753810210885388,-0.5194865788947993,2.0151687031090297
1769158071524,125,-3,-1.8606466604365997,-0.8469148037469365,1.8969037790585368
1769158071528,125,-3,-1.9659371035503712,-0.7097200722615309,1.7592636241591766
1769158071532,125,-3,-2.101858464481869,-0.7627321557781848,1.5911566556899643
1769158071536,125,-3,-2.335151390116891,-1.0018465167363422,1.3250846117824526
1769158071540,124,-4,-2.7111189146161965,-1.527483878307101,0.91589544267479
1769158071544,124,-4,-3.189718898802377,-1.9582797971400872,0.4046910295920707
1769158071548,123,-5,-3.654047570388293,-2.6208987927218645,-0.0908880095039226
1769158071552,123,-5,-3.9775016547043607,-2.942841030591021,-0.4448520283612662
1769158071556,123,-5,-4.089409992038808,-2.868068333947231,-0.5880407568649932
1769158071560,123,-5,-3.995745449864736,-2.722658889963885,-0.5271716571112179
1769158071564,123,-5,-3.7622008556740103,-2.83676119743295,-0.3269835548881765
1769158071568,123,-5,-3.487777958897879,-2.813407128788496,-0.085019037860194
1769158071572,124,-4,-3.27293757989921,-1.8034411498322287,0.0984580850856691
1769158071576,124,-4,-3.175989203948297,-2.08763613739339,0.1642873689719248
1769158071580,123,-5,-3.1832054011684843,-2.545482856473276,0.1259228869101036
1769158071584,124,-4,-3.2285529208263917,-2.0945867332023695,0.049960025885289
1769158071588,123,-5,-3.248656419083507,-2.629765049913191,-0.0002233381989018
1769158071592,124,-4,-3.217301353911778,-2.042943012548979,0.0005329841394665
1769158071596,124,-4,-3.136434283220401,-1.910837255842889,0.0496200459861153
1769158071600,123,-5,-3.0187314260730505,-2.7772997405158613,0.1352454873061468
1769158071604,124,-4,-2.8932810453065505,-1.945291198336479,0.2296456082668534
1769158071608,124,-4,-2.8106984241420734,-1.836202602204735,0.2822596916506086
1769158071612,124,-4,-2.8131152358162352,-1.934982139561054,0.2500628822491251
1769158071616,124,-4,-2.892215177278382,-2.0195856573639093,0.141052780645408
1769158071620,123,-5,-2.989048908351573,-2.789562611215178,0.0145021001216534
1769158071624,124,-4,-3.0390365220525317,-1.960130587907088,-0.0651242876066149
1769158071628,124,-4,-3.0140843619012294,-1.934923441937718,-0.0701588601121692
1769158071632,123,-5,-2.932704822680735,-2.8660246334781503,-0.0188598521778455
1769158071636,124,-4,-2.846236910796441,-2.1667707086848633,0.0379938414201284
1769158071640,124,-4,-2.806900448464209,-1.673409755468664,0.0480010545872886
1769158071644,124,-4,-2.826001505071199,-2.211313375791769,-0.0005411079647537
1769158071648,123,-5,-2.8598746678930427,-2.687330956684864,-0.0635424046869204
1769158071652,124,-4,-2.845229049407235,-2.243055265510677,-0.0771421632866822
1769158071656,124,-4,-2.7424560774998583,-1.7880414424477404,-0.0021442624957614
1769158071660,124,-4,-2.53883169439109,-2.1531776063300043,0.1733407181620414
1769158071664,124,-4,-2.2264955633126724,-1.7956162326559904,0.457065463262694
1769158071668,125,-3,-1.7989341636302143,-1.1663775200523094,0.8560451233908726
1769158071672,125,-3,-1.2718867769351834,-0.8555119335200256,1.3548793285407823
1769158071676,126,-2,-0.7001104382691334,-0.1998526468759065,1.898792815502329
1769158071680,126,-2,-0.1673397917436325,0.1756135359166952,2.4038791529820536
1769158071684,127,-1,0.2504079286290293,0.7977346694057625,2.793990814942072
1769158071688,127,-1,0.5260316391551776,1.1845491166467306,3.04220998149139
1769158071692,127,-1,0.6941018738145046,0.6929833040719631,3.1835837737631323
1769158071696,127,-1,0.8225017093355662,1.231747415957722,3.286093656610115
1769158071700,128,0,0.969021912442006,1.6607818188586947,3.4068187600610367
1769158071704,127,-1,1.1566808649792963,1.2309139185554363,3.5679259501648595
1769158071708,128,0,1.3720856398928225,1.7095280542292732,3.755969705664109
1769158071712,128,0,1.5734592406982044,2.0487954093727008,3.9299979049809295
1769158071716,128,0,1.7040215995956542,1.8822626684448325,4.034256480176547
1769158071720,128,0,1.7130590754882244,1.879001843642849,4.018404287993727
1769158071724,128,0,1.581452749138676,2.001408807992788,3.862624030195162
1769158071728,128,0,1.3376330249759616,1.8050621906362976,3.5942059181622437
1769158071732,127,-1,1.0421338477529931,0.9336202245730076,3.2732333402727942
1769158071736,127,-1,0.7378011392080804,0.9048910537040636,2.9430435956565297
1769158071740,127,-1,0.4057079259262119,0.8168417957178837,2.585443020646567
1769158071744,126,-2,-0.0232938716807327,-0.0296756519210674,2.1317258009446665
1769158071748,126,-2,-0.6021845507976724,-0.2243989944411186,1.529007408632232
1769158071752,125,-3,-1.3031671406832936,-1.1151640764162083,0.8048047925546964
1769158071756,124,-4,-2.0127202633093138,-2.099144854568131,0.0720373144242945
1769158071760,124,-4,-2.5952988763666087,-2.256372718252228,-0.5342121799311794
1769158071764,123,-5,-2.980445301351931,-3.0077061198775654,-0.943311885991843
1769158071768,123,-5,-3.2078902968711023,-3.3534527501224334,-1.1944388269738582
1769158071772,123,-5,-3.3913986049169664,-3.007405502892212,-1.4011935652289562
1769158071776,123,-5,-3.623561632713382,-3.3169907099694065,-1.6564203309412715
1769158071780,122,-6,-3.901414711457418,-4.068639593840237,-1.957075820303448
1769158071784,122,-6,-4.142383333072627,-4.290297825043227,-2.2201267822319917
1769158071788,122,-6,-4.2713623942337735,-4.149192190600197,-2.370491187241644
1769158071792,122,-6,-4.288126901685766,-4.25407260146059,-2.408681355419855
1769158071796,122,-6,-4.254670058156684,-4.170103215778664,-2.3972663787505226
1769158071800,122,-6,-4.229685724195784,-4.221313838287786,-2.394668463413284
1769158071804,122,-6,-4.220470507531518,-4.2949228792113665,-2.407395109780424
1769158071808,122,-6,-4.19160285369377,-4.135029697992552,-2.3995116420435423
1769158071812,122,-6,-4.111252725081133,-4.424605222149198,-2.339452465142756
1769158071816,122,-6,-3.9834389648448623,-3.974640775578101,-2.2321073520807495
1769158071820,123,-5,-3.8330962141014218,-3.5421801195329365,-2.10291597647654
1769158071824,122,-6,-3.664864475669887,-4.021961403468075,-1.9556264233280487
1769158071828,123,-5,-3.4492284359274494,-3.491496186383284,-1.758869924915583
1769158071832,123,-5,-3.1587999088921164,-3.1575516492665336,-1.4846572653055323
1769158071836,123,-5,-2.8173282105110777,-3.255533937064232,-1.1593774467612334
1769158071840,124,-4,-2.50245379610492,-2.389108021973673,-0.865604506869067
1769158071844,124,-4,-2.278712219713796,-2.1688747994155984,-0.6705844587956324
1769158071848,124,-4,-2.090145161377011,-2.5285644547280297,-0.5141778949135105
1769158071852,124,-4,-1.6582205252724846,-2.0818193417806947,-0.1075384182732701
1769158071856,126,-2,-0.4089391020405895,-0.4900763943195123,1.1321246081581506
1769158071860,129,1,2.5312876513967897,2.8645638880955824,4.077097574299767
1769158071864,135,7,8.146487573535042,8.460707099546342,9.69872268340463
1769158071868,143,15,17.004990100027225,16.789738826980027,18.549379713660144
1769158071872,154,26,28.469386015023083,27.534468720810708,29.983695079943654
1769158071876,165,37,40.10033509315764,38.81507826768856,41.567677737659615
1769158071880,174,46,47.90513716740673,47.50551980904114,49.32316737703091
1769158071884,175,47,47.73536731256597,48.71004560425537,49.116646856855304
1769158071888,165,37,37.329053270267465,38.43386379375868,38.69486443386988
1769158071892,144,16,17.821882098404814,17.769229837158022,19.193616193713854
1769158071896,119,-9,-6.322962962477792,-7.509692290401261,-4.932775221853861
1769158071900,96,-32,-29.057657712762857,-30.218495190185617,-27.652246527476777
1769158071904,81,-47,-45.18675763101681,-45.55885917253381,-43.7850176360585
1769158071908,74,-54,-52.16856311414722,-52.30517596235508,-50.79533579978707
1769158071912,76,-52,-50.49493078031165,-50.49808811507202,-49.16690297337627
1769158071916,84,-44,-42.77614353373727,-42.366298131515386,-41.493157814734474
1769158071920,94,-34,-32.28463610741442,-32.41614134323445,-31.03182333519927
1769158071924,104,-24,-21.761034006362745,-22.529287271511777,-20.51904729315667
1769158071928,113,-15,-12.885868852925595,-13.323368043819611,-11.641998652375724
1769158071932,120,-8,-6.332501671744986,-6.658550497354408,-5.086096396902986
1769158071936,124,-4,-2.0746773528144633,-2.2149166771460465,-0.8343748080945286
1769158071940,127,-1,0.3070283986610573,0.2741117846980172,1.531290360902437
1769158071944,127,-1,1.3906864488704196,0.7610654772272007,2.5944618875026215
1769158071948,128,0,1.7331749225301398,1.3096475355186774,2.918362578731772
1769158071952,128,0,1.7536220985662625,1.657777186598567,2.924279214373227
1769158071956,128,0,1.7075801475225312,1.3924650633416062,2.8657411017605385
1769158071960,128,0,1.7304460343699055,1.5732894263307489,2.875605569379288
1769158071964,128,0,1.881978718607162,1.4203285993354728,3.0132530147748726
1769158071968,128,0,2.153487512702529,1.551104629051562,3.2711169961002895
1769158071972,129,1,2.4682783739127636,2.397122548692924,3.5730952460484957
1769158071976,129,1,2.7210567654097257,2.524787408813116,3.8134676624929753
1769158071980,129,1,2.8451918412454447,2.3994614779873347,3.925254173617816
1769158071984,129,1,2.850126947656437,2.492924641080253,3.918165186990139
1769158071988,129,1,2.7986539717040912,2.4324582062487625,3.8551793689228
1769158071992,129,1,2.75359077877862,2.434086049390684,3.798685710403971
1769158071996,129,1,2.741649939699298,2.426114907679735,3.774847920458151
1769158072000,129,1,2.7531916464891215,2.401903403117159,3.7740899029549686
1769158072004,129,1,2.7644029783118165,2.434525242025074,3.773262550521028
1769158072008,129,1,2.7597906027890517,2.409053096895065,3.757456595171264
1769158072012,129,1,2.7416598209265164,2.399532570300666,3.728900519583351
1769158072016,129,1,2.724964164541904,2.380046530933579,3.701865461747266
1769158072020,129,1,2.723549554683366,2.366347824387874,3.689528101028889
1769158072024,129,1,2.7370045733534507,2.400850831077264,3.691484037518393
1769158072028,129,1,2.7470534801426623,2.372048364929882,3.690244825750294
1769158072032,129,1,2.7288506351027135,2.368149579925914,3.66184703481221
1769158072036,129,1,2.6748459063537213,2.3407897255067227,3.5987715450120543
1769158072040,129,1,2.6171465579866307,2.310905393858514,3.532131364243037
1769158072044,129,1,2.6250206976068204,2.402740817054398,3.530180076542634
1769158072048,129,1,2.762950115718668,2.2789120377964056,3.657489844200451
1769158072052,129,1,3.0302192755012087,2.418475758079026,3.9143422818332247
1769158072056,130,2,3.3384968076967976,3.188240564338767,4.213042077268632
1769158072060,130,2,3.5665855006394516,3.4064146165160114,4.432075260943303
1769158072064,130,2,3.6569227697580904,3.214281572918879,4.5133475233064875
1769158072068,130,2,3.6654597723448417,3.4102051748797555,4.512869117514892
1769158072072,130,2,3.7150639258739098,3.2133983557994044,4.553921539547724
1769158072076,130,2,3.8958718247010937,3.3017296461762147,4.726617604275731
1769158072080,131,3,4.204691194918345,4.2428435868010785,5.027153635853897
1769158072084,131,3,4.5709630646665165,4.278212605505778,5.38452116857416
1769158072088,131,3,4.929894234805188,4.3012727631482415,5.734221738279675
1769158072092,132,4,5.267588743354897,5.231952208623011,6.06306302271067
1769158072096,132,4,5.60496393590007,5.20531311414081,6.3924392669820875
1769158072100,132,4,5.9482871997701565,5.262741154777544,6.728546424242116
1769158072104,133,5,6.259806983240284,6.192097737728766,7.032956942090051
1769158072108,133,5,6.480246006587339,6.315148946834931,7.2455628095889235
1769158072112,133,5,6.580566993977574,6.141626477003875,7.337242957675034
1769158072116,133,5,6.586182705114695,6.216757475968061,7.334312383558916
1769158072120,133,5,6.549452089529957,6.166906868580146,7.290099564465918
1769158072124,133,5,6.506815737704361,6.221883715947814,7.24112249410657
1769158072128,133,5,6.467772390968995,6.223235317154346,7.196081165552617
1769158072132,133,5,6.437896006040131,6.147084412723499,7.159584865334591
1769158072136,133,5,6.437588298995439,6.143572763292671,7.151598001555822
1769158072140,133,5,6.485240777719876,6.142445940220209,7.190941652812407
1769158072144,133,5,6.555847799952189,6.190985998077156,7.25367743711134
1769158072148,133,5,6.561251462547214,6.177258860140158,7.25245120254935
1769158072152,133,5,6.390573527594689,6.12809964681502,7.0760530593712305
1769158072156,133,5,5.995195242139267,6.064779301880676,6.674754379748954
1769158072160,132,4,5.443769255069404,5.157885817299673,6.116716299274854
1769158072164,131,3,4.879780891741793,4.079614602661106,5.54606215086347
1769158072168,131,3,4.40647002289213,4.245832064106597,5.066645380196693
1769158072172,131,3,4.007808658944201,3.9705621306799976,4.662047387858625
1769158072176,130,2,3.581239237784305,3.1420159966534484,4.228963347968034
1769158072180,130,2,3.0420767345672823,3.020910969838348,3.6827429791762327
1769158072184,129,1,2.3955498532694692,2.104941044051414,3.029498994505248
1769158072188,128,0,1.7174352890850135,1.18756720646327,2.3457971871152594
1769158072192,128,0,1.076112393735728,0.9161932199032048,1.699772049010881
1769158072196,127,-1,0.4787415275426117,0.157717280638491,1.0973510748313329
1769158072200,127,-1,-0.109773661422664,-0.1109892475733413,0.5024780359972043
1769158072204,126,-2,-0.7074282670905121,-0.7991754009941938,-0.1022935537002194
1769158072208,125,-3,-1.2863609928385205,-2.0220481808314994,-0.6875508109154094
1769158072212,125,-3,-1.7985549805932348,-1.9227558644806275,-1.204613299227221
1769158072216,125,-3,-2.2123689002014824,-2.0895384162661377,-1.6228218722098866
1769158072220,124,-4,-2.518455194177301,-2.950953943725517,-1.9340720277195305
1769158072224,124,-4,-2.717530803077593,-3.0037215957501933,-2.139196354483099
1769158072228,124,-4,-2.818881732476876,-2.931985239685659,-2.246791557350285
1769158072232,124,-4,-2.847137822885822,-3.061108683930171,-2.280928280256388
1769158072236,124,-4,-2.839425571432177,-3.0489189543654116,-2.278514674499343
1769158072240,124,-4,-2.831058907134209,-3.050003938907893,-2.2748754793279033
1769158072244,124,-4,-2.840532211373352,-2.993197845562572,-2.288878497154162
1769158072248,124,-4,-2.8632679935801453,-3.010237745970401,-2.3166282516220047
1769158072252,124,-4,-2.880039086673977,-3.077482182998242,-2.3392933768359434
1769158072256,124,-4,-2.8786419449564855,-3.090510597666606,-2.3442198698871035
1769158072260,124,-4,-2.872784864519909,-3.097528497170805,-2.3440718048452247
1769158072264,124,-4,-2.895357738076299,-3.012887941816548,-2.371095534632495
1769158072268,124,-4,-2.961609298665922,-3.0696512939027447,-2.441059159184128
1769158072272,124,-4,-3.0320498392571533,-3.112677732149057,-2.5157626752869113
1769158072276,124,-4,-3.0202089975159363,-3.099805357194743,-2.5094791842921005
1769158072280,124,-4,-2.859354042215698,-3.2092698593186864,-2.3548877846309413
1769158072284,124,-4,-2.5795763077599503,-2.921110804234989,-2.0809695319081225
1769158072288,125,-3,-2.312960122917565,-2.300127027535126,-1.8195350763241296
1769158072292,125,-3,-2.19677310371304,-1.907143740884256,-1.7083501536653385
1769158072296,125,-3,-2.2522571176202555,-2.419264369816368,-1.768703969101356
1769158072300,124,-4,-2.358245955015322,-2.9528697898894434,-1.8789169995882276
1769158072304,125,-3,-2.3481723906331897,-2.2513035149246283,-1.8726141791238096
1769158072308,125,-3,-2.137291231291343,-2.076663612467792,-1.6662242320920022
1769158072312,125,-3,-1.7740045586479931,-2.158227487826286,-1.308885627409473
1769158072316,126,-2,-1.3940053040166809,-1.2915277674858086,-0.935635247542768
1769158072320,126,-2,-1.1283229126573069,-1.1080064213101846,-0.6761741685203981
1769158072324,126,-2,-1.030307074431473,-1.2415962314404227,-0.5830531134607675
1769158072328,126,-2,-1.062417175627631,-1.109361039007939,-0.6189592076515504
1769158072332,126,-2,-1.1400845982396006,-1.243819076590933,-0.7003037545077566
1769158072336,126,-2,-1.1923409662283355,-1.2483470808653063,-0.7571178670978442
1769158072340,126,-2,-1.1968789005111786,-1.2411632962254742,-0.767391494311827
1769158072344,126,-2,-1.1757259743969055,-1.2041999454584875,-0.752571260375789
1769158072348,126,-2,-1.1662070966210347,-1.2001225624744012,-0.7490224704515613
1769158072352,126,-2,-1.191161458290169,-1.2608407064493994,-0.7790319790912603
1769158072356,126,-2,-1.243933698018392,-1.267688752710975,-0.8362574631362909
1769158072360,126,-2,-1.290293324794236,-1.3374682993803515,-0.8873191644336984
1769158072364,126,-2,-1.2831399040195262,-1.1683904835486878,-0.8855976348413073
1769158072368,126,-2,-1.1851261490379708,-1.3249671041914022,-0.7933617385028491
1769158072372,126,-2,-0.988024348471273,-1.2167571893030025,-0.601729492947416
1769158072376,127,-1,-0.7107787174489283,-0.3605840027417635,-0.3295753012962024
1769158072380,127,-1,-0.3740580800732684,-0.3631370875373041,0.00204197659043
1769158072384,127,-1,0.0191098169796671,-0.1862626941164782,0.3899310632895663
1769158072388,128,0,0.4678689031620233,0.5738187483078505,0.8332777144836223
1769158072392,128,0,0.9386681209178552,0.841336961815808,1.2982826430455576
1769158072396,129,1,1.355080375802333,1.4791174329539425,1.70819781296062
1769158072400,129,1,1.630715858186952,1.745048190225587,1.977028750174936
1769158072404,129,1,1.7200760370595776,1.593425604917183,2.0603896216867987
1769158072408,129,1,1.6508199969593698,1.7321340106650325,1.9865859473972831
1769158072412,129,1,1.5212787578818636,1.5937116579066597,1.8531768023758743
1769158072416,129,1,1.464725789796437,1.6524144508686842,1.791892887332856
1769158072420,129,1,1.5865446252636892,1.5147223999752302,1.9073287825605856
1769158072424,129,1,1.8956451048935747,1.7030528874555004,2.2089144577391497
1769158072428,130,2,2.2770903130437623,2.5854109327006056,2.5827741101239052
1769158072432,130,2,2.543866560657475,2.6122777708852047,2.8426566277058747
1769158072436,130,2,2.545274752011482,2.609411470948502,2.838105963031186
1769158072440,130,2,2.255525950018318,2.43799827763727,2.543086503955246
1769158072444,129,1,1.7782872367019122,1.7202379790644566,2.0606776841999173
1769158072448,129,1,1.2668551960113936,1.4562495383535672,1.5436446988571664
1769158072452,128,0,0.8192949480939318,0.6970329384031593,1.0898167807371149
1769158072456,128,0,0.4245870877300196,0.4203146607797903,0.6880408773558013
1769158072460,128,0,-0.0023742298131883,0.5904898192819799,0.2532080402300734
1769158072464,127,-1,-0.5328143346991716,-0.5635611455827076,-0.2852627638834031
1769158072468,126,-2,-1.1643535568198822,-1.315044176238537,-0.9238480949478518
1769158072472,126,-2,-1.83273461637332,-1.62655769884512,-1.5979289905712388
1769158072476,125,-3,-2.460289289506826,-2.326034516879435,-2.2309290693520296
1769158072480,125,-3,-2.986473590935508,-2.728392945293088,-2.763656856946458
1769158072484,124,-4,-3.372646747738947,-3.3446244214972274,-3.1575822452050595
1769158072488,124,-4,-3.6054267544518783,-3.608737371242987,-3.398371221850603
1769158072492,124,-4,-3.704171115688076,-3.4287805552888355,-3.5047022005327673
1769158072496,124,-4,-3.7160079231592418,-3.5741467898962784,-3.5238837183702767
1769158072500,124,-4,-3.6941999960016743,-3.582961080884248,-3.509623503728782
1769158072504,124,-4,-3.6769934485471256,-3.539559095484782,-3.5002454287218443
1769158072508,124,-4,-3.680907099216913,-3.5499758388155223,-3.512008652231396
1769158072512,124,-4,-3.705085164181411,-3.5253874256651354,-3.543773330464285
1769158072516,124,-4,-3.737778949686674,-3.584794729574972,-3.5836880826423787
1769158072520,124,-4,-3.7627596815338906,-3.617746592751875,-3.6157749359486937
1769158072524,124,-4,-3.767548502083271,-3.609756883689208,-3.628256061263878
1769158072528,124,-4,-3.752308476077394,-3.5647523723214145,-3.622087113351859
1769158072532,124,-4,-3.734418397358781,-3.590762705124939,-3.614663875507114
1769158072536,124,-4,-3.7429219298831287,-3.5983046375289702,-3.633662788622914
1769158072540,124,-4,-3.798933084164608,-3.660327588750584,-3.6980422095907928
1769158072544,124,-4,-3.886054509391434,-3.682781526452805,-3.790208013991297
1769158072548,124,-4,-3.931643686308613,-3.5497666704716937,-3.838896121141396
1769158072552,124,-4,-3.8305481324690898,-3.7248021829926015,-3.7429418258253353
1769158072556,124,-4,-3.5187150136805014,-3.498169939788899,-3.442795832348504
1769158072560,125,-3,-3.0431651411079725,-2.8616159127980225,-2.9869560393254053
1769158072564,125,-3,-2.53164760003728,-2.555655550048858,-2.4987073429653126
1769158072568,126,-2,-2.005519898700613,-1.7684646490302915,-1.9897361774083355
1769158072572,127,-1,-1.1055420533939837,-0.6011520911498058,-1.091808018376233
1769158072576,129,1,1.0637364836329295,1.3325159679846432,1.0908006599247797
1769158072580,134,6,5.728887820525689,6.202096992324103,5.772936895128613
1769158072584,142,14,13.778895429008267,14.337974966473936,13.826345921858792
1769158072588,152,24,24.8306516502537,24.2250710165477,24.857644745638
1769158072592,163,35,36.559383681297525,35.34899672088751,36.54636903092419
1769158072596,173,45,44.93872060086489,45.299269081229234,44.8814542268972
1769158072600,175,47,45.66528181791678,47.11854497643123,45.57594193513276
1769158072604,165,37,36.2435772554842,37.31969805509748,36.14412433528104
1769158072608,146,18,17.550710534274472,18.087640782889856,17.463136381963295
1769158072612,121,-7,-6.164624403173551,-6.60360254032733,-6.227986320345789
1769158072616,98,-30,-28.954118606578007,-29.822189474029067,-28.99691164680632
1769158072620,82,-46,-45.57526131175946,-45.75804882025618,-45.61610301649352
1769158072624,75,-53,-53.320671181291374,-52.81332089768609,-53.383790199760035
1769158072628,76,-52,-52.45919940898391,-51.82149932880374,-52.56150043158435
1769158072632,83,-45,-45.384658631907,-44.79371463723274,-45.52735849482585
1769158072636,93,-35,-35.21945136853988,-34.74191446600587,-35.38941489068728
1769158072640,103,-25,-24.667925517379157,-24.95055349131163,-24.8469784173886
1769158072644,112,-16,-15.496585956549978,-15.69816437720666,-15.672257190775015
1769158072648,120,-8,-8.539785158082578,-8.039228548383974,-8.710907166691273
1769158072652,124,-4,-3.9230949387413423,-3.6881865162901826,-4.097558150536564
1769158072656,127,-1,-1.296981494002659,-0.9367748398491956,-1.4843563994021078
1769158072660,128,0,-0.0552248148944949,0.1494356246164065,-0.2603178637051506
1769158072664,128,0,0.4356144338548102,0.1623762550757566,0.2137848876662573
1769158072668,129,1,0.6401181053590406,0.9976384709229054,0.4045964012086491
1769158072672,129,1,0.7784514676390848,1.2265295122573925,0.5304449941276044
1769158072676,129,1,0.8899374735147463,1.0114671362447385,0.6283412482017798
1769158072680,129,1,0.951962125676978,1.1708005817460485,0.6755987892429953
1769158072684,129,1,0.9553996417854322,1.0321397516137267,0.6647372471178246
1769158072688,129,1,0.913475813172802,1.0597590263338554,0.6100863701448302
1769158072692,129,1,0.8480298817602647,1.0881287532140391,0.5328501313856355
1769158072696,129,1,0.7921052939802316,1.021610919841185,0.4645197841639952
1769158072700,129,1,0.7995527877581632,1.134485242175599,0.458117446274092
1769158072704,129,1,0.9273401168399054,0.9389397120337571,0.571121262041844
1769158072708,129,1,1.1870662514537502,1.1167611544482523,0.8159808552479406
1769158072712,130,2,1.5124407981545862,1.9093348431495965,1.126461753142455
1769158072716,130,2,1.7885928481941775,2.126690313710967,1.3873499280913126
1769158072720,130,2,1.925869298649747,1.9517666203616784,1.5094060740121955
1769158072724,130,2,1.9133965872770295,2.0293645928559907,1.482694142524606
1769158072728,130,2,1.8154890175238112,1.967274812699539,1.3714461337473294
1769158072732,130,2,1.7308339656080334,1.927032187843075,1.2728288329751178
1769158072736,130,2,1.7476097272326157,2.073889736124448,1.2737694152795545
1769158072740,130,2,1.9050601912023604,1.8795495829260775,1.4141785808477252
1769158072744,130,2,2.1688554216119007,2.0640083313018995,1.6615266669246402
1769158072748,131,3,2.446720470259746,2.8191714605192506,1.9242054777882032
1769158072752,131,3,2.656396828767369,2.9899535061335385,2.1188436232915997
1769158072756,131,3,2.796640461752302,2.9393579540514403,2.243055043198522
1769158072760,131,3,2.9436843520104397,2.9100565688571254,2.3734013351474212
1769158072764,131,3,3.1646098980718116,2.9878421811350737,2.5779625824259624
1769158072768,132,4,3.4371404456858143,3.76013340657856,2.8344791019252766
1769158072772,132,4,3.666448439696912,4.015714962663193,3.047171081863856
1769158072776,132,4,3.782858362864684,3.780888103163269,3.145978948880876
1769158072780,132,4,3.815768620283636,4.029807398373604,3.161226334866304
1769158072784,132,4,3.869799114642449,3.759061108451952,3.1986230637078323
1769158072788,132,4,4.035631749522012,3.888512273609928,3.3485532358410266
1769158072792,133,5,4.3288834170475505,4.846751002126517,3.6250869432918034
1769158072796,133,5,4.706484780051875,4.8122313451142205,3.984246326769311
1769158072800,133,5,5.121398354429787,4.983536434371245,4.37996967082587
1769158072804,134,6,5.54986534410922,5.657811796193897,4.790165650276037
1769158072808,134,6,5.98010599936378,5.931506082496231,5.203338045359831
1769158072812,135,7,6.399062973748974,6.705696579769632,5.605169960615002
1769158072816,135,7,6.795010456485455,6.88280712418536,5.982875393819134
1769158072820,135,7,7.157588531386896,6.839200552485788,6.326321310224593
1769158072824,136,8,7.465870716649872,7.689934940118612,6.615364189513254
1769158072828,136,8,7.686004693201241,7.830761905865743,6.816500102241133
1769158072832,136,8,7.793272963084846,7.691766190893387,6.904994784083273
1769158072836,136,8,7.798268184852083,7.865280047797502,6.891430146433893
1769158072840,136,8,7.749065515785099,7.736997983673973,6.823708161143272
1769158072844,136,8,7.706775087694324,7.7164423000174605,6.762453004863968
1769158072848,136,8,7.712224483108064,7.709907263353725,6.748134726040925
1769158072852,136,8,7.762428026149215,7.71734075476519,6.778034122585504
1769158072856,136,8,7.809387346131793,7.799759056186306,6.8048114161597315
1769158072860,136,8,7.785920426143317,7.678576419207362,6.761541617396205
1769158072864,136,8,7.648980838861373,7.716876045299488,6.604742189752254
1769158072868,136,8,7.412187096058097,7.576540623365135,6.347665256490207
1769158072872,135,7,7.1355069745505455,6.812302643765947,6.050703420569947
1769158072876,135,7,6.873140319320909,6.588004286571316,5.768617889315016
1769158072880,135,7,6.628413117692682,6.854187088971765,5.5042720109745265
1769158072884,135,7,6.361738667114997,6.39465308693514,5.216949314890222
1769158072888,134,6,6.033483114035283,5.851743704651756,4.86677998091271
1769158072892,134,6,5.623418382147811,5.4300162974122985,4.4345926266164035
1769158072896,133,5,5.110914051075973,4.895108444395619,3.9007529369512137
1769158072900,133,5,4.461124688070877,4.484469025119678,3.2302543306959097
1769158072904,132,4,3.6541231139209134,3.625345140719888,2.402414740338372
1769158072908,131,3,2.7312960825852928,2.5933947075667763,1.4584110801154564
1769158072912,130,2,1.8025969116609244,1.5368882110009794,0.5085624301290794
1769158072916,129,1,0.9969459623737896,0.7758148891024288,-0.3181645340819514
1769158072920,129,1,0.3945700239202736,0.4599368373929224,-0.942108530205485
1769158072924,128,0,-0.0091919854428637,-0.3900566778763807,-1.3683832105097196
1769158072928,128,0,-0.2911232773656635,-0.5178256027451829,-1.673496922814552
1769158072932,128,0,-0.5526612889861893,-0.4083198209052763,-1.958105839797838
1769158072936,127,-1,-0.8661467057435268,-1.3795756826632162,-2.2939140356639713
1769158072940,127,-1,-1.242918177092802,-1.4659551660826966,-2.692274980540115
1769158072944,127,-1,-1.635956896415352,-1.544686481914292,-3.1067906231535876
1769158072948,126,-2,-1.9709252340355277,-2.4732780112953745,-3.4637414051763304
1769158072952,126,-2,-2.189504246615574,-2.5127564642433216,-3.705006348345884
1769158072956,126,-2,-2.281379289889909,-2.372574324577256,-3.8202139632564585
1769158072960,126,-2,-2.2832517147435953,-2.5545443890737047,-3.845842055377629
1769158072964,126,-2,-2.2492082156109334,-2.5404563262738535,-3.8354179448612857
1769158072968,126,-2,-2.2205772143796714,-2.5730246693286034,-3.829691414574184
1769158072972,126,-2,-2.2139463474289025,-2.500194590282494,-3.845392794997891
1769158072976,126,-2,-2.2235157463708037,-2.457550844014242,-3.8776312078827657
1769158072980,126,-2,-2.2307029814886334,-2.571888855499343,-3.90852006354098
1769158072984,126,-2,-2.2210027748714256,-2.5928215069712475,-3.9231886094260897
1769158072988,126,-2,-2.2015516331428886,-2.624208380240802,-3.92774048793615
1769158072992,126,-2,-2.20003483319694,-2.5337468970870347,-3.949383589544442
1769158072996,126,-2,-2.234669559837632,-2.4951114167935886,-4.006994644019936
1769158073000,126,-2,-2.2782087744339328,-2.639589354031628,-4.07429281411671
1769158073004,126,-2,-2.259123219009984,-2.5890865900043076,-4.079731830032731
1769158073008,126,-2,-2.1154050643318083,-2.7420337370830294,-3.9602763958895064
1769158073012,126,-2,-1.8569493125749477,-2.4899438240311373,-3.725286674854852
1769158073016,127,-1,-1.5670175454346928,-1.6213088844679149,-3.4589798324940606
1769158073020,127,-1,-1.3293726526066698,-1.6010518078835538,-3.2462791132513775
1769158073024,127,-1,-1.1563475265942154,-1.7116863491871062,-3.0988901049278876
1769158073028,127,-1,-1.0001427858214766,-1.714403545944076,-2.9671075422202424
1769158073032,127,-1,-0.8285606127317038,-1.619016651755845,-2.8183191667765115
1769158073036,128,0,-0.6643101131233207,-0.5560091172065817,-2.6772571852818245
1769158073040,128,0,-0.5416701717264933,-0.7563773462168331,-2.579952041458238
1769158073044,127,-1,-0.4523484439996434,-1.6354618371987204,-2.517064402603568
1769158073048,128,0,-0.3609489897191433,-0.8955926277019532,-2.450845870243409
1769158073052,128,0,-0.260338300979948,-0.532189791698729,-2.3737094718956095
1769158073056,128,0,-0.1814563789176233,-0.7243995456753303,-2.3183165812178856
1769158073060,128,0,-0.1476398516357506,-0.647153849745961,-2.309425023983229
1769158073064,128,0,-0.1425727630335229,-0.8412454444298154,-2.3303632046444447
1769158073068,128,0,-0.1337999277119913,-0.8036846261906492,-2.3474588382947568
1769158073072,128,0,-0.1165591477408058,-0.6991988860648521,-2.3553141127968953
1769158073076,128,0,-0.1198923011179607,-0.6661704094644101,-2.383187349975546
1769158073080,128,0,-0.1647988287389793,-0.7240189375872119,-2.452515506973411
1769158073084,128,0,-0.219933335511603,-0.90836714570594,-2.5321745818887536
1769158073088,128,0,-0.2056551973597919,-0.7994491795683616,-2.5426492661786817
1769158073092,128,0,-0.051614267067192,-0.8390328694704308,-2.413849946722329
1769158073096,128,0,0.238473516927702,-0.5719342545376969,-2.1497793989604235
1769158073100,129,1,0.5729760244084492,0.1081995621926665,-1.8419020214963968
1769158073104,129,1,0.8270710847720892,0.1608171620372744,-1.6140986977906593
1769158073108,129,1,0.9259298627942886,0.0378861163630812,-1.5401291533499988
1769158073112,129,1,0.8964441639323446,0.1958294521951069,-1.5932003614121113
1769158073116,129,1,0.8558776401052185,0.3517307200606532,-1.6574946772972003
1769158073120,129,1,0.9419986030092812,0.0900969617304388,-1.5964879901444533
1769158073124,129,1,1.2161879807443228,0.116066044452654,-1.348599727750213
1769158073128,130,2,1.60003624606798,0.9532967589561308,-0.9913091320426828
1769158073132,130,2,1.9072711431999092,1.1902710402999728,-0.7105187156387727
1769158073136,130,2,1.9654399733616843,1.278939875908793,-0.6787310706691532
1769158073140,130,2,1.7334821588877434,1.1042440292778684,-0.9364861778143858
1769158073144,129,1,1.3160994960468284,0.0001654244615401,-1.3782068035403476
1769158073148,129,1,0.8729454056859172,-0.0410057905495597,-1.844491883889411
1769158073152,129,1,0.514992062744128,0.0868712746468338,-2.2261440045729843
1769158073156,128,0,0.2670181134145366,-0.6884550228966808,-2.4999182813929757
1769158073160,128,0,0.0871124387429426,-0.9804530186223736,-2.707385829985154
1769158073164,128,0,-0.1060429074060383,-1.0193780830872106,-2.928253420245479
1769158073168,128,0,-0.4102393545072417,-1.1408183199210895,-3.2590199195616822
1769158073172,127,-1,-0.9040073510579276,-1.9073287886717705,-3.777858168618116
1769158073176,126,-2,-1.600462670816686,-2.762477637264926,-4.498295955103019
1769158073180,126,-2,-2.4174468538698504,-2.969659422684968,-5.3390706504924905
1769158073184,125,-3,-3.192413470867129,-4.1216424607239075,-6.138421702615397
1769158073188,124,-4,-3.7537471501248647,-5.175063372629846,-6.724963755055928
1769158073192,124,-4,-4.017869601767629,-4.941230709078164,-7.015153862280347
1769158073196,124,-4,-4.040563487049277,-4.819694533986774,-7.06482340712225
1769158073200,124,-4,-3.976708626673132,-4.952594363700301,-7.028207796968742
1769158073204,124,-4,-3.9819251275693497,-5.245412165763075,-7.05950682850632
1769158073208,124,-4,-4.126974594144954,-5.180934444271187,-7.228778508142207
1769158073212,124,-4,-4.365952529694942,-5.020337646735266,-7.491113308394827
1769158073216,123,-5,-4.567097890950667,-5.823711530763701,-7.716261488672094
1769158073220,123,-5,-4.59854961925085,-5.987500621957083,-7.772826965219498
1769158073224,124,-4,-4.4248608921426875,-5.321551492401871,-7.6249115949541455
1769158073228,124,-4,-4.140522149504066,-5.2218036791381515,-7.366668296545858
1769158073232,124,-4,-3.9064429002609984,-5.078812391060631,-7.159079861917898
1769158073236,124,-4,-3.837397034093891,-4.827836014100706,-7.116846721463028
1769158073240,124,-4,-3.926387332001372,-5.043720906757547,-7.232048947070056
1769158073244,124,-4,-4.057476372231417,-5.375045926148109,-7.386971522398902
1769158073248,124,-4,-4.090243587881498,-5.279134800450955,-7.440052898041178
1769158073252,124,-4,-3.948482990257365,-5.130170318849457,-7.316940139493986
1769158073256,124,-4,-3.650986435448469,-4.822607140454266,-7.04178354993085
1769158073260,125,-3,-3.2779357488312377,-4.119970996608949,-6.700056363389812
1769158073264,125,-3,-2.9122512253690314,-4.39266931934427,-6.374093737627538
1769158073268,125,-3,-2.5731092428258684,-4.400221845119056,-6.07417863700143
1769158073272,126,-2,-2.1006410702207035,-3.0917177432579757,-5.628101692532059
1769158073276,127,-1,-0.9767955798262764,-1.934437332772056,-4.511691386051966
1769158073280,130,2,1.773824378747079,0.9465871161645808,-1.756729752671287
1769158073284,136,8,7.328269035239655,6.447918251767429,3.7956610277886753
1769158073288,144,16,16.310575556871406,14.62623399929939,12.7526886912902
1769158073292,155,27,27.809812979907527,25.79535268659765,24.20176110815712
1769158073296,165,37,38.86233109497042,36.13771535278488,35.195205082869215
1769158073300,173,45,45.099503097625046,43.75975159330821,41.385186632141874
1769158073304,173,45,42.63056274325432,43.58916470808461,38.89051186648669
1769158073308,160,32,30.234168077996117,30.207862276087457,26.48483061752942
1769158073312,138,10,10.375345457476383,9.172752406212563,6.623450164885323
1769158073316,114,-14,-11.842164776564143,-15.381183827110746,-15.59611154966148
1769158073320,93,-35,-31.17871302250664,-35.72761474020092,-34.939722472031946
1769158073324,86,-42,-44.46415994917839,-43.92195931380573,-48.24616040330193
1769158073328,80,-48,-51.10441813422473,-49.371082474454035,-54.92635968331757
1769158073332,75,-53,-52.040301790206065,-54.276616630071864,-55.91162152123207
1769158073336,78,-50,-48.486899581518315,-51.09798956935984,-52.39812470830366
1769158073340,86,-42,-41.4899589739225,-43.07960706083924,-45.42197066337653
1769158073344,96,-32,-32.201677766858964,-33.739437604579344,-36.14369533742254
1769158073348,106,-22,-22.145536239666804,-23.51502813618921,-26.10190889865885
1769158073352,115,-13,-13.011244387304089,-14.283004358245998,-16.99283777464754
1769158073356,122,-6,-6.103057584505063,-7.20033410787617,-10.11554070125382
1769158073360,126,-2,-1.8744243224186223,-3.126356093053145,-5.914437169322808
1769158073364,128,0,0.1055165904984098,-1.8259945135950455,-3.954123565487271
1769158073368,128,0,0.7420166825832424,-1.4052617210265466,-3.3320748181655677
1769158073372,129,1,0.8707603381918356,-0.5001028205469367,-3.2198339352361307
1769158073376,129,1,0.9430450691651382,-0.0645742254185357,-3.1717770006468347
1769158073380,129,1,1.055656926434323,-0.4028739700687815,-3.09015465571515
1769158073384,129,1,1.1535577570361766,-0.6419787253764766,-3.0231252851339017
1769158073388,129,1,1.1833508341185834,-0.6121862724191802,-3.0177750803115817
1769158073392,129,1,1.1375097693338314,-0.3880445739690465,-3.0816992171124595
1769158073396,129,1,1.0578704303169977,-0.2692903608907129,-3.1786229697280226
1769158073400,129,1,1.0359800724861694,-0.3451091657544336,-3.2218488421153735
1769158073404,129,1,1.1721177208775533,-0.7720654634455859,-3.110776006650958
1769158073408,129,1,1.4828089473580026,-0.5479786371554771,-2.825148456685032
1769158073412,130,2,1.844972214280332,0.5004724152304498,-2.485834953756378
1769158073416,130,2,2.0700421430333975,0.6978098520263738,-2.2825110745132906
1769158073420,130,2,2.0644446665479523,0.6035173446132873,-2.310415662808063
1769158073424,130,2,1.9150213124341269,0.1439815384473797,-2.4821996045527728
1769158073428,129,1,1.8035210236497157,-0.4792990387276266,-2.6146320125482556
1769158073432,130,2,1.8396371233484896,0.3197284037323333,-2.5985571467460415
1769158073436,130,2,1.9854039989022008,0.8086138054602148,-2.4744527322675243
1769158073440,130,2,2.1270757437726884,0.3535478635869655,-2.3571606359796635
1769158073444,130,2,2.1881774683280018,0.3082005871946662,-2.3209487577355805
1769158073448,130,2,2.167711151485859,0.3054970748589871,-2.363734093741169
1769158073452,130,2,2.108369724009855,0.4163815149621623,-2.442346157173687
1769158073456,130,2,2.0691285001475364,0.6695913586121245,-2.500119438636659
1769158073460,130,2,2.124185743317536,0.3225460153790667,-2.465261492109647
1769158073464,130,2,2.3451006204283797,0.2965181636791285,-2.2667537577095684
1769158073468,131,3,2.74542128726019,1.2123160120981489,-1.8900141957706147
1769158073472,131,3,3.233584084668085,1.4495902533304543,-1.4251379362013448
1769158073476,131,3,3.6341826469354066,1.531015134187561,-1.0464814828164282
1769158073480,132,4,3.786289339124282,2.359860070589612,-0.9148506730188816
1769158073484,132,4,3.6607088182986383,2.1492819326176695,-1.0600658470580937
1769158073488,131,3,3.403353482401451,1.3027828414633846,-1.3368507290249978
1769158073492,131,3,3.2518049510186504,1.2571283148574102,-1.5081075162798392
1769158073496,131,3,3.37871714181822,1.6595312534542912,-1.4018574497955374
1769158073500,132,4,3.785415902310128,2.0864657318752236,-1.0171983757367422
1769158073504,132,4,4.320943181803637,2.3756584574039707,-0.5043843332263607
1769158073508,133,5,4.796180042388297,2.9632451942397973,-0.0510436336504849
1769158073512,133,5,5.105104442532372,3.537058864064036,0.2376946516462732
1769158073516,133,5,5.276944927937986,3.2760903843713955,0.3906423001059762
1769158073520,133,5,5.433369876107912,3.339148124792367,0.5282575449301681
1769158073524,134,6,5.688400862877795,4.0823533418598075,0.7635609935555205
1769158073528,134,6,6.066154858341074,4.119264017847035,1.120588011974769
1769158073532,134,6,6.490502093461706,4.3685694111477815,1.5238662045864322
1769158073536,135,7,6.845251171987182,5.284421070644431,1.857739271034468
1769158073540,135,7,7.05707102834092,5.271012963947296,2.0489853896974655
1769158073544,135,7,7.137039538386984,5.019028283678493,2.1088976192429234
1769158073548,135,7,7.148739702056482,5.142644251402141,2.10144086630059
1769158073552,135,7,7.140433584489762,5.232261333079659,2.0746484238525498
1769158073556,135,7,7.113409463322888,5.349457507345802,2.02872881667213
1769158073560,135,7,7.0512306011725645,5.081619266134803,1.9463291548667712
1769158073564,135,7,6.962910190656401,5.128286968757626,1.8368716145807704
1769158073568,135,7,6.882360799780568,4.953669353064294,1.7358285882843227
1769158073572,134,6,6.824510163182804,4.335368510250737,1.6591907123937633
1769158073576,135,7,6.756690341471671,5.148555934272041,1.573524745945058
1769158073580,135,7,6.62873161414802,5.189936695331769,1.4269829574101127
1769158073584,134,6,6.425062694517649,3.910209194590508,1.2035054495502444
1769158073588,134,6,6.165347022721062,4.115325368965402,0.9237224229264372
1769158073592,134,6,5.849924864872599,4.071859226260569,0.5887196687942269
1769158073596,133,5,5.424524887457519,3.3075220670373717,0.1439864170036209
1769158073600,133,5,4.814479106103649,2.964074486669846,-0.4853840855490912
1769158073604,132,4,3.9965364992172807,2.002072550004936,-1.322176463328527
1769158073608,131,3,3.041501041623253,0.9892400143092156,-2.295128295905724
1769158073612,130,2,2.092793011096201,0.0602697732678794,-3.2613172801342625
1769158073616,129,1,1.2966644572255688,-0.7344651762026408,-4.075645941013661
1769158073620,129,1,0.727233260704425,-1.1228560607108626,-4.6644909072963525
1769158073624,128,0,0.3467667427221497,-1.9664067211760965,-5.064864958316827
1769158073628,128,0,0.0264186818716514,-2.153215784327952,-5.404723863677438
1769158073632,128,0,-0.3723182851127209,-1.8713075476800776,-5.822467978033197
1769158073636,127,-1,-0.9022020279430524,-2.904049829672007,-6.370895370199691
1769158073640,126,-2,-1.499453651814596,-4.061469855571868,-6.985755090808013
1769158073644,126,-2,-2.0459530067999823,-4.086343984668224,-7.548950176780545
1769158073648,126,-2,-2.4581172988055893,-4.165107912227166,-7.978267586930443
1769158073652,125,-3,-2.721896776309983,-4.8936037331998445,-8.260986022957313
1769158073656,125,-3,-2.8715854325024384,-5.025917574496965,-8.43087668238581
1769158073660,125,-3,-2.960284539121109,-4.983599907524389,-8.539190353224368
1769158073664,125,-3,-3.0409296345911887,-5.311395383961333,-8.637780594645607
1769158073668,125,-3,-3.1437950254308173,-4.980832261541738,-8.757493496969948
1769158073672,125,-3,-3.2534529568328767,-5.194710448212418,-8.884058613950101
1769158073676,124,-4,-3.3150939912601634,-5.800949573972307,-8.963222579328148
1769158073680,125,-3,-3.280798296890141,-5.3057295352058,-8.947119770341919
1769158073684,125,-3,-3.158095185444589,-5.1008712019148845,-8.843303910510784
1769158073688,125,-3,-3.0141778249839213,-5.251463165819244,-8.71864675244513
1769158073692,125,-3,-2.9327167923216657,-5.0320056479124915,-8.655838254310334
1769158073696,125,-3,-2.9582320788932286,-5.029899663683515,-8.698533944389832
1769158073700,125,-3,-3.062827544262476,-5.207011863021334,-8.819185361492883
1769158073704,125,-3,-3.153699614396442,-5.2725143651984006,-8.926451690925061
1769158073708,125,-3,-3.123527823908882,-5.175016893875501,-8.914175783714693
1769158073712,125,-3,-2.923873679439475,-5.1878849376834255,-8.733574442432273
1769158073716,125,-3,-2.6163866393742183,-4.956335581056285,-8.444944594137187
1769158073720,126,-2,-2.351352408504936,-4.3999545771865485,-8.197869023171556
1769158073724,126,-2,-2.2665153302316843,-4.159618613227095,-8.130598044377829
1769158073728,126,-2,-2.3771576411185373,-4.3776713598241095,-8.258853422168778
1769158073732,125,-3,-2.559331997948743,-5.075869268256466,-8.458157173530939
1769158073736,125,-3,-2.648790229969509,-5.140363531284054,-8.563898465025025
1769158073740,126,-2,-2.5597509075411446,-4.3598075728914365,-8.49131109218933
1769158073744,126,-2,-2.315441082595403,-4.2324287649085335,-8.26485599842816
1769158073748,126,-2,-1.9921250735264824,-4.44616985701065,-7.96037309258446
1769158073752,126,-2,-1.6607420403372917,-4.028813531086529,-7.647326489412064
1769158073756,127,-1,-1.3720214741495584,-3.3461664391955206,-7.376077185594372
1769158073760,127,-1,-1.1612449685266164,-3.2228577833275507,-7.182811335413731
1769158073764,127,-1,-1.0478562349017562,-3.4631160181169727,-7.087298340301392
1769158073768,127,-1,-1.034124731921838,-3.3094108363091026,-7.09093742636301
1769158073772,127,-1,-1.1018582356583364,-3.215338327187905,-7.174974330082692
1769158073776,127,-1,-1.19780533374275,-3.3200174988193227,-7.28695837942803
1769158073780,127,-1,-1.226862863702531,-3.2862129797486683,-7.332970633523017
1769158073784,127,-1,-1.0920209282123952,-3.53865436478238,-7.216169789465576
1769158073788,127,-1,-0.7758495246118786,-3.2736622415761367,-6.918426973476822
1769158073792,128,0,-0.3906839435267183,-2.3582867417032523,-6.551609207541822
1769158073796,128,0,-0.1291027179160118,-2.282789977753649,-6.308264015386754
1769158073800,128,0,-0.1378354290279697,-2.401897875161751,-6.334819746650148
1769158073804,128,0,-0.4166049566018242,-2.539571106984778,-6.630373776937346
1769158073808,127,-1,-0.8208331556672673,-3.3220030731629087,-7.050366949493586
1769158073812,127,-1,-1.155093350849389,-3.4427340927713614,-7.400536071262136
1769158073816,127,-1,-1.279946624660884,-3.2467085490545604,-7.542686697690537
1769158073820,127,-1,-1.1671212346798523,-3.5816742555427794,-7.448429886520892
1769158073824,127,-1,-0.8891122585082891,-3.3960390674001615,-7.1890416690781365
1769158073828,128,0,-0.5611113081293416,-2.592267811097018,-6.879013027623737
1769158073832,128,0,-0.2670544704003417,-2.239759456947025,-6.602550255797196
1769158073836,128,0,-0.0192142049750637,-2.557713325392573,-6.372050547292062
1769158073840,128,0,0.2138299295786301,-2.370361512797423,-6.155798230332837
1769158073844,129,1,0.4453415108979905,-1.6731902000932342,-5.940933478619672
1769158073848,129,1,0.6509943974131231,-1.441774862948751,-5.75292721727559
1769158073852,129,1,0.8102842377039141,-1.4227696464656356,-5.612428360096345
1769158073856,129,1,0.9457109317566568,-1.5352097647703349,-5.495372022601285
1769158073860,129,1,1.107656374526235,-1.4249241905347354,-5.350056145583753
1769158073864,130,2,1.3315756864040589,-0.770906630220644,-5.141928510030791
1769158073868,130,2,1.6199848842462634,-0.3783167833122682,-4.8705699033311225
1769158073872,130,2,1.94766495222902,-0.5969026968038529,-4.561853663509832
1769158073876,130,2,2.2552495967052697,-0.4567366369985988,-4.273862995582768
1769158073880,131,3,2.440909849611798,0.4140525095642182,-4.107093745511578
1769158073884,131,3,2.39647739187126,0.2604148141215,-4.169415898071718
1769158073888,130,2,2.083952190811904,-0.4439395787897566,-4.498831231996227
1769158073892,130,2,1.5815367519475996,-0.6547355374634811,-5.017120446724849
1769158073896,129,1,1.0474656191417346,-1.47193376557231,-5.566940369331553
1769158073900,129,1,0.6268975957282709,-1.6960957468674014,-6.005006513039534
1769158073904,129,1,0.3666140754594565,-1.699103887601641,-6.285498010066828
1769158073908,128,0,0.1831078630526686,-2.5691317494433186,-6.490376278161408
1769158073912,128,0,-0.0987745902146172,-2.609252315172744,-6.792017142054757
1769158073916,128,0,-0.6380148028263841,-2.623784812712538,-7.3482596509221345
1769158073920,127,-1,-1.4447760432300811,-3.654522127311486,-8.170615399792073
1769158073924,126,-2,-2.323938325581662,-4.821950043097925,-9.065929688611032
1769158073928,125,-3,-2.974761595631793,-5.522172049227903,-9.734248795622356
1769158073932,125,-3,-3.197770709102783,-5.745940282069998,-9.975910790631348
1769158073936,125,-3,-3.044419074754581,-5.5861519129401795,-9.842274727087066
1769158073940,126,-2,-2.777498768374413,-4.788243679307072,-9.596106108348636
1769158073944,126,-2,-2.673159244453135,-4.77912203837305,-9.512540094670536
1769158073948,125,-3,-2.8330849595730583,-5.6364512298221285,-9.691290663229111
1769158073952,125,-3,-3.1510377376413676,-5.739790004358104,-10.025284408714649
1769158073956,125,-3,-3.4247326265883773,-5.688868915011876,-10.314153855229442
1769158073960,125,-3,-3.494260226057592,-5.784306485856599,-10.401027215527876
1769158073964,125,-3,-3.317114147750329,-5.857377153326578,-10.24434430848743
1769158073968,125,-3,-2.9711640753718367,-5.630029092699921,-9.92010995898283
1769158073972,126,-2,-2.606104500092317,-4.859859620923047,-9.57566656429938
1769158073976,126,-2,-2.36154309006812,-4.662301293243888,-9.349929162899176
1769158073980,126,-2,-2.2893384745485688,-4.9127294728552355,-9.295675066359069
1769158073984,126,-2,-2.331073309875491,-4.808883676848003,-9.355750643003796
1769158073988,126,-2,-2.3658224288323138,-4.739818687528592,-9.409738153329355
1769158073992,126,-2,-2.2901013657162013,-4.890126179288381,-9.35348787397302
1769158073996,126,-2,-2.074276864078441,-4.682192153402552,-9.15615589374596
1769158074000,127,-1,-1.7633986082173083,-4.037888993403124,-8.862437806103173
1769158074004,127,-1,-1.434101853608098,-3.7138448590784647,-8.550420064957232
1769158074008,127,-1,-1.1514351951142017,-3.947023877440502,-8.288085862236844
1769158074012,127,-1,-0.949241434679884,-3.7781317482337298,-8.111943427975447
1769158074016,128,0,-0.7994207402963318,-2.8890221588391327,-7.993014571065943
1769158074020,128,0,-0.5263892818678513,-2.9431672604472507,-7.748688176974271
1769158074024,128,0,0.3067548791670944,-2.853966297703506,-6.9320457071024615
1769158074028,131,3,2.447329064692801,0.0865767798070082,-4.7923512021043475
1769158074032,136,8,6.828503014018979,5.110673679010169,-0.4062808699643332
1769158074036,143,15,14.166786293535766,12.100869120541144,6.925464148935873
1769158074040,152,24,24.270144792838096,21.023808274510916,17.000438817147987
1769158074044,162,34,35.34687374812627,31.06378869929842,28.031171540677313
1769158074048,172,44,43.9381702589282,41.11522148401227,36.572621655121175
1769158074052,176,48,45.97471238334369,44.91438902688954,38.56875936064341
1769158074056,168,40,38.693210587883215,37.21844214520856,31.263895449329407
1769158074060,151,23,22.315863680946876,19.741521274370605,14.881421195248317
1769158074064,128,0,0.3378104956469272,-2.7312836487653573,-7.089267875646755
1769158074068,106,-22,-21.85298438235561,-25.21855338119569,-29.272289301679702
1769158074072,88,-40,-39.20355901937556,-42.763467257464974,-46.62825630666881
1769158074076,80,-48,-48.794733545760494,-51.13043030333124,-56.24556723259633
1769158074080,79,-49,-50.3687692098014,-51.92872945778101,-57.86314174951086
1769158074084,83,-45,-45.6433381902566,-48.1669582058233,-53.18591852974804
1769158074088,91,-37,-37.135029168789906,-39.91131907024163,-44.71614272433733
1769158074092,101,-27,-27.22836145457483,-30.193725990361933,-34.83141195360686
1769158074096,110,-18,-17.756904159357767,-20.793923598098363,-25.36931676400044
1769158074100,119,-9,-9.925135136704966,-12.330442843244173,-17.54494072585551
1769158074104,124,-4,-4.31602471443882,-6.888161954921313,-11.950292388445332
1769158074108,128,0,-0.9124277100386632,-3.320413084103196,-8.570001957440713
1769158074112,129,1,0.7775305120313318,-1.8893388483208888,-6.907083724940421
1769158074116,129,1,1.4403737369589702,-2.1738065155144426,-6.268699347015203
1769158074120,130,2,1.644659216109479,-1.004083019878406,-6.084848758747351
1769158074124,131,3,1.6956021931111585,-0.2784457190708813,-6.054331179779747
1769158074128,130,2,1.7107429606821092,-1.0926552406886625,-6.063638157306529
1769158074132,130,2,1.7586096694164972,-1.1541265952830604,-6.043308668748095
1769158074136,130,2,1.8871295020891696,-1.0647581329876274,-5.940785975515565
1769158074140,130,2,2.0572824267899144,-1.101892111414009,-5.7922906114835
1769158074144,131,3,2.1354227511622814,-0.3364762171940305,-5.733560256464207
1769158074148,131,3,2.0144188663350184,-0.0816719720563943,-5.875962620257844
1769158074152,130,2,1.7442488101859892,-1.3271835755428365,-6.17095342613027
1769158074156,129,1,1.5053727778118065,-1.9402024159373312,-6.4356302963073695
1769158074160,130,2,1.431561640777757,-1.3111299794029716,-6.533534595466125
1769158074164,130,2,1.4741830103871794,-1.22409281601192,-6.513537027725788
1769158074168,130,2,1.460037815690712,-1.25231428367113,-6.55101886201599
1769158074172,130,2,1.2796931214547835,-1.3181061603070736,-6.7564780028229965
1769158074176,129,1,1.0079640746462983,-1.9797767071923065,-7.053812769620347
1769158074180,129,1,0.8378845024758661,-2.4133687347920527,-7.248029306672752
1769158074184,129,1,0.902316920470496,-2.1518006958832188,-7.206160036465892
1769158074188,130,2,1.1642925670974404,-1.451159760032561,-6.967359094130781
1769158074192,130,2,1.4746709013412365,-1.2012384090459376,-6.6827901755391865
1769158074196,130,2,1.7170750009589928,-1.189236013406668,-6.468087756402199
1769158074200,130,2,1.8831159669100184,-1.3016163240161358,-6.328753243202254
1769158074204,130,2,2.02289352130322,-1.3381859730815395,-6.213019340954661
1769158074208,131,3,2.161348482817721,-0.3684416253007299,-6.097397298425048
1769158074212,131,3,2.283866052121824,-0.3678704742046937,-5.999094401145549
1769158074216,130,2,2.381244056074993,-1.1130612467368846,-5.928058087750006
1769158074220,131,3,2.472442923795701,-0.4720418559133669,-5.864098072268221
1769158074224,131,3,2.5762332339110054,-0.250076050141736,-5.787226558576298
1769158074228,131,3,2.677740711500173,-0.5628437919477927,-5.712023646270367
1769158074232,131,3,2.7334667519617684,-0.2480657711357337,-5.682083141962331
1769158074236,131,3,2.711984548817428,-0.3143517970605091,-5.72904248206798
1769158074240,131,3,2.637871899990808,-0.4001872842810395,-5.828832824608952
1769158074244,131,3,2.600566807840611,-0.3507937727746213,-5.892552978668555
1769158074248,131,3,2.707928495280501,-0.63447318397467,-5.812354881783791
1769158074252,131,3,3.009871646661158,-0.178588896710893,-5.537851548359848
1769158074256,132,4,3.456139621038869,0.4651789611683055,-5.11892819667575
1769158074260,132,4,3.9331940064944337,0.7591897333137354,-4.669120438496721
1769158074264,133,5,4.353440569846053,1.4024079104248244,-4.276090116178498
1769158074268,133,5,4.717143829966692,1.484284259890663,-3.9394823850155474
1769158074272,133,5,5.091609699435041,1.6705421523320911,-3.5920164464946067
1769158074276,134,6,5.530720353742705,2.459604042120904,-3.180249095846016
1769158074280,134,6,6.011439181304387,2.7466386938251843,-2.727712317122699
1769158074284,135,7,6.441799478273899,3.257868851442391,-2.3262113806387097
1769158074288,135,7,6.727055746045094,3.595898962581408,-2.0696468145327773
1769158074292,135,7,6.836001095931821,3.427157351655304,-1.9886035162435591
1769158074296,135,7,6.819121480142128,3.625404292899661,-2.0329612795907357
1769158074300,135,7,6.771261370016118,3.5100699536166866,-2.1088016718705753
1769158074304,135,7,6.766745632730526,3.358285030657695,-2.1421444445390607
1769158074308,135,7,6.80887066056218,3.4764139593196792,-2.1291483684832553
1769158074312,135,7,6.8296240770755725,3.3816135186808136,-2.1373482334928737
1769158074316,135,7,6.745577861752894,3.641390761626212,-2.250486433263044
1769158074320,135,7,6.527293341570653,3.3710568885244663,-2.4984256961045253
1769158074324,134,6,6.216373635180962,2.408299760243454,-2.839177624290925
1769158074328,134,6,5.871859557281109,2.3677795704644655,-3.2129921015216736
1769158074332,134,6,5.507602582112383,2.340980648816723,-3.6060886913064865
1769158074336,133,5,5.092734349517731,1.6681989714513936,-4.050065563798253
1769158074340,133,5,4.608302563062318,1.177921985228747,-4.564244962262353
1769158074344,132,4,4.087491967294003,0.5950571822115418,-5.115214962265372
1769158074348,132,4,3.5922287234297703,0.0056406247836592,-5.640845115085344
1769158074352,131,3,3.151217714666333,-0.3212624231802243,-6.112485908303351
1769158074356,131,3,2.720923877748368,-0.7994254931894509,-6.573602898402775
1769158074360,130,2,2.2085051932242794,-1.4177773894118773,-7.116745457011009
1769158074364,130,2,1.5452290677734848,-1.894050236970992,-7.810546290051803
1769158074368,129,1,0.7570087707760791,-2.6307008066228135,-8.629249942076257
1769158074372,128,0,-0.0293178662129083,-3.736898747448449,-9.445959248219827
1769158074376,127,-1,-0.6623947920164361,-4.5115902150654215,-10.109115731103776
1769158074380,127,-1,-1.0689101694828664,-4.746839541382912,-10.54589536369066
1769158074384,127,-1,-1.2927331824358317,-4.686779044117591,-10.8013145829719
1769158074388,127,-1,-1.4420770576935278,-4.9087109989524835,-10.983837490665085
1769158074392,126,-2,-1.6087308054859548,-5.562553323062321,-11.183711281757091
1769158074396,126,-2,-1.833569766131217,-5.773003107312245,-11.440074898006351
1769158074400,126,-2,-2.1173669137160833,-5.5690168055710405,-11.753896663342644
1769158074404,126,-2,-2.4308339250196846,-5.956238979679193,-12.097622539734363
1769158074408,125,-3,-2.716540548836067,-6.727336554995598,-12.41493364760157
1769158074412,125,-3,-2.91237786815515,-6.8282738034250094,-12.643440122869672
1769158074416,125,-3,-2.993782680217496,-6.616701235272396,-12.757941939558425
1769158074420,125,-3,-2.9920282883287075,-6.784314961341434,-12.789342473227457
1769158074424,125,-3,-2.967930876306834,-6.859506616448571,-12.798014275694264
1769158074428,125,-3,-2.9660053204310235,-6.867257475994802,-12.82808578025393
1769158074432,125,-3,-2.9824357413702014,-6.836858153397018,-12.876106821694195
1769158074436,125,-3,-2.963251538793615,-6.6478285213286945,-12.889028718271604
1769158074440,125,-3,-2.8385012727763512,-6.88501862087158,-12.797261031872155
1769158074444,125,-3,-2.5811767716791234,-6.803603309044201,-12.57328585687304
1769158074448,126,-2,-2.2472479394199687,-6.033043385827252,-12.272651810722015
1769158074452,126,-2,-1.950593268666383,-5.760671331235977,-12.00946234660509
1769158074456,126,-2,-1.7846220257093048,-5.810495491976072,-11.877290004734544
1769158074460,126,-2,-1.7610956016211292,-5.817406561964269,-11.887390033305378
1769158074464,126,-2,-1.8186214435487136,-5.944991671285071,-11.977822971846544
1769158074468,126,-2,-1.8797057165523687,-5.992282980883957,-12.07144053232688
1769158074472,126,-2,-1.8947428807725308,-5.888148108243302,-12.11963366181596
1769158074476,126,-2,-1.8422632002792223,-5.7675803374193375,-12.10131461309802
1769158074480,126,-2,-1.709770302860806,-5.954790765376537,-12.00319432451546
1769158074484,126,-2,-1.4910192704781944,-5.876836642165359,-11.81819817549161
1769158074488,127,-1,-1.198237288613218,-5.173735472417013,-11.558968043151165
1769158074492,127,-1,-0.8643386414091303,-4.778927238045094,-11.25939139966484
1769158074496,127,-1,-0.5347254279529472,-4.972218906415794,-10.96471782945701
1769158074500,127,-1,-0.2666222014376754,-4.836908567589472,-10.731070281847012
1769158074504,128,0,-0.1248778770180418,-4.068846867740493,-10.623066198862825
1769158074508,128,0,-0.1482239333074195,-4.104154860445583,-10.68041373892365
1769158074512,127,-1,-0.3079853843845651,-4.89795130011531,-10.87497195327346
1769158074516,127,-1,-0.5152911103285827,-4.976222902191077,-11.117196633501932
1769158074520,127,-1,-0.6805667823397307,-4.888299542614487,-11.316822209032978
1769158074524,127,-1,-0.7627139208804069,-5.129911090342678,-11.433031583191433
1769158074528,127,-1,-0.7623450533596061,-5.121275250133831,-11.467139281161955
1769158074532,127,-1,-0.6828250048535822,-4.955999615547742,-11.4226773517375
1769158074536,127,-1,-0.5128474111551862,-5.031572151593342,-11.287923661188865
1769158074540,127,-1,-0.2503002993589989,-4.88871085945908,-11.060485240735517
1769158074544,128,0,0.0641672805246052,-4.255610101629031,-10.781268032194223
1769158074548,128,0,0.3480913059303755,-4.049495523515583,-10.532991971974548
1769158074552,128,0,0.5194807251552725,-4.130725649510978,-10.3972336065466
1769158074556,128,0,0.5465363755169048,-3.943591175913236,-10.40509495877484
1769158074560,128,0,0.4699124962593005,-4.053915209985512,-10.515960796610688
1769158074564,128,0,0.3867958176785956,-4.214824247680712,-10.633533754328612
1769158074568,128,0,0.4037242568799404,-4.1225726431103755,-10.65197141943707
1769158074572,128,0,0.5772644194412567,-4.195695989851945,-10.514446713563132
1769158074576,128,0,0.8768562003778113,-3.9141253986034306,-10.25083290483524
1769158074580,129,1,1.2032314720958088,-3.2174184623551616,-9.960218039452077
1769158074584,129,1,1.4568969233496742,-3.1151592762393787,-9.742368861541305
1769158074588,129,1,1.6007246547883935,-3.311077185686704,-9.634396391745168
1769158074592,129,1,1.661459726009683,-3.105814377910961,-9.60916058199332
1769158074596,129,1,1.6770903535217423,-3.061731343310486,-9.628556651715256
1769158074600,129,1,1.6490169509675263,-3.213149336211104,-9.6916514892701
1769158074604,129,1,1.5425422092912802,-3.1370721569039026,-9.833732185458882
1769158074608,129,1,1.3236263722653396,-3.444069896476878,-10.088940629939902
1769158074612,128,0,0.9867569832421303,-3.9879289233152737,-10.462314469237503
1769158074616,128,0,0.5462822862436948,-4.3353575159270665,-10.93897218089508
1769158074620,127,-1,0.0083994174805086,-4.978419063735486,-11.512676801609292
1769158074624,127,-1,-0.6365407153545023,-5.495529148006556,-12.193422568567192
1769158074628,126,-2,-1.387088249160817,-6.136151223894707,-12.97985973402439
1769158074632,125,-3,-2.1974258770737474,-7.397878762389458,-13.82585782178828
1769158074636,124,-4,-2.974553826779478,-8.019155500246148,-14.638340303545542
1769158074640,124,-4,-3.611045194520881,-8.368266969471307,-15.310416511125917
1769158074644,123,-5,-4.0306267877706565,-9.219790969140314,-15.766271046670596
1769158074648,123,-5,-4.222922618615456,-9.445691900904109,-15.995215435310964
1769158074652,123,-5,-4.248805311478421,-9.219689201900916,-16.05748015493754
1769158074656,123,-5,-4.205272081257761,-9.249374232682811,-16.04989424537203
1769158074660,123,-5,-4.167497828306717,-9.269549355432142,-16.047939797704476
1769158074664,123,-5,-4.153726823013855,-9.36219615224816,-16.070142817776897
1769158074668,123,-5,-4.141618861867847,-9.41885223092531,-16.09422236588361
1769158074672,123,-5,-4.113977033891716,-9.301978991282214,-16.102878849834305
1769158074676,123,-5,-4.085379250432516,-9.283963034394546,-16.110394251936885
1769158074680,123,-5,-4.0857612139448864,-9.310683039085625,-16.14632580007122
1769158074684,123,-5,-4.121068036890082,-9.40201818172148,-16.2167015106434
1769158074688,123,-5,-4.15051997263738,-9.471735308669352,-16.28165960662953
1769158074692,123,-5,-4.1043289807725625,-9.31657628029056,-16.272433816017347
1769158074696,123,-5,-3.9340027502391406,-9.384922255244938,-16.140223343887723
1769158074700,123,-5,-3.658893211132498,-9.272534808790388,-15.90237702993924
1769158074704,124,-4,-3.3641909243344577,-8.543850517408107,-15.641968697164554
1769158074708,124,-4,-3.138286770367656,-8.387147156230581,-15.447376601294206
1769158074712,124,-4,-3.000198424497507,-8.513110467253817,-15.340603876796552
1769158074716,124,-4,-2.8929003032090357,-8.256686319067391,-15.269261182815224
1769158074720,124,-4,-2.7551644655212284,-8.511848383339611,-15.175133575114817
1769158074724,124,-4,-2.5817150445332713,-8.371708046462295,-15.050786838399771
1769158074728,125,-3,-2.3493915239763257,-7.64041011517541,-14.864843198932004
1769158074732,125,-3,-1.7874183778437245,-7.342596237392872,-14.336446609494466
1769158074736,127,-1,-0.1488769421886964,-5.5240680385629535,-12.714802208068791
1769158074740,131,3,3.743746966566717,-1.315529838556495,-8.830526447406804
1769158074744,138,10,10.978627915755135,5.329530622625629,-1.6123812138895222
1769158074748,148,20,21.642236947057203,15.622519439955331,9.012087254724474
1769158074752,160,32,33.975255668283395,27.297978623974014,21.283266424298887
1769158074756,170,42,44.27843441098808,37.74343068681809,31.515689638300096
1769158074760,176,48,48.0201261299235,43.318976100792945,35.195895429035374
1769158074764,170,42,41.87008806276417,37.55172207996375,29.005596299509293
1769158074768,153,25,25.594144074099823,20.31124577557733,12.711855494671884
1769158074772,129,1,2.5848730919681686,-3.537623331241522,-10.30098074022184
1769158074776,104,-24,-21.431245891766434,-28.482495088909936,-34.32037364408286
1769158074780,85,-43,-40.792707862453405,-47.52983754316542,-53.699141881601456
1769158074784,75,-53,-52.01767110592954,-57.55262037484652,-64.96352075916043
1769158074788,73,-55,-54.569325657460894,-59.6415236468177,-67.57349582905155
1769158074792,77,-51,-50.19421085129266,-55.62052487536159,-63.26219464014849
1769158074796,85,-43,-41.592810839785464,-47.56610439152814,-54.71464607967883
1769158074800,95,-33,-31.307365319587007,-37.55468827891889,-44.465371738175506
1769158074804,105,-23,-21.23147736482103,-27.61713751195815,-34.41181909237373
1769158074808,114,-14,-12.593635953717744,-18.64715577130235,-25.793352204604336
1769158074812,121,-7,-6.063769685970362,-11.693699340090244,-19.289368881344892
1769158074816,125,-3,-1.795200754522878,-7.651355872298877,-15.05550478195946
1769158074820,127,-1,0.5355625259772854,-5.54711205230108,-12.763856252189164
1769158074824,128,0,1.560630918899093,-4.732439168050817,-11.776363027128568
1769158074828,128,0,1.9336010864951052,-4.524986642999687,-11.437218685898332
1769158074832,129,1,2.0876860836982085,-3.939787170247507,-11.315769844683206
1769158074836,129,1,2.1869342293884735,-3.4615790673401827,-11.25150401688882
1769158074840,129,1,2.247308828644386,-3.891522448448527,-11.22850264540604
1769158074844,128,0,2.2716165573989935,-4.416241058892348,-11.240521234048858
1769158074848,129,1,2.2891753952574976,-3.920176045047576,-11.2557726900072
1769158074852,129,1,2.331172311405149,-3.615032830866692,-11.24471524638773
1769158074856,129,1,2.4186350949978888,-3.883701926209532,-11.189903614720478
1769158074860,129,1,2.5685413916662445,-3.6015973990292514,-11.075396151294028
1769158074864,129,1,2.7767281662698036,-3.727463696749045,-10.902805775715995
1769158074868,129,1,2.985866193033586,-3.7383838125868,-10.726835354356576
1769158074872,130,2,3.102229203475009,-2.7909879359217165,-10.641924723675151
1769158074876,130,2,3.080219314822932,-2.89373107608441,-10.696570752783533
1769158074880,129,1,2.987515133412059,-3.624893535364003,-10.824068881518716
1769158074884,129,1,2.951258274389859,-3.823094044125091,-10.895009878693038
1769158074888,129,1,3.0224827827402403,-3.6894026669333777,-10.856136199303688
1769158074892,130,2,3.1171349964017647,-2.9089424336341843,-10.792434836599138
1769158074896,130,2,3.1172609345731668,-2.890622594261892,-10.824526894246944
1769158074900,129,1,3.0199025921541582,-3.695371726838573,-10.956062803151813
1769158074904,129,1,2.9552698916201097,-3.8734233183804694,-11.054805082556932
1769158074908,129,1,3.050328495516496,-3.666915592178756,-10.99192869154881
1769158074912,130,2,3.295067625829207,-3.0507809392389547,-10.7780173057362
1769158074916,130,2,3.557726444279242,-2.7833417763910098,-10.546755522615433
1769158074920,130,2,3.722579743449052,-2.939857978978218,-10.41470412304811
1769158074924,130,2,3.7991929662664914,-2.6887987515303835,-10.371317103039797
1769158074928,130,2,3.897125257576361,-2.9391310521711733,-10.305581186821136
1769158074932,130,2,4.103419316109541,-2.8643752499143273,-10.130177745398749
1769158074936,131,3,4.392865721464778,-2.012755711816845,-9.871496101885215
1769158074940,131,3,4.660154459458494,-1.846787275455552,-9.636038936479968
1769158074944,131,3,4.8337155748156455,-1.8225103579555175,-9.494964701464092
1769158074948,131,3,4.949183922819898,-1.925145787748394,-9.41099454299107
1769158074952,131,3,5.113217342233518,-1.9283693121206984,-9.27675797439095
1769158074956,132,4,5.40660200669409,-1.0435002475920876,-9.012786763953285
1769158074960,132,4,5.821136416130601,-0.8892342337813981,-8.629068336037081
1769158074964,132,4,6.268532043744208,-0.8703942202187473,-8.214037973971426
1769158074968,133,5,6.634612275189853,0.0409696240013277,-7.880392826336643
1769158074972,133,5,6.841287902231167,0.0379852958592732,-7.704760706725188
1769158074976,133,5,6.891023874918374,-0.1233425522025721,-7.684349931216225
1769158074980,133,5,6.873280455345666,0.1636120078711023,-7.730405739995141
1769158074984,133,5,6.924873406755195,-0.0732175276096871,-7.707184631107139
1769158074988,133,5,7.1608536711038635,0.2239696268073692,-7.500426874673872
1769158074992,134,6,7.610052820981464,0.7367844638960912,-7.0814738621181545
1769158074996,134,6,8.189069861865892,1.1110729125052816,-6.533357862583272
1769158075000,135,7,8.731174129626153,1.8704368169502037,-6.022201012882708
1769158075004,135,7,9.058658370604014,2.084848482356946,-5.725089275047924
1769158075008,135,7,9.062524929070165,2.0500946760956684,-5.750491136449367
1769158075012,135,7,8.748811286943903,1.7539682261305156,-6.092129149591064
1769158075016,134,6,8.231430007352309,1.0916782416827575,-6.636429789108829
1769158075020,134,6,7.680938133690172,0.7425886656694194,-7.213736732888344
1769158075024,133,5,7.254686191585576,0.1827893937807509,-7.667636353794082
1769158075028,133,5,7.033339159588979,-0.157058367562453,-7.917856171314083
1769158075032,133,5,6.985820832863659,-0.1133815665469184,-7.995181344539671
1769158075036,133,5,6.9812861968223885,-0.0928676673811832,-8.02964919117999
1769158075040,133,5,6.849219719855117,-0.2066882622184309,-8.19070448629665
1769158075044,132,4,6.4611433664033155,-0.8748773239655416,-8.606057241610696
1769158075048,132,4,5.794511951409092,-1.2743368846169396,-9.29847431405496
1769158075052,131,3,4.947693883247917,-1.9790886054424592,-10.170687198016855
1769158075056,130,2,4.091731902092183,-3.3934460695048436,-11.0526485008452
1769158075060,129,1,3.3736727897798775,-3.9136691554659726,-11.797587832217168
1769158075064,129,1,2.827206080928001,-4.287034890523546,-12.37166919233899
1769158075068,128,0,2.3563971199971263,-4.941369439917012,-12.87058303470397
1769158075072,128,0,1.807235301508861,-5.353731932869954,-13.447823286602205
1769158075076,127,-1,1.0736408724483415,-6.159958959844488,-14.20856476983862
1769158075080,126,-2,0.1643199550000114,-7.14829603289972,-15.143278943245974
1769158075084,125,-3,-0.8054367945376075,-8.223321734836684,-16.13676062446187
1769158075088,124,-4,-1.6768922919923837,-9.00122809086778,-17.03159485778683
1769158075092,124,-4,-2.318758955869754,-9.436640470770072,-17.69816365153924
1769158075096,123,-5,-2.675720463158419,-10.102307008277425,-18.081657730384496
1769158075100,123,-5,-2.7910777992025033,-10.307028252085168,-18.224287403978664
1769158075104,123,-5,-2.7986073927689104,-10.15639902899702,-18.258327162573188
1769158075108,123,-5,-2.869388988369624,-10.114845929177411,-18.354226415478543
1769158075112,123,-5,-3.124849236728259,-10.4520315989373,-18.63367472291362
1769158075116,122,-6,-3.5692875944345044,-11.094719951361466,-19.10145532749924
1769158075120,122,-6,-4.093364017805335,-11.465146813322042,-19.64865476488144
1769158075124,121,-7,-4.546240524932574,-12.025975632755708,-20.124866725060997
1769158075128,121,-7,-4.823466297559966,-12.36190948714329,-20.425944309984533
1769158075132,121,-7,-4.913549921663606,-12.256092593051369,-20.54031779848464
1769158075136,121,-7,-4.882173083546227,-12.356836594384909,-20.53322877699546
1769158075140,121,-7,-4.816814954273182,-12.312420972157232,-20.491710507258716
1769158075144,121,-7,-4.775334786364069,-12.22520271447279,-20.473499107503812
1769158075148,121,-7,-4.76945123295181,-12.288347642405064,-20.490435112217604
1769158075152,121,-7,-4.783541236660019,-12.354032950482525,-20.526944143645736
1769158075156,121,-7,-4.803776752686348,-12.369396613056162,-20.5691742241682
1769158075160,121,-7,-4.827823344292966,-12.349228775938462,-20.615028820017457
1769158075164,121,-7,-4.846796646113553,-12.302533362037382,-20.656085497010434
1769158075168,121,-7,-4.824795477527216,-12.26051193229557,-20.656500250447262
1769158075172,121,-7,-4.711137784744172,-12.479774649308284,-20.564990097094984
1769158075176,121,-7,-4.484350664207316,-12.2876231642553,-20.359632786975737
1769158075180,122,-6,-4.1806262764623545,-11.535440686296983,-20.07702882688904
1769158075184,122,-6,-3.8692717441049314,-11.186942283399327,-19.786995970020975
1769158075188,122,-6,-3.6021016996051007,-11.44928371376941,-19.54095923389247
1769158075192,122,-6,-3.39275829853458,-11.38121307361311,-19.352033558203303
1769158075196,123,-5,-3.2332428663139754,-10.428214769493335,-19.21283794724255
1769158075200,123,-5,-3.1114152250292024,-10.519899800097036,-19.112126226081937
1769158075204,122,-6,-3.0172160427723083,-11.231143935892868,-19.03917762775431
1769158075208,123,-5,-2.9501401296055985,-10.529663822486093,-18.99185111236468
1769158075212,123,-5,-2.9159377507841087,-10.324876007020698,-18.97568918370956
1769158075216,123,-5,-2.896268880052909,-10.612665260499288,-18.974104435050656
1769158075220,123,-5,-2.8263032348507933,-10.356403339058806,-18.92387868678989
1769158075224,123,-5,-2.634251345422091,-10.521322636119605,-18.75285314458744
1769158075228,123,-5,-2.3280036429259265,-10.28399660924996,-18.467149373319195
1769158075232,124,-4,-2.036410074902497,-9.6570230027058,-18.19446657340022
1769158075236,124,-4,-1.9337049034293663,-9.36130142977982,-18.10946993194844
1769158075240,124,-4,-2.0932001113593115,-9.6501906496624,-18.286511693540355
1769158075244,123,-5,-2.4074289265474795,-10.35870401976371,-18.618483997636332
1769158075248,123,-5,-2.6636663896443844,-10.46679352471934,-18.892395024339177
1769158075252,123,-5,-2.7149734800118397,-10.618187018707284,-18.96133469564932
1769158075256,123,-5,-2.5926711956272475,-10.393058586794442,-18.85715674012181
1769158075260,124,-4,-2.4623003920597,-9.749851657928367,-18.74552799444895
1769158075264,123,-5,-2.4716365172028074,-10.28576502248495,-18.77323606888808
1769158075268,123,-5,-2.6306532328316545,-10.667117979942647,-18.94900906638188
1769158075272,123,-5,-2.8166814731549605,-10.47653159901256,-19.15027456212852
1769158075276,123,-5,-2.8781290749129766,-10.5977104396319,-19.226938639464016
1769158075280,123,-5,-2.7430740359750243,-10.634696238852708,-19.108297040962157
1769158075284,123,-5,-2.45917267946618,-10.420323208495264,-18.841866372696895
1769158075288,124,-4,-2.14575609716422,-9.698299438369231,-18.546053450254284
1769158075292,124,-4,-1.8949598568227144,-9.435378844070971,-18.312054783170023
1769158075296,124,-4,-1.7001474175669382,-9.797031869010178,-18.132507930692135
1769158075300,124,-4,-1.471647236824214,-9.413530474037556,-17.91775651203009
1769158075304,125,-3,-1.1185484861188402,-8.786886301258237,-17.57817008424471
1769158075308,125,-3,-0.6190474173097944,-8.370378876774222,-17.093600812231287
1769158075312,126,-2,-0.0326439980409516,-7.86399058195034,-16.523826862131124
1769158075316,126,-2,0.5315479754020245,-7.42489742599395,-15.976512107001676
1769158075320,127,-1,0.9610651717412206,-6.841913134327179,-15.562468160077216
1769158075324,127,-1,1.1882347283684147,-6.467685181604834,-15.348965850514658
1769158075328,127,-1,1.2265006454162806,-6.720304908031723,-15.32336379767607
1769158075332,127,-1,1.1695696046711357,-6.670164192065532,-15.393020677990547
1769158075336,127,-1,1.142020785705009,-6.572493919549156,-15.433969140911977
1769158075340,127,-1,1.2262106785891262,-6.890496804818276,-15.363876847859688
1769158075344,127,-1,1.4132112804398964,-6.358161603492552,-15.191338753786283
1769158075348,128,0,1.6128283029205734,-6.034230566681876,-15.00607001680159
1769158075352,127,-1,1.715224336881606,-6.336656937358719,-14.9173591587662
1769158075356,128,0,1.657708683882567,-6.027692567941932,-14.987529603576792
1769158075360,127,-1,1.4512167848079849,-6.483244276676285,-15.205865835860129
1769158075364,127,-1,1.1571382387182514,-6.8309414664225105,-15.511709415100228
1769158075368,127,-1,0.8381565740011547,-6.680480739233781,-15.842896116454044
1769158075372,126,-2,0.5153096442893088,-7.694889122797742,-16.178244231556334
1769158075376,126,-2,0.1567519580292962,-7.827072480437132,-16.5492911778883
1769158075380,126,-2,-0.2912978382849668,-7.634161732537786,-17.00985976313475
1769158075384,125,-3,-0.8521743004286838,-8.883644413281502,-17.58318332699372
1769158075388,124,-4,-1.4927034634440803,-9.588326363399224,-18.235399855051128
1769158075392,124,-4,-2.1465623572662187,-9.951722608721315,-18.89976284781115
1769158075396,123,-5,-2.752761987374307,-10.57913352838493,-19.516012996748437
1769158075400,123,-5,-3.266847169778154,-10.967124159448757,-20.04083794765709
1769158075404,122,-6,-3.65226108122691,-11.626749786838731,-20.437848603025223
1769158075408,122,-6,-3.885742645293889,-11.905232943715218,-20.682931598266165
1769158075412,122,-6,-3.978343891026156,-11.738713241035468,-20.786419519771897
1769158075416,122,-6,-3.980482431729867,-11.821430753397168,-20.79878028030833
1769158075420,122,-6,-3.955569793830426,-11.824558805396746,-20.78381738566457
1769158075424,122,-6,-3.944643407922917,-11.800049389806157,-20.78279859253309
1769158075428,122,-6,-3.95280781948004,-11.854936603194188,-20.800933977206192
1769158075432,122,-6,-3.963999531136784,-11.83013314566274,-20.822238410210485
1769158075436,122,-6,-3.966484747857923,-11.818256663899117,-20.834796730819384
1769158075440,122,-6,-3.967418538996086,-11.8684575837782,-20.845225890483
1769158075444,122,-6,-3.9859574976603054,-11.84109849012653,-20.872360770826305
1769158075448,122,-6,-4.029674813715687,-11.880952791189928,-20.924425804883978
1769158075452,122,-6,-4.072308745495563,-11.900274777700606,-20.976491502484883
1769158075456,122,-6,-4.056388537136872,-11.78262138931068,-20.971478037131764
1769158075460,122,-6,-3.93093386076404,-11.990407213054237,-20.85661687741539
1769158075464,122,-6,-3.69961755955366,-11.768177710704247,-20.632798084616063
1769158075468,123,-5,-3.4290626687321435,-11.04117853214866,-20.365911853895916
1769158075472,123,-5,-3.19639043914634,-10.82951061059277,-20.136211833360413
1769158075476,123,-5,-3.0259206256654236,-10.873699597691711,-19.97346679740945
1769158075480,123,-5,-2.8840818931162633,-11.019514781378376,-19.847823983323615
1769158075484,123,-5,-2.7177918276029898,-10.73855433585862,-19.704184901027773
1769158075488,124,-4,-2.4268121922909724,-10.232958441982326,-19.43346723295952
1769158075492,124,-4,-1.69274637247721,-9.625494843636709,-18.705888334893643
1769158075496,127,-1,0.2428059445770012,-7.202030466330493,-16.75798514029671
1769158075500,131,3,4.587598462691577,-2.6927148394939975,-12.390185430381464
1769158075504,139,11,12.52977506411651,4.832101880736639,-4.4328982401813715
1769158075508,150,22,24.28407327170476,16.134586881833506,7.312392467295226
1769158075512,163,35,38.095714672722664,28.967331471967107,21.089294510958204
1769158075516,175,47,49.98604570396529,41.09723985946892,32.933160818860095
1769158075520,182,54,54.85702193495243,48.00109030404795,37.76563659563339
1769158075524,177,49,48.7612462722297,42.940961687916285,31.653829486758912
1769158075528,158,30,31.159933748259668,23.985013471003622,14.063254877457934
1769158075532,131,3,5.698972553407325,-3.073124946705402,-11.367045999201975
1769158075536,104,-24,-21.13266597282916,-29.8588827824012,-38.16471701288157
1769158075540,83,-45,-42.72180818818982,-51.0913054802019,-59.73635816483888
1769158075544,71,-57,-54.86882189778011,-62.913482162147616,-71.8939558135588
1769158075548,70,-58,-56.87711627932254,-64.16047827606383,-73.93673492153997
1769158075552,76,-52,-50.94735471806817,-58.01542130059903,-68.04845735473982
1769158075556,86,-42,-40.58437471401612,-47.98554785301491,-57.715456613135245
1769158075560,97,-31,-29.053493815997705,-37.10642096780499,-46.193467184390855
1769158075564,107,-21,-18.56942611870759,-26.93100961552254,-35.70033482480654
1769158075568,116,-12,-10.249195800951034,-18.251293914330923,-27.365195150565505
1769158075572,122,-6,-4.4225099825438985,-11.994238125559576,-21.530472701672405
1769158075576,126,-2,-0.9145260687912402,-8.105749807678956,-18.02666378398024
1769158075580,127,-1,0.7858794631992825,-7.057485967420543,-16.33842513269127
1769158075584,127,-1,1.3586001305590885,-7.017015937430818,-15.77747437426041
1769158075588,128,0,1.4346415388140863,-6.228725149288128,-15.708186057153563
1769158075592,128,0,1.427617072131389,-6.071531789644643,-15.718795616226394
1769158075596,128,0,1.5125236126369856,-6.1101567798067205,-15.638336452987804
1769158075600,128,0,1.713867312996696,-6.1032815225033294,-15.443423499980383
1769158075604,128,0,1.9924790519683715,-6.032827080338611,-15.171311910613417
1769158075608,129,1,2.283354813970383,-5.2780603468659955,-14.885445383296132
1769158075612,129,1,2.5158589251937133,-5.080570965456552,-14.657024076245216
1769158075616,129,1,2.64261126651343,-5.190936092837061,-14.534708305670668
1769158075620,129,1,2.6596892959937692,-5.060771251262435,-14.52261053334781
1769158075624,129,1,2.5993274421490744,-5.157510541271273,-14.587698397655068
1769158075628,129,1,2.5090472629483767,-5.202669342367839,-14.68194948316818
1769158075632,129,1,2.4410550817601786,-5.226128399704265,-14.753590016274892
1769158075636,129,1,2.4511135698509716,-5.115835508535751,-14.747642805352513
1769158075640,129,1,2.5848678157768026,-5.1886308106374965,-14.618743702717609
1769158075644,129,1,2.844153946316454,-5.099173068942067,-14.36475672477117
1769158075648,130,2,3.1625884986160915,-4.319459582534436,-14.051669182989423
1769158075652,130,2,3.4281257247612102,-4.170006014574339,-13.791141561242384
1769158075656,130,2,3.548660723840249,-4.251981709017914,-13.674761458597354
1769158075660,130,2,3.5127744278824995,-4.091885423042402,-13.713742254069146
1769158075664,130,2,3.4018472597783456,-4.284078836353059,-13.827407132019992
1769158075668,130,2,3.3463777894500315,-4.18228926495939,-13.886412387965876
1769158075672,130,2,3.449995561893207,-4.3620864252205465,-13.787544035809706
1769158075676,130,2,3.7240249448177014,-4.154882137239599,-13.518782026201222
1769158075680,131,3,4.080348069593996,-3.190760765175759,-13.16723453453308
1769158075684,131,3,4.397078611104846,-3.325964694163573,-12.854341893947872
1769158075688,131,3,4.610448895263202,-3.116592265344784,-12.6442139517372
1769158075692,132,4,4.758443576720686,-2.573585718713365,-12.499598980265478
1769158075696,131,3,4.94011502997015,-2.934294634651101,-12.321835412108872
1769158075700,132,4,5.223911281949894,-2.5371012205819037,-12.042186956129322
1769158075704,132,4,5.583952503784979,-1.979262826457175,-11.686113546346284
1769158075708,133,5,5.925819277910219,-1.5733968280437192,-11.348072991832804
1769158075712,133,5,6.18238260721157,-1.140602518264367,-11.095381186707275
1769158075716,133,5,6.385668962142121,-1.4490927125693904,-10.895798190556444
1769158075720,133,5,6.639636553934317,-1.0950390337310796,-10.645057517467375
1769158075724,134,6,7.01925629246685,-0.4465877949562506,-10.268482790281569
1769158075728,134,6,7.493481388658721,-0.2145042394773555,-9.797890864785016
1769158075732,135,7,7.940430827991023,0.5046409830065062,-9.35551552518995
1769158075736,135,7,8.235139396407703,0.7859837388678033,-9.065728927610593
1769158075740,135,7,8.33282559768332,0.64760365575866,-8.972214718639401
1769158075744,135,7,8.285650165320034,0.7143503232657573,-9.022204157059548
1769158075748,135,7,8.1932188022356,0.5975160596341555,-9.116605820542988
1769158075752,135,7,8.136728781353504,0.6098799539008466,-9.175485427104292
1769158075756,135,7,8.143864952663561,0.6558817245051127,-9.172074706135216
1769158075760,135,7,8.192473011117478,0.671932250589534,-9.128310640382631
1769158075764,135,7,8.231768425396531,0.6741563807644724,-9.093924688401698
1769158075768,135,7,8.203740136799944,0.5338144661044169,-9.126104873137352
1769158075772,135,7,8.065859051300556,0.6648208896191004,-9.267386419679031
1769158075776,135,7,7.815835636118178,0.5022341981269491,-9.520351064068745
1769158075780,134,6,7.49993232307959,-0.2067918305601619,-9.838694838939222
1769158075784,134,6,7.187555628217135,-0.5298910795905161,-10.153193463474516
1769158075788,134,6,6.928451666736372,-0.3092696655743037,-10.415204555310758
1769158075792,134,6,6.725007392015497,-0.540736094525589,-10.623371810768514
1769158075796,133,5,6.525680040420786,-1.3601736678763494,-10.82857239594567
1769158075800,133,5,6.231048142180104,-1.3890035580896516,-11.128290170795294
1769158075804,133,5,5.728202652644798,-1.4305725489951713,-11.634309344177703
1769158075808,132,4,4.965244676414461,-2.455891525087828,-12.399080347136714
1769158075812,131,3,4.017098419040565,-3.4399427346024507,-13.348898432142011
1769158075816,130,2,3.06591899885557,-4.528268724061883,-14.302523066049636
1769158075820,129,1,2.2874680372786136,-5.269835667266207,-15.08470228903652
1769158075824,129,1,1.7275342989750615,-5.6290319528333335,-15.649658134418146
1769158075828,128,0,1.2675868241272474,-6.292177131042334,-16.115141865242645
1769158075832,128,0,0.7091352109922195,-6.6574394641801025,-16.67841154208866
1769158075836,127,-1,-0.0805837692066919,-7.368351040416421,-17.47151343261593
1769158075840,126,-2,-1.0627400832178555,-8.490830365614705,-18.45590430701369
1769158075844,125,-3,-2.0386917912997125,-9.492776939302113,-19.43378509147734
1769158075848,124,-4,-2.7755627345351592,-10.443673666036306,-20.173074898462392
1769158075852,124,-4,-3.1536375153415217,-10.590563296858074,-20.554623444380205
1769158075856,124,-4,-3.225060600942846,-10.439983811168304,-20.630761546468328
1769158075860,124,-4,-3.1497700417400565,-10.529197878561558,-20.560888410979423
1769158075864,124,-4,-3.0765080130360234,-10.483850368035869,-20.492582999895166
1769158075868,124,-4,-3.06695492021134,-10.525266104293578,-20.48664072191099
1769158075872,124,-4,-3.1028912483671376,-10.552484916440394,-20.52506540292935
1769158075876,124,-4,-3.141530854056238,-10.519829791035685,-20.5661551517363
1769158075880,124,-4,-3.1608580977782306,-10.528505612568196,-20.588776749927018
1769158075884,124,-4,-3.166537742428939,-10.526626836781192,-20.598565953090542
1769158075888,124,-4,-3.1722598989195294,-10.550762001556944,-20.60857282310795
1769158075892,124,-4,-3.181369885773524,-10.561603217949632,-20.62170704128469
1769158075896,124,-4,-3.1863117553393665,-10.568043120361269,-20.630550928443476
