timestamp_ms,ecg_u8_raw,ecg_counts_raw_int,ecg_counts_filt_monitor,ecg_counts_filt_diagnostic,ecg_counts_filt_st
1769238863248,133,5,4.768371142069859,3.812006326172449,3.945337268835101
1769238863252,134,6,4.8799012195621385,4.46483518478621,4.0512523590725
1769238863256,133,5,4.924069553933965,4.101262656982232,4.089006570408138
1769238863260,133,5,4.847011002065136,3.647623774493214,4.005631633127391
1769238863264,133,5,4.615605980452475,3.8637224251486177,3.768712732732116
1769238863268,133,5,4.204192816093785,3.494742604437227,3.3519301919793345
1769238863272,132,4,3.594998072580847,2.735179325917215,2.736282640179353
1769238863276,131,3,2.7870367415727952,1.8915699319777697,1.920615888285356
1769238863280,130,2,1.7907212380620954,0.7660321916252588,0.9163696625507454
1769238863284,129,1,0.6150953644572223,-0.1714866079535619,-0.2665434725979212
1769238863288,128,0,-0.7245742384859915,-1.5681421152454575,-1.613133633802314
1769238863292,126,-2,-2.1763247100823833,-3.151733041864947,-3.0724073756991155
1769238863296,125,-3,-3.6327076780498935,-4.261139117046491,-4.537329150103261
1769238863300,123,-5,-4.958005769034477,-6.072040904881756,-5.871477085636339
1769238863304,122,-6,-6.051412405772737,-7.342654494013885,-6.973169910896679
1769238863308,122,-6,-6.890309138271092,-7.418337915030973,-7.820064313328535
1769238863312,121,-7,-7.510237661165432,-8.295705635524945,-8.448892970440209
1769238863316,120,-8,-7.948740828191333,-9.140501988866946,-8.897782882690402
1769238863320,120,-8,-8.220320216863046,-9.17070598426728,-9.18054557103892
1769238863324,120,-8,-8.342325562385405,-9.292591493028633,-9.313384822689562
1769238863328,120,-8,-8.364004200421707,-9.446265759628156,-9.344959088849585
1769238863332,120,-8,-8.349625168014496,-9.308587751285616,-9.33985304533964
1769238863336,120,-8,-8.323007503232297,-9.091806770647343,-9.322809768650629
1769238863340,120,-8,-8.231033679578644,-9.267441226551467,-9.241498645612788
1769238863344,120,-8,-7.979158397156405,-9.169510645521289,-9.001428928165854
1769238863348,121,-7,-7.526628257077751,-8.622571238507078,-8.561375392357172
1769238863352,121,-7,-6.9585685969469075,-8.101696729815012,-8.00610942314807
1769238863356,122,-6,-6.45627031341127,-7.319365403812152,-7.516796218873995
1769238863360,122,-6,-6.176489758157645,-7.0394876906875,-7.249816732133275
1769238863364,122,-6,-6.139289624906007,-7.404374543596889,-7.224604019356316
1769238863368,122,-6,-6.218874781719214,-7.436130826751004,-7.315401731661632
1769238863372,122,-6,-6.238799975931241,-7.243885766325998,-7.347038927950748
1769238863376,122,-6,-6.090122159468323,-7.23358706506342,-7.212047326997436
1769238863380,122,-6,-5.790057502646506,-7.057112966459901,-6.927679437032622
1769238863384,123,-5,-5.454096332482111,-6.467626240307964,-6.607808491149649
1769238863388,123,-5,-5.208761103965951,-6.335376536151449,-6.377188461307783
1769238863392,123,-5,-5.102180724042713,-6.396633265790825,-6.2836568461168065
1769238863396,123,-5,-5.0702818164759185,-6.04577079125754,-6.264526734757078
1769238863400,123,-5,-4.98432497104351,-6.260392726278495,-6.192796984811207
1769238863404,123,-5,-4.752424556955903,-6.28162731249855,-5.977193307467156
1769238863408,124,-4,-4.402090522706322,-5.52097953604613,-5.644412385654412
1769238863412,124,-4,-4.072117910446428,-5.240443489730784,-5.331788502410703
1769238863416,124,-4,-3.908949361395396,-5.171745328977515,-5.1846707031370975
1769238863420,124,-4,-3.946182637359237,-5.152505173320992,-5.236703651053236
1769238863424,124,-4,-4.0659655655124025,-5.4031605319477585,-5.37128729100046
1769238863428,124,-4,-4.0789672611201055,-5.413426314363988,-5.400544026227067
1769238863432,124,-4,-3.8691672327253506,-5.362627625776336,-5.208831136229335
1769238863436,124,-4,-3.495155039378004,-5.019363128323594,-4.853900568319467
1769238863440,125,-3,-3.160471690136926,-4.329076720730084,-4.538259805402122
1769238863444,125,-3,-3.0617405789512393,-4.214024529968311,-4.458033116952983
1769238863448,125,-3,-3.2312141852478797,-4.658091739102074,-4.645288999643923
1769238863452,124,-4,-3.507656644351851,-5.091337228097663,-4.938733969283543
1769238863456,124,-4,-3.6614378574095063,-5.308202391952246,-5.109298109431294
1769238863460,124,-4,-3.5636589087816444,-5.026815581277132,-5.029449305630381
1769238863464,125,-3,-3.260273698034477,-4.517500124977163,-4.7462454815321085
1769238863468,125,-3,-2.911149044652466,-4.396489032103645,-4.419052192304344
1769238863472,125,-3,-2.669198818713016,-4.3217531108078395,-4.198899818194156
1769238863476,125,-3,-2.59732628647961,-4.120963255293256,-4.147185691469643
1769238863480,125,-3,-2.6597147771615965,-4.172997790733776,-4.228224448576896
1769238863484,125,-3,-2.763663360881084,-4.413669299049839,-4.350623783342724
1769238863488,125,-3,-2.8130752924460363,-4.490938859827885,-4.419547433174862
1769238863492,125,-3,-2.746762240577123,-4.242516963349044,-4.374313098056503
1769238863496,125,-3,-2.552452927359035,-4.199258924448207,-4.202349871965403
1769238863500,125,-3,-2.2629316879966455,-4.084914814295533,-3.935625793926605
1769238863504,126,-2,-1.9434055884214847,-3.521061374018501,-3.63850473767425
1769238863508,126,-2,-1.6707083440208568,-3.3874998854844267,-3.3874329298128627
1769238863512,126,-2,-1.50384075250538,-3.3592467036400526,-3.2417269148118173
1769238863516,126,-2,-1.4557951915912162,-3.079636761937489,-3.215230851550089
1769238863520,126,-2,-1.48492511622003,-3.196930636838848,-3.266963887626178
1769238863524,126,-2,-1.5198530133087738,-3.433176097144133,-3.3252690555349877
1769238863528,126,-2,-1.5093139328395602,-3.464233237674299,-3.337927519930448
1769238863532,126,-2,-1.4579582786312184,-3.3147350380032177,-3.309201065253658
1769238863536,126,-2,-1.410101199486423,-3.096411217990054,-3.284166858838101
1769238863540,126,-2,-1.3943790311799336,-3.1936675751322237,-3.2923697570224144
1769238863544,126,-2,-1.391033497155858,-3.4380168914233415,-3.3138323466927493
1769238863548,126,-2,-1.361836038685855,-3.4734855893122543,-3.3092240975768656
1769238863552,126,-2,-1.3064423376773933,-3.3173624330234412,-3.277659521338143
1769238863556,126,-2,-1.2717616556341038,-3.085168005702969,-3.266719782073684
1769238863560,126,-2,-1.294702709338531,-3.1927996400339413,-3.3141947034401005
1769238863564,126,-2,-1.34135391248826,-3.4633694512744277,-3.3860141068712983
1769238863568,126,-2,-1.3165975733818571,-3.4401649332374977,-3.386085849483744
1769238863572,126,-2,-1.1429282819785955,-3.391437042699018,-3.236580733217998
1769238863576,126,-2,-0.8319690859430302,-2.9714822319907106,-2.950247138455738
1769238863580,127,-1,-0.4799738540075688,-2.317621038095302,-2.624746294684714
1769238863584,127,-1,-0.1981640513579881,-2.337592567999403,-2.371017277370646
1769238863588,127,-1,-0.0481244970255962,-2.5765785269995276,-2.248531095374159
1769238863592,127,-1,-0.0253127519505156,-2.2975054292010477,-2.2510683009355352
1769238863596,127,-1,-0.0678826739894686,-2.011958250593185,-2.3174197909379903
1769238863600,127,-1,-0.0616701328740352,-2.318971070053176,-2.3354642155312355
1769238863604,127,-1,0.1371451103443262,-2.2816522271190323,-2.1625810681087803
1769238863608,128,0,0.630428063263591,-1.6978359272685872,-1.696582481330196
1769238863612,128,0,1.3885492167768034,-1.169679153681583,-0.9664436935056312
1769238863616,129,1,2.2239822250094616,-0.1218091783903658,-0.159653560795383
1769238863620,130,2,2.8725168269899104,0.7718929777410377,0.4596665376707314
1769238863624,130,2,3.133415564474181,0.6835395288898463,0.6920184533251592
1769238863628,130,2,2.967486366963989,0.2348258507579825,0.4998896752923083
1769238863632,129,1,2.496610259792522,-0.0438009263850887,0.0049709455336501
1769238863636,129,1,1.932257980852903,-0.3041375424795012,-0.583999557431599
1769238863640,128,0,1.4851474654644452,-0.9799615237447376,-1.0589188040132118
1769238863644,128,0,1.2765050513231988,-1.5680128321462463,-1.298146064041554
1769238863648,128,0,1.2705678567022558,-1.5702377198631057,-1.3346844856106346
1769238863652,128,0,1.2849754265930948,-1.195785316102727,-1.349070428091478
1769238863656,128,0,1.113624462602454,-1.2264166108643613,-1.548036086786949
1769238863660,127,-1,0.6887872745694937,-1.9390296970042575,-2.000623190831164
1769238863664,127,-1,0.1396034154847637,-2.697078860037883,-2.5776553423847535
1769238863668,126,-2,-0.3155687596650008,-3.4052550454662196,-3.060000800070858
1769238863672,126,-2,-0.5432102835991058,-3.4246844340844524,-3.314695809061896
1769238863676,126,-2,-0.5715057533392267,-2.961858181070162,-3.3718414700760913
1769238863680,126,-2,-0.5164572385028772,-3.159291188675992,-3.348045071476111
1769238863684,126,-2,-0.4614793003524641,-3.5114368349855645,-3.3242788993468197
1769238863688,126,-2,-0.4186162323498339,-3.581888931919535,-3.309460782466775
1769238863692,126,-2,-0.3770352598898424,-3.33002932891788,-3.293109668562358
1769238863696,126,-2,-0.3442144228789019,-2.982577234737887,-3.2870184631908383
1769238863700,126,-2,-0.3279695798574165,-3.139044783614994,-3.3025975086182338
1769238863704,126,-2,-0.3104834382054863,-3.5070854588963476,-3.320067265604372
1769238863708,126,-2,-0.2732104231242762,-3.6374984884321018,-3.3142663367137484
1769238863712,126,-2,-0.2383478487637608,-3.312798145092503,-3.3026204183854073
1769238863716,126,-2,-0.2473769162623362,-2.95268267058176,-3.3294881090703385
1769238863720,126,-2,-0.2865063084148114,-3.152941976425252,-3.39067177096471
1769238863724,126,-2,-0.2784855810301081,-3.457956815225309,-3.41752500493085
1769238863728,126,-2,-0.2125638475076018,-3.7729797403076306,-3.398555017589338
1769238863732,125,-3,-0.281179765987438,-4.174015598832596,-3.514646122010232
1769238863736,125,-3,-0.7571860271495678,-4.097343851324903,-4.024301379506466
1769238863740,125,-3,-1.5065063086236254,-3.9276015719245896,-4.787954774901159
1769238863744,126,-2,-1.447769788422237,-3.697349271418039,-4.732646067306197
1769238863748,128,0,1.4286201126035123,-1.5838590753506416,-1.8646283203730512
1769238863752,134,6,9.100817120530476,4.634458199554455,5.782980573421954
1769238863756,146,18,21.99210617260976,17.078051636258408,18.63341981378477
1769238863760,163,35,37.95260140286465,34.05004288451458,34.54465381690476
1769238863764,180,52,52.71681623627851,50.263748873774446,49.259477406925974
1769238863768,190,62,61.80548675115152,60.43815630406354,58.30426990984269
1769238863772,189,61,62.69440367761287,59.52562040866152,59.15992823235108
1769238863776,180,52,55.80962995766633,51.04541501333,52.25733341222259
1769238863780,168,40,43.82196323639905,39.299916290400525,40.26610305317611
1769238863784,155,27,30.00559804369821,24.808564032555953,26.448017760220775
1769238863788,144,16,16.942085462982156,15.191069042982967,13.366815889699074
1769238863792,136,8,6.205495391454594,5.541020375792563,2.5894321771804742
1769238863796,120,-8,-1.373831196875111,-7.799632849025574,-5.0414805478944835
1769238863800,119,-9,-5.578690288953609,-10.932242002437054,-9.289233919925142
1769238863804,120,-8,-6.9136101980359355,-8.915181880689444,-10.65164490666604
1769238863808,120,-8,-6.506964954200672,-10.057603877611545,-10.26589821897038
1769238863812,120,-8,-5.60272546913865,-9.273043611714275,-9.385604704848154
1769238863816,120,-8,-4.99392278995617,-8.868996712739493,-8.804122220486024
1769238863820,120,-8,-4.828167710855874,-9.11079188345826,-8.664610420279914
1769238863824,121,-7,-4.835159559566582,-8.508939568874938,-8.695655699679929
1769238863828,121,-7,-4.708271864140414,-8.651362607481856,-8.593466598697646
1769238863832,121,-7,-4.358767081194046,-8.47592653643094,-8.27146534138576
1769238863836,121,-7,-3.9273665969702174,-7.778856169940596,-7.869524452075732
1769238863840,122,-6,-3.6118478980198754,-7.205499680087834,-7.583208021708173
1769238863844,122,-6,-3.474784708198854,-7.418505995848641,-7.473591416173542
1769238863848,122,-6,-3.39224594244409,-7.725745242832966,-7.41643038042824
1769238863852,122,-6,-3.1774320744358873,-7.356528167913494,-7.225609786869732
1769238863856,122,-6,-2.7531135960339506,-6.917631992086512,-6.825368447173601
1769238863860,123,-5,-2.208253058717279,-6.107111191754912,-6.306056130531368
1769238863864,124,-4,-1.698740136073248,-5.5086817723351995,-5.82353462792595
1769238863868,124,-4,-1.30600286806215,-5.605573703217077,-5.4575752741727825
1769238863872,124,-4,-0.990951945047748,-5.464946208933172,-5.167488346494849
1769238863876,124,-4,-0.6644581806716277,-4.800535159227621,-4.864364096733757
1769238863880,125,-3,-0.2811497497895892,-4.298293538462071,-4.5043729885698065
1769238863884,125,-3,0.132129933742128,-4.265465665316838,-4.115205375787486
1769238863888,126,-2,0.5182910750375687,-3.852605563067959,-3.753413914389028
1769238863892,126,-2,0.8519627840739981,-3.175980641476748,-3.443594879070228
1769238863896,126,-2,1.1702134464527352,-3.1085721182796697,-3.1485141975094506
1769238863900,126,-2,1.5450331605552563,-3.05185104331113,-2.7963470978488556
1769238863904,127,-1,2.0148172786023943,-2.447581733203619,-2.3489623481788557
1769238863908,128,0,2.537598751803623,-1.7118818871783326,-1.8487403457144316
1769238863912,128,0,3.0166070467968673,-1.2125031070368268,-1.392535610246803
1769238863916,128,0,3.37513800834476,-1.165441236661139,-1.0563200969626907
1769238863920,128,0,3.609407721924968,-0.9729878535431836,-0.8430437525139847
1769238863924,129,1,3.780116660469482,-0.5531133609622971,-0.6922698834677958
1769238863928,129,1,3.9631997736525735,-0.5671731720847162,-0.5292371182519964
1769238863932,129,1,4.19932887538395,-0.3171147416184645,-0.3138839352415106
1769238863936,129,1,4.467115375048406,-0.0980819896150837,-0.0669793838131007
1769238863940,129,1,4.693712918984992,-0.0567021408344299,0.1394633410237249
1769238863944,130,2,4.805058701869145,0.5255511066151812,0.2313980349233566
1769238863948,130,2,4.786316562642041,0.3840108202108685,0.1937064795654586
1769238863952,129,1,4.697018541204241,-0.2234312306466144,0.0862361299122174
1769238863956,129,1,4.618483428336077,-0.2402899044096504,-0.0094444746165036
1769238863960,129,1,4.58684542729814,0.0903820117126499,-0.0581681518984238
1769238863964,130,2,4.583072361967037,0.3376071819090014,-0.0801967441845175
1769238863968,129,1,4.5755856088346745,-0.3382271677019206,-0.1064563259121569
1769238863972,129,1,4.549650121715126,-0.5198229910405678,-0.1494595473165758
1769238863976,129,1,4.498480318269912,0.0626483177564471,-0.2151160803206067
1769238863980,129,1,4.415229753149587,-0.2561349081312878,-0.3120806618743397
1769238863984,129,1,4.304754234211042,-0.3287386677609305,-0.4376890266983642
1769238863988,129,1,4.17538384991216,-0.5689862512192594,-0.583464755501403
1769238863992,128,0,3.987767228518501,-1.358670015488988,-0.7868125640400021
1769238863996,128,0,3.618317617257084,-1.016528742087389,-1.1703001709562453
1769238864000,128,0,2.9120357355792903,-1.3201113063678704,-1.8897050976275125
1769238864004,126,-2,1.8008084414577272,-3.1509740113458946,-3.013845977712749
1769238864008,125,-3,0.3697789409120391,-4.785506137433524,-4.457074966961021
1769238864012,123,-5,-1.1971621724854806,-6.067845433557315,-6.03518465324408
1769238864016,122,-6,-2.7305669773335355,-7.372633978738795,-7.579668096182434
1769238864020,120,-8,-4.142827292293766,-8.97330423066359,-9.00369585505336
1769238864024,119,-9,-5.419363964481431,-10.463743289062748,-10.291834263322077
1769238864028,118,-10,-6.571468477417337,-11.46939677276648,-11.454008379866098
1769238864032,117,-11,-7.589920026230699,-12.317807773217964,-12.481132110868188
1769238864036,116,-12,-8.423807656771766,-13.21635419435457,-13.323701422411284
1769238864040,115,-13,-9.006553773246747,-14.083653918384185,-13.91575121658522
1769238864044,115,-13,-9.323288958688655,-14.39120157621239,-14.241419822207924
1769238864048,115,-13,-9.459148978523382,-14.460386836121708,-14.38476818744288
1769238864052,115,-13,-9.560107713814157,-14.341555915801012,-14.492129373956072
1769238864056,115,-13,-9.71915082471838,-14.208673232954014,-14.65758304555576
1769238864060,114,-14,-9.894618149169768,-15.105643479959056,-14.83954600915059
1769238864064,114,-14,-9.952312293995366,-15.373861806350195,-14.902793174459072
1769238864068,115,-13,-9.794808706190215,-14.41631363212444,-14.749361456596564
1769238864072,115,-13,-9.447756893591691,-14.391066088035004,-14.405635416702207
1769238864076,115,-13,-9.025960310012994,-14.168972298301863,-13.987498787967226
1769238864080,116,-12,-8.629182178410012,-13.154626370440631,-13.594952447770586
1769238864084,116,-12,-8.276525926538707,-13.339431625648562,-13.246232232418532
1769238864088,116,-12,-7.936659804796668,-13.39224130414586,-12.908828858446828
1769238864092,117,-11,-7.609098503726667,-12.419695962185624,-12.582004060051554
1769238864096,117,-11,-7.357588407212759,-12.141391876744272,-12.330441108337013
1769238864100,117,-11,-7.25309371444283,-12.210288103676705,-12.226050091623812
1769238864104,117,-11,-7.290403475091472,-12.25841803641733,-12.263552259353606
1769238864108,117,-11,-7.371194021312514,-12.463665558971623,-12.343938642236989
1769238864112,117,-11,-7.372033331278094,-12.314080195745165,-12.343387242348037
1769238864116,117,-11,-7.232866266661381,-12.27683682087895,-12.201984905637056
1769238864120,117,-11,-6.988684177281877,-12.072041807746883,-11.95509934547206
1769238864124,118,-10,-6.720680269396112,-11.39579948009507,-11.684148397521382
1769238864128,118,-10,-6.475180314773439,-11.28707914530296,-11.435157314098037
1769238864132,118,-10,-6.230427837639052,-11.494471440655229,-11.185734100689926
1769238864136,118,-10,-5.943699824595724,-11.090503276856966,-10.893205389697894
1769238864140,119,-9,-5.624404035705699,-10.292484632421568,-10.56810504081371
1769238864144,119,-9,-5.3547764247074,-10.141670405570938,-10.293459464306398
1769238864148,119,-9,-5.243978574708833,-10.520256454592184,-10.177518852113176
1769238864152,119,-9,-5.360621292591756,-10.254045417959222,-10.287251207516038
1769238864156,119,-9,-5.683035316006825,-10.329989765953144,-10.60059480234777
1769238864160,118,-10,-6.086058216869775,-11.102815804617512,-10.993387174544102
1769238864164,118,-10,-6.383240484741959,-11.260562194175185,-11.280087153201343
1769238864168,118,-10,-6.422628717849964,-11.42493901373527,-11.30891505716461
1769238864172,118,-10,-6.181023923884106,-11.287363065078116,-11.056925874112464
1769238864176,119,-9,-5.781185775732271,-10.352833678614704,-10.64757067571728
1769238864180,119,-9,-5.414141972071219,-10.06241544980342,-10.271712553885836
1769238864184,119,-9,-5.232684286704245,-10.294953640734342,-10.080052272133615
1769238864188,119,-9,-5.295149840823088,-10.36829644707475,-10.128546035486304
1769238864192,119,-9,-5.567192540080422,-10.316691700370962,-10.383211869706765
1769238864196,119,-9,-5.936988875098542,-10.379661204813887,-10.73558839069523
1769238864200,118,-10,-6.2374789337816186,-10.980167169130514,-11.021460871954384
1769238864204,118,-10,-6.317287121916922,-11.42360520657493,-11.08872911630454
1769238864208,118,-10,-6.152113212543567,-11.14808005636914,-10.910002393262737
1769238864212,119,-9,-5.893043640435763,-10.585694657891342,-10.63457011060092
1769238864216,119,-9,-5.7633070049952035,-10.090636384402767,-10.48654523949706
1769238864220,119,-9,-5.8671326960990395,-10.268515023504555,-10.57163267622898
1769238864224,118,-10,-6.092490274140136,-11.152489372591203,-10.77785086821576
1769238864228,118,-10,-6.2125723760383424,-11.340805959838272,-10.877887684028344
1769238864232,119,-9,-6.088371539305168,-10.474285646740178,-10.733374837798513
1769238864236,119,-9,-5.778683875046085,-10.103109559137463,-10.404163567638005
1769238864240,119,-9,-5.4745404786431955,-10.351469649852984,-10.080820416771864
1769238864244,119,-9,-5.341549646025973,-9.95422103275299,-9.927274610473384
1769238864248,120,-8,-5.402500132999351,-9.6169098611936,-9.965481701358131
1769238864252,119,-9,-5.53340567819664,-10.139856812685112,-10.072064385458091
1769238864256,119,-9,-5.566648535377196,-10.464338578650858,-10.08038563426898
1769238864260,119,-9,-5.423694474858301,-9.975752069380878,-9.912712029436817
1769238864264,120,-8,-5.168742380893808,-9.294909040541944,-9.6338802254293
1769238864268,120,-8,-4.939390967102031,-9.296442513275627,-9.381308708966117
1769238864272,120,-8,-4.826846650521785,-9.425922812951116,-9.244728775318734
1769238864276,120,-8,-4.814490329239056,-9.204572616661425,-9.205909226548355
1769238864280,120,-8,-4.806108192580194,-9.220833249740137,-9.168619112053834
1769238864284,120,-8,-4.690920271870442,-9.022531289552498,-9.023735118742684
1769238864288,121,-7,-4.38886785983739,-8.577524424961913,-8.692784877431968
1769238864292,121,-7,-3.868874009202912,-8.104036267980858,-8.14466100742481
1769238864296,122,-6,-3.161614002401172,-7.570242688923473,-7.408826141730941
1769238864300,122,-6,-2.3688121790286214,-6.810946788725782,-6.5864414500548785
1769238864304,124,-4,-1.643413095863159,-5.447019444803399,-5.8311926811325
1769238864308,124,-4,-1.1336615077277743,-5.11474288616786,-5.291739588567366
1769238864312,124,-4,-0.930291388657258,-5.572159541094075,-5.05754985399764
1769238864316,124,-4,-1.0522899971413795,-5.113957459348068,-5.14612770249626
1769238864320,124,-4,-1.4527531836554086,-5.245061632892665,-5.511209722600902
1769238864324,123,-5,-2.016581355597385,-6.025436234057116,-6.040039166631558
1769238864328,123,-5,-2.576190603427682,-6.473542233801876,-6.566334107798229
1769238864332,122,-6,-2.98630842698766,-7.243310326741437,-6.943777133026659
1769238864336,122,-6,-3.2235318173164584,-7.431391936558852,-7.147216088994149
1769238864340,122,-6,-3.4093986122661573,-6.925578470250281,-7.297776375403983
1769238864344,122,-6,-3.7080453003010687,-7.329019155035677,-7.560274669215
1769238864348,121,-7,-4.180841590483727,-8.134851017218041,-7.996261757593389
1769238864352,121,-7,-4.734827617194869,-8.588262542297283,-8.512281235880295
1769238864356,120,-8,-5.207664780314376,-9.109356651967747,-8.946223142150904
1769238864360,120,-8,-5.498189137070579,-9.21988935855878,-9.198333326773508
1769238864364,120,-8,-5.623858406404448,-9.0362319480564,-9.286980394710632
1769238864368,120,-8,-5.673735421058815,-9.349989305812873,-9.299912171313553
1769238864372,120,-8,-5.718999458632345,-9.442326659949018,-9.305658571484878
1769238864376,120,-8,-5.756368895442485,-9.194491786689207,-9.29999862473982
1769238864380,120,-8,-5.712574096292347,-9.219572429817754,-9.212158199523248
1769238864384,120,-8,-5.497979783442641,-8.914045629712994,-8.956429145439271
1769238864388,121,-7,-5.083359152976021,-8.515217782830119,-8.504848224719032
1769238864392,121,-7,-4.558450285850174,-8.229465181282084,-7.943665679421176
1769238864396,122,-6,-4.115937423795639,-7.451878091494421,-7.459706945462324
1769238864400,122,-6,-3.934583827148148,-6.958856770835784,-7.228755772164724
1769238864404,122,-6,-4.0256601122560305,-7.116840348139873,-7.265742750461504
1769238864408,122,-6,-4.183105123809116,-7.322293957883565,-7.373509819777923
1769238864412,122,-6,-4.13184187293839,-7.381209067727073,-7.284488328245398
1769238864416,122,-6,-3.7915011557761646,-7.366117163393388,-6.917043211178163
1769238864420,122,-6,-3.4013870395263366,-6.9997148698843,-6.4990602100429955
1769238864424,123,-5,-3.2711133622054667,-6.050549555081679,-6.326162984748458
1769238864428,124,-4,-3.204364715038972,-5.367214893537828,-6.196823806464209
1769238864432,125,-3,-2.0318720965783106,-4.309394457426935,-4.950679920476798
1769238864436,129,1,2.171339964461726,-0.5156609489913517,-0.6798255959258608
1769238864440,136,8,10.986245298468312,7.23355923482994,8.183943186631753
1769238864444,149,21,24.20922511273795,19.698200984772235,21.43669194101003
1769238864448,165,37,39.13685344182267,36.001270349652884,36.38500783024687
1769238864452,180,52,51.37530306814946,50.27371877497277,48.647727085527656
1769238864456,185,57,56.92271510491926,55.87178840747995,54.23303657322344
1769238864460,181,53,54.22604772408778,51.79393600880896,51.5932429506489
1769238864464,170,42,44.83128033504503,41.105503232694815,42.27215914359725
1769238864468,158,30,32.27811554007364,28.632017982040217,29.797684410760503
1769238864472,147,19,20.143495252415555,17.680890992063432,17.730084539990123
1769238864476,138,10,10.561020890221418,8.526608752279149,8.192905984217166
1769238864480,131,3,3.9340185183157015,2.1724622363232307,1.5943865772825436
1769238864484,127,-1,-0.3942229928454015,-2.2571744035310424,-2.7059649720837005
1769238864488,123,-5,-3.2601649804461097,-6.025980926833725,-5.5300596572451335
1769238864492,122,-6,-5.179367540946895,-7.634513709576144,-7.39115615586933
1769238864496,121,-7,-6.331825264188643,-8.173139301625001,-8.478396653626548
1769238864500,120,-8,-6.7919860807323404,-9.060198704209034,-8.877074721386544
1769238864504,120,-8,-6.724697250674136,-9.083676265960046,-8.756362554512428
1769238864508,121,-7,-6.410888752641186,-8.124986326374097,-8.39475293692058
1769238864512,122,-6,-6.1258799986590855,-7.62729861494601,-8.06277515645187
1769238864516,121,-7,-6.001166471482445,-8.060273463799856,-7.888083132127391
1769238864520,121,-7,-6.000979779431049,-8.238233881013912,-7.83340046399047
1769238864524,121,-7,-6.019326964381936,-7.834658221540246,-7.794292946074321
1769238864528,122,-6,-5.979213224829541,-7.424483269998106,-7.697431429448403
1769238864532,122,-6,-5.8432947017181185,-7.295408302526518,-7.50800358935629
1769238864536,122,-6,-5.575443379416873,-7.359151839673341,-7.1888147924254095
1769238864540,122,-6,-5.1425935981793724,-6.942335158569519,-6.703590348905938
1769238864544,123,-5,-4.562288177664146,-6.097493307511101,-6.068295660987272
1769238864548,124,-4,-3.9191647257501896,-5.208066775683441,-5.369113232207568
1769238864552,125,-3,-3.310634421034557,-4.448937899427647,-4.705708727335946
1769238864556,125,-3,-2.7799231051870663,-4.220287193376775,-4.121333477151536
1769238864560,125,-3,-2.3130894517788,-4.026353013781509,-3.600192455530315
1769238864564,126,-2,-1.889777674422063,-3.058669297960163,-3.1209680011995258
1769238864568,127,-1,-1.5096302693072643,-2.211249069712403,-2.6843236021121335
1769238864572,127,-1,-1.1636449175599417,-2.4549623687012954,-2.282492496386702
1769238864576,127,-1,-0.8059586126257783,-2.155149666143311,-1.8695409303675825
1769238864580,128,0,-0.3780224055153063,-1.1043585630895718,-1.386264590623553
1769238864584,128,0,0.1384052946497924,-0.9697413049479584,-0.8143588689278336
1769238864588,129,1,0.6975831341352103,-0.3194452450693488,-0.1998977380501876
1769238864592,130,2,1.2182750395416564,0.713594263238785,0.3760156119725009
1769238864596,130,2,1.6395295637112708,0.6624220701572279,0.8531231708847464
1769238864600,130,2,1.9617742351522252,1.1276919752223962,1.2322181451400938
1769238864604,131,3,2.248630862108201,1.7569271221669274,1.5762387952323569
1769238864608,131,3,2.5930462330470303,1.9705950292311312,1.977051938440387
1769238864612,132,4,3.064684609105629,2.464813163847958,2.5041859843562126
1769238864616,132,4,3.662819699066913,2.9069124497343566,3.1577847790933404
1769238864620,133,5,4.310585121570266,3.9445126771324617,3.8615383808949
1769238864624,134,6,4.909960218830879,4.8593483247926565,4.517066071747664
1769238864628,134,6,5.418156903215464,4.960105425433197,5.0812383121308935
1769238864632,135,7,5.871071019345544,5.4073627374628535,5.590338864770189
1769238864636,135,7,6.329660340120433,6.0887451739777685,6.10571943448811
1769238864640,136,8,6.808101661989037,6.67914550180838,6.641090548884634
1769238864644,136,8,7.255840154536314,7.189539675721562,7.144990101601122
1769238864648,137,9,7.600686054574964,7.601664730955882,7.544964620467288
1769238864652,137,9,7.801193980100771,7.79347168376308,7.800254489857241
1769238864656,137,9,7.862319488134809,7.75771728151779,7.916698578835381
1769238864660,137,9,7.816597712650343,7.957321370976745,7.927086781139828
1769238864664,137,9,7.704510147328988,7.982742978371223,7.871545004108158
1769238864668,137,9,7.572776166753613,7.744060472422692,7.796416413719848
1769238864672,137,9,7.475839762008268,7.744471252496155,7.755930282296029
1769238864676,137,9,7.458440361382746,7.782648918086696,7.794437439221815
1769238864680,137,9,7.51919980594277,7.95981114743982,7.910030842677871
1769238864684,137,9,7.577091207031961,7.9811213005509085,8.021644350355846
1769238864688,137,9,7.469448526930523,7.740542654195442,7.9673697243478045
1769238864692,137,9,7.002100260158313,7.793469479312381,7.554058759113339
1769238864696,136,8,6.042772090215116,6.743825260228489,6.6499625427953095
1769238864700,134,6,4.607216230891797,4.995113460920088,5.270525777251678
1769238864704,133,5,2.874940060389103,3.9692817957331528,3.594341003848436
1769238864708,131,3,1.1116904121439022,1.7298718968354376,1.886245668076612
1769238864712,129,1,-0.4590321982802101,-0.1344390526823788,0.3693415814144591
1769238864716,129,1,-1.7514318941927334,-0.326226254774864,-0.8703509153729008
1769238864720,127,-1,-2.8158736611562727,-1.9080627491123847,-1.8824130597633144
1769238864724,126,-2,-3.7525608036430302,-3.1458995391792772,-2.7661212512580535
1769238864728,126,-2,-4.614687165380984,-3.124554322962891,-3.574445658310892
1769238864732,125,-3,-5.369671355463237,-4.274595385412171,-4.275508479222785
1769238864736,124,-4,-5.938482412313807,-5.15792473758938,-4.791082096837848
1769238864740,124,-4,-6.277649339157803,-5.049440864829778,-5.077922428123543
1769238864744,124,-4,-6.430831950805389,-5.0410909762106995,-5.179400018841331
1769238864748,124,-4,-6.499442510647114,-5.169563028042654,-5.196341909177427
1769238864752,124,-4,-6.559408291371078,-5.255030095428344,-5.2041597177284435
1769238864756,124,-4,-6.601367995984675,-5.108209362264426,-5.193679815834838
1769238864760,124,-4,-6.545349953672544,-5.135256549637934,-5.085874380042642
1769238864764,124,-4,-6.316928290507592,-4.91658170808615,-4.8070123970642005
1769238864768,125,-3,-5.92543739272232,-4.31578067554382,-4.36594956464673
1769238864772,125,-3,-5.480309731881865,-4.043728649965322,-3.87094276058323
1769238864776,126,-2,-5.122163940240411,-3.338785659522502,-3.4621441541508715
1769238864780,126,-2,-4.9135237319629,-2.854213422156545,-3.2028387747769145
1769238864784,126,-2,-4.78206725106671,-3.242071955489516,-3.021656298507992
1769238864788,126,-2,-4.580325736340486,-2.944831961313954,-2.7711469733595195
1769238864792,127,-1,-4.221563144570499,-2.4007156266399985,-2.363894153791711
1769238864796,127,-1,-3.7678818131200207,-1.969645826948203,-1.861685589983054
1769238864800,128,0,-3.381274539676205,-1.1745002972977163,-1.4269766183443724
1769238864804,128,0,-3.1779962271628905,-0.9766245732606592,-1.176489179850852
1769238864808,128,0,-3.1239894289877532,-1.1371073819452522,-1.0756970225850877
1769238864812,128,0,-3.073498295311325,-1.253123190241988,-0.9778098540956734
1769238864816,128,0,-2.911735066889682,-1.0309001989615387,-0.7679897992661906
1769238864820,129,1,-2.6574491129417788,-0.1548837402319551,-0.466494803558827
1769238864824,129,1,-2.428832000206651,0.0606175475182917,-0.1929047964664922
1769238864828,129,1,-2.3243257493879934,-0.2030320943715629,-0.044996407513747
1769238864832,129,1,-2.347341931422311,-0.1429365001424685,-0.0240408297773426
1769238864836,129,1,-2.4325839776429614,-0.1366910549115849,-0.0636208052598439
1769238864840,129,1,-2.517434387200138,-0.0380718458578135,-0.1022361648903209
1769238864844,129,1,-2.578531415339127,-0.0230024295749231,-0.1184851395933552
1769238864848,129,1,-2.6186134704907795,-0.1347458719430618,-0.1158556269424648
1769238864852,129,1,-2.643645379648578,-0.162686876945961,-0.0994425258896969
1769238864856,129,1,-2.6604111188818007,-0.133076139394451,-0.0747469361950696
1769238864860,129,1,-2.684498285992565,-0.003864123272173,-0.0567953280744961
1769238864864,129,1,-2.7349600917002475,-0.0518070525164628,-0.0648649133349659
1769238864868,129,1,-2.814177980339717,-0.0959399599398556,-0.1018705399474355
1769238864872,129,1,-2.8943787046515204,-0.1659784297830904,-0.140642214065596
1769238864876,129,1,-2.929174418332745,-0.1530984861337674,-0.1353152048340464
1769238864880,129,1,-2.8876180068855635,0.0804091227796472,-0.0549551837889108
1769238864884,129,1,-2.7889471887170285,-0.1707293934494815,0.0818881462638443
1769238864888,129,1,-2.706690937154972,0.0845303434745528,0.202429886469138
1769238864892,130,2,-2.7221434247588796,0.6354272214787793,0.2254712602965503
1769238864896,129,1,-2.8508789018836267,0.0718908646472997,0.1351672826686241
1769238864900,129,1,-3.008745144450045,-0.1217540026296353,0.0156140948227574
1769238864904,129,1,-3.061885151102709,0.0212194996347911,0.0004801689140805
1769238864908,129,1,-2.9250384207395363,-0.0480415321236797,0.1740939606053451
1769238864912,130,2,-2.624299835533523,0.719707626384396,0.5093743064849665
1769238864916,130,2,-2.278747536179453,1.092429492892542,0.8877640571915881
1769238864920,130,2,-2.028016782248911,0.7725644237697757,1.1717226248023742
1769238864924,130,2,-1.9584130944656744,1.2404525220842515,1.2764290633916602
1769238864928,131,3,-2.0558624980108604,1.653972073885413,1.2151085684264171
1769238864932,130,2,-2.2027204089683714,1.0998194661279426,1.103344014269788
1769238864936,130,2,-2.2412682985873964,0.70080933711108,1.09773167785813
1769238864940,130,2,-2.085723537222755,1.1835082861960382,1.284188942016265
1769238864944,131,3,-1.7953890240852195,1.8620620920367592,1.603991235795185
1769238864948,131,3,-1.533926864511988,2.0047504207409856,1.8945128177328656
1769238864952,131,3,-1.4441241776200109,1.8307024900400508,2.0144428218623163
1769238864956,131,3,-1.5389859805250852,1.9151707051915832,1.951268126084456
1769238864960,131,3,-1.6805561622542031,2.0544375150839063,1.8413972584233271
1769238864964,131,3,-1.652555359739766,1.926877875378926,1.8990398057848383
1769238864968,131,3,-1.2909143780782315,2.02884289146229,2.2880526646700097
1769238864972,132,4,-0.6017866655718135,2.7783498342795685,3.0037902160430923
1769238864976,133,5,0.222753594093094,4.018349693075317,3.855069410051115
1769238864980,134,6,0.9241784363282042,4.947598837865549,4.582646623412571
1769238864984,134,6,1.342579192156128,5.041865995252039,5.025924062915527
1769238864988,134,6,1.4808593298757085,4.944369616532352,5.188635751063056
1769238864992,134,6,1.4203832060078152,4.86128058535765,5.153454084318638
1769238864996,134,6,1.1975502707239158,4.9651206188730255,4.956544094811536
1769238865000,134,6,0.7827000040876975,5.0147811407543585,4.566515704635156
1769238865004,133,5,0.1715294861131744,3.986592963220718,3.977940064624972
1769238865008,132,4,-0.534985001252824,3.0317543426110123,3.2925173778813326
1769238865012,132,4,-1.1667102297768706,2.7605740423016143,2.6818885918350297
1769238865016,131,3,-1.6052297280875163,2.1107937281230735,2.2650287014835384
1769238865020,131,3,-1.867951279785244,1.8594576487425083,2.023689583853977
1769238865024,131,3,-2.0738756634379456,2.1989388362445044,1.8376613470698735
1769238865028,131,3,-2.325720916258793,1.8082154540941255,1.6041082795041843
1769238865032,130,2,-2.6229557626374658,1.0021120653582232,1.3248402504405314
1769238865036,130,2,-2.883973434093661,0.88650170370589,1.0825821858852622
1769238865040,130,2,-3.0380834058685577,1.0829243978498022,0.9473907382027996
1769238865044,130,2,-3.0841355754590345,1.0353081889119529,0.918777612231612
1769238865048,130,2,-3.0710958759681715,0.9560743876088034,0.9473625410845692
1769238865052,130,2,-3.0468349359516465,0.8974212690322148,0.9866457482841504
1769238865056,130,2,-3.0339668606159265,0.963327558740704,1.015216683804336
1769238865060,130,2,-3.0385412600345303,1.0564281809053293,1.0261987405701922
1769238865064,130,2,-3.062222826515828,1.0630608406201572,1.0158016104287195
1769238865068,130,2,-3.101655314829912,0.9774797890103386,0.9866745261028752
1769238865072,130,2,-3.1424042778668246,0.8580675338554977,0.9557424191680388
1769238865076,130,2,-3.1562151905252116,1.028490027619561,0.9554905550064978
1769238865080,130,2,-3.100752309179041,0.9959241464766762,1.02998793900367
1769238865084,130,2,-2.9244740572465044,1.1633578663733235,1.2264249458211238
1769238865088,131,3,-2.592848017733332,1.8989546111497573,1.5703544584629152
1769238865092,131,3,-2.1482591951972587,1.9430432627364536,2.0132490015859466
1769238865096,131,3,-1.768025628006043,1.9448382394482469,2.3822554622514676
1769238865100,131,3,-1.7087065162803086,2.107082987451121,2.435352535180153
1769238865104,131,3,-2.0202321419149643,2.066991561354424,2.136260188496432
1769238865108,132,4,-2.0951258161873003,3.0322803204999307,2.092700598214747
1769238865112,134,6,-0.4226771807280967,4.8219829023698,3.800458017480537
1769238865116,138,10,4.969741225152779,9.055945797089269,9.21365082292782
1769238865120,147,19,15.29096594912129,18.06766672884189,19.533038153552777
1769238865124,161,33,29.629613283882463,32.08083153186953,33.85320554409862
1769238865128,178,50,44.578458807036874,49.13762128529819,48.77951962907693
1769238865132,191,63,55.485514343795515,61.64755362691064,59.67097290935447
1769238865136,193,65,58.75926187521558,64.27380742023068,62.94304614060294
1769238865140,187,59,53.713010132672295,57.75021084942569,57.911820956724135
1769238865144,174,46,42.69536432968718,45.391020974053305,46.92170000759054
1769238865148,162,34,29.543081860240648,32.85809052470778,33.79681020439475
1769238865152,151,23,17.565740068301686,21.991404703070028,21.83176783811543
1769238865156,142,14,8.374338339768123,13.06115782653324,12.631174173194422
1769238865160,136,8,1.9958722206033703,6.929504081463884,6.229499029103257
1769238865164,131,3,-2.251546317945599,2.257695442367804,1.9604207300795675
1769238865168,128,0,-4.973079108639173,-1.088670459875669,-0.7690962764019784
1769238865172,126,-2,-6.474606308075094,-2.956536470573239,-2.2640841125601217
1769238865176,126,-2,-6.973779842181557,-2.9836784834527705,-2.751708719002559
1769238865180,127,-1,-6.813173830101185,-1.978715308256941,-2.5862595737620575
1769238865184,127,-1,-6.414025124170626,-1.8727168380074557,-2.1937665748390622
1769238865188,127,-1,-6.074543755972581,-1.96502566296591,-1.8674568936477336
1769238865192,127,-1,-5.868441115959427,-2.043404720717711,-1.6720015333669611
1769238865196,127,-1,-5.7305488920698595,-1.8534276522749025,-1.5378237754921409
1769238865200,128,0,-5.590375621968844,-1.0792399106878523,-1.397880138026831
1769238865204,128,0,-5.404878377128369,-0.7900572370431864,-1.2156519279703804
1769238865208,128,0,-5.114660738800313,-1.035290182768335,-0.9344413303774256
1769238865212,128,0,-4.650517493176762,-0.9662251408752872,-0.4822794027652182
1769238865216,129,1,-4.021470372704499,0.1467139708945533,0.1358388690141359
1769238865220,130,2,-3.3708252319973444,0.905970780571744,0.777669302873722
1769238865224,130,2,-2.898071817300158,1.2595302949662872,1.2419510138940222
1769238865228,131,3,-2.6977917331599426,1.8871345835791344,1.432537633386585
1769238865232,130,2,-2.6718426173076253,1.1509108729952136,1.4479864247864414
1769238865236,130,2,-2.6065309342369627,1.0603404831374124,1.503068676273421
1769238865240,131,3,-2.3432052707543067,2.0166149942017744,1.755957808652861
1769238865244,131,3,-1.8843021476817017,2.165078690368521,2.2023724489851384
1769238865248,132,4,-1.3557593492612376,2.963793231149559,2.715726788231094
1769238865252,132,4,-0.8902819372775732,3.1414805564022323,3.1652615523026197
1769238865256,132,4,-0.5436419782894419,3.042689130564436,3.49779303371472
1769238865260,133,5,-0.2852800927765715,4.113543228737449,3.7441299151010217
1769238865264,133,5,-0.0296984209155453,4.029030117346774,3.98741946106688
1769238865268,133,5,0.3231299625047938,4.129555668142864,4.325399360232611
1769238865272,134,6,0.8380905798109204,5.014967747313521,4.822986190352365
1769238865276,134,6,1.4950917752454125,5.1619431974422785,5.461912727604257
1769238865280,135,7,2.180572182761842,6.05837336218281,6.129989510103228
1769238865284,136,8,2.75102952597505,7.054382607975089,6.683441350208892
1769238865288,136,8,3.1332873541794983,7.141873860503135,7.048185291071154
1769238865292,136,8,3.373842379543315,7.011728444338425,7.270576110104492
1769238865296,136,8,3.588354078699453,7.197887294535787,7.466652238176039
1769238865300,137,9,3.864148161008344,8.035041493082115,7.723651014275731
1769238865304,137,9,4.21057993837319,8.09906621841497,8.05053870560172
1769238865308,137,9,4.5873508797701525,8.105035840203776,8.407083662745162
1769238865312,138,10,4.962067677258953,9.08291192836031,8.761230358680677
1769238865316,138,10,5.337763799707732,9.137014053116369,9.115964319394074
1769238865320,138,10,5.729920507825687,9.120647087925333,9.486387963032051
1769238865324,139,11,6.117799550771128,10.023294823757045,9.851632330698685
1769238865328,139,11,6.421367390921239,10.207304267914136,10.132111205356154
1769238865332,139,11,6.537553446328621,9.987698492212122,10.2254718922053
1769238865336,139,11,6.416917400996838,10.27446337784175,10.08250057571556
1769238865340,139,11,6.121402909902954,9.981046072513616,9.764587335579694
1769238865344,138,10,5.80630993676292,9.182813251864012,9.426352039483952
1769238865348,138,10,5.619229580964289,9.077492775917596,9.215161071027186
1769238865352,138,10,5.583156652911946,9.119340640902722,9.153990037007866
1769238865356,138,10,5.561630790316341,9.19192286888853,9.10631775721252
1769238865360,138,10,5.340280505322178,9.065946566539637,8.8580851408076
1769238865364,137,9,4.757369246279421,8.111856771005101,8.248453538212964
1769238865368,136,8,3.782198114835194,7.178686443260181,7.247449463656284
1769238865372,135,7,2.4998375111880895,6.003929968907987,5.93983733340064
1769238865376,133,5,1.0393464610108991,4.377107114374138,4.453588625761368
1769238865380,132,4,-0.4911315508089195,2.856500894661715,2.8960158635163338
1769238865384,130,2,-2.02492273862912,1.380451885049598,1.3338383827174145
1769238865388,129,1,-3.5163844837413336,-0.1023333407648952,-0.1865723160494039
1769238865392,127,-1,-4.9113814402572284,-1.691913941050101,-1.6102617629190914
1769238865396,126,-2,-6.1410587548069335,-2.8768952184064993,-2.8680836781898913
1769238865400,125,-3,-7.1439477963292966,-3.917053181776767,-3.899115399092395
1769238865404,124,-4,-7.893191474797787,-4.760080478752509,-4.677481029537814
1769238865408,124,-4,-8.404769555579316,-5.025559806533545,-5.219564963460436
1769238865412,123,-5,-8.724736439591162,-5.668626968886678,-5.5706126760354016
1769238865416,123,-5,-8.90902881786589,-5.948964941322263,-5.78525479181327
1769238865420,123,-5,-9.003151173130394,-5.7642971064622115,-5.908713342769221
1769238865424,123,-5,-9.022053244342658,-5.938718400655125,-5.957134958178429
1769238865428,123,-5,-8.943686975863526,-5.8109191492509025,-5.909800046174026
1769238865432,123,-5,-8.73806909536323,-5.861324847450277,-5.736685241929139
1769238865436,123,-5,-8.421845870690323,-5.749915609026804,-5.453240068326983
1769238865440,124,-4,-8.083261401925874,-4.920184536624794,-5.146804655495131
1769238865444,124,-4,-7.833447078282873,-4.782550852390862,-4.928631717553547
1769238865448,124,-4,-7.7157456173852115,-4.943498749480493,-4.842626340636683
1769238865452,124,-4,-7.660973211889623,-4.704091192853272,-4.819896645675936
1769238865456,124,-4,-7.540742452342085,-4.89882532206458,-4.732131755976344
1769238865460,124,-4,-7.277526663713455,-4.74277608297914,-4.502064891147186
1769238865464,125,-3,-6.914474520404902,-3.9359617908368514,-4.173182728609753
1769238865468,125,-3,-6.583728187678087,-3.778349409534583,-3.8773617832152727
1769238865472,125,-3,-6.403720830399058,-3.83787072865678,-3.731954636416469
1769238865476,125,-3,-6.392696983575193,-3.758082083838944,-3.754327561247591
1769238865480,125,-3,-6.458790712499038,-3.863846744153586,-3.853052732245988
1769238865484,125,-3,-6.461691394455355,-3.791648076383346,-3.889145787353696
1769238865488,125,-3,-6.301192696264126,-3.8988510007933224,-3.7631739526673975
1769238865492,125,-3,-5.980332603897216,-3.6961729925716407,-3.4778984017325993
1769238865496,126,-2,-5.6016346133912265,-2.879220167997149,-3.135248034954677
1769238865500,126,-2,-5.294552323363735,-2.731819058580537,-2.864247712189059
1769238865504,126,-2,-5.129385113691496,-2.895611159049839,-2.734730257606387
1769238865508,126,-2,-5.087003774153631,-2.778446687951255,-2.7271963527277596
1769238865512,126,-2,-5.097758101364439,-2.7907443026820515,-2.772315853577568
1769238865516,126,-2,-5.100589013347414,-2.780181263924535,-2.809989427086333
1769238865520,126,-2,-5.072303958425792,-2.790821866163366,-2.8177168825013252
1769238865524,126,-2,-5.020448051361681,-2.834788253649927,-2.802826661334725
1769238865528,126,-2,-4.9629826578884195,-2.794694701321603,-2.7824905341626027
1769238865532,126,-2,-4.913983765239849,-2.7774085215376707,-2.770175055112974
1769238865536,126,-2,-4.878530864278524,-2.762868001539849,-2.7708590274504674
1769238865540,126,-2,-4.8528157320688186,-2.7924625063937625,-2.7809740531036593
1769238865544,126,-2,-4.827119467827043,-2.8092483434153976,-2.79119041938447
1769238865548,126,-2,-4.790940256936787,-2.793847293464743,-2.791498111188601
1769238865552,126,-2,-4.738991545769587,-2.769401280194233,-2.776994888352434
1769238865556,126,-2,-4.67652833082117,-2.7445457436310337,-2.752743584471894
1769238865560,126,-2,-4.621497677399462,-2.7947782462164885,-2.7357501824380974
1769238865564,126,-2,-4.59759756014904,-2.7819911997237123,-2.74871022083111
1769238865568,126,-2,-4.612872967193282,-2.7929999960065515,-2.7997013345630757
1769238865572,126,-2,-4.632751218646658,-2.770703351540725,-2.855408707472176
1769238865576,126,-2,-4.577470139501507,-2.696644123683836,-2.8372958770252747
1769238865580,126,-2,-4.371209677717131,-2.8571690144357165,-2.6694105719210377
1769238865584,126,-2,-4.022813099372758,-2.653790723451843,-2.3594961929701936
1769238865588,127,-1,-3.662272838989185,-1.9420779000049355,-2.0370506981813135
1769238865592,127,-1,-3.471840005484103,-1.5664105919698237,-1.884776539765325
1769238865596,127,-1,-3.5514784694692354,-1.9077774333927648,-2.002634513482337
1769238865600,126,-2,-3.8389939538809346,-2.614422479457298,-2.327349321521032
1769238865604,126,-2,-4.157350342690657,-2.8727462511250357,-2.681335756467369
1769238865608,126,-2,-4.335059952350774,-2.7284493433007655,-2.8945507212671973
1769238865612,126,-2,-4.292186244104698,-2.709902037185308,-2.889194851412067
1769238865616,126,-2,-4.050034735568098,-2.7974261622296215,-2.686869819256953
1769238865620,126,-2,-3.6977591197363098,-2.63341438556058,-2.3749045839762415
1769238865624,127,-1,-3.3469653906676196,-1.919165080657531,-2.0630700791640555
1769238865628,127,-1,-3.075598992281311,-1.5873263996194336,-1.8289493728872672
1769238865632,127,-1,-2.876055547735963,-1.8920275939186548,-1.6655923323611912
1769238865636,127,-1,-2.6477694141573176,-1.536276661382967,-1.4732548415941855
1769238865640,128,0,-2.251863128995083,-0.909265047472561,-1.113811597891801
1769238865644,128,0,-1.5979684772033074,-0.6223975229248531,-0.497400864085594
1769238865648,129,1,-0.7135464102090818,0.1518255929364818,0.3484628205861266
1769238865652,130,2,0.2445230068206365,1.3722230462679872,1.267197849373075
1769238865656,131,3,1.0490744731855153,2.2553823777041626,2.032261815283024
1769238865660,131,3,1.501386492398428,2.2835138128825228,2.4459523060968067
1769238865664,131,3,1.5110786596461874,2.2199685988403903,2.4186978496523617
1769238865668,131,3,1.1214929939711071,2.309484248683383,1.993512717505447
1769238865672,130,2,0.4839130914665146,1.2579152920863876,1.320389418002175
1769238865676,129,1,-0.2043852893638695,0.3836453049492654,0.5955423088752894
1769238865680,129,1,-0.7803269790498382,0.1917605310733949,-0.018096175124826
1769238865684,128,0,-1.178730699276492,-0.6941328957854513,-0.454896504371387
1769238865688,128,0,-1.4414470368090655,-0.7426078097760476,-0.7561622726660446
1769238865692,128,0,-1.6665232811736832,-0.6610334030301566,-1.019351578605419
1769238865696,127,-1,-1.9352508431466824,-1.677654286671427,-1.3251599469636155
1769238865700,127,-1,-2.2663560691110156,-1.7224411019100647,-1.6922292959535885
1769238865704,127,-1,-2.616607938938772,-1.7745556716158548,-2.0781297368555416
1769238865708,126,-2,-2.9135988129679298,-2.6472955867195065,-2.4114920507158972
1769238865712,126,-2,-3.098636022273578,-2.7108464639647503,-2.6338581505108207
1769238865716,126,-2,-3.1588620810116614,-2.6098067915638548,-2.7316000573556094
1769238865720,126,-2,-3.1292305054843848,-2.7716286356114046,-2.7385829550802403
1769238865724,126,-2,-3.0637711330077217,-2.7135407023183133,-2.708395664428782
1769238865728,126,-2,-3.0006710782686508,-2.688731589176844,-2.680154989931082
1769238865732,126,-2,-2.9477294116706583,-2.6417274673496003,-2.663607935404796
1769238865736,126,-2,-2.8955362831067144,-2.641315007368973,-2.6504339812014104
1769238865740,126,-2,-2.844710753945358,-2.739966922791615,-2.639481649972094
1769238865744,126,-2,-2.8196319496504687,-2.7191590219548996,-2.6508961303987117
1769238865748,126,-2,-2.8446719008446872,-2.672281352090928,-2.705935355687527
1769238865752,126,-2,-2.8933859435249145,-2.622698820275449,-2.780294728694151
1769238865756,126,-2,-2.8692621074342415,-2.629726053112673,-2.785231178995765
1769238865760,126,-2,-2.679701063380997,-2.7411205306185566,-2.6362117665100437
1769238865764,126,-2,-2.3788748487721834,-2.7065307905362666,-2.387958664452007
1769238865768,126,-2,-2.2276527722830246,-2.656240793333942,-2.2909854123165183
1769238865772,126,-2,-2.4877385865195394,-2.626917260098611,-2.591658394556345
1769238865776,126,-2,-2.9426954541230574,-2.5616467158318987,-3.065577509828238
1769238865780,127,-1,-2.4567129807320702,-1.8382970592233048,-2.5847475367023947
1769238865784,130,2,0.9193261300821174,1.449075430608004,0.7809855163683812
1769238865788,137,9,8.993651016322842,8.177889564858726,8.824589493663835
1769238865792,148,20,21.973234973724537,19.608969635376667,21.752527274907397
1769238865796,165,37,37.49474294433826,36.24728128130177,37.21293547486044
1769238865800,181,53,51.135536435869795,52.35258446741184,50.79600488657218
1769238865804,189,61,58.43513503838867,60.29205210335805,58.04970756094359
1769238865808,186,58,57.204562929523235,57.244517975019505,56.78996002112739
1769238865812,175,47,48.53109737341832,46.57984225881931,48.10429940620267
1769238865816,163,35,35.85884372987681,34.19401445850723,35.42809268806908
1769238865820,151,23,22.97147099044879,22.538907149535746,22.52884688467587
1769238865824,141,13,12.326676706164214,12.153585708362256,11.851805402853046
1769238865828,133,5,4.615757127171555,4.48264632482983,4.089754217572296
1769238865832,128,0,-0.6212138165171703,-0.6481244719971571,-1.203414391007407
1769238865836,124,-4,-4.103263043835058,-4.6528574918749825,-4.731671146711074
1769238865840,121,-7,-6.306216704242886,-7.525563645076241,-6.964531170393652
1769238865844,120,-8,-7.486032686826656,-8.80114708298839,-8.162817817782477
1769238865848,120,-8,-7.9070528851740205,-8.42683674739713,-8.602130140281547
1769238865852,121,-7,-7.908890893030363,-7.820259953373544,-8.631252308404223
1769238865856,120,-8,-7.760617783957815,-8.44606786875163,-8.519701237884094
1769238865860,120,-8,-7.537303786252042,-8.76854998092588,-8.33502592748434
1769238865864,120,-8,-7.197616647764602,-8.458581078119035,-8.028278692192199
1769238865868,121,-7,-6.7608294000347104,-7.754676529467174,-7.618192330415155
1769238865872,122,-6,-6.355584671739638,-6.460678277406046,-7.239017464473019
1769238865876,122,-6,-6.089199619469668,-6.824334072184291,-7.0025926178895075
1769238865880,121,-7,-5.917911942693204,-7.401923595593868,-6.863861921385546
1769238865884,122,-6,-5.687739835873098,-6.722381323063506,-6.664492588768768
1769238865888,122,-6,-5.295774913673076,-6.527924858998424,-6.2999842172328515
1769238865892,123,-5,-4.783290814995148,-5.572322028049893,-5.814319144800414
1769238865896,124,-4,-4.270919773143742,-4.818446845311961,-5.331229172401585
1769238865900,123,-5,-3.8343194976847625,-5.297559365153102,-4.925918427618279
1769238865904,124,-4,-3.4650690545291933,-4.880040028448866,-4.586795334944177
1769238865908,124,-4,-3.131848209336905,-4.250459824967723,-4.280742434761185
1769238865912,125,-3,-2.8330986562186955,-3.8925378758514353,-4.0076710714685415
1769238865916,125,-3,-2.5685989127898687,-3.4616421358417417,-3.769728106665559
1769238865920,125,-3,-2.284869097119789,-3.6340922488083223,-3.513734834225173
1769238865924,125,-3,-1.8880932258222385,-3.557032323564542,-3.1444583120714102
1769238865928,126,-2,-1.3253354939777358,-2.460340972281939,-2.608391062175776
1769238865932,127,-1,-0.6444764548086844,-1.7499159234648665,-1.9544711938370185
1769238865936,127,-1,0.0302417361958524,-1.5113181472180228,-1.3076900977948176
1769238865940,128,0,0.5782203419679185,-0.63446738897128,-0.7874989389099674
1769238865944,128,0,0.9498307391099284,-0.4873232209293174,-0.4415905504162438
1769238865948,128,0,1.1872782357282323,-0.5232525087599629,-0.2274671778006336
1769238865952,129,1,1.407000480100696,0.3494789702953413,-0.0307035421314489
1769238865956,129,1,1.75492397658133,0.3996976104143579,0.2924606291086329
1769238865960,129,1,2.3333035571045184,0.4638678619310545,0.8443678212685728
1769238865964,130,2,3.1208862089157288,1.4577491138828735,1.605664994429378
1769238865968,131,3,3.954550099342388,2.5421687739467744,2.414420272592425
1769238865972,132,4,4.621853316659113,3.3302840491517127,3.0576284139202685
1769238865976,132,4,5.008614746743559,3.4147821310667,3.4203034348539165
1769238865980,132,4,5.172423905893564,3.4751945928020818,3.5604827369931487
1769238865984,132,4,5.275210477487004,3.456266276493313,3.641102431767099
1769238865988,132,4,5.444824225172391,3.5824713418033634,3.789717893289648
1769238865992,133,5,5.697350508384527,4.316527936706113,4.020458357947475
1769238865996,133,5,5.975757952934004,4.453753124337312,4.274754463972652
1769238866000,133,5,6.234710279070275,4.44487993946594,4.508389963681313
1769238866004,133,5,6.467698332931744,4.507165939439194,4.717921554439336
1769238866008,133,5,6.664787661334745,4.55394097747204,4.895014138233695
1769238866012,134,6,6.784899674487452,5.378766744901164,4.996692758140249
1769238866016,134,6,6.79619120029608,5.416758268738673,4.987917177501824
1769238866020,133,5,6.723560786554229,4.499728603481871,4.892832487478242
1769238866024,133,5,6.6135192302396,4.453095167447005,4.76010393635935
1769238866028,133,5,6.43919312664511,4.65460705813782,4.564918949873093
1769238866032,133,5,6.066400460245914,4.271855800783607,4.172891176607967
1769238866036,132,4,5.341920855563982,3.605007631740779,3.4292901372840943
1769238866040,131,3,4.223424392833375,2.281375308008341,2.2910013036142516
1769238866044,129,1,2.8223950186622457,0.7091928349259691,0.8700621177545549
1769238866048,128,0,1.3208138868377055,-0.6021443646951523,-0.6505378499280461
1769238866052,126,-2,-0.1569057967833034,-2.426859601758207,-2.1461279984984554
1769238866056,125,-3,-1.5979258492099395,-3.6610730125444872,-3.604839952733638
1769238866060,124,-4,-3.0360322063346272,-4.4251631081227725,-5.061668176305256
1769238866064,122,-6,-4.443300942894077,-6.592971935851065,-6.488396900109619
1769238866068,120,-8,-5.701768018478737,-8.270974745447656,-7.765222282371106
1769238866072,120,-8,-6.687238836001978,-8.734369977815824,-8.766897114490325
1769238866076,119,-9,-7.366036288466597,-9.313530895727787,-9.461079894485804
1769238866080,119,-9,-7.800063766473054,-9.742024886816678,-9.911784274136355
1769238866084,118,-10,-8.074393080096142,-10.277849207456978,-10.204331580977325
1769238866088,118,-10,-8.240283264503335,-10.560167809649366,-10.388210647762946
1769238866092,118,-10,-8.320641430741388,-10.442478665848077,-10.484706856003118
1769238866096,118,-10,-8.34133322986312,-10.536272579593732,-10.519847137120912
1769238866100,118,-10,-8.335658936653799,-10.52747428675946,-10.52844297873836
1769238866104,118,-10,-8.317534997675988,-10.443583776303972,-10.52564790455288
1769238866108,118,-10,-8.26225131086995,-10.41924861822024,-10.48650351580731
1769238866112,118,-10,-8.127533464064097,-10.538430549823431,-10.367292249307193
1769238866116,118,-10,-7.900251672394262,-10.405253014410452,-10.153913019627348
1769238866120,119,-9,-7.615833535556613,-9.640663237704851,-9.882523445115186
1769238866124,119,-9,-7.322654981799257,-9.294181068770683,-9.60298933186098
1769238866128,119,-9,-7.034855003146211,-9.587365707904429,-9.32974225015907
1769238866132,119,-9,-6.737602191892318,-9.324527692535415,-9.046846361845368
1769238866136,120,-8,-6.4382277302461155,-8.595811070346961,-8.760759781477798
1769238866140,120,-8,-6.191496328029775,-8.422797906317685,-8.526480105241415
1769238866144,120,-8,-6.0605427483987695,-8.47915852454745,-8.407737788554233
1769238866148,120,-8,-6.05438068065781,-8.413666623800971,-8.413797934091724
1769238866152,120,-8,-6.1051023116038055,-8.46015606765669,-8.47676309691118
1769238866156,120,-8,-6.105556119011537,-8.441432184784249,-8.489307236751744
1769238866160,120,-8,-5.97929842882169,-8.53717695717473,-8.374557220813893
1769238866164,120,-8,-5.729926860170678,-8.34143526908468,-8.135978543468356
1769238866168,121,-7,-5.4261640150569805,-7.553149994450322,-7.842995292254441
1769238866172,121,-7,-5.132478191844531,-7.283679412780635,-7.56079639663277
1769238866176,121,-7,-4.856476008206533,-7.606051590200702,-7.296469076271247
1769238866180,121,-7,-4.5717829869138615,-7.323641022934837,-7.022385596311112
1769238866184,122,-6,-4.282923351451517,-6.54779430010819,-6.742841554755243
1769238866188,122,-6,-4.044936374935881,-6.338652650757465,-6.5139330530514865
1769238866192,122,-6,-3.912605182150058,-6.458349877908637,-6.391215847813664
1769238866196,122,-6,-3.884098827857556,-6.423089560176583,-6.372470703255352
1769238866200,122,-6,-3.90319330897633,-6.451422054040806,-6.400823561955299
1769238866204,122,-6,-3.911205129601366,-6.437184662569704,-6.417660460393887
1769238866208,122,-6,-3.892601898973047,-6.401741655578128,-6.407922437885092
1769238866212,122,-6,-3.8751799327881304,-6.398344338852207,-6.399425787178519
1769238866216,122,-6,-3.890226834052129,-6.422036924792224,-6.422914972892737
1769238866220,122,-6,-3.9279566048229735,-6.456220754813476,-6.468146237890413
1769238866224,122,-6,-3.925428823640509,-6.3911721188400925,-6.472305418901331
1769238866228,122,-6,-3.8025336996895343,-6.460311261566612,-6.355921994073777
1769238866232,122,-6,-3.525982815882786,-6.28182501309352,-6.0865046363827755
1769238866236,123,-5,-3.153356947188935,-5.536690199016608,-5.722066820297
1769238866240,123,-5,-2.8190213618098716,-5.28697373320161,-5.396441864816639
1769238866244,123,-5,-2.66836902646849,-5.56977209404132,-5.2536520778766524
1769238866248,123,-5,-2.780279914362032,-5.258518406432622,-5.371593270010023
1769238866252,123,-5,-3.1161478071774007,-5.449691411194831,-5.712013983363108
1769238866256,122,-6,-3.5224198393138595,-6.366707695094807,-6.122498923355176
1769238866260,122,-6,-3.798800317652483,-6.3860794695554866,-6.403570214730189
1769238866264,122,-6,-3.8045392792455095,-6.495058878487406,-6.414761884338208
1769238866268,122,-6,-3.534260702461255,-6.298457752309215,-6.150795018819458
1769238866272,123,-5,-3.1085915920695113,-5.3696082453605705,-5.732059976425676
1769238866276,123,-5,-2.6919309058811893,-5.457315547619648,-5.321973019232141
1769238866280,123,-5,-2.402584211560511,-5.202544933024012,-5.037570147115453
1769238866284,124,-4,-2.2692620925667812,-4.750674636154826,-4.907267274282411
1769238866288,123,-5,-2.2398580575890503,-4.9466574593296455,-4.880104307191967
1769238866292,124,-4,-2.2223650859224966,-4.768867194181055,-4.865598045533923
1769238866296,123,-5,-2.1396500786005506,-4.957245835938845,-4.787228221901846
1769238866300,124,-4,-1.9760476362106536,-4.721446305964705,-4.628828874224275
1769238866304,124,-4,-1.7860129414872237,-4.206528605323845,-4.443807053005089
1769238866308,124,-4,-1.6536859331891145,-4.454705304554054,-4.315274602420853
1769238866312,124,-4,-1.6306249570648284,-4.292806666538398,-4.294380962788261
1769238866316,124,-4,-1.69570020156042,-4.300068065814388,-4.360743200093312
1769238866320,124,-4,-1.7629087457079846,-4.4816667377217385,-4.429866220477567
1769238866324,124,-4,-1.733747895285768,-4.301508031556688,-4.404071075354489
1769238866328,124,-4,-1.5653849300969096,-4.464482864119719,-4.23974135862767
1769238866332,124,-4,-1.30554658606667,-4.15926584553927,-3.9831085578102936
1769238866336,125,-3,-1.0519526541953423,-3.4543380780933073,-3.731283883983151
1769238866340,125,-3,-0.8532656595507933,-3.287748311174432,-3.533431324017515
1769238866344,125,-3,-0.6411196954562381,-3.4686785802828495,-3.321805132111757
1769238866348,125,-3,-0.2749908582335372,-3.3223271572829027,-2.9562833526332946
1769238866352,126,-2,0.3258383225159833,-2.22254767400295,-2.3567457054766874
1769238866356,127,-1,1.0800986298695503,-1.4077451949803306,-1.6049029765944316
1769238866360,127,-1,1.7605150055665444,-1.256664172256335,-0.927494457922317
1769238866364,128,0,2.1156056251350064,-0.5260754234466674,-0.5748139848221032
1769238866368,128,0,2.015319484781696,-0.2352261771164969,-0.6760904336053484
1769238866372,127,-1,1.5268113203271123,-1.293649692218327,-1.1639416722941358
1769238866376,126,-2,0.86652091884429,-2.3083076257248125,-1.8222812026190884
1769238866380,126,-2,0.2649819775285098,-2.3033801256556776,-2.4219517431408817
1769238866384,126,-2,-0.1480666641978867,-2.495499528702162,-2.8350476692585422
1769238866388,125,-3,-0.3672578553868426,-3.22249878580317,-3.056503911457369
1769238866392,125,-3,-0.4690442235804926,-3.2974499258598233,-3.160828890534996
1769238866396,125,-3,-0.5584438029521834,-3.2658088001659342,-3.2508710809562436
1769238866400,125,-3,-0.7205872749798212,-3.315921027251476,-3.4115411743820157
1769238866404,125,-3,-0.9772361269248642,-3.484232765154995,-3.666028237876704
1769238866408,124,-4,-1.2739375331906129,-4.195054975993067,-3.961191530669349
1769238866412,124,-4,-1.519868035575661,-4.3272500401006955,-4.206549541298391
1769238866416,124,-4,-1.653179962282444,-4.177545998072839,-4.3398735398353825
1769238866420,124,-4,-1.6769310844834733,-4.39915831769634,-4.363341110253706
1769238866424,124,-4,-1.6428399860510583,-4.371098418505944,-4.327636266761234
1769238866428,124,-4,-1.606866084004794,-4.288794573328078,-4.288656229968107
1769238866432,124,-4,-1.59312520514763,-4.2306037261807985,-4.272269448668261
1769238866436,124,-4,-1.5887254706236122,-4.216560118869276,-4.267919123491301
1769238866440,124,-4,-1.572464652129163,-4.36211304536637,-4.254491709017158
1769238866444,124,-4,-1.55416481302544,-4.365005068590032,-4.238215183120269
1769238866448,124,-4,-1.579694757022038,-4.2938963934599865,-4.259997135302131
1769238866452,124,-4,-1.6758082942025427,-4.200963097629002,-4.345171975989065
1769238866456,124,-4,-1.7777144266778988,-4.207580275510357,-4.434283269125132
1769238866460,124,-4,-1.7384004187949444,-4.3556390066260295,-4.389985480346866
1769238866464,124,-4,-1.4741903757764625,-4.342859784945906,-4.134908345578659
1769238866468,124,-4,-1.1484729660501267,-4.306176607954363,-3.8281369506494727
1769238866472,124,-4,-1.1603277025221406,-4.173525219921427,-3.8542984874509463
1769238866476,124,-4,-1.7636322335944952,-4.1799832228063565,-4.452768244011815
1769238866480,124,-4,-2.4491737046854594,-4.38990835735724,-5.112282641923838
1769238866484,125,-3,-1.586563022679896,-3.2507502382485582,-4.216237510336148
1769238866488,129,1,3.1145068191852054,0.5761570627011299,0.5061965776537214
1769238866492,137,9,13.239576743055066,9.012688225837811,10.630105312830649
1769238866496,152,24,28.12718496497697,23.66318220582796,25.498198027610464
1769238866500,170,42,44.35324108024635,41.824843737856206,41.69877555343176
1769238866504,185,57,56.96650828367238,56.55160810666843,54.29265306120431
1769238866508,189,61,61.91691385663806,60.745276220058045,59.23848181259389
1769238866512,183,55,58.08985190161759,54.803482421641355,55.42606058243899
1769238866516,172,44,47.58975759385794,43.836839546299345,44.95615064830197
1769238866520,159,31,34.247792075067125,30.68114999054217,31.64637090346281
1769238866524,147,19,21.561584675372025,18.789097239951683,18.97790675867655
1769238866528,138,10,11.416399994964689,9.599445464627763,8.828641685396384
1769238866532,130,2,4.085853827780362,1.9945641546082395,1.4794612188368967
1769238866536,125,-3,-0.9633689195903808,-3.3926344322332342,-3.5872168905402138
1769238866540,121,-7,-4.294116205450516,-7.057368972607698,-6.921922779348941
1769238866544,119,-9,-6.2393373263148515,-9.473291716835408,-8.856255745238702
1769238866548,118,-10,-7.068832273520452,-10.021591212913185,-9.668394463516885
1769238866552,119,-9,-7.176846846250048,-9.414403416819836,-9.76329481187568
1769238866556,119,-9,-7.020594224350245,-8.96275784479862,-9.603359099157638
1769238866560,119,-9,-6.897260111327365,-9.52241322631784,-9.4824952651291
1769238866564,118,-10,-6.833336804109923,-9.955477955982708,-9.41955829157891
1769238866568,119,-9,-6.706876728117192,-9.480063766602164,-9.288058459337323
1769238866572,119,-9,-6.451183882072075,-8.949706531577307,-9.023485939750012
1769238866576,120,-8,-6.1236011480776105,-8.399903112596956,-8.688669799105035
1769238866580,120,-8,-5.807675606664935,-8.124138108076414,-8.369726335587249
1769238866584,120,-8,-5.503642696017972,-8.268235681632426,-8.064348777696825
1769238866588,120,-8,-5.141856897528239,-8.167732760127834,-7.6989462591501505
1769238866592,121,-7,-4.682879856144401,-7.197121803844739,-7.233515456385607
1769238866596,122,-6,-4.16866897751977,-6.182581430119514,-6.712926897064393
1769238866600,122,-6,-3.672147089127677,-6.313187284564152,-6.212297744992937
1769238866604,122,-6,-3.2264411214433713,-6.050946974232904,-5.763576239968696
1769238866608,123,-5,-2.819282162436199,-5.338190890558715,-5.352009292198416
1769238866612,123,-5,-2.433255414471677,-5.020415924951606,-4.959762888067514
1769238866616,124,-4,-2.0622452526178567,-4.330349515993406,-4.582535735382281
1769238866620,124,-4,-1.6921611631010998,-4.184993255860504,-4.207657007098353
1769238866624,124,-4,-1.294512088740731,-4.096913793066596,-3.8060300992608984
1769238866628,125,-3,-0.8576586780990361,-3.314926497946749,-3.364553587725791
1769238866632,125,-3,-0.4167038852578746,-2.9566490605756,-2.9180011853253887
1769238866636,126,-2,-0.0343726454552353,-2.457253511728726,-2.530087254847315
1769238866640,126,-2,0.2547436360916615,-1.9754162379178788,-2.2361460432245517
1769238866644,126,-2,0.4754221448886824,-2.3180161016369807,-2.0108823745557824
1769238866648,126,-2,0.685217281522124,-2.0506240110541634,-1.7958416306220737
1769238866652,127,-1,0.927037002758266,-1.176292959452795,-1.5481422048940496
1769238866656,127,-1,1.2174316678263477,-1.2802507743482674,-1.251943861350066
1769238866660,127,-1,1.572141172287686,-1.065630213336809,-0.8917322560209482
1769238866664,128,0,2.022485709009064,-0.2530766270539066,-0.4357936971470821
1769238866668,128,0,2.5956179334299225,-0.0508478399145497,0.1431344819558015
1769238866672,129,1,3.2781448893125766,0.8300255846964941,0.8311262642204955
1769238866676,130,2,3.9979693456425314,1.72218569608909,1.5556320178348255
1769238866680,130,2,4.641094624520257,1.9697682062211976,2.2030541671365924
1769238866684,131,3,5.096443299680281,2.719930872347182,2.6633389250510833
1769238866688,131,3,5.308617283516664,3.022695145104046,2.881751709944544
1769238866692,131,3,5.312909397115245,2.7612273017000217,2.8932153460732795
1769238866696,131,3,5.228366432566654,2.805569310077983,2.8156305295835686
1769238866700,131,3,5.203004515845835,2.924470536135134,2.796080150805882
1769238866704,131,3,5.335191463825255,2.7679540207989937,2.93309139179492
1769238866708,131,3,5.616494581244522,3.034895421719184,3.219248024154064
1769238866712,132,4,5.93851496078241,3.748674647073125,3.546833703544845
1769238866716,132,4,6.168188683190136,3.830862729534466,3.7825260978194337
1769238866720,132,4,6.23596781284521,3.945761548545492,3.8562990920639177
1769238866724,132,4,6.158571219622761,3.727847278799439,3.784954798270506
1769238866728,131,3,5.976293975209696,3.161851749774125,3.609020030359717
1769238866732,132,4,5.673612462135784,3.5724262226338865,3.312587156887804
1769238866736,131,3,5.168640482066385,3.0912238337625473,2.8131826876957384
1769238866740,130,2,4.3788848627420744,1.6556996002817046,2.028562078020771
1769238866744,129,1,3.2932621677786833,1.0748857659530209,0.9486147188025966
1769238866748,128,0,1.9877473780076185,-0.159962741410085,-0.3501544431215295
1769238866752,126,-2,0.5822830280577724,-2.129449288586068,-1.7483453236473316
1769238866756,125,-3,-0.8207204942546831,-3.1143728001736495,-3.14468424858609
1769238866760,124,-4,-2.171478735530938,-4.194272976496187,-4.490042799978747
1769238866764,122,-6,-3.464624901027599,-5.970908331365436,-5.778416326822401
1769238866768,121,-7,-4.707312535032916,-7.151442739430518,-7.015544730090182
1769238866772,120,-8,-5.889435467472025,-8.083443747272533,-8.190735512325512
1769238866776,119,-9,-6.964924128692017,-9.15900267516474,-9.258807520508745
1769238866780,118,-10,-7.853518107313381,-10.121526060697096,-10.140663484098557
1769238866784,117,-11,-8.47717262582654,-10.998741735571796,-10.758425710473505
1769238866788,117,-11,-8.815577741395469,-11.13382948256507,-11.091198099287642
1769238866792,117,-11,-8.929447531918509,-11.045141127289083,-11.199262809606273
1769238866796,117,-11,-8.919984685003183,-11.217152378213065,-11.183690331578134
1769238866800,117,-11,-8.85744934773712,-11.001258940616616,-11.114552853058786
1769238866804,117,-11,-8.744284543762598,-11.110446450135456,-10.994237471773914
1769238866808,117,-11,-8.541289885870668,-11.010749051204677,-10.784131545281571
1769238866812,118,-10,-8.225253449806022,-10.128806141078837,-10.461882369372862
1769238866816,118,-10,-7.827953712921401,-10.140598068592505,-10.059218775893113
1769238866820,118,-10,-7.432823015627651,-10.018190791214485,-9.658439430463511
1769238866824,119,-9,-7.132188919850028,-9.08795396782756,-9.351086405761198
1769238866828,119,-9,-6.96419683273923,-9.012991579442833,-9.175801006105882
1769238866832,119,-9,-6.874254582420136,-9.108601640519668,-9.07879678388485
1769238866836,119,-9,-6.750201861350116,-9.139048166596927,-8.947931992264591
1769238866840,119,-9,-6.518184471696381,-8.986110193786708,-8.709131757665043
1769238866844,120,-8,-6.211651467557331,-8.104930854887051,-8.396266359814117
1769238866848,120,-8,-5.94309259821444,-7.96030471341005,-8.122243505075783
1769238866852,120,-8,-5.808898740771631,-8.167838065067308,-7.982730523317411
1769238866856,120,-8,-5.819084187617144,-8.026508048295408,-7.986403925876509
1769238866860,120,-8,-5.900456206434687,-8.10609350443845,-8.059785078723154
1769238866864,120,-8,-5.947167955961663,-7.942703814998621,-8.098195204335003
1769238866868,120,-8,-5.873353020698175,-8.097850220092567,-8.01709773041932
1769238866872,120,-8,-5.646328983134373,-8.02928473172354,-7.784144575779114
1769238866876,121,-7,-5.294125347687488,-7.108624192049952,-7.426684997560649
1769238866880,121,-7,-4.886749384395678,-7.043424960498614,-7.013578891202312
1769238866884,121,-7,-4.503562512769026,-6.943749120757295,-6.623363283327617
1769238866888,122,-6,-4.203686939938253,-6.100325027271908,-6.315516164938205
1769238866892,122,-6,-4.007032554648409,-5.993689139765722,-6.111325604707596
1769238866896,122,-6,-3.894165393508616,-6.130263875197162,-5.992245433455744
1769238866900,122,-6,-3.835037685189744,-5.997271524167916,-5.9275298303622685
1769238866904,122,-6,-3.829513065200213,-5.963261395551735,-5.91560809279682
1769238866908,122,-6,-3.9134496594657144,-6.065418390434563,-5.991939632534606
1769238866912,122,-6,-4.108076637844693,-5.997441690224196,-6.178829225478525
1769238866916,122,-6,-4.357874882544215,-6.114910925971874,-6.42181000479997
1769238866920,121,-7,-4.53548945950446,-6.983041883908985,-6.59314280960274
1769238866924,121,-7,-4.533003701149086,-6.960329677906404,-6.58383463272998
1769238866928,122,-6,-4.356069894370119,-6.04483967585936,-6.399520147678167
1769238866932,122,-6,-4.1196502490603875,-5.990818744766876,-6.156165718858005
1769238866936,122,-6,-3.949672302247191,-6.101924117563874,-5.980080224465021
1769238866940,122,-6,-3.893690405181613,-5.966489489656362,-5.918043841893399
1769238866944,122,-6,-3.9170167940264817,-5.976925307764348,-5.934607150952098
1769238866948,122,-6,-3.962416779235855,-5.995504238386834,-5.972623325727649
1769238866952,122,-6,-4.002217275221657,-6.0197588219073115,-6.0049078412634085
1769238866956,122,-6,-4.039863929867921,-6.037066616838442,-6.035174076018159
1769238866960,122,-6,-4.07226703886257,-6.019071330400237,-6.060395986499069
1769238866964,122,-6,-4.058603665869866,-5.90486160815351,-6.0397873681648955
1769238866968,122,-6,-3.936341810737791,-6.055884037864416,-5.91079229049165
1769238866972,122,-6,-3.680572835656754,-5.920800777153036,-5.6484957601940025
1769238866976,123,-5,-3.3510318554086727,-5.115204707486543,-5.312742584405089
1769238866980,123,-5,-3.0707696286369166,-4.913837741173119,-5.026423352475579
1769238866984,123,-5,-2.944408352476786,-5.0058786370712225,-4.893389458232143
1769238866988,123,-5,-2.9830896434899965,-4.925438409667143,-4.924122101324918
1769238866992,123,-5,-3.0934223722929244,-5.038362338850113,-5.025777649021984
1769238866996,123,-5,-3.1339182994754116,-4.959084604345696,-5.058348880597999
1769238867000,123,-5,-3.0027914296590574,-5.051946696385011,-4.92091825914309
1769238867004,123,-5,-2.706570580583008,-4.852775617350586,-4.619417801944707
1769238867008,124,-4,-2.3614788545389898,-4.052738346714394,-4.268719258178594
1769238867012,124,-4,-2.1150587723230947,-3.89743283199557,-4.0154225822466145
1769238867016,124,-4,-2.039506631214603,-4.05790163035897,-3.9317780029216207
1769238867020,124,-4,-2.0802440255171817,-3.951009824553439,-3.9641953339654896
1769238867024,124,-4,-2.10108051374866,-3.916749864463121,-3.977664874711895
1769238867028,124,-4,-1.990442298812495,-4.005118905818948,-3.86090539235892
1769238867032,124,-4,-1.7463163625579452,-3.867715636231124,-3.6110842077834766
1769238867036,125,-3,-1.4683387957708636,-3.1171258246923657,-3.326873234109757
1769238867040,125,-3,-1.2542284156764243,-2.8021962590403526,-3.10567011154344
1769238867044,125,-3,-1.0875745213493295,-3.1273093512349845,-2.931177514527024
1769238867048,125,-3,-0.8278059135170848,-2.707715191691852,-2.663082797429623
1769238867052,126,-2,-0.3256445140858695,-2.2010388890368233,-2.1527702849944177
1769238867056,126,-2,0.4315301690155175,-1.703910831843375,-1.388701406853961
1769238867060,128,0,1.2695358464254354,-0.2253648831704235,-0.5456416595727485
1769238867064,128,0,1.913344686332617,0.3362663728732389,0.1023372127546231
1769238867068,128,0,2.138832217793994,-0.174887250123097,0.3331712957498339
1769238867072,128,0,1.8846146542326496,0.2862775545569684,0.086732179991674
1769238867076,128,0,1.268984081346081,-0.1428044889243247,-0.5193960855123563
1769238867080,126,-2,0.519242502995394,-1.8101984285887136,-1.2597483239289229
1769238867084,126,-2,-0.1440403128095706,-1.982628901855754,-1.915315077437323
1769238867088,126,-2,-0.6040557142312664,-1.9313315955155723,-2.3697609211220088
1769238867092,125,-3,-0.8740484490072373,-2.8417011193499433,-2.635342881727966
1769238867096,125,-3,-1.0539746240312655,-3.0722818624934356,-2.810156361855208
1769238867100,125,-3,-1.255505847685483,-2.7764676307331615,-3.00481239721551
1769238867104,125,-3,-1.5314147067964097,-3.0697546068585955,-3.2726668077333874
1769238867108,124,-4,-1.844452526812788,-3.778807987657591,-3.5776928333007865
1769238867112,124,-4,-2.102428727186749,-4.002991069206779,-3.8284146010428377
1769238867116,124,-4,-2.2360095738455077,-3.8736980582595857,-3.9556508378701594
1769238867120,124,-4,-2.250877093959808,-3.9387867740608336,-3.964797971963089
1769238867124,124,-4,-2.212261842888478,-3.914225727861178,-3.9201845234565793
1769238867128,124,-4,-2.186688525707866,-3.8836356530295,-3.887299967595473
1769238867132,124,-4,-2.1960218096233177,-3.918201899862427,-3.888152051538155
1769238867136,124,-4,-2.2157982504393208,-3.897392697001301,-3.900166003083215
1769238867140,124,-4,-2.211059624577695,-3.9175821174824863,-3.8905277248698567
1769238867144,124,-4,-2.1786661561639407,-3.8967542700373103,-3.8558643104351207
1769238867148,124,-4,-2.1611059855116856,-3.893005401531461,-3.834973471017475
1769238867152,124,-4,-2.212355076643288,-3.891507734357339,-3.877138583319194
1769238867156,124,-4,-2.331275965513731,-3.891370571176741,-3.9803468167257345
1769238867160,124,-4,-2.4197562512452175,-3.9085277767786746,-4.052322555148978
1769238867164,124,-4,-2.334620685911708,-3.8755747513733194,-3.9594303608611217
1769238867168,124,-4,-2.042723284877448,-3.903876073077057,-3.6736911672890007
1769238867172,124,-4,-1.764348195288903,-3.864812452580036,-3.4096206554087916
1769238867176,124,-4,-1.897931268484013,-3.8787403233328432,-3.5510165992597056
1769238867180,124,-4,-2.602564675261082,-3.922821707644982,-4.24428550087264
1769238867184,124,-4,-3.2162716870505292,-3.802323380088162,-4.827646792809658
1769238867188,125,-3,-2.0130073986933525,-3.007536412655506,-3.5891682171143127
1769238867192,129,1,3.208062609975821,1.3091028847312742,1.654225704955801
1769238867196,139,11,13.738493359201598,10.938079458653746,12.185224852972471
1769238867200,153,25,28.577259738956165,25.34533408414363,27.00712375854117
1769238867204,171,43,44.161204841229,42.93522333687515,42.568922270042975
1769238867208,184,56,55.730718424654754,56.29284632064298,54.12356686375908
1769238867212,187,59,59.65203859190588,58.97084971506169,58.04630054351631
1769238867216,181,53,55.196955157291555,53.220816582870185,53.61182920134512
1769238867220,170,42,44.62814932061198,42.08155529498088,43.07661409922535
1769238867224,157,29,31.687994533246037,29.151125016132735,30.16857124391988
1769238867228,146,18,19.65295623295124,18.27098059187773,18.149775062765773
1769238867232,137,9,10.180504937455222,8.970646366930467,8.673443497794839
1769238867236,130,2,3.3792751646268444,2.335753143755399,1.8567046049198
1769238867240,126,-2,-1.3602790274751166,-2.099062491438774,-2.8955549501902738
1769238867244,121,-7,-4.583227449221082,-6.657125107552298,-6.117946175782292
1769238867248,119,-9,-6.5349223387292135,-8.853946749859004,-8.055372604799867
1769238867252,119,-9,-7.38332235928621,-8.899922700808366,-8.884466892866648
1769238867256,119,-9,-7.460972940727155,-8.714419109675323,-8.948541111401155
1769238867260,120,-8,-7.226516059141542,-8.14073927689187,-8.71063753415593
1769238867264,119,-9,-7.031396268331277,-8.524773176919002,-8.517287533224454
1769238867268,119,-9,-6.972187194836067,-9.04647314155072,-8.45639036399155
1769238867272,119,-9,-6.957774465227006,-8.581501437360547,-8.433147314570718
1769238867276,120,-8,-6.870291818821947,-8.070449321490756,-8.33395077266386
1769238867280,120,-8,-6.6501663196224605,-7.763495128423897,-8.105796441407904
1769238867284,120,-8,-6.287574982889646,-7.869142977738436,-7.740397801793491
1769238867288,120,-8,-5.811493373997075,-7.7303907898881,-7.262523176242764
1769238867292,121,-7,-5.3045524930734915,-6.778172282331453,-6.750589772921705
1769238867296,122,-6,-4.876628277044277,-5.946650262431046,-6.314776181025759
1769238867300,122,-6,-4.57158551140177,-5.789992282168551,-6.002139146971983
1769238867304,122,-6,-4.301011285798274,-5.906602272887473,-5.7258810011768935
1769238867308,122,-6,-3.905413740987039,-5.6154852850905534,-5.325224398691619
1769238867312,123,-5,-3.3026669815576586,-4.8891996742909,-4.716495074734498
1769238867316,124,-4,-2.571173045922306,-3.810284351237629,-3.9786183873962218
1769238867320,125,-3,-1.878541462807752,-2.88322730598244,-3.2807688407812
1769238867324,125,-3,-1.3342314898206349,-2.84988070090749,-2.7324476000084204
1769238867328,125,-3,-0.9197416513332356,-2.5946553448870544,-2.313301670713818
1769238867332,126,-2,-0.5514688025478809,-1.950114823538766,-1.9383340148503556
1769238867336,126,-2,-0.1848362342258378,-1.6645702465735843,-1.5639855747966855
1769238867340,127,-1,0.1584374623730697,-1.0540525444459714,-1.214412643821697
1769238867344,127,-1,0.4527152054400758,-0.6285540227894557,-0.9162097863022068
1769238867348,127,-1,0.7292971647247235,-0.8192796593684684,-0.6361518934810282
1769238867352,127,-1,1.0581940694091625,-0.7065242413561796,-0.3015490272371425
1769238867356,128,0,1.4804984430326047,0.1355034729237705,0.1287010952740659
1769238867360,129,1,1.9824622265291667,1.1360894629776763,0.6379623131156988
1769238867364,129,1,2.5339394472648973,1.2487936856599129,1.193899519034559
1769238867368,129,1,3.116805672965726,1.2678565734543663,1.779553406199431
1769238867372,130,2,3.693759148209451,2.2673851118907344,2.360423107707764
1769238867376,131,3,4.176242229275836,3.140193694897564,2.849070865113311
1769238867380,131,3,4.468540970968515,3.1938993951531445,3.1485841946675364
1769238867384,131,3,4.560553010798431,3.192565764656867,3.2472098346301257
1769238867388,131,3,4.564502418527067,3.353768140389069,3.2565723595387692
1769238867392,131,3,4.640773117887488,3.172067456346511,3.337495103999941
1769238867396,131,3,4.869989401581978,3.273259386504656,3.571277786537107
1769238867400,132,4,5.18667324669727,4.081955628586644,3.8926943896792543
1769238867404,132,4,5.441151241007246,4.347579881700107,4.151985017460565
1769238867408,132,4,5.539479676871821,4.19499816353072,4.255385447559937
1769238867412,132,4,5.534211118722817,4.345523789092781,4.2560089022450995
1769238867416,132,4,5.5818558415090775,4.11215897015816,4.310525019995661
1769238867420,132,4,5.804927434542332,4.272124544823533,4.540453307551899
1769238867424,133,5,6.1785809493672605,5.206247225314369,4.919309995015422
1769238867428,133,5,6.530777648123347,5.330329995199412,5.2744646122118946
1769238867432,133,5,6.640595602368649,5.233379829602754,5.386525802465492
1769238867436,133,5,6.3492367635986575,5.22372146058234,5.099230476092506
1769238867440,132,4,5.617340904413097,4.197266806326646,4.374338090694924
1769238867444,131,3,4.521205600913279,3.3027256764054846,3.286664564599602
1769238867448,130,2,3.209864145211492,2.2660310579682927,1.9824702976708393
1769238867452,128,0,1.8397999892463588,0.2850484152725738,0.6166516623402298
1769238867456,127,-1,0.5048081298681466,-0.794181592854589,-0.7161058481018916
1769238867460,126,-2,-0.8017326213221447,-1.76758386993634,-2.0199205762775225
1769238867464,124,-4,-2.153937391996979,-3.695222789781077,-3.366942753352628
1769238867468,123,-5,-3.5961921227719724,-4.717885645087294,-4.801864372847912
1769238867472,122,-6,-5.047993611421709,-5.724358972768444,-6.2464144934690475
1769238867476,120,-8,-6.300477487612034,-7.777395822205152,-7.493531659947816
1769238867480,119,-9,-7.140933209048606,-8.754097321146066,-8.33016762777777
1769238867484,119,-9,-7.5224561365483105,-8.665799207380552,-8.707876686573726
1769238867488,119,-9,-7.621154460716498,-8.751049169425736,-8.801999179686527
1769238867492,119,-9,-7.706014780656645,-8.645422356676566,-8.881921454481564
1769238867496,119,-9,-7.926543151931687,-8.884876768675223,-9.097543816911594
1769238867500,118,-10,-8.21044007410718,-9.589679070390371,-9.376182872950638
1769238867504,118,-10,-8.361802544960163,-9.835197602429549,-9.521482590402693
1769238867508,118,-10,-8.260346447837298,-9.537342687289971,-9.41377028770775
1769238867512,119,-9,-7.97251249662185,-8.860107433168508,-9.120889153906871
1769238867516,119,-9,-7.682506382955643,-8.638178630248397,-8.827547359714064
1769238867520,119,-9,-7.527939458627463,-8.822485544203435,-8.67001768081771
1769238867524,119,-9,-7.498201658186351,-8.587696490937061,-8.635740655967295
1769238867528,119,-9,-7.469551292751743,-8.753095863100643,-8.60047138407736
1769238867532,119,-9,-7.31945130570796,-8.659972367908253,-8.443172529887617
1769238867536,120,-8,-7.012186712492633,-7.766980266243951,-8.130105480391036
1769238867540,120,-8,-6.601882791444034,-7.722207412892637,-7.715903804823452
1769238867544,120,-8,-6.181923388316802,-7.619887269872291,-7.2927738178051325
1769238867548,121,-7,-5.835836962802554,-6.75018051126458,-6.9429353599024175
1769238867552,121,-7,-5.61227318465735,-6.619106208145738,-6.714715845129087
1769238867556,121,-7,-5.51940893085926,-6.802951581718162,-6.616494981296801
1769238867560,121,-7,-5.5328062657670305,-6.650508152258242,-6.623965281512058
1769238867564,121,-7,-5.6070836286083425,-6.673943516495446,-6.692146051456609
1769238867568,121,-7,-5.679719986090515,-6.70015082729352,-6.759377367638872
1769238867572,121,-7,-5.6754392254513535,-6.623076918885791,-6.750846502795982
1769238867576,121,-7,-5.534580366578242,-6.810036179427511,-6.606218775761623
1769238867580,121,-7,-5.260523727970822,-6.581398038277842,-6.327789880185216
1769238867584,122,-6,-4.937598302445767,-5.758704942439629,-5.9997158888878
1769238867588,122,-6,-4.682185603413142,-5.581513418581733,-5.739137036425876
1769238867592,122,-6,-4.561023284609496,-5.735730744787332,-5.6132988148661145
1769238867596,122,-6,-4.553731164022947,-5.670087802521454,-5.601531242085421
1769238867600,122,-6,-4.5905394939238935,-5.699558399940079,-5.633596758282153
1769238867604,122,-6,-4.618808377858472,-5.6352076408302585,-5.656756473018971
1769238867608,122,-6,-4.6335767116145465,-5.667868681318688,-5.666172704547848
1769238867612,122,-6,-4.654223259892875,-5.659778468578786,-5.681414836555916
1769238867616,122,-6,-4.6811503613148515,-5.681752102729609,-5.703304758440531
1769238867620,122,-6,-4.6792075900237,-5.7226110437400965,-5.697166672046369
1769238867624,122,-6,-4.608063782934505,-5.539948005108637,-5.622490273084299
1769238867628,122,-6,-4.47566759379627,-5.799976676124671,-5.486209907588506
1769238867632,122,-6,-4.3587407749994505,-5.46446481163652,-5.364227660228557
1769238867636,123,-5,-4.349662875332296,-4.878459172109338,-5.34928097920062
1769238867640,122,-6,-4.461567877614013,-5.506903460226461,-5.455519028270803
1769238867644,122,-6,-4.587481879483288,-5.723233752260659,-5.576440080288046
1769238867648,122,-6,-4.574142187410202,-5.633673640135113,-5.5585717297701205
1769238867652,122,-6,-4.3543864108652315,-5.572837317171032,-5.334602992017711
1769238867656,123,-5,-4.0135698733081835,-4.786196530615322,-4.98995787181463
1769238867660,123,-5,-3.725072164656357,-4.533727680180826,-4.697688613932738
1769238867664,123,-5,-3.612287356618161,-4.720128830633597,-4.580363816661282
1769238867668,123,-5,-3.655136014932331,-4.603916543735163,-4.617501283734073
1769238867672,123,-5,-3.711597324836312,-4.594031535812145,-4.667781504618953
1769238867676,123,-5,-3.6299874530009086,-4.753590983858384,-4.5807185299342255
1769238867680,123,-5,-3.3651225000947287,-4.5074798866628285,-4.31174851201478
1769238867684,124,-4,-3.0119658135802148,-3.7670082606512056,-3.9555059332029257
1769238867688,124,-4,-2.7309850261553192,-3.5165816775308145,-3.671446188995288
1769238867692,124,-4,-2.625268051046492,-3.684663047817766,-3.5615182541467836
1769238867696,124,-4,-2.6676100440592045,-3.641996471328168,-3.598086665838393
1769238867700,124,-4,-2.727746451897893,-3.5756389509807933,-3.6516918983586666
1769238867704,124,-4,-2.6678240034311167,-3.7162889077319656,-3.58599465992093
1769238867708,124,-4,-2.4316611294370434,-3.515465801788838,-3.345838472574445
1769238867712,125,-3,-2.068503974463577,-2.702960427229808,-2.9801514094099044
1769238867716,125,-3,-1.6832510572196857,-2.578061086946531,-2.592282775930794
1769238867720,125,-3,-1.3560471636352809,-2.622964234825666,-2.2608017500274697
1769238867724,126,-2,-1.0861017482633,-1.6698303821154576,-1.9847489394685016
1769238867728,126,-2,-0.7898789171251619,-1.5179480935032192,-1.681915724464159
1769238867732,126,-2,-0.3565359763320614,-1.7307747281266677,-1.2429648356641168
1769238867736,127,-1,0.2641734750523183,-0.4755728312870017,-0.6182522228921262
1769238867740,128,0,0.9980563263269429,0.2635074233683235,0.1184142489279591
1769238867744,128,0,1.6598126577625822,0.4596176417884055,0.7827248640042788
1769238867748,129,1,2.0429430427101973,1.3990222876005327,1.1692152981135149
1769238867752,129,1,2.030278418426369,1.303240176272875,1.1612356718086196
1769238867756,128,0,1.6546290836169708,0.5857174543487103,0.7913803381281196
1769238867760,128,0,1.0712669962454275,0.1532949045035392,0.2140616545922554
1769238867764,127,-1,0.465392487796856,-0.3631285245743891,-0.3866062649679593
1769238867768,127,-1,-0.040156120880312,-0.7907470562852237,-0.8882605377356845
1769238867772,126,-2,-0.4250937214752175,-1.485971127526148,-1.2700177900295786
1769238867776,126,-2,-0.750099971389899,-1.5805289751653002,-1.5916096440220362
1769238867780,126,-2,-1.095158906844796,-1.701387596449786,-1.9327291866939516
1769238867784,125,-3,-1.4986388813591018,-2.445202693709391,-2.332009616568127
1769238867788,125,-3,-1.9408055297399032,-2.7492589712371807,-2.769805049440569
1769238867792,124,-4,-2.379908231323167,-3.4573996520305954,-3.2043220327094573
1769238867796,124,-4,-2.7950626810135044,-3.6364888349386666,-3.615078980588266
1769238867800,124,-4,-3.183685544242736,-3.5859604396857856,-3.9999922607620864
1769238867804,123,-5,-3.520596444454876,-4.567349648369982,-4.33336625492198
1769238867808,123,-5,-3.73814974170639,-4.612703321847147,-4.546171559480336
1769238867812,123,-5,-3.7612185298266234,-4.557019517556318,-4.562997646075692
1769238867816,123,-5,-3.5628440349124864,-4.559749214899777,-4.359006406257381
1769238867820,124,-4,-3.186780030514214,-3.587703597259326,-3.9807123879515465
1769238867824,124,-4,-2.728390407733955,-3.5912073248273124,-3.523365843234292
1769238867828,124,-4,-2.303350406740965,-3.5520753909628073,-3.0984869715951047
1769238867832,125,-3,-2.014810443530846,-2.6146124373202486,-2.8042590486831287
1769238867836,125,-3,-1.9031356648596145,-2.491747606124763,-2.680178806193874
1769238867840,125,-3,-1.8973602070987672,-2.61915337702736,-2.660579539049688
1769238867844,125,-3,-1.8424042804092824,-2.545427084018794,-2.598975207606128
1769238867848,125,-3,-1.6406102781775171,-2.589386189127353,-2.4031371667263244
1769238867852,125,-3,-1.4115800466353154,-2.565843032397286,-2.1890924618376313
1769238867856,125,-3,-1.4699426917235126,-2.5227791248363545,-2.2590526247335863
1769238867860,125,-3,-1.9881835062401003,-2.5573892664135283,-2.7724337566420982
1769238867864,125,-3,-2.4728518175044334,-2.5908262796822727,-3.23300684519349
1769238867868,126,-2,-1.4758450018590556,-1.531435118185211,-2.2041751225202013
1769238867872,130,2,2.996241842330152,2.3788057223497834,2.2895606168011113
1769238867876,138,10,12.307281340767291,10.571758465473463,11.601241768875202
1769238867880,151,23,25.853977393584127,23.389741779754168,25.130553657348727
1769238867884,167,39,40.586448694369146,39.49187270818445,39.83951486874167
1769238867888,181,53,52.04999111078334,53.405650485106854,51.28546861114423
1769238867892,185,57,56.53323129693639,57.39465973027843,55.765345419375976
1769238867896,179,51,52.95165071001789,51.543956854264664,52.198364345195536
1769238867900,169,41,43.19798144155499,41.36607604112618,42.47342761978551
1769238867904,157,29,30.840358982521828,29.551064115422328,30.145781544687573
1769238867908,146,18,19.205810403200605,18.39272576583876,18.52730347028671
1769238867912,137,9,10.098267035004016,9.517649335372504,9.415655673081636
1769238867916,131,3,3.701204806242312,3.4369732574893,3.0012116101742765
1769238867920,127,-1,-0.6648326287057049,-0.5214719434345145,-1.3815035915883742
1769238867924,123,-5,-3.6895137805200737,-4.587594009658753,-4.410864220153832
1769238867928,120,-8,-5.70108824481686,-7.440437118577825,-6.412874511758971
1769238867932,120,-8,-6.811325667526739,-7.595016715399526,-7.506396868668432
1769238867936,120,-8,-7.193647378604059,-7.4371743985186765,-7.875603029922546
1769238867940,120,-8,-7.145434200244365,-7.651534800793926,-7.824040796285054
1769238867944,120,-8,-6.934233376530469,-7.472088364537152,-7.616601519860027
1769238867948,120,-8,-6.6642351303299465,-7.527911494612232,-7.349542801630156
1769238867952,120,-8,-6.314652513980218,-7.484774436279084,-6.996653773880762
1769238867956,121,-7,-5.873329000990309,-6.496934120427742,-6.547461738303109
1769238867960,122,-6,-5.398476317634421,-5.621263217759119,-6.066237276557373
1769238867964,122,-6,-4.962156406987175,-5.479245937761479,-5.628537638598874
1769238867968,122,-6,-4.583780073173644,-5.516706838439021,-5.251167366580038
1769238867972,122,-6,-4.250007148201325,-5.4606765358540175,-4.915797887955216
1769238867976,123,-5,-3.971145917053728,-4.490832955725664,-4.631487575624926
1769238867980,124,-4,-3.765393517114096,-3.641440944070453,-4.419774002905813
1769238867984,123,-5,-3.5831420494302377,-4.423804689778295,-4.23422732387324
1769238867988,123,-5,-3.298851881178247,-4.594263722941976,-3.948877874460721
1769238867992,124,-4,-2.8199676589286975,-3.3114077568569664,-3.468787869366041
1769238867996,125,-3,-2.1968269824021105,-2.669179990133336,-2.843039369946558
1769238868000,125,-3,-1.6007310602665867,-2.408055831020998,-2.243374072901212
1769238868004,126,-2,-1.182188025792266,-1.6707875212648702,-1.8213051350111693
1769238868008,126,-2,-0.9415302873737053,-1.3328453368773865,-1.5777790048759122
1769238868012,126,-2,-0.7299716826285185,-1.5437875733116682,-1.3637403300856132
1769238868016,126,-2,-0.3852990067662567,-1.444223988104953,-1.0161817076596285
1769238868020,127,-1,0.1178571202752518,-0.57319904510217,-0.509680427350995
1769238868024,128,0,0.6488318721958533,0.4519868592033474,0.024036175903577
1769238868028,128,0,1.0541215969550617,0.628674282105129,0.4308576404480543
1769238868032,128,0,1.3055165042082302,0.4276732140526815,0.683703861295855
1769238868036,128,0,1.516080930797154,0.6882851475404281,0.8972268934702707
1769238868040,129,1,1.826217322244024,1.2127977776251535,1.2116824745201118
1769238868044,129,1,2.288039323527102,1.7695711358232369,1.67736529368051
1769238868048,130,2,2.848571667452149,2.265135028694358,2.2400267767364563
1769238868052,130,2,3.4167600853942544,2.8509068042745387,2.809280420674761
1769238868056,131,3,3.933513959214891,3.262100150981076,3.3276303389677127
1769238868060,131,3,4.390958740440757,3.6238089207222464,3.787852616161058
1769238868064,132,4,4.807702344018665,4.426793883438333,4.207861373612554
1769238868068,132,4,5.195191783792527,4.563512361005475,4.598278788661722
1769238868072,132,4,5.540070952835541,4.643413833930144,4.945660471991868
1769238868076,133,5,5.812445767873827,5.411004203912488,5.220271135821055
1769238868080,133,5,5.997901583545749,5.53258741447235,5.407621331827337
1769238868084,133,5,6.127140287317786,5.501719336529423,5.538658317733468
1769238868088,133,5,6.2657478950899925,5.532891242372022,5.6798115918230545
1769238868092,133,5,6.464636373733301,5.682931166729857,5.8823421933568465
1769238868096,134,6,6.721598844377389,6.375900220263042,6.142963668846367
1769238868100,134,6,6.991442622755605,6.583245297380079,6.415015282027423
1769238868104,134,6,7.217409406697901,6.468519864747343,6.6417549222389125
1769238868108,134,6,7.334074584606606,6.581342266875429,6.759313821036969
1769238868112,134,6,7.247035238055052,6.664882800228616,6.674485467343963
1769238868116,134,6,6.844302575901642,6.368873381805072,6.274861535829549
1769238868120,133,5,6.059509990483962,5.638270085807851,5.492965573549972
1769238868124,132,4,4.930940008127685,4.404418563910537,4.366850758760636
1769238868128,130,2,3.587384161110585,2.6777058413818384,3.025925171325327
1769238868132,129,1,2.16587841186705,1.584512805953577,1.6072854533507082
1769238868136,128,0,0.7388009768869153,0.4308964104772523,0.182380097788799
1769238868140,126,-2,-0.6886364774353715,-1.3596693081671225,-1.244099367608916
1769238868144,125,-3,-2.127276442792656,-2.6347606366510448,-2.6819432178600184
1769238868148,123,-5,-3.556830453132781,-4.199460991168374,-4.109245687400637
1769238868152,122,-6,-4.91215034459039,-5.602324573274333,-5.46069664723312
1769238868156,121,-7,-6.094842153465538,-6.315426888508252,-6.639533744246336
1769238868160,120,-8,-7.002001107353692,-7.622297763873214,-7.5444025062124895
1769238868164,119,-9,-7.574807730585478,-8.360676865620462,-8.11626984162714
1769238868168,119,-9,-7.848084348894235,-8.400448828038833,-8.388549609100474
1769238868172,119,-9,-7.950809968096992,-8.499688426601368,-8.48937643737165
1769238868176,119,-9,-8.032456251275244,-8.277229824441333,-8.568518282063183
1769238868180,119,-9,-8.165898296366521,-8.776855072908555,-8.699409686220228
1769238868184,118,-10,-8.313504700352818,-9.064973641389274,-8.844542219028723
1769238868188,119,-9,-8.385921887577945,-8.779072738667526,-8.914489928698844
1769238868192,118,-10,-8.334669341748793,-9.06281510997256,-8.860902365653198
1769238868196,119,-9,-8.193909070864159,-8.7138310176595,-8.718176997937716
1769238868200,119,-9,-8.040466711147408,-8.334760418693351,-8.563095944876395
1769238868204,119,-9,-7.916918988952042,-8.44508322935466,-8.437740408675966
1769238868208,119,-9,-7.793185014238507,-8.455041052448557,-8.311530568812106
1769238868212,119,-9,-7.599893880030556,-8.3115667270292,-8.115347091124875
1769238868216,120,-8,-7.295269903867059,-7.525337008024008,-7.808286406418425
1769238868220,120,-8,-6.904452876685002,-7.42696917763504,-7.41580681431908
1769238868224,120,-8,-6.508053314442086,-7.391471132320699,-7.017846834066337
1769238868228,121,-7,-6.194508506996706,-6.4596142704332555,-6.7023006697546155
1769238868232,121,-7,-6.002487171499658,-6.336305876247541,-6.50815801105391
1769238868236,121,-7,-5.891008253437601,-6.472092305623156,-6.39467999114927
1769238868240,121,-7,-5.771548971662687,-6.4580213842885446,-6.272769133829889
1769238868244,121,-7,-5.5823492301740085,-6.33665281617246,-6.080358109977139
1769238868248,122,-6,-5.330015832431086,-5.524558456390608,-5.82506975309768
1769238868252,122,-6,-5.056165857387396,-5.239737110704942,-5.549670488157499
1769238868256,122,-6,-4.780601709288767,-5.589395356078089,-5.273393137375193
1769238868260,122,-6,-4.497735310159047,-5.278302391186499,-4.988939576768751
1769238868264,123,-5,-4.220492280629694,-4.532925306243995,-4.708730022061431
1769238868268,123,-5,-3.9978780197004866,-4.3116751352353395,-4.483045385754796
1769238868272,123,-5,-3.87608783849834,-4.435084685776785,-4.359235505014892
1769238868276,123,-5,-3.8540388399064818,-4.401580000202593,-4.335807078986002
1769238868280,123,-5,-3.886230886483311,-4.413518699419473,-4.366072239480755
1769238868284,123,-5,-3.9226534253576713,-4.425828122905917,-4.3995891243105145
1769238868288,123,-5,-3.9394779560354025,-4.372336984853985,-4.413219265528182
1769238868292,123,-5,-3.937376700883409,-4.39352681056485,-4.4086176663494365
1769238868296,123,-5,-3.923360641883528,-4.404525259994152,-4.393153380836245
1769238868300,123,-5,-3.9026161923234897,-4.407784987390965,-4.371483719406469
1769238868304,123,-5,-3.8859449126914742,-4.415975044506925,-4.35341656357095
1769238868308,123,-5,-3.89416844348834,-4.3751927471686285,-4.359077455360945
1769238868312,123,-5,-3.940908815681901,-4.376044507470155,-4.402282080010315
1769238868316,123,-5,-4.001647570825963,-4.411932083977845,-4.459497829926913
1769238868320,123,-5,-4.003878316032891,-4.3730921451833185,-4.4591586805089
1769238868324,123,-5,-3.867207833025186,-4.459859524537222,-4.320962670582128
1769238868328,123,-5,-3.575917194609309,-4.296738734487891,-4.0285243374805155
1769238868332,124,-4,-3.2197520467206933,-3.4750528308771926,-3.670898373988305
1769238868336,124,-4,-2.951093946447371,-3.2543790328393967,-3.400168658936519
1769238868340,124,-4,-2.881090463892029,-3.5611114948788876,-3.3275173012575108
1769238868344,124,-4,-2.9981410784332563,-3.2208356184611997,-3.4416129400446267
1769238868348,124,-4,-3.1763168363556793,-3.5662041284761408,-3.6168660338744583
1769238868352,123,-5,-3.2689987902611564,-4.1758386916897425,-3.7068408799055304
1769238868356,124,-4,-3.214730264236045,-3.5313062907258916,-3.650178949570096
1769238868360,124,-4,-3.0695310721551903,-3.279591156384331,-3.5030279566063967
1769238868364,124,-4,-2.943093935705217,-3.4752231035134233,-3.374999234064001
1769238868368,124,-4,-2.90259907664893,-3.3255667543853686,-3.332893766863177
1769238868372,124,-4,-2.9273608993009033,-3.39200295919629,-3.3556891452133084
1769238868376,124,-4,-2.939246193688345,-3.3171225493747727,-3.365091335406034
1769238868380,124,-4,-2.8687941274172353,-3.4497250446318217,-3.2915594734762808
1769238868384,124,-4,-2.6957706499633582,-3.3239010238361706,-3.115168859320471
1769238868388,125,-3,-2.4296596677226825,-2.4380014170182873,-2.8462553296381454
1769238868392,125,-3,-2.057241066036789,-2.3057356371466184,-2.472039643919273
1769238868396,125,-3,-1.5305457461930836,-2.353607412604732,-1.943723350495542
1769238868400,126,-2,-0.829402457054417,-1.4268408727760429,-1.2400920387500023
1769238868404,127,-1,-0.0340356930925496,-0.3070088709747831,-0.4417808498380861
1769238868408,128,0,0.6846512368555495,0.5187898531427443,0.2789922450873382
1769238868412,128,0,1.1568022298376217,0.7812963076079008,0.7522940173747358
1769238868416,128,0,1.296635169476203,0.5506844811423813,0.8938131578499721
1769238868420,128,0,1.1135928555498709,0.6817343836195148,0.7139016530728268
1769238868424,128,0,0.6764846074600941,0.6124653361979251,0.2804732707628685
1769238868428,127,-1,0.0798751521006275,-0.4352121549860506,-0.3131974302997573
1769238868432,126,-2,-0.5793567323550524,-1.1828169773900727,-0.970276702280998
1769238868436,126,-2,-1.2247966552674765,-1.54394311638245,-1.6136276330366837
1769238868440,125,-3,-1.810262874135149,-2.1495045323897077,-2.196864792059231
1769238868444,125,-3,-2.3058649893104475,-2.599190861531356,-2.6903603548036714
1769238868448,124,-4,-2.6819002671021366,-3.174351208437771,-3.064268205074443
1769238868452,124,-4,-2.916512008572436,-3.4443641155787357,-3.2962133442099777
1769238868456,124,-4,-3.0171061986581145,-3.278406248196402,-3.393588316424051
1769238868460,124,-4,-3.024036966917678,-3.3821866143545334,-3.3975309874520563
1769238868464,124,-4,-2.9886109626787745,-3.395437724251904,-3.360159268170891
1769238868468,124,-4,-2.949084050224545,-3.315390573150996,-3.319641449735435
1769238868472,124,-4,-2.926004119967665,-3.3432896885800276,-3.2953538856876703
1769238868476,124,-4,-2.931643059146585,-3.326655326526267,-3.298093257957514
1769238868480,124,-4,-2.972733217277193,-3.3579537920647904,-3.334247405778128
1769238868484,124,-4,-3.036250621848375,-3.385838760284907,-3.3925987343683346
1769238868488,124,-4,-3.0734826587447373,-3.327333448076588,-3.42746158574378
1769238868492,124,-4,-3.013889751796019,-3.3033574086134285,-3.369524830260616
1769238868496,124,-4,-2.821717900245168,-3.3846139842931833,-3.1800601770053265
1769238868500,124,-4,-2.5542425806116396,-3.2483546406939707,-2.910778639342944
1769238868504,125,-3,-2.3443650421247377,-2.5455438255123632,-2.691696520110484
1769238868508,125,-3,-2.2852576112682375,-2.074582847796034,-2.6197914600497128
1769238868512,125,-3,-2.3211480954445936,-2.6335267167627356,-2.6480687600131407
1769238868516,124,-4,-2.294536289091327,-2.9594619669098305,-2.626015656608939
1769238868520,125,-3,-2.152172182093537,-2.748766614525739,-2.498850575963506
1769238868524,124,-4,-2.0852399155036196,-2.9748591360740853,-2.4466307872298914
1769238868528,125,-3,-2.3350064477700587,-2.659444156461106,-2.696803779546088
1769238868532,125,-3,-2.6604922058303537,-2.0237789094287573,-3.0027822201199625
1769238868536,126,-2,-1.8719660260510975,-1.5420572402429995,-2.1834424706719933
1769238868540,129,1,1.988081370160705,1.779533442101279,1.701038419450228
1769238868544,137,9,10.573510007657468,9.600019990374662,10.290641027839415
1769238868548,149,21,23.76657588909547,21.690603478588628,23.46717551896924
1769238868552,165,37,38.88032440214983,37.78108342929265,38.555055739147434
1769238868556,180,52,51.40172218236928,52.55239650081488,51.05511848292201
1769238868560,186,58,57.11387415663328,58.7483807450334,56.759879760438416
1769238868564,182,54,54.29983513363929,54.5105880975291,53.95617251049192
1769238868568,170,42,44.52184822486285,42.79195937358243,44.20388677638915
1769238868572,157,29,31.49846025902395,29.64036330556664,31.21130253023692
1769238868576,146,18,19.003457504657582,18.77778719621748,18.73687457745007
1769238868580,137,9,9.260034143989012,9.58991482671272,8.993456747507059
1769238868584,130,2,2.652640678358246,2.7210009343476633,2.3686857585530694
1769238868588,126,-2,-1.5141521131580813,-1.4158214488809715,-1.818763844504452
1769238868592,123,-5,-4.069642530202864,-4.211292329164575,-4.384260294472011
1769238868596,121,-7,-5.514463304513958,-6.333339943264762,-5.823586700265247
1769238868600,120,-8,-6.119330755363953,-7.286615614551097,-6.412829128571344
1769238868604,121,-7,-6.196740665479071,-6.340290774372769,-6.475219970429478
1769238868608,122,-6,-6.142458351157673,-5.396670717601638,-6.4150872999872846
1769238868612,121,-7,-6.217361312861372,-6.241808895705156,-6.493467490818067
1769238868616,120,-8,-6.37889859473914,-7.310120642700475,-6.660047604835986
1769238868620,120,-8,-6.399025826120827,-7.26934642330617,-6.679094240938762
1769238868624,121,-7,-6.142496615878805,-6.3246720878215665,-6.41535343849278
1769238868628,122,-6,-5.695013206631596,-5.421941316883376,-5.961038068823758
1769238868632,122,-6,-5.2337980011055265,-5.21362769673524,-5.498310199854642
1769238868636,122,-6,-4.835155850584622,-5.3508404825554265,-5.10162079483316
1769238868640,122,-6,-4.445300890955485,-5.199848080390641,-4.711708663902012
1769238868644,123,-5,-4.0079728902961085,-4.36611824030939,-4.26999606883161
1769238868648,124,-4,-3.560608181026279,-3.3990229262610177,-3.8168441179765247
1769238868652,124,-4,-3.185082749643988,-3.1931452384513532,-3.438034279513028
1769238868656,124,-4,-2.89755528814076,-3.4269458587297055,-3.1500285609978325
1769238868660,124,-4,-2.624420995096697,-3.049624566587068,-2.876349847907346
1769238868664,125,-3,-2.285415848161127,-2.551338472283432,-2.5345697637476667
1769238868668,125,-3,-1.8745913902331983,-2.176110556755491,-2.119502261689298
1769238868672,126,-2,-1.448469310560924,-1.4053464074396065,-1.6898892985543918
1769238868676,126,-2,-1.0492601620044344,-1.2461541817917543,-1.2888889089299438
1769238868680,126,-2,-0.6605169245265436,-1.162913460906767,-0.8989332156493572
1769238868684,127,-1,-0.2436472751555114,-0.5024161301486622,-0.4799070469671634
1769238868688,127,-1,0.195723055594831,-0.1323202869501034,-0.0373760772351172
1769238868692,128,0,0.5952094855309955,0.48070920961479,0.3650500001723387
1769238868696,128,0,0.8937003680670823,0.9425238375001882,0.6655574647528779
1769238868700,128,0,1.094535373449791,0.6058414983322169,0.8682489123813641
1769238868704,128,0,1.2680989393096662,0.7595715082495691,1.0445285950637668
1769238868708,129,1,1.50178818944395,1.6144655779651416,1.2815712580807528
1769238868712,129,1,1.8532204888073616,1.7307968409515817,1.6359931029223191
1769238868716,129,1,2.334887560068314,1.7219611316750605,2.119950670173497
1769238868720,130,2,2.9191210448358973,2.8208962166126255,2.7062020190915237
1769238868724,131,3,3.553905740673992,3.5482986941831927,3.3430437510279027
1769238868728,131,3,4.185572831442122,3.8418116488552334,3.976904778871326
1769238868732,132,4,4.771496987797908,4.505642039156077,4.565386539776692
1769238868736,132,4,5.273770037269308,4.967080507290875,5.0705831967161235
1769238868740,133,5,5.6539199244101095,5.569285500737245,5.4534309539794155
1769238868744,133,5,5.887471992111708,5.808519360618144,5.68895852543764
1769238868748,133,5,5.983141052668862,5.5963740548346985,5.786372033757607
1769238868752,133,5,5.980431716061557,5.7462586178189055,5.786230087064106
1769238868756,133,5,5.9289421964019935,5.764918512653408,5.738379501248325
1769238868760,133,5,5.874305092069109,5.730038339404528,5.68740545474579
1769238868764,133,5,5.856659829819036,5.710041229559062,5.6721835011687
1769238868768,133,5,5.9011065391897,5.648460576282356,5.717748064563359
1769238868772,133,5,5.9894358428315115,5.756112093458347,5.807196304320087
1769238868776,133,5,6.038534025610547,5.720473591975508,5.85876699921898
1769238868780,133,5,5.92435114914975,5.803698369163016,5.748328158392946
1769238868784,133,5,5.5525801369715175,5.635154142602275,5.380128181773779
1769238868788,132,4,4.918312807341984,4.725620642157521,4.748130221997339
1769238868792,131,3,4.087866586569703,3.705685878870848,3.919111061489942
1769238868796,130,2,3.109462386569276,2.74701528436999,2.9425881799411684
1769238868800,129,1,1.946251585461351,1.813434747083336,1.7821332805597674
1769238868804,128,0,0.5162174888689806,0.6061958834749448,0.3549282291000253
1769238868808,126,-2,-1.1891554325517282,-1.2076049988574864,-1.3482007117347417
1769238868812,124,-4,-3.029075076905358,-3.370883351694993,-3.185962466089673
1769238868816,122,-6,-4.764949281990891,-5.177675941065205,-4.918884490257301
1769238868820,121,-7,-6.194754993914257,-6.240632702008508,-6.345029758501732
1769238868824,120,-8,-7.249706898625437,-7.354689337933222,-7.396667418376816
1769238868828,119,-9,-7.983405394190621,-8.185375907818509,-8.128228831294992
1769238868832,119,-9,-8.489059833760221,-8.434899143482523,-8.632732469368479
1769238868836,118,-10,-8.83022017710673,-9.076290344138515,-8.972789635469335
1769238868840,118,-10,-9.03505031808776,-9.378668852844124,-9.175674173383156
1769238868844,118,-10,-9.132902773235086,-9.179244426201508,-9.270504516972036
1769238868848,118,-10,-9.173800168497152,-9.3431057078712,-9.30777515438738
1769238868852,118,-10,-9.199840736185322,-9.297034921735476,-9.330333120889287
1769238868856,118,-10,-9.198986438450111,-9.168049302373728,-9.326648102555428
1769238868860,118,-10,-9.099602796186389,-9.363124674602195,-9.225083874680882
1769238868864,118,-10,-8.828487337549294,-9.095576592753035,-8.952063752306668
1769238868868,119,-9,-8.388925419487961,-8.489602790019159,-8.510547212834846
1769238868872,119,-9,-7.884392651826603,-8.073130429924678,-8.003984804504718
1769238868876,120,-8,-7.455338629690575,-7.448078597953392,-7.572851457557612
1769238868880,120,-8,-7.176990787021085,-7.05700070272175,-7.292032184653394
1769238868884,120,-8,-7.007318801819645,-7.396296753699545,-7.119016476284747
1769238868888,120,-8,-6.8302470639424255,-7.191588151941584,-6.938043901856364
1769238868892,121,-7,-6.550868186716795,-6.322317206173509,-6.655516872928229
1769238868896,121,-7,-6.1614037675842575,-6.258346290676126,-6.264533806950552
1769238868900,121,-7,-5.7400166639617805,-6.1788835515899825,-5.842430661153741
1769238868904,122,-6,-5.399155470001107,-5.3306616433183,-5.500020109157823
1769238868908,122,-6,-5.214756673640149,-5.183792339199057,-5.312654954502112
1769238868912,122,-6,-5.1714023827088385,-5.379856150349231,-5.265709964903727
1769238868916,122,-6,-5.164198458631414,-5.153608195044842,-5.255214628082308
1769238868920,122,-6,-5.069461241817711,-5.319479900433446,-5.157646440323322
1769238868924,122,-6,-4.836486301412923,-5.159756290783562,-4.922100387817354
1769238868928,123,-5,-4.52389293340928,-4.345506571430782,-4.607353042417586
1769238868932,123,-5,-4.248345812998302,-4.214360477033948,-4.33035432320372
1769238868936,123,-5,-4.09465171949412,-4.311148125025477,-4.1755054691408535
1769238868940,123,-5,-4.068159834176203,-4.174228595175195,-4.147082853986268
1769238868944,123,-5,-4.117868521892458,-4.290360332483383,-4.1934099997019585
1769238868948,123,-5,-4.187360570701611,-4.218982867803671,-4.258606368149049
1769238868952,123,-5,-4.239667254964804,-4.292404164535201,-4.3071163857937815
1769238868956,123,-5,-4.248086370429377,-4.290625320779731,-4.313379094938933
1769238868960,123,-5,-4.186698717280928,-4.118313936778776,-4.251313603988676
1769238868964,123,-5,-4.048571988134557,-4.437298414025326,-4.112526735723479
1769238868968,123,-5,-3.875194642335963,-3.9641248846758392,-3.9370062511309567
1769238868972,124,-4,-3.7494100221498545,-3.613298278502528,-3.807484304011079
1769238868976,123,-5,-3.7331696272988566,-3.9163801280812462,-3.7872754912381064
1769238868980,124,-4,-3.799926404824935,-3.5185271479183644,-3.8512459208497503
1769238868984,123,-5,-3.838881370539831,-4.041718528955622,-3.888655594757184
1769238868988,123,-5,-3.747428931862765,-4.3221738871932125,-3.7957858929131767
1769238868992,124,-4,-3.530868674408217,-3.283497802446568,-3.5770604383130475
1769238868996,124,-4,-3.304860890384507,-3.1863781614744022,-3.3482617411144195
1769238869000,124,-4,-3.189489471482792,-3.314985916381746,-3.2300608972246825
1769238869004,124,-4,-3.196317531367765,-3.1768602884090815,-3.2344224707612943
1769238869008,124,-4,-3.2158362331143997,-3.2444930843302418,-3.251896195684246
1769238869012,124,-4,-3.1156055716456343,-3.3079642594033993,-3.1496938556402885
1769238869016,124,-4,-2.860861028806837,-3.168406190663073,-2.8924988519144383
1769238869020,125,-3,-2.5484117503980985,-2.344491901815312,-2.5770552575562875
1769238869024,125,-3,-2.3182326063073573,-2.108396680669417,-2.344054230501375
1769238869028,125,-3,-2.222657396922564,-2.361617813234773,-2.2465649272166717
1769238869032,125,-3,-2.181165162915587,-2.1315185253728375,-2.2038628267359757
1769238869036,125,-3,-2.0679393708037512,-2.3783277540967545,-2.0890741274927422
1769238869040,125,-3,-1.8438470747926547,-2.1231553588958025,-1.862328875603702
1769238869044,126,-2,-1.593240273738987,-1.2993460580722287,-1.6085020753105106
1769238869048,126,-2,-1.4189798040406705,-1.2190914070251355,-1.4316049228480932
1769238869052,126,-2,-1.3018202543079802,-1.189503860886779,-1.3125788760153747
1769238869056,126,-2,-1.081267733798959,-1.4092578336441746,-1.0898607747767084
1769238869060,126,-2,-0.5945656844554765,-1.0067848164101685,-0.6000254260454686
1769238869064,128,0,0.1576397757214693,0.5063778071828353,0.1553001471164095
1769238869068,128,0,0.978079174341119,1.0701057007802626,0.97735104783346
1769238869072,129,1,1.5947594209766496,1.45644756378749,1.594108968803693
1769238869076,129,1,1.8222550604594772,2.006778921204127,1.8217580182911572
1769238869080,129,1,1.6401606317142958,1.510473390042686,1.641526874306018
1769238869084,128,0,1.15991158965565,1.0222559569848588,1.1651248347702434
1769238869088,128,0,0.5376874049482145,0.5710069798202648,0.5475440879494619
1769238869092,127,-1,-0.0908535782225223,-0.055309874155339,-0.0772808256105745
1769238869096,127,-1,-0.6253494827478625,-0.4401110105983625,-0.6099781307049812
1769238869100,126,-2,-0.9957472886968426,-1.103235057977921,-0.980040394025926
1769238869104,126,-2,-1.1769882212190228,-1.3150614950490649,-1.1609920141753411
1769238869108,126,-2,-1.2163149921571168,-1.1126270184992495,-1.1989259225705289
1769238869112,126,-2,-1.2279510088991137,-1.3282250035948628,-1.208015949836447
1769238869116,126,-2,-1.331827531794662,-1.1958133775877462,-1.3090411576816736
1769238869120,126,-2,-1.5729500220261474,-1.3324875976551305,-1.547834216719541
1769238869124,125,-3,-1.8899058194707183,-2.117376272020536,-1.863057630960483
1769238869128,125,-3,-2.1650457855474894,-2.2652726044993425,-2.13651606047365
1769238869132,125,-3,-2.3140604923886143,-2.1882283559412032,-2.2833805752832723
1769238869136,125,-3,-2.3370819227063047,-2.314018674571861,-2.303654456106551
1769238869140,125,-3,-2.2961800831304395,-2.2389824261080475,-2.2597711528537783
1769238869144,125,-3,-2.253817416619847,-2.196957239572451,-2.2152102058662284
1769238869148,125,-3,-2.2317968219567392,-2.192685302580915,-2.193044560127532
1769238869152,125,-3,-2.2200205344188815,-2.228644119264787,-2.1831661885015174
1769238869156,125,-3,-2.2155486830303546,-2.29468255578735,-2.179988404999343
1769238869160,125,-3,-2.2431346459731047,-2.246807005311442,-2.204144037253433
1769238869164,125,-3,-2.32358280340061,-2.204096823000726,-2.2748184607925444
1769238869168,125,-3,-2.414366640320573,-2.1685734524741416,-2.353875900690521
1769238869172,125,-3,-2.401281722890355,-2.2370518820280325,-2.3361143845624444
1769238869176,125,-3,-2.1998588146293576,-2.3006785883147898,-2.143518459251622
1769238869180,125,-3,-1.9080337360780515,-2.2260859999814837,-1.8702891075273496
1769238869184,125,-3,-1.8211230613746208,-2.2583544598930296,-1.7977025064052583
1769238869188,125,-3,-2.133204175389669,-2.06309099811541,-2.1055632113937763
1769238869192,126,-2,-2.3971460125062087,-1.3747008008530883,-2.344915958113745
1769238869196,127,-1,-1.1726555188388854,-0.1139536077571286,-1.0892691302004511
1769238869200,131,3,3.5896710514443173,3.530860992280992,3.691708400226778
1769238869204,139,11,13.29620766417543,12.037622552821496,13.39453219952447
1769238869208,153,25,27.252518107777796,25.627482565793574,27.32950319738722
1769238869212,169,41,42.16316756123068,41.991624656951245,42.21398441050568
1769238869216,183,55,53.3170625949936,55.50905958370926,53.34868041830208
1769238869220,186,58,56.944895141668475,58.866955637805965,56.9719083413681
1769238869224,179,51,52.199006369174505,51.63882743216803,52.23945977594057
1769238869228,167,39,41.38936283519878,39.95901047740632,41.45772488935637
1769238869232,155,27,28.43315603778673,27.700028588951284,28.530932793761664
1769238869236,144,16,16.751548744053732,16.83563318835411,16.86397518517807
1769238869240,136,8,8.003537148832685,8.667854749264327,8.108464828196201
1769238869244,130,2,2.157567383421999,2.7926464593324294,2.2404964245730543
1769238869248,126,-2,-1.6077155649564423,-1.1855529090533867,-1.5450132070794744
1769238869252,123,-5,-4.0437339970523265,-4.227630393603744,-3.987037785167971
1769238869256,121,-7,-5.533868993340667,-6.176963748385772,-5.468010353266038
1769238869260,121,-7,-6.276261573879613,-6.2991519794567825,-6.194965580879747
1769238869264,121,-7,-6.528104045106778,-6.22738781295336,-6.435977546423947
1769238869268,121,-7,-6.609277133554643,-6.220670741128838,-6.516071125085558
1769238869272,121,-7,-6.717563835761028,-6.213640483478122,-6.629859782147305
1769238869276,120,-8,-6.816895907976572,-7.16264729659596,-6.7336375930120775
1769238869280,120,-8,-6.746142957735117,-7.298139680950317,-6.661306806025158
1769238869284,121,-7,-6.427322062999585,-6.183599195973038,-6.336869502689977
1769238869288,122,-6,-5.945321960063495,-5.357007514035368,-5.851187768905421
1769238869292,122,-6,-5.440306090175819,-5.0267216045693575,-5.3471704962161395
1769238869296,122,-6,-4.974260316097413,-5.388051323872135,-4.883383814296435
1769238869300,122,-6,-4.5260304558674935,-5.001767136919732,-4.434084084789464
1769238869304,124,-4,-4.073441587398971,-3.5088604884865617,-3.977472287445217
1769238869308,124,-4,-3.6251947933838817,-3.055425604797237,-3.52656794626997
1769238869312,124,-4,-3.182068905255542,-3.318025837813179,-3.084155822703014
1769238869316,124,-4,-2.725017490474973,-3.107471735958636,-2.6284605317405205
1769238869320,125,-3,-2.262425951429338,-2.2251004637430043,-2.1646546418953374
1769238869324,126,-2,-1.847554316010243,-1.34060185182979,-1.7465339232885566
1769238869328,126,-2,-1.5111811423663497,-1.188233906500942,-1.407766816035204
1769238869332,126,-2,-1.1946363519304397,-1.238394386212275,-1.0908505636150587
1769238869336,126,-2,-0.793213191357867,-1.1290237668722116,-0.6896590025520437
1769238869340,127,-1,-0.2795795256703026,-0.2345378307188472,-0.1755170544839208
1769238869344,128,0,0.2380390897029016,0.7021150000291688,0.3429339552920111
1769238869348,128,0,0.6017808068759174,0.7299947427706935,0.7070584651760006
1769238869352,128,0,0.7513803492500535,0.865101921962777,0.8571631608055004
1769238869356,128,0,0.7890968217598133,0.7557378658237295,0.896680165764153
1769238869360,128,0,0.9109026967983302,0.8879516537344119,1.0214335710529538
1769238869364,129,1,1.2741146440044393,1.5894959386509582,1.3870523493304248
1769238869368,129,1,1.9038761208937576,1.8226348156801704,2.0172204473047586
1769238869372,130,2,2.688545429316808,2.797951028461993,2.8005663121964943
1769238869376,131,3,3.44932865443487,3.794997614043063,3.559984706448012
1769238869380,131,3,4.035317184276817,3.883535250484891,4.146146266948071
1769238869384,132,4,4.3935282362373655,4.547949166689639,4.50629657501867
1769238869388,132,4,4.584528038500366,4.915625604740637,4.699962924666284
1769238869392,132,4,4.741051407137271,4.6394768527922,4.858739958098779
1769238869396,132,4,4.990203363810211,5.0232545910393505,5.1093246644811545
1769238869400,133,5,5.381350198796246,5.598727860671628,5.501103714455625
1769238869404,133,5,5.865425391690031,5.878082525145154,5.984921734762738
