timestamp_ms,ecg_u8_raw,ecg_counts_raw_int,ecg_counts_filt_monitor,ecg_counts_filt_diagnostic,ecg_counts_filt_st
1768734161836,125,-3,-4.3339979330550475,-2.626320693494468,-2.888307326589357
1768734161840,124,-4,-4.679199186067652,-3.364996969479984,-3.223607187417332
1768734161844,124,-4,-4.890073437433424,-3.7223596711424074,-3.4221835340182274
1768734161848,124,-4,-4.793592613955708,-3.3056807676004034,-3.312064426878044
1768734161852,125,-3,-4.364818593344323,-2.6857960181386353,-2.871641785972974
1768734161856,125,-3,-3.750581985171285,-2.280027830294818,-2.2514038555526925
1768734161860,126,-2,-3.188714698290735,-1.7201233892817012,-1.6899600535414798
1768734161864,126,-2,-2.884459762250933,-1.401150352889026,-1.3887046946496686
1768734161868,126,-2,-2.8814169232752382,-1.607766371241004,-1.3842853261873904
1768734161872,126,-2,-2.933542347047217,-1.4294674849757223,-1.4251331983661784
1768734161876,127,-1,-2.416531702924716,-0.472892634963076,-0.8875404542482115
1768734161880,129,1,-0.3932837924966332,1.394714758076354,1.1580838887827969
1768734161884,133,5,4.0375362284947345,5.547274615311972,5.6033126690368515
1768734161888,140,12,11.13231166031832,12.374681084769644,12.69935472278398
1768734161892,148,20,19.92774657774831,20.647002028972437,21.485664656036857
1768734161896,157,29,28.160625154288763,29.41697242392116,29.706926766262864
1768734161900,163,35,32.961699006532584,35.50244776348514,34.50130454476859
1768734161904,162,34,32.094600970718496,34.40523367875889,33.63600287282433
1768734161908,154,26,25.04232430633523,26.452494701929453,26.59382842945731
1768734161912,142,14,13.260755093274652,14.57714829828022,14.827874617035675
1768734161916,128,0,-0.5291060313635612,0.4488631637797642,1.0546820398707808
1768734161920,115,-13,-13.501780798725244,-12.48074891478872,-11.905175086571855
1768734161924,106,-22,-23.62380381566752,-21.582320855534505,-22.021843500768583
1768734161928,100,-28,-29.902878718051777,-27.563541991133015,-28.30353775485616
1768734161932,97,-31,-32.15125838506019,-30.374921999426565,-30.559182130565183
1768734161936,98,-30,-30.706429201912393,-29.65207018366366,-29.12094431591825
1768734161940,102,-26,-26.365300568079498,-25.35513765863499,-24.782202675486644
1768734161944,109,-19,-20.393526936416087,-18.72603854389868,-18.808988111543822
1768734161948,115,-13,-14.317770139071552,-12.428018202495451,-12.73048879110965
1768734161952,120,-8,-9.440793528305903,-7.50276569436287,-7.850936989824994
1768734161956,123,-5,-6.354965778752671,-4.609127094063075,-4.762217407850233
1768734161960,124,-4,-4.810727464654335,-3.363534402282634,-3.214032264349731
1768734161964,125,-3,-4.050389040117207,-2.7888239951916662,-2.449424828418224
1768734161968,125,-3,-3.370014442132606,-2.286463017756226,-1.7666873227290736
1768734161972,127,-1,-2.513342485100047,-0.6839788010841932,-0.9117089780820564
1768734161976,128,0,-1.6589848808738563,0.5866651412695992,-0.0630148831424662
1768734161980,128,0,-1.100318088167624,0.421956505595055,0.4891605469364617
1768734161984,128,0,-0.9362577037173117,0.3875707864647825,0.6499288294135693
1768734161988,128,0,-1.0078604066385182,0.5864030300407714,0.5795256787108993
1768734161992,128,0,-1.056649572137374,0.3820590302963007,0.533808907194895
1768734161996,128,0,-0.9147753377570104,0.5735304699047261,0.6766927345123845
1768734162000,129,1,-0.5754516037912099,1.380994608598229,1.013239086213746
1768734162004,129,1,-0.1358851735994537,1.441933552270953,1.4477425618497692
1768734162008,129,1,0.2954303594485667,1.5263532311818602,1.8742864937926895
1768734162012,130,2,0.6474371870564237,2.4252591023792043,2.2227223327221717
1768734162016,130,2,0.885074987386228,2.54565804579739,2.4570274520680773
1768734162020,130,2,0.9929179787701148,2.366692604599036,2.56108335890426
1768734162024,130,2,0.970965661099162,2.484913991597979,2.5356460319466305
1768734162028,130,2,0.8535466885789114,2.4425830642819255,2.4159261093733937
1768734162032,130,2,0.7420008837935235,2.5339141748959166,2.3026684229063377
1768734162036,130,2,0.8070133843526692,2.414289282048453,2.364849303355769
1768734162040,130,2,1.2129275977063383,2.494931959071877,2.765574673888012
1768734162044,131,3,1.986301822402108,3.353827007731369,3.5315565227867287
1768734162048,132,4,2.935854807744188,4.555312115536579,4.472933316738468
1768734162052,133,5,3.7215117029024416,5.439274815477884,5.2516344525219765
1768734162056,133,5,4.053534928487817,5.479568834924586,5.579197747449541
1768734162060,133,5,3.889526530634872,5.443379090188749,5.412391705720896
1768734162064,133,5,3.486889281339644,5.355116480533023,5.0062041917128965
1768734162068,132,4,3.2566656614028577,4.588922404703283,4.770317808123222
1768734162072,132,4,3.4967074573653427,4.364037025340477,5.003611028030256
1768734162076,133,5,4.192150853167803,5.6091646679414975,5.692519582545797
1768734162080,135,7,5.05406411680772,7.247137745969001,6.547448587105265
1768734162084,135,7,5.77150895552974,7.598255258520241,7.2562102932570145
1768734162088,135,7,6.241185379067022,7.279952839370442,7.716403360675503
1768734162092,135,7,6.564454386700638,7.71736908930732,8.031923571097668
1768734162096,136,8,6.857462389788872,8.201742423083225,8.319854788137063
1768734162100,136,8,7.109093890641925,8.683428548689331,8.567060264133731
1768734162104,137,9,7.2338999076188895,9.146969573518987,8.685401146873208
1768734162108,136,8,7.228798437906631,8.72709474333379,8.67133719414853
1768734162112,136,8,7.230885321031637,8.267452591413235,8.663772631968122
1768734162116,136,8,7.39749699778866,8.611275543625716,8.821650510344682
1768734162120,137,9,7.733249294725981,9.30785730028724,9.14935672207636
1768734162124,137,9,8.04630775555892,9.487876949075408,9.453891239724486
1768734162128,137,9,8.08413329818636,9.436620313198883,9.482270693380643
1768734162132,137,9,7.732396917828075,9.48094172129145,9.12086159740324
1768734162136,136,8,7.111031908567062,8.434382158985866,8.490791803790689
1768734162140,135,7,6.489552069715759,7.415854398170599,7.862271411999187
1768734162144,135,7,6.093039497317742,7.459316046920875,7.459536020182259
1768734162148,135,7,5.959858606790746,7.405585899578221,7.318578174890053
1768734162152,135,7,5.954428092576754,7.551944865177794,7.301915213570345
1768734162156,135,7,5.887387109569621,7.306047063013439,7.221099478633884
1768734162160,134,6,5.614401883155329,6.551692657655063,6.935270465548303
1768734162164,134,6,5.05256275256028,6.326436634082991,6.36434694151061
1768734162168,133,5,4.16809363969171,5.529119356234755,5.473832385066326
1768734162172,132,4,3.0034173809905345,4.4358526453338945,4.302571416106727
1768734162176,131,3,1.7177011260890012,3.3824357232606292,3.007025218279873
1768734162180,129,1,0.5488277089947067,1.4941349547315208,1.8258996557167295
1768734162184,128,0,-0.3261354304063819,0.351465117900839,0.9390943867299056
1768734162188,128,0,-0.9158619256835456,0.5439699892966078,0.3391147660474292
1768734162192,128,0,-1.383411117844818,0.3875182437413049,-0.1384575517342399
1768734162196,127,-1,-1.8731388723690108,-0.569589547846638,-0.6391426524206076
1768734162200,126,-2,-2.3716213158218777,-1.553424807309911,-1.1486162634472377
1768734162204,126,-2,-2.7381816988978342,-1.650402889690254,-1.524883569828956
1768734162208,126,-2,-2.8539505614011333,-1.3969454076139218,-1.649526595353858
1768734162212,126,-2,-2.735087266135603,-1.7333724526239127,-1.5404740390589418
1768734162216,126,-2,-2.5219372024579343,-1.393019737192101,-1.3391959230550798
1768734162220,127,-1,-2.3766983891714863,-0.7879535054508067,-1.2073211793605216
1768734162224,126,-2,-2.382919680257353,-1.4089441277197077,-1.2264939036170892
1768734162228,126,-2,-2.5189666102631483,-1.6495265028110593,-1.373234135327596
1768734162232,126,-2,-2.7023563011937446,-1.4774409851348074,-1.5650044333482245
1768734162236,126,-2,-2.8413752789188367,-1.652437209246684,-1.7121805790457532
1768734162240,126,-2,-2.851889490245469,-1.5376337632603343,-1.7329550983533026
1768734162244,126,-2,-2.6665871189016137,-1.673031866337949,-1.5603052802340234
1768734162248,126,-2,-2.2774969281049744,-1.3904306492048957,-1.1844682897516725
1768734162252,127,-1,-1.7878341218652414,-0.733356001972534,-0.706944095876314
1768734162256,127,-1,-1.3986980316913478,-0.4020768689730435,-0.3289065452717584
1768734162260,128,0,-1.302055870875733,0.2021658453854805,-0.2434308763548955
1768734162264,127,-1,-1.5552734280700853,-0.4206593493694601,-0.5080260907599377
1768734162268,126,-2,-2.0502077856796572,-1.6614642509373063,-1.013524827335609
1768734162272,126,-2,-2.601106900358142,-1.461002342864434,-1.573943363874152
1768734162276,126,-2,-3.059644549208848,-1.667465476866028,-2.042412075024128
1768734162280,125,-3,-3.363621571081263,-2.5581920963127507,-2.358065570066908
1768734162284,125,-3,-3.5192667258569044,-2.6271188709511217,-2.5266037385401083
1768734162288,125,-3,-3.5681429874308384,-2.5146538736433173,-2.5880001247506796
1768734162292,125,-3,-3.561957779971313,-2.5739280741728856,-2.59310703305963
1768734162296,125,-3,-3.5417969402207574,-2.5862790355099734,-2.583330709925036
1768734162300,125,-3,-3.525643564602597,-2.617430278798216,-2.5774323121769247
1768734162304,125,-3,-3.512062990462646,-2.5916514572558165,-2.574607789309176
1768734162308,125,-3,-3.4947449468819376,-2.555772964433785,-2.5687819266165737
1768734162312,125,-3,-3.4746092747938886,-2.5479203482208495,-2.5605326087204827
1768734162316,125,-3,-3.4620713046566594,-2.6019348311839465,-2.5594635292165955
1768734162320,125,-3,-3.469348614214079,-2.6116333534517104,-2.5772187610802155
1768734162324,125,-3,-3.495380382023359,-2.594278443929031,-2.6131604389064065
1768734162328,125,-3,-3.511713609084055,-2.5858351553212477,-2.6399895464481604
1768734162332,125,-3,-3.466922530870166,-2.5028071302024197,-2.606845597331039
1768734162336,125,-3,-3.3207129990302993,-2.6684634777335736,-2.4726260131098288
1768734162340,125,-3,-3.0849148649014566,-2.5212755171421586,-2.247966762075057
1768734162344,126,-2,-2.82063104665846,-1.7176574699369078,-1.9938684564572255
1768734162348,126,-2,-2.5742682610509955,-1.4551411276768746,-1.757484495075589
1768734162352,126,-2,-2.314382267204944,-1.6567561488955815,-1.5075698929727983
1768734162356,126,-2,-1.951098542645097,-1.5015331991110603,-1.1539591798712714
1768734162360,127,-1,-1.4306074704271532,-0.6957478079339006,-0.6434601419524415
1768734162364,128,0,-0.807207581337141,0.4347215541659017,-0.0316448246887584
1768734162368,128,0,-0.2241564965949247,0.4198072793356661,0.538474969491066
1768734162372,128,0,0.1699301639310246,0.4086235025930023,0.9205451000823746
1768734162376,129,1,0.3082373574192003,1.497302251494657,1.049567399226104
1768734162380,129,1,0.2606088892575409,1.2223047035420045,0.9947903092754526
1768734162384,128,0,0.2250419214519303,0.5732446191718181,0.9521114184915314
1768734162388,129,1,0.429610717227157,1.2379875481633618,1.1479183311114458
1768734162392,129,1,0.9815004653309716,1.6011247725056217,1.688934724996174
1768734162396,130,2,1.7666315927504097,2.3064136337541923,2.4617498424435853
1768734162400,131,3,2.4840896934361205,3.3841016801594868,3.1668459886080766
1768734162404,131,3,2.8051585679507047,3.450328763300808,3.4769257740034782
1768734162408,131,3,2.558299297117165,3.285573698896914,3.2211482873270363
1768734162412,130,2,1.8217935678702029,2.6229525324799594,2.4775054773729277
1768734162416,129,1,0.8668173034559099,1.1924738099459955,1.5161365769830797
1768734162420,128,0,-0.0050725220146586,0.5665215983471507,0.6372370600197161
1768734162424,128,0,-0.6177708822190724,0.2307706843368603,0.0157899835976247
1768734162428,127,-1,-0.9760170230837418,-0.5023186874648233,-0.3531450432279199
1768734162432,127,-1,-1.210624555647767,-0.5506480434500871,-0.5993912459115287
1768734162436,127,-1,-1.4747745582282126,-0.7196407594787722,-0.8744386770045172
1768734162440,126,-2,-1.8619735193362328,-1.43625516510818,-1.2703342119384913
1768734162444,126,-2,-2.37901438879775,-1.8653231227623732,-1.79359126833393
1768734162448,125,-3,-2.96253809051865,-2.3224712913283683,-2.3822046008612094
1768734162452,125,-3,-3.5109321686528663,-2.8105095020800945,-2.936829123955525
1768734162456,124,-4,-3.921142029038125,-3.4159073301960903,-3.3559181275550594
1768734162460,124,-4,-4.1341205729879915,-3.768001876478079,-3.5799091543278996
1768734162464,124,-4,-4.172793921879644,-3.5448795533350856,-3.629324065456024
1768734162468,124,-4,-4.135249476764198,-3.6077124754208927,-3.5993850629551485
1768734162472,124,-4,-4.129577482683443,-3.5973631600739004,-3.5970500948614177
1768734162476,124,-4,-4.190188328505699,-3.551706447001587,-3.659154731955779
1768734162480,124,-4,-4.243044667739163,-3.7326276465671,-3.716971458325329
1768734162484,124,-4,-4.15927606379141,-3.501539246335008,-3.645680833480456
1768734162488,124,-4,-3.862946455159693,-3.716278343489994,-3.367481964235992
1768734162492,124,-4,-3.38001867989304,-3.4589723593294943,-2.900432082660085
1768734162496,126,-2,-2.712039525202554,-1.7013057242496237,-2.237835900670809
1768734162500,127,-1,-1.5622336861954895,-0.6052048661094442,-1.0812370862273224
1768734162504,129,1,0.8356483666141994,1.3984233262814258,1.328602031222434
1768734162508,134,6,5.469130532814139,6.343407139477902,5.968024671361442
1768734162512,140,12,12.821186519955813,12.527019017770158,13.312367141643392
1768734162516,149,21,22.05818840363841,21.24788479210897,22.52870931200357
1768734162520,159,31,30.78886317271734,31.525870942448915,31.233503669525263
1768734162524,165,37,35.81154755474189,37.17749452762558,36.23485410477794
1768734162528,163,35,34.58360048977623,35.60392846160904,34.99727167139109
1768734162532,155,27,26.54278855358977,27.176453016355275,26.96007995879636
1768734162536,141,13,13.434832521896926,13.565524136283091,13.864268469246843
1768734162540,126,-2,-1.535335997567537,-1.775145545329588,-1.093688800469573
1768734162544,112,-16,-15.1414065216814,-15.51849159456208,-14.695110223015774
1768734162548,103,-25,-25.270114170910052,-24.60025197811784,-24.829976304680574
1768734162552,98,-30,-31.19950490689651,-29.66032776128173,-30.77401313544985
1768734162556,95,-33,-33.151110963422056,-32.555189760868444,-32.74211027669791
1768734162560,96,-32,-31.707863399182926,-31.729267025043036,-31.31015167015627
1768734162564,100,-28,-27.575366040983248,-27.51504029295125,-27.18115864134205
1768734162568,106,-22,-21.673546689731495,-21.636571109308743,-21.278451370905415
1768734162572,113,-15,-15.20362328770578,-14.609891035366124,-14.80888375498652
1768734162576,119,-9,-9.42702158250166,-8.617287318629927,-9.03647040584425
1768734162580,123,-5,-5.239716717979781,-4.744060001409481,-4.8550183233727795
1768734162584,125,-3,-2.85829357967865,-2.4509067649702354,-2.4771061651070694
1768734162588,126,-2,-1.859085553280298,-1.7770567623793772,-1.4773527509518771
1768734162592,126,-2,-1.5338003663654898,-1.3983556986266137,-1.1495339199234396
1768734162596,127,-1,-1.3012039328640663,-0.8725047603678675,-0.9163112644678147
1768734162600,127,-1,-0.9167783693129304,-0.485221844018632,-0.5356064816897046
1768734162604,128,0,-0.4151757941744127,0.3045834187799898,-0.0411113580299103
1768734162608,128,0,0.078227206680338,0.4317341864023996,0.4453884610985975
1768734162612,128,0,0.4830371707383001,0.4387918425566497,0.8468048977017102
1768734162616,129,1,0.7778485689205714,1.228970811342288,1.1420724751585156
1768734162620,129,1,0.9583863592370048,1.446268061354758,1.3243397759919495
1768734162624,129,1,1.0256028338034038,1.33495044658727,1.3917045876888294
1768734162628,129,1,1.0117711667820837,1.4290534260736327,1.3757555106805937
1768734162632,129,1,0.993994987487426,1.4263595136288028,1.3551948268362373
1768734162636,129,1,1.0628860301020453,1.2259297874007673,1.4226702973660617
1768734162640,129,1,1.2696289309750093,1.4490438156401722,1.629861195711201
1768734162644,130,2,1.601756922324753,2.323976043081037,1.9629171082963477
1768734162648,130,2,2.0055947219251573,2.4466017414660675,2.366490687886153
1768734162652,130,2,2.419203204415422,2.4137192081921963,2.778327891382898
1768734162656,131,3,2.778609014625508,3.201332610535521,3.135443793466573
1768734162660,131,3,3.0139065467495567,3.487242232176519,3.369194662892703
1768734162664,131,3,3.0764887716404,3.2627843553108136,3.431946016090972
1768734162668,131,3,2.9974092815039968,3.524303692335387,3.3551294785209005
1768734162672,131,3,2.9276575205818203,3.3504241618822492,3.2889400053772926
1768734162676,131,3,3.10840588932183,3.1907850312160813,3.4726192300323104
1768734162680,132,4,3.7593333110574823,4.572925970703608,4.124275274298274
1768734162684,133,5,4.928742304212751,5.083264862497099,5.292541612203633
1768734162688,133,5,6.398280227280548,5.8077750211715795,6.760610475077647
1768734162692,137,9,7.742190422406784,8.985151863673659,8.103542919436636
1768734162696,137,9,8.550036822154222,9.58872206552999,8.911124249302402
1768734162700,136,8,8.66475381838083,8.12719248105368,9.027452569922062
1768734162704,136,8,8.246387160407991,8.539772638105156,8.613718994854292
1768734162708,136,8,7.633090050883823,8.366186621800015,8.006640501872468
1768734162712,135,7,7.140278930073968,7.378907884031221,7.518210622767605
1768734162716,135,7,6.9289510441761575,7.263535409004261,7.307611520442704
1768734162720,135,7,6.970595834332121,7.36397026116044,7.34786840666953
1768734162724,135,7,7.088389698255514,7.370584773726059,7.46511404904008
1768734162728,135,7,7.05417079240519,7.47840174806309,7.432790543555043
1768734162732,135,7,6.704373576320881,7.297199361151067,7.0868380982218655
1768734162736,134,6,6.013799820845725,6.323217834411572,6.400700142264045
1768734162740,133,5,5.0809276183534,5.293643099783633,5.471917192777561
1768734162744,132,4,4.041473112927166,4.440222148515566,4.435877762659443
1768734162748,131,3,2.9837727006671626,3.398684360363983,3.3809097245031308
1768734162752,130,2,1.9295194659484576,2.3885466315043065,2.3290149053096187
1768734162756,129,1,0.8783897006953723,1.2291534918163791,1.2805049731429687
1768734162760,128,0,-0.1366993443572546,0.3581084160651258,0.2688887730933422
1768734162764,127,-1,-1.0353772257341105,-0.5983659283452549,-0.625372024613305
1768734162768,126,-2,-1.7277481425706798,-1.616919892482905,-1.3129232360026974
1768734162772,126,-2,-2.171795367404578,-1.5252904128197828,-1.7526040191374164
1768734162776,126,-2,-2.4038036475407822,-1.9282703507162893,-1.981224900435815
1768734162780,125,-3,-2.5205524289152876,-2.4359429653598,-2.09531563381953
1768734162784,126,-2,-2.6276498991230337,-1.8629151493167215,-2.1996101072553556
1768734162788,125,-3,-2.7857366988924777,-2.3204761471656026,-2.353711339628167
1768734162792,125,-3,-2.9852777602937315,-2.843225230151547,-2.5474918936277047
1768734162796,125,-3,-3.1622678722047146,-2.6007184602038733,-2.717588356547473
1768734162800,125,-3,-3.238215545525896,-2.7725783541924636,-2.7873928345059595
1768734162804,125,-3,-3.160638602645364,-2.5609831068577495,-2.7059192497931046
1768734162808,125,-3,-2.9385878796352656,-2.5719680624191392,-2.481609573399161
1768734162812,125,-3,-2.6655378619937906,-2.656316942530415,-2.2057953959158487
1768734162816,126,-2,-2.494233561545838,-1.7227181929264388,-2.029819284526482
1768734162820,126,-2,-2.542554910048364,-1.7216617135196524,-2.071917856972659
1768734162824,125,-3,-2.788179581314315,-2.5841004851917395,-2.3107936282274317
1768734162828,125,-3,-3.0559261172403325,-2.5616391983566245,-2.5718790289655273
1768734162832,125,-3,-3.1316983171763098,-2.6745527704410064,-2.641473946507944
1768734162836,125,-3,-2.918265133964214,-2.692403207263027,-2.4228829478555824
1768734162840,126,-2,-2.509206307650442,-1.7785686508184886,-2.009916460950416
1768734162844,126,-2,-2.1280506329636752,-1.501854236258482,-1.6254281443928844
1768734162848,126,-2,-1.9844648966028944,-1.6867494855647132,-1.4777973400429338
1768734162852,126,-2,-2.149807616230177,-1.5101679922789182,-1.6375230630706987
1768734162856,126,-2,-2.5247648557305675,-1.9125387904787083,-2.0053708016345637
1768734162860,125,-3,-2.9056559133979083,-2.52855097478194,-2.378253579951885
1768734162864,125,-3,-3.100314519444012,-2.7657653932351014,-2.564879473574599
1768734162868,125,-3,-3.018337185589358,-2.4358200874461913,-2.4761989835361407
1768734162872,126,-2,-2.6853476519438595,-1.7272238560718858,-2.1388920747375404
1768734162876,126,-2,-2.202016612041481,-1.7582973923937162,-1.6527937409672775
1768734162880,126,-2,-1.7084956517867351,-1.6212220504433348,-1.1555442290902924
1768734162884,127,-1,-1.3658268947696386,-0.750171148320384,-0.8066338566128229
1768734162888,127,-1,-1.3060794928855624,-0.3910751916620771,-0.7391555253041715
1768734162892,127,-1,-1.5435102298693484,-0.8267260335104778,-0.9692362885295512
1768734162896,126,-2,-1.9299173860738623,-1.626230891719598,-1.3489753280484071
1768734162900,126,-2,-2.2287308720732697,-1.7800446487372248,-1.6408451416619467
1768734162904,126,-2,-2.2638992323873715,-1.6061277699614211,-1.668679914652926
1768734162908,126,-2,-2.0209739672111446,-1.5022243715912853,-1.419346641896386
1768734162912,127,-1,-1.630463171770542,-0.7608278233555672,-1.0243802766097023
1768734162916,127,-1,-1.2738319552699342,-0.6259685722523176,-0.6643103573967705
1768734162920,127,-1,-1.0990666746431856,-0.8796813837874736,-0.4848554911156887
1768734162924,127,-1,-1.1857051226595583,-0.4381769745054709,-0.5642914242860966
1768734162928,127,-1,-1.535384747052828,-0.7382662299939577,-0.905249048682674
1768734162932,126,-2,-2.064779197178609,-1.471602526262573,-1.4264064692414888
1768734162936,126,-2,-2.6223627511544967,-1.932118536920832,-1.9772900202774952
1768734162940,125,-3,-3.0532645349813063,-2.6016397650088225,-2.4027128283366204
1768734162944,125,-3,-3.2820431442806703,-2.7020525300327107,-2.6265067319248785
1768734162948,125,-3,-3.3463511903956262,-2.5041976793779774,-2.685810456089666
1768734162952,125,-3,-3.34976160976987,-2.658248468102552,-2.683653984627366
1768734162956,125,-3,-3.373247186252336,-2.7790636556171364,-2.7004258508159387
1768734162960,125,-3,-3.415762268780854,-2.752843085962248,-2.735194796091202
1768734162964,125,-3,-3.4033410287618304,-2.582681595599955,-2.7151064720527236
1768734162968,125,-3,-3.2565097606050166,-2.614978838729122,-2.561815480523747
1768734162972,125,-3,-2.972365421560603,-2.5230388757331914,-2.272519221755905
1768734162976,126,-2,-2.6619103277102907,-1.9364954423344083,-1.9575060002902664
1768734162980,126,-2,-2.4995283001850934,-1.5898035589039377,-1.7904056329765496
1768734162984,126,-2,-2.60605347914418,-1.7924571061735524,-1.891423763429002
1768734162988,125,-3,-2.9528300095407203,-2.3759410596241612,-2.231398821924681
1768734162992,125,-3,-3.363811881405966,-2.7640708770704787,-2.6344507728126825
1768734162996,125,-3,-3.6106218143833657,-2.7034922904643737,-2.8733239026336648
1768734163000,125,-3,-3.53038781248357,-2.8149583827891753,-2.786405796200577
1768734163004,125,-3,-3.0988717093841,-2.622599108851339,-2.349877823374988
1768734163008,126,-2,-2.429451287551852,-1.4789426381820274,-1.6766393719945087
1768734163012,127,-1,-1.7069645106263085,-0.7219083782134286,-0.950547145817825
1768734163016,127,-1,-1.098751620093806,-0.6777399997982267,-0.3378051037049991
1768734163020,128,0,-0.6920972385884532,0.0642422327598138,0.074934738805519
1768734163024,128,0,-0.4753981693873175,0.5578753985897184,0.2988293205791585
1768734163028,128,0,-0.3521900403493863,0.2729613269243471,0.4292654521210804
1768734163032,128,0,-0.1820187949946858,0.6024464487529173,0.6059560129825002
1768734163036,129,1,0.1546896626551139,0.9511857017142884,0.9483243337838972
1768734163040,129,1,0.6911704211030276,1.4292359807355377,1.4896266924780406
1768734163044,130,2,1.3447647838809953,2.200073811690137,2.1471579185930545
1768734163048,130,2,1.94359180952486,2.590866234404362,2.7491757916543573
1768734163052,131,3,2.298630045623135,3.356206691026014,3.1074387187148105
1768734163056,131,3,2.2843339512944167,3.1311793771072485,3.0977690392253603
1768734163060,130,2,1.887471970795818,2.2704652905538167,2.7076846004734696
1768734163064,130,2,1.2099007278666682,2.322959322512284,2.03779311662297
1768734163068,129,1,0.4358498903007405,1.475125788843615,1.2698256524548537
1768734163072,128,0,-0.2337338023131836,0.5042641602280936,0.6037548391371589
1768734163076,128,0,-0.680169214296145,-0.0472932857661557,0.1599542916721279
1768734163080,127,-1,-0.9489860335740264,-0.538362994835167,-0.1052282021834912
1768734163084,128,0,-1.2234064907622595,0.0774230825937747,-0.375531371558427
1768734163088,127,-1,-1.6741518144002656,-0.2289149171697937,-0.8231238293876268
1768734163092,126,-2,-2.3155486657036253,-1.8079644528569525,-1.461433015061492
1768734163096,125,-3,-3.0164929023239937,-2.7329750379009536,-2.1568478428958886
1768734163100,125,-3,-3.643005118408164,-2.8662706124050588,-2.7757760821065327
1768734163104,125,-3,-4.158914414071427,-2.6572984214542155,-3.286422420024964
1768734163108,124,-4,-4.589806860997319,-3.38933390519849,-3.7174269319690536
1768734163112,123,-5,-4.944594955182167,-4.7287796706627585,-4.074609471265938
1768734163116,123,-5,-5.212972478521482,-4.722283845265076,-4.34115007709144
1768734163120,124,-4,-5.404716299819154,-4.024641806566761,-4.524071178123099
1768734163124,123,-5,-5.527004233460877,-4.400649598114842,-4.634705462371786
1768734163128,123,-5,-5.51669699121153,-4.713259753473055,-4.617429737030195
1768734163132,123,-5,-5.2531576530403665,-4.2912156575208265,-4.356488262942857
1768734163136,124,-4,-4.689893932915491,-4.2752152963180166,-3.8037251558984497
1768734163140,124,-4,-3.958956732716667,-3.4467641319463764,-3.0830756962487307
1768734163144,126,-2,-3.2544026279508307,-2.0046762082601584,-2.3783716034578606
1768734163148,126,-2,-2.489196069847859,-1.0907174202406935,-1.5972961257796692
1768734163152,128,0,-1.0039372508472184,0.1632006546818514,-0.0859041813934062
1768734163156,131,3,2.293265780145176,3.1478000524094343,3.232338167443134
1768734163160,137,9,8.223980151509618,9.184402099691598,9.163730934190214
1768734163164,144,16,16.40700097701426,16.313959936317925,17.32504959175611
1768734163168,152,24,24.776980443653677,24.63784277835994,25.665830170933248
1768734163172,159,31,30.152105400027292,31.531834679139507,31.024311906874367
1768734163176,160,32,29.8355716351574,31.55985016232971,30.712579339468952
1768734163180,154,26,23.376832738958814,26.903842975360277,24.27385306024013
1768734163184,143,15,13.189952417956766,14.362930606948972,14.111025666603014
1768734163188,126,-2,3.3314619216158894,-0.2119082446373108,4.272979113580936
1768734163192,126,-2,-2.8452353375606583,-2.673825982958536,-1.8935213109654432
1768734163196,126,-2,-4.440181300688792,-1.1826944403508342,-3.4959917655615023
1768734163200,127,-1,-2.9483760938099532,-1.2919742607927072,-2.029004099134188
1768734163204,128,0,-0.7450550464533952,0.4483315757666457,0.1471732362213236
1768734163208,128,0,0.5017529809072465,0.8723986030761683,1.3837840613858872
1768734163212,129,1,0.4447046722936116,0.8892024937940091,1.339374629827871
1768734163216,128,0,-0.3282662765528463,0.5863865830489712,0.589825475152695
1768734163220,128,0,-1.0466639157162652,-0.3735350867188662,-0.1121818839966265
1768734163224,127,-1,-1.2765631327219826,-0.134080263889493,-0.3418769526033139
1768734163228,128,0,-1.0028703310418494,0.2294737516007251,-0.0805553652023243
1768734163232,128,0,-0.4310502916676222,0.5783735091340141,0.4768574623690442
1768734163236,129,1,0.2213698121325651,0.8868682159523035,1.1218565661095634
1768734163240,129,1,0.7983087255526946,1.2898743044704064,1.700534101665074
1768734163244,130,2,1.1927583528745902,2.335738124587631,2.101192910811445
1768734163248,130,2,1.3601780913140162,2.63058932156702,2.2724164751651195
1768734163252,130,2,1.36534885034432,2.2189746997160897,2.2756077146819456
1768734163256,130,2,1.3687383693260158,2.1672024425472007,2.273301993682653
1768734163260,130,2,1.5103325621886896,2.08612222133959,2.4098847487534747
1768734163264,130,2,1.7886721216859005,2.5363995373356407,2.6860442868004424
1768734163268,131,3,2.0711349650582394,3.44427544565174,2.96766813422317
1768734163272,131,3,2.2414757768775795,3.337152884926702,3.136050036551573
1768734163276,131,3,2.334132904030515,3.0537440201863375,3.225300426482557
1768734163280,131,3,2.5086308070063943,3.207290100959791,3.396594431556782
1768734163284,131,3,2.887888743288318,3.453071662326669,3.773710929846324
1768734163288,132,4,3.4304492740533448,4.504119259064181,4.313791252985823
1768734163292,133,5,3.965107427659492,5.263909658610798,4.84385954487479
1768734163296,133,5,4.340937655476487,5.083447651071648,5.2136099759025
1768734163300,133,5,4.536821306407143,5.229900392445257,5.404683863877161
1768734163304,133,5,4.642291134087065,5.411450653835775,5.508192611841749
1768734163308,133,5,4.764869626420717,5.5701171707659904,5.629791709643148
1768734163312,134,6,4.967507348847314,6.137122835371294,5.829017318215441
1768734163316,134,6,5.264233080525612,6.235823423834901,6.118970053439056
1768734163320,134,6,5.625962794079095,6.058779826706721,6.473309602399143
1768734163324,134,6,5.971824530882705,6.629347330144858,6.814179764998924
1768734163328,135,7,6.190281406821265,7.314728732843037,7.029595144595004
1768734163332,135,7,6.219709130616209,7.378698704342525,7.054944088549287
1768734163336,135,7,6.117895733067715,6.9930797832654745,6.946784597706302
1768734163340,134,6,6.019418464405971,6.296020680293497,6.841774866434103
1768734163344,134,6,6.002771933172253,6.42692882829964,6.820426918018906
1768734163348,135,7,6.017899734315327,7.476640090362025,6.831473203684076
1768734163352,135,7,5.965225881461624,7.2310608511787215,6.77275151881409
1768734163356,134,6,5.8258491262112795,6.113772730312401,6.625316644308017
1768734163360,134,6,5.678781573273728,6.1964412811584655,6.470688423152062
1768734163364,134,6,5.593901155141598,6.524050328719064,6.38025360570307
1768734163368,134,6,5.542620759241579,6.354935852463081,6.324206952030801
1768734163372,134,6,5.427281390256875,6.379805064494763,6.202862952996545
1768734163376,134,6,5.180432516818709,5.928901615132418,5.948225849719629
1768734163380,133,5,4.820590506217771,5.407238204658315,5.579836754829612
1768734163384,133,5,4.416566542293701,5.293268541641165,5.167852627126161
1768734163388,132,4,4.008703794070454,4.578416581021879,4.753299813128274
1768734163392,132,4,3.569327720385665,4.1723512846542015,4.308066168462865
1768734163396,132,4,3.041985329361574,4.109962015076231,3.7742781336746214
1768734163400,131,3,2.419620352670228,3.2610483891455138,3.143689868737261
1768734163404,130,2,1.7723628142792809,2.3821849054916946,2.4869157274225393
1768734163408,129,1,1.178699582426897,1.5462945060898925,1.8842153866248328
1768734163412,129,1,0.6270486008351468,1.1291430989702935,1.3248935709841692
1768734163416,129,1,0.0088094788322288,1.232380025503332,0.6992920666337858
1768734163420,128,0,-0.7690465607029728,0.0711108543001652,-0.0870032789736359
1768734163424,126,-2,-1.665965913499738,-1.378319183959703,-0.9932384569119064
1768734163428,126,-2,-2.512394867684914,-1.7490132349200458,-1.8485176317795915
1768734163432,125,-3,-3.133219557129025,-2.548425551256569,-2.477131453403657
1768734163436,125,-3,-3.469005199000409,-3.1114759763910707,-2.820603972781514
1768734163440,125,-3,-3.59003067795332,-2.5478406386599826,-2.9507148742175837
1768734163444,125,-3,-3.609139724201069,-2.784401956214913,-2.9806662089604625
1768734163448,124,-4,-3.5902894254132303,-3.356440693945314,-2.9730237993725295
1768734163452,125,-3,-3.5361517332034778,-2.934936221312125,-2.9286358806124735
1768734163456,125,-3,-3.44146282248755,-2.755519577258139,-2.8418695794559974
1768734163460,125,-3,-3.333801678367415,-2.8443870523141643,-2.741765527744699
1768734163464,125,-3,-3.257515297641184,-2.54442626106717,-2.6746216688380393
1768734163468,125,-3,-3.230764666520874,-2.5549081267279248,-2.659347825318825
1768734163472,125,-3,-3.232579904952073,-2.807974592178952,-2.673756532283649
1768734163476,125,-3,-3.2369921361883014,-2.826909115278687,-2.689556133416302
1768734163480,125,-3,-3.2499785679075557,-2.797213902225447,-2.7113817361370396
1768734163484,125,-3,-3.2916060257184565,-2.5784879087687704,-2.7603699959288073
1768734163488,125,-3,-3.3300132192584324,-2.520438761125249,-2.8072481305517436
1768734163492,125,-3,-3.251141259819843,-2.895766922690016,-2.739609513051529
1768734163496,125,-3,-2.9338558918077924,-2.681532663782801,-2.435563689424043
1768734163500,126,-2,-2.384844300137421,-1.989888836748078,-1.8995243809014264
1768734163504,126,-2,-1.7947082038184676,-1.33789439195789,-1.320469832238179
1768734163508,127,-1,-1.425078476242586,-0.7935643457950466,-0.9604007024792114
1768734163512,127,-1,-1.3962598393102803,-0.6424850592504971,-0.9412594465365782
1768734163516,127,-1,-1.5633153351994005,-0.9059056195693096,-1.1189650115317045
1768734163520,126,-2,-1.617265233074325,-1.8131921632846353,-1.183773009379523
1768734163524,126,-2,-1.345567737357101,-1.451882928924523,-0.9224522525182948
1768734163528,128,0,-0.8169977143711363,0.2593364881239817,-0.4048404843853262
1768734163532,128,0,-0.3165666954520525,0.3457894475352031,0.0825957053498805
1768734163536,128,0,-0.1045405833776152,0.0771370743126809,0.2803554011052148
1768734163540,128,0,-0.234471233340302,0.2117675997481346,0.1376016644539126
1768734163544,127,-1,-0.5712652481606415,-0.4807590579197843,-0.2090066326044777
1768734163548,127,-1,-0.9414033582180594,-0.7468904236463036,-0.5874758771736253
1768734163552,127,-1,-1.2533221502929583,-0.595049899963153,-0.909322186215256
1768734163556,127,-1,-1.50340067174614,-1.029471287430335,-1.1723578779634602
1768734163560,126,-2,-1.712850201224085,-1.634196378464308,-1.3962894237237933
1768734163564,126,-2,-1.8839432426068852,-1.6832439409577178,-1.5808479450206054
1768734163568,126,-2,-2.0037036688214163,-1.5428040815158155,-1.712060443762195
1768734163572,126,-2,-2.062035351025897,-1.7810924832141366,-1.7807206459763352
1768734163576,126,-2,-2.0582776444600697,-1.8619682019184245,-1.787497917679338
1768734163580,126,-2,-2.002188424483306,-1.7628706521079294,-1.7429744060662749
1768734163584,126,-2,-1.918166492579068,-1.6227731823433968,-1.671885022470832
1768734163588,126,-2,-1.8487117486108908,-1.5598401708872078,-1.6164710820910813
1768734163592,126,-2,-1.8506326046739852,-1.8060572781699211,-1.6324073581767609
1768734163596,126,-2,-1.9782311151116017,-1.7828220910914463,-1.7724869916781565
1768734163600,126,-2,-2.2489061209124244,-1.8820589464603916,-2.0535014886865737
1768734163604,125,-3,-2.6043057506189053,-2.496509024284657,-2.4182368538953978
1768734163608,125,-3,-2.90517621837676,-2.70965460187922,-2.7297011130405533
1768734163612,125,-3,-2.992803584970233,-2.640564919013493,-2.8306598079612137
1768734163616,125,-3,-2.8010935863842703,-2.935376948802201,-2.6542083836804458
1768734163620,125,-3,-2.441315575832943,-2.7433412503861887,-2.309264214956899
1768734163624,126,-2,-2.164199770178789,-1.6334388188186773,-2.044973593483227
1768734163628,126,-2,-2.1847493375970832,-1.6037059356652938,-2.0765834967356565
1768734163632,125,-3,-2.495449431122957,-2.716830311325019,-2.3977171542978297
1768734163636,125,-3,-2.840055720053649,-2.8733235553655545,-2.7532125781066283
1768734163640,125,-3,-2.888249069645882,-2.7950574118156633,-2.813557777890604
1768734163644,125,-3,-2.4712119251509934,-2.614306619834254,-2.4099677491702107
1768734163648,126,-2,-1.692703883996798,-1.6028258046325177,-1.6450735501666258
1768734163652,127,-1,-0.8401219229898911,-0.7100499671076022,-0.805019712982548
1768734163656,128,0,-0.174950063981554,0.1060383498420492,-0.1515106065111192
1768734163660,128,0,0.2289567849930281,0.2540162972912212,0.2400621461936496
1768734163664,128,0,0.4690329768028034,0.2436593453369436,0.4664061180443676
1768734163668,128,0,0.6385931541562276,0.6341895688384929,0.6222972570461514
1768734163672,128,0,0.6613971743746846,-0.0309976549936796,0.6334285213747298
1768734163676,128,0,0.3183845758436288,0.5180226623903239,0.2801963076864397
1768734163680,129,1,-0.5237741602607686,0.7778284278123626,-0.5733778288040918
1768734163684,125,-3,-1.7030886990089849,-2.281338622931378,-1.766223863412395
1768734163688,124,-4,-2.8232366735341548,-3.8358343772847814,-2.8997554432121744
1768734163692,124,-4,-3.565185054283033,-3.5785387220360465,-3.6530442010938806
1768734163696,124,-4,-3.938072644323433,-3.889646987672823,-4.03674703198083
1768734163700,124,-4,-4.212259621194527,-3.848305595393157,-4.323954022348543
1768734163704,123,-5,-4.618742695489973,-4.617240191450669,-4.745563205869092
1768734163708,122,-6,-5.123569648616314,-5.572840118227828,-5.264476032232704
1768734163712,122,-6,-5.473743877729531,-5.800575445225641,-5.625037247083518
1768734163716,122,-6,-5.433938744523603,-5.689914463003597,-5.592567715686884
1768734163720,123,-5,-4.983681381537795,-5.021739050341347,-5.1500000135380635
1768734163724,123,-5,-4.3250748941011565,-4.430454156012569,-4.503001950247613
1768734163728,124,-4,-3.734086143661629,-3.8098144008647425,-3.928957599837029
1768734163732,124,-4,-3.394114327324178,-3.5453846733480785,-3.609449650609153
1768734163736,124,-4,-3.311215557900029,-3.96507618373164,-3.545901967791641
1768734163740,124,-4,-3.295188125488272,-3.7268460247714854,-3.5429135244200376
1768734163744,125,-3,-2.9334509538692624,-2.7090751541164115,-3.1854059579385585
1768734163748,126,-2,-1.5631424514032752,-1.5768227557108911,-1.8129657838208295
1768734163752,129,1,1.623161259496892,1.260141899108587,1.374892803093798
1768734163756,135,7,7.206748931461512,7.184862617305242,6.951606140362544
1768734163760,142,14,14.981782082263075,14.203243405510683,14.707719378856266
1768734163764,150,22,23.538513782139994,22.291858595162076,23.236966837106817
1768734163768,158,30,30.401111643997265,30.48552069588729,30.07180071580894
1768734163772,161,33,32.8755327483117,33.09832168811892,32.52580423378912
1768734163776,157,29,29.2716611133337,29.37499005889078,28.911873659032267
1768734163780,148,20,19.79913504284655,19.984197229905764,19.43785117389785
1768734163784,133,5,6.554000292684297,5.463617272570739,6.195353460774052
1768734163788,119,-9,-7.410242044965127,-8.627411886646295,-7.767201828646495
1768734163792,108,-20,-19.33064750902085,-19.84790064760279,-19.69161594734266
1768734163796,100,-28,-27.55792534140231,-27.536579822739203,-27.931558724563317
1768734163800,97,-31,-31.62766001476977,-31.16471311105616,-32.02145873972239
1768734163804,95,-33,-31.84668305449487,-32.300338081119406,-32.26241752464692
1768734163808,98,-30,-28.902559246869448,-29.971833850561243,-29.33547311780916
1768734163812,103,-25,-23.744257296320875,-24.469902241986137,-24.187525838444135
1768734163816,110,-18,-17.57732983204275,-17.91194189068456,-18.02758410877192
1768734163820,116,-12,-11.70349638487596,-11.801482641816907,-12.162016107202804
1768734163824,120,-8,-7.163195538265516,-7.606173333920811,-7.632503838298977
1768734163828,123,-5,-4.400528704476345,-4.82165621128857,-4.880832298397401
1768734163832,124,-4,-3.1951997182511325,-3.534792326974011,-3.684053444786685
1768734163836,124,-4,-2.911896681675517,-3.927120750253224,-3.4066194936388685
1768734163840,124,-4,-2.893987605613639,-3.681664737507365,-3.3944723999035995
1768734163844,125,-3,-2.7474142672973025,-2.7376348192102595,-3.257037334718266
1768734163848,125,-3,-2.3791681372746813,-2.749133335616681,-2.902555750141921
1768734163852,125,-3,-1.8643467145425348,-2.569179913188905,-2.403447145627796
1768734163856,126,-2,-1.3133897068309124,-1.945051922836311,-1.8656033319679404
1768734163860,126,-2,-0.8233943127175034,-1.5739857392946413,-1.3838504111192813
1768734163864,127,-1,-0.4679038787330341,-0.8889520076752928,-1.033661669972718
1768734163868,127,-1,-0.2655782049055792,-0.6063821201168705,-0.837633482291063
1768734163872,127,-1,-0.1497959483894426,-0.7323383447385584,-0.7312766178431268
1768734163876,127,-1,-0.0031810293946332,-0.7897900730595758,-0.596043271863638
1768734163880,127,-1,0.2442429718739214,-0.6639695737357363,-0.3594250287431761
1768734163884,128,0,0.5461401756335891,0.1494484604472356,-0.0666053968730876
1768734163888,128,0,0.7834742734462641,0.3945855507193046,0.1626412537837338
1768734163892,128,0,0.8871594159357818,0.1812867196838792,0.2581672846216972
1768734163896,128,0,0.9158846662616358,0.3676138044589653,0.2784823445027372
1768734163900,128,0,1.0075062526815146,0.1515930281162699,0.3617565846058996
1768734163904,128,0,1.24959528660597,0.360602125415332,0.5954298955036632
1768734163908,129,1,1.5933650196369165,1.163642137735665,0.9301544131454011
1768734163912,129,1,1.8910813527167545,1.3760585064788295,1.2182282788895962
1768734163916,129,1,2.0196014942312814,1.2227239951958226,1.3376313101179496
1768734163920,129,1,1.9806805263765628,1.2590201395865337,1.2912445084613409
1768734163924,129,1,1.9029532022682547,1.311863200587822,1.2074094640937123
1768734163928,129,1,1.955925084205179,1.126132787029261,1.2540893438385878
1768734163932,129,1,2.241016177602135,1.4692978073141565,1.5314625805093984
1768734163936,130,2,2.728162294695227,2.0879000660792464,2.0095819147292593
1768734163940,130,2,3.2752815798064523,2.4482235533962022,2.547443692987984
1768734163944,131,3,3.717803033777387,3.100811486991985,2.981434696811621
1768734163948,131,3,3.970175581853164,3.3152080230465684,3.2263289350218045
1768734163952,131,3,4.071038863469924,3.281500647385756,3.320752183576573
1768734163956,131,3,4.142468516393338,3.2642063978476634,3.386608478585685
1768734163960,131,3,4.300240097750162,3.317125522292531,3.53895882983064
1768734163964,132,4,4.589323277584053,4.196171265694978,3.8215558681906874
1768734163968,132,4,4.984108058625599,4.246437087345875,4.208205470149335
1768734163972,132,4,5.424506290271592,4.285743732022639,4.63978441749717
1768734163976,133,5,5.840686905588629,5.330148439048887,5.0482015407944845
1768734163980,133,5,6.161874632149442,5.201907948718769,5.3634603815844795
1768734163984,133,5,6.336431370558836,5.362713108831403,5.532987357154498
1768734163988,134,6,6.368796895039502,6.028940222462399,5.559709536597027
1768734163992,133,5,6.336419760082779,5.509289528112428,5.520901082907646
1768734163996,133,5,6.345532356898497,5.1117875446115715,5.524134586158046
1768734164000,133,5,6.445617023285579,5.424474269013856,5.619442309975136
1768734164004,134,6,6.587085902201698,6.158974162804509,5.755509768075049
1768734164008,134,6,6.670744409513155,6.191822328208792,5.831419125570383
1768734164012,133,5,6.626136684249802,5.377741798062515,5.778104364379285
1768734164016,133,5,6.429256288309842,5.2001443682684,5.574948215093974
1768734164020,133,5,6.073744453726708,5.386155886148406,5.216695074120715
1768734164024,133,5,5.5783415187370995,5.162101796785372,4.719454994431189
1768734164028,132,4,5.032457734752308,4.209441693684788,4.169531276550176
1768734164032,131,3,4.582457779394442,3.3438075902950506,3.7129602828580346
1768734164036,131,3,4.315529967181281,3.2288214986394372,3.438777493332573
1768734164040,131,3,4.14488220745074,3.366454272465944,3.261690092988472
1768734164044,131,3,3.834403674163271,3.1884775638905207,2.945851483875824
1768734164048,130,2,3.1684741725504093,2.1810390240501887,2.2754777550847245
1768734164052,129,1,2.127940603095129,1.3661641736138774,1.2313503789916735
1768734164056,128,0,0.9241752608056945,0.1892306736407545,0.0246641289640272
1768734164060,126,-2,-0.1393159349914825,-1.5961772165192192,-1.0416171503780394
1768734164064,126,-2,-0.8704471390024007,-1.8166463985925012,-1.7763297392790207
1768734164068,126,-2,-1.29813647645973,-1.8366647710152089,-2.209197433347311
1768734164072,125,-3,-1.6110820788514415,-2.581110705032382,-2.528623253119357
1768734164076,125,-3,-1.9955906157634993,-2.928126642782807,-2.9192907524741045
1768734164080,124,-4,-2.510385332523517,-3.424288955039917,-3.4382616029639026
1768734164084,124,-4,-3.0760032325807054,-4.038535876471169,-4.005830671314198
1768734164088,123,-5,-3.5545489279115303,-4.5655729707075325,-4.485396200982736
1768734164092,123,-5,-3.843346524150148,-4.868977304001193,-4.776099912994348
1768734164096,123,-5,-3.9201267629778176,-4.6736844034366305,-4.856766057258824
1768734164100,123,-5,-3.830945949488939,-4.618237678629718,-4.772981853536649
1768734164104,123,-5,-3.657591250670136,-4.928791654776232,-4.604860051337052
1768734164108,123,-5,-3.49449231407601,-4.566229790235075,-4.445529158562773
1768734164112,124,-4,-3.4254189876696426,-3.973185769652117,-4.378879059005089
1768734164116,123,-5,-3.4869542513532745,-4.499506184126508,-4.44229017298293
1768734164120,123,-5,-3.643979560165208,-4.84661987612603,-4.601072806205366
1768734164124,123,-5,-3.808554076362491,-4.667122499272076,-4.767628493210159
1768734164128,123,-5,-3.8897788546798377,-4.830058053370604,-4.8517537341644745
1768734164132,123,-5,-3.836963484872251,-4.724424711846903,-4.80292557062756
1768734164136,123,-5,-3.6580428588972778,-4.728689442070232,-4.627869970920851
1768734164140,123,-5,-3.411397100257884,-4.645041712465636,-4.383485066654451
1768734164144,124,-4,-3.1657439610415703,-3.8487471092693983,-4.13861997126925
1768734164148,124,-4,-2.9415019565985205,-3.643832773648361,-3.915347384150864
1768734164152,124,-4,-2.6880478497511886,-3.9358243574942535,-3.664198694184036
1768734164156,124,-4,-2.34113290555438,-3.48200647583161,-3.3204590216421135
1768734164160,125,-3,-1.9183482605270212,-2.9452059167344893,-2.900626270840569
1768734164164,125,-3,-1.547552421803445,-2.499250538662824,-2.53208824058783
1768734164168,126,-2,-1.3792817515431484,-2.018637893996013,-2.365446097206392
1768734164172,125,-3,-1.4561769243908014,-2.541537302224326,-2.4433577359414187
1768734164176,125,-3,-1.6617822394137618,-2.8975337191035715,-2.649516967908107
1768734164180,125,-3,-1.796795124429462,-2.5397923035126357,-2.7852714092285136
1768734164184,125,-3,-1.7189055646464122,-2.8809849795051687,-2.708937979230334
1768734164188,125,-3,-1.4375436321238413,-2.6597515461398396,-2.4298226277174706
1768734164192,126,-2,-1.0942726827997964,-1.835744489094473,-2.088874010461738
1768734164196,126,-2,-0.842970451129567,-1.6998830029402232,-1.8395063100867977
1768734164200,126,-2,-0.7236762367865489,-1.654725089392693,-1.7214141860476484
1768734164204,126,-2,-0.636761011495374,-1.8518872280193368,-1.6346210108002297
1768734164208,126,-2,-0.4376748837594154,-1.604389240775715,-1.4348237517265194
1768734164212,127,-1,-0.0608639684179864,-0.9377753684325744,-1.0577521350548484
1768734164216,127,-1,0.4381219602668751,-0.5806647894338812,-0.5603171802881399
1768734164220,128,0,0.9435325037071624,0.214829654359059,-0.0580011154765356
1768734164224,128,0,1.367861181780083,0.2749214236301884,0.3638582045582135
1768734164228,128,0,1.6880716967864426,0.282606272737252,0.6841780715267416
1768734164232,129,1,1.9254494484683071,1.1700483629065388,0.923633977528144
1768734164236,129,1,2.11782607002785,1.3064862387955392,1.1174241202163415
1768734164240,129,1,2.30344015387933,1.324102602653322,1.3021827738382363
1768734164244,129,1,2.4915684057886884,1.1763243269096042,1.4882011237803603
1768734164248,129,1,2.623338556694405,1.3671415072490136,1.618445410039898
1768734164252,130,2,2.580217624601894,2.11226179694592,1.5748399394004349
1768734164256,129,1,2.266963191663155,1.3216943187684684,1.261594185283306
1768734164260,128,0,1.7016662722412612,0.3595439564299126,0.6967074934315769
1768734164264,128,0,1.0235936196405664,0.078857744796031,0.0196868840446986
1768734164268,127,-1,0.4132353053936256,-0.4683192459096614,-0.5893686057528018
1768734164272,127,-1,-0.0057054629275244,-1.122120326833878,-1.00757283324683
1768734164276,126,-2,-0.2192722596305997,-1.368691109861148,-1.2212913402652272
1768734164280,127,-1,-0.3134149048580945,-1.0081860863711776,-1.316119104654833
1768734164284,126,-2,-0.419298519571738,-1.5171213721887735,-1.422713296587185
1768734164288,126,-2,-0.6503648856807762,-1.8956093116279815,-1.6542688958484733
1768734164292,126,-2,-1.062753875183043,-1.6920692844512248,-2.066804278736834
1768734164296,125,-3,-1.6477020437739274,-2.7846675092076496,-2.6511039182143117
1768734164300,124,-4,-2.346210131326643,-3.613117949840458,-3.3476159557567957
1768734164304,124,-4,-3.067151498678472,-3.890892986126507,-4.065722102278981
1768734164308,123,-5,-3.694037680915193,-4.541803742722199,-4.690801429289662
1768734164312,123,-5,-4.0947527701338675,-5.039342715928219,-5.092147070045762
1768734164316,122,-6,-4.167990524763485,-5.414468402750495,-5.167392201154568
1768734164320,123,-5,-3.9189317618082584,-5.021375938024111,-4.9187357847983515
1768734164324,123,-5,-3.4927099330014317,-4.437077902485103,-4.489344251869532
1768734164328,124,-4,-3.104424881057047,-4.0460147973092235,-4.09577572417704
1768734164332,124,-4,-2.9026554387039716,-3.493004942929282,-3.890838670121256
1768734164336,124,-4,-2.8844229998922595,-3.9760825400668462,-3.875086240923104
1768734164340,123,-5,-2.936514534019226,-4.478475721383397,-3.934706347130743
1768734164344,124,-4,-2.933214546092094,-3.946939171823724,-3.9387204972256895
1768734164348,124,-4,-2.731989486297548,-3.59079431490021,-3.737665135648745
1768734164352,125,-3,-2.0088734364527427,-2.8658855894384776,-3.0039656138765807
1768734164356,127,-1,-0.0953845241317519,-0.6711604215438853,-1.0726777417811335
1768734164360,131,3,3.9028435086943114,3.2865485720227863,2.9409439654020018
1768734164364,137,9,10.565422865224008,9.204749624757008,9.607237686601747
1768734164368,145,17,19.408590734782944,17.35015298811808,18.44020207600914
1768734164372,155,27,28.46733024432627,27.12223833044108,27.48081152261101
1768734164376,162,34,34.714406953865826,34.43023114152602,33.71170694407719
1768734164380,163,35,35.312530028976205,35.06901150626052,34.303751163372006
1768734164384,156,28,29.040051328823207,28.465057319867608,28.038079191453797
1768734164388,144,16,16.995655747725223,15.982271139769386,16.010112142460454
1768734164392,128,0,2.120692020712524,0.5478738890939869,1.154171082129081
1768734164396,114,-14,-12.14358940573378,-14.001693819451749,-13.095677950119804
1768734164400,103,-25,-23.212910597988294,-24.436044397677534,-24.15993230086081
1768734164404,98,-30,-29.97408928990469,-29.99398374380788,-30.926417465602384
1768734164408,95,-33,-32.52432525512422,-32.57995236447651,-33.48846426968521
1768734164412,95,-33,-31.53491060912901,-32.83794967618188,-32.50949819963783
1768734164416,98,-30,-27.84162990798535,-29.704549004487745,-28.818482366851867
1768734164420,104,-24,-22.417509827062577,-23.6367787643535,-23.3883554601497
1768734164424,111,-17,-16.419684476648644,-16.90819443863769,-17.382432779789216
1768734164428,116,-12,-11.001793013116172,-11.544041935035915,-11.960018776657238
1768734164432,120,-8,-6.945292347935859,-7.9972848358808735,-7.902557844926616
1768734164436,122,-6,-4.415223839180694,-5.48320919943483,-5.371320299105702
1768734164440,124,-4,-3.0449727162603857,-3.932195642871111,-3.997405645861966
1768734164444,124,-4,-2.276170075858582,-3.5747516966033412,-3.2236974260510323
1768734164448,125,-3,-1.7046623450864016,-2.842773212359198,-2.648729352518374
1768734164452,126,-2,-1.2171742507209984,-1.726265474461157,-2.160538935597784
1768734164456,126,-2,-0.8832933557837506,-1.7136163538621458,-1.827666605037982
1768734164460,126,-2,-0.7511083232364149,-1.7900837354803911,-1.695842335499952
1768734164464,126,-2,-0.7382348117201234,-1.622447402962799,-1.6810186770700872
1768734164468,126,-2,-0.6882849689636548,-1.8648277070048307,-1.627159886245298
1768734164472,126,-2,-0.5037399558843932,-1.6192570872698635,-1.4386784794756298
1768734164476,127,-1,-0.213829987614063,-0.8932998519956841,-1.1464871812592583
1768734164480,127,-1,0.0804425595084044,-0.5866949402286663,-0.8513195873768131
1768734164484,127,-1,0.315834854803643,-0.8275260060293292,-0.6144568584639774
1768734164488,127,-1,0.5214143932400568,-0.6580065623572244,-0.4055771266474507
1768734164492,128,0,0.7812253042544162,0.202221343667731,-0.1418395565769541
1768734164496,128,0,1.1530601780755738,0.2397484415408463,0.2323396416175126
1768734164500,128,0,1.6049607495790117,0.3073584114691966,0.6846325156538712
1768734164504,129,1,2.006931486127666,1.2585540154765678,1.0869383858256565
1768734164508,129,1,2.196131061406051,1.2919978790942783,1.2782857753048018
1768734164512,129,1,2.094015322688168,1.2251687806902118,1.1800796452864164
1768734164516,129,1,1.794112402202639,1.2385377827257478,0.8843475575837414
1768734164520,128,0,1.531476709130278,0.2640548879860735,0.6249121501524957
1768734164524,128,0,1.5315996561607514,0.3444106763688717,0.6271458508297397
1768734164528,129,1,1.8515049306664428,1.1889729551374013,0.9485844021664612
1768734164532,129,1,2.3487320431106604,1.3633416579304838,1.4472692763221169
1768734164536,130,2,2.806200020990844,2.061116052117663,1.906499993181376
1768734164540,130,2,3.103870713737007,2.47268441756829,2.2065440135269925
1768734164544,130,2,3.292661521030749,2.085699521208936,2.398399503949409
1768734164548,130,2,3.518668675405648,2.501754527278927,2.627788700932814
1768734164552,131,3,3.8786374151759153,3.032376726827592,2.9907235135610084
1768734164556,131,3,4.340805640354493,3.384927703325431,3.4550034802159546
1768734164560,132,4,4.793310970229339,4.183130046303329,3.909255350468088
1768734164564,132,4,5.160872607929822,4.306083182043893,4.27926268281726
1768734164568,132,4,5.4763230059678705,4.3742002597988305,4.598223155662705
1768734164572,133,5,5.846832462811796,5.06514534175168,4.972260412401172
1768734164576,133,5,6.35139510784748,5.454422348101451,5.478992625898973
1768734164580,134,6,6.956634151421793,6.0066563804220205,6.085154578135418
1768734164584,134,6,7.516957689747643,6.586524387672211,6.646854532194744
1768734164588,135,7,7.866778924809747,7.0077005924572315,6.9998345001669655
1768734164592,135,7,7.947586174393336,7.500395563101109,7.085070626358934
1768734164596,135,7,7.868544444089567,6.980792083730773,7.0101664822814485
1768734164600,134,6,7.828364842606409,6.4758665714866135,6.972853414678761
1768734164604,135,7,7.942785913932317,7.154687074588591,7.088955680410489
1768734164608,135,7,8.125935848407108,7.384205062308969,7.273296190080039
1768734164612,135,7,8.140925634565267,7.208722798839465,7.289842576916749
1768734164616,135,7,7.786289771539251,7.188471256138681,6.937712308140663
1768734164620,134,6,7.06650541238691,6.344733100359408,6.221363266060962
1768734164624,133,5,6.20687382158086,5.193478702813624,5.365703676558883
1768734164628,132,4,5.497122196769846,4.435595685283941,4.660072501824409
1768734164632,132,4,5.088306578734651,4.094557779899773,4.2550319154178045
1768734164636,132,4,4.907426780340618,4.365654830209052,4.076881747841149
1768734164640,132,4,4.747683357250468,4.131048495663214,3.918495440296821
1768734164644,131,3,4.4357353408214415,3.409062923894857,3.60722448397256
1768734164648,131,3,3.925239767156565,3.2292292851291653,3.0981644910836756
1768734164652,130,2,3.2597194972185073,2.2865740618271113,2.435895558889455
1768734164656,129,1,2.479975211028309,1.1960701295692502,1.6608336560077883
1768734164660,129,1,1.5929547801630972,1.2913571292804102,0.7782583709308782
1768734164664,128,0,0.6348922120029277,0.2507284580697302,-0.176818542225418
1768734164668,126,-2,-0.2610259880702537,-1.6134365929555428,-1.0705708001424656
1768734164672,126,-2,-0.8981625159182252,-1.8690886071602724,-1.7049138308928051
1768734164676,126,-2,-1.1377995480596328,-1.6397053717230048,-1.9409566213140292
1768734164680,126,-2,-0.9939375328865994,-1.880662548864398,-1.7938196222547458
1768734164684,126,-2,-0.6228386103842027,-1.556636294121895,-1.4205084245471014
1768734164688,127,-1,-0.2289352341725314,-0.817836213052199,-1.0250705508828726
1768734164692,127,-1,0.0397001709341426,-0.6699165421966049,-0.754629384805303
1768734164696,127,-1,0.1427748444478811,-0.8268729958691444,-0.6486168636626409
1768734164700,127,-1,0.1261422858018186,-0.7158864772059457,-0.6608792304747885
1768734164704,127,-1,0.0616569490375102,-0.6813100599806086,-0.7202179150434894
1768734164708,127,-1,0.0040637618985819,-0.7317754868414721,-0.7732931842062826
1768734164712,127,-1,-0.014727673178345,-0.718944702131236,-0.7893591016574549
1768734164716,127,-1,0.0200474627215465,-0.8062913821103164,-0.753551663238472
1768734164720,127,-1,0.09529322574538,-0.7206148992191386,-0.6774610765838492
1768734164724,127,-1,0.1532596833408586,-0.6660207089072266,-0.6169834043790243
1768734164728,127,-1,0.1066526584674105,-0.771469947679068,-0.6588738612504863
1768734164732,127,-1,-0.097533497200307,-0.6409757652663115,-0.8576459557124447
1768734164736,127,-1,-0.4079627918308341,-0.9269838034876732,-1.1641230318887124
1768734164740,126,-2,-0.6725941220331821,-1.5626331204263728,-1.426709288253885
1768734164744,126,-2,-0.7477117832000768,-1.840940604332146,-1.499978879221438
1768734164748,126,-2,-0.6295641369723741,-1.594909122093156,-1.3785662929037896
1768734164752,127,-1,-0.4711434256569364,-0.7957181496917314,-1.215913443829475
1768734164756,127,-1,-0.4477228924999501,-0.8012498675449689,-1.1888489143663874
1768734164760,126,-2,-0.6003821495907948,-1.6455352659947502,-1.33888766613624
1768734164764,126,-2,-0.8174513308067228,-1.802681774552696,-1.5534150376921203
1768734164768,126,-2,-0.963342561486511,-1.6101133140029984,-1.6960471139757416
1768734164772,126,-2,-1.0116563710325877,-1.7826195792516348,-1.7404969410968552
1768734164776,126,-2,-1.0509617320996745,-1.8190883630163923,-1.775794706907162
1768734164780,126,-2,-1.168573120534371,-1.5749108383943766,-1.8895528076190529
1768734164784,126,-2,-1.3321875784066994,-1.953742081740908,-2.049569771270133
1768734164788,125,-3,-1.3898562090589206,-2.389908036910869,-2.1038298649089096
1768734164792,126,-2,-1.2004966476993728,-2.064944206098182,-1.9111424454156276
1768734164796,126,-2,-0.7793701200777723,-1.481055711281792,-1.486820811020524
1768734164800,127,-1,-0.3180699010328202,-0.9044606643585676,-1.0225823301641035
1768734164804,127,-1,-0.0494461733889014,-0.6740178837648275,-0.7511768857504512
1768734164808,127,-1,-0.0685014863496189,-0.5996917275805476,-0.7671604690902798
1768734164812,127,-1,-0.2598685716212967,-0.9656016772511008,-0.9545352299639251
1768734164816,126,-2,-0.3909079560890651,-1.4496742695792433,-1.0803752840668146
1768734164820,127,-1,-0.2874830350460262,-1.034233517627556,-0.971321013618744
1768734164824,127,-1,0.0586463995719532,-0.4601110206556674,-0.6208372676719076
1768734164828,128,0,0.5285742851830635,0.1307005717977093,-0.1488447646628562
1768734164832,128,0,0.9949950532517609,0.3148979150358951,0.3185236313882748
1768734164836,128,0,1.3944748371222742,0.3046198855234387,0.720336668685111
1768734164840,129,1,1.70781966875673,1.1549000236557054,1.0386500117776407
1768734164844,129,1,1.9122776882205237,1.4317483991254614,1.2494591758097366
1768734164848,129,1,1.976181192850116,1.1452863594065934,1.318739054025866
1768734164852,129,1,1.8902493630085424,1.3899642448428084,1.235981649772067
1768734164856,129,1,1.681565152755888,1.1657654095623229,1.0291095868698092
1768734164860,128,0,1.3834237979379116,0.3376713572434346,0.7333980474181917
1768734164864,128,0,0.994658414583976,0.2321227638931771,0.3488762530707018
1768734164868,128,0,0.4866776577995614,0.343599558782908,-0.153643125847644
1768734164872,127,-1,-0.1351276663882155,-0.7903201733596235,-0.7701428491297697
1768734164876,126,-2,-0.7869056150650453,-1.667986412343919,-1.4174089096531253
1768734164880,126,-2,-1.3473200896758175,-1.8086719898015569,-1.9739657656148184
1768734164884,125,-3,-1.7582633543827435,-2.6404791137805432,-2.3816702138020953
1768734164888,125,-3,-2.0871138242587555,-2.7754938120772596,-2.7080327786446152
1768734164892,125,-3,-2.483328004595806,-2.6492491187013627,-3.1019089736238294
1768734164896,124,-4,-3.0591090499829523,-3.832639834873932,-3.673884153971506
1768734164900,123,-5,-3.790096254415821,-4.61425959594555,-4.398476065934102
1768734164904,123,-5,-4.509232830961614,-4.873329205158361,-5.1099073553613295
1768734164908,122,-6,-4.993088577345912,-5.517806146811772,-5.587874256287184
1768734164912,122,-6,-5.090281131004678,-5.90062193622996,-5.682879226495588
1768734164916,122,-6,-4.8259464312874485,-5.576958793286271,-5.418489560203066
1768734164920,123,-5,-4.413054162758924,-4.857474851254315,-5.003796241039572
1768734164924,123,-5,-4.137943654444594,-4.669057107966136,-4.722347323725941
1768734164928,123,-5,-4.178182243575789,-4.674432441344475,-4.752780759267745
1768734164932,123,-5,-4.484047093007636,-4.792040120535002,-5.050130626624172
1768734164936,122,-6,-4.8250536528505465,-5.61337557813188,-5.388842049471
1768734164940,122,-6,-4.970749684036682,-5.903859642244676,-5.539088450507916
1768734164944,122,-6,-4.836919067690456,-5.545869811564139,-5.411263172809641
1768734164948,123,-5,-4.418647903988389,-4.860715239199219,-4.992022845171138
1768734164952,124,-4,-3.509785177378098,-3.5374199002432065,-4.069924513634845
1768734164956,126,-2,-1.4564698578549968,-1.8815503246076193,-1.9941349008259377
1768734164960,130,2,2.720843408087875,2.330105774373255,2.2040690500233344
1768734164964,137,9,9.70920969826043,9.2877959977709,9.200495450371168
1768734164968,145,17,19.06179648959569,17.21824286462323,18.54527540506544
1768734164972,155,27,28.72713976123363,27.525191315769717,28.19406846748769
1768734164976,164,36,35.48701799242548,35.942613364068066,34.940013342321805
1768734164980,164,36,36.3014139299708,36.56762754871972,35.75139708696809
1768734164984,158,30,29.84852040801645,29.93616772276089,29.308487782628607
1768734164988,144,16,17.27481597536084,16.59960727351245,16.75432145031683
1768734164992,128,0,1.655505726819153,0.0999477969346633,1.1573776288748585
1768734164996,113,-15,-13.448327054545151,-14.567781595817095,-13.92864422588881
1768734165000,102,-26,-25.38167676407462,-25.890729462936996,-25.85398662052123
1768734165004,95,-33,-32.9630291512613,-32.57441593797917,-33.43774594039265
1768734165008,92,-36,-36.17503311712509,-35.846078898332,-36.65778288361672
1768734165012,91,-37,-35.54692335361753,-36.50084938630865,-36.035813344844314
1768734165016,95,-33,-31.817202422129853,-32.934436883735565,-32.305260590200774
1768734165020,101,-27,-25.976432289727875,-26.56369936426456,-26.45732853278209
1768734165024,108,-20,-19.342978834890495,-19.854979337936346,-19.814960134851155
1768734165028,114,-14,-13.335694251650606,-13.595984723936272,-13.800906851978889
1768734165032,119,-9,-8.98023428475257,-8.730068914837215,-9.441152269993854
1768734165036,121,-7,-6.511680010292983,-6.786600921500701,-6.968106465042513
1768734165040,121,-7,-5.414053897173707,-6.66291512511081,-5.863138227968676
1768734165044,122,-6,-4.889213921219493,-5.799368940985598,-5.328697312038937
1768734165048,123,-5,-4.389061989083078,-4.563061982057776,-4.820747458337897
1768734165052,124,-4,-3.821824409598795,-3.8109884590443897,-4.251036288716142
1768734165056,124,-4,-3.3687497444797345,-3.662967743524532,-3.7995451850393818
1768734165060,124,-4,-3.172437280758039,-3.835173632678443,-3.603573390768286
1768734165064,124,-4,-3.1802607359924595,-3.606273745542518,-3.606335863696387
1768734165068,124,-4,-3.2072049896715,-3.7366364166928303,-3.623648054013135
1768734165072,124,-4,-3.088966477007875,-3.649672765986801,-3.4958292184635154
1768734165076,125,-3,-2.777789618644247,-2.7844822500943285,-3.1790931192376823
1768734165080,125,-3,-2.3369566158430177,-2.7721917128273543,-2.7367477082253027
1768734165084,125,-3,-1.882980732963615,-2.6249331541771723,-2.2819936072453424
1768734165088,126,-2,-1.5303822587065357,-1.736907340502842,-1.9260953714105555
1768734165092,126,-2,-1.349020162424928,-1.6220516552096245,-1.7383088406673932
1768734165096,126,-2,-1.330703271478077,-1.818234528829133,-1.712272020835921
1768734165100,126,-2,-1.3849616461402472,-1.75274023808799,-1.7599067892922755
1768734165104,126,-2,-1.3841888504561348,-1.63364155607176,-1.754858021522411
1768734165108,126,-2,-1.2423753721110846,-1.732885244442275,-1.6104924821877875
1768734165112,126,-2,-0.9766778057435026,-1.5910608071905443,-1.342121423519897
1768734165116,127,-1,-0.6969838740461016,-0.869326524734983,-1.0582327586957376
1768734165120,127,-1,-0.5122740711446747,-0.6933866254652232,-0.8678720895405172
1768734165124,127,-1,-0.4207495889151964,-0.7091485744003366,-0.7701526072261391
1768734165128,127,-1,-0.2894187778607953,-0.6369822082406693,-0.6327852272940349
1768734165132,127,-1,0.0379660040016207,-0.6805464260895328,-0.3000314774297014
1768734165136,128,0,0.5905810149171367,0.2185415925394142,0.2564516932676438
1768734165140,129,1,1.2159239334600531,1.2236963501847904,0.8836618998515462
1768734165144,129,1,1.674869666394588,1.3601322190493688,1.3437826478790964
1768734165148,129,1,1.807532773849632,1.3240188980759475,1.4797668736566938
1768734165152,129,1,1.6462309200606553,1.336349825095396,1.3255306672388458
1768734165156,129,1,1.4132598543319896,1.2286371691756277,1.101612656209075
1768734165160,129,1,1.4148238901202834,1.1698997080614515,1.1105747040445713
1768734165164,129,1,1.876185166586136,1.479188888751651,1.5756162346125264
1768734165168,130,2,2.789625307272961,2.1496561240025156,2.4900105930704237
1768734165172,131,3,3.872920436803821,3.590109794561402,3.573983179962858
1768734165176,133,5,4.698536446113347,4.896730550644657,4.401817214074655
1768734165180,132,4,4.9315602100323215,4.5628417815659805,4.639220085599236
1768734165184,132,4,4.512249932777455,4.041741362245697,4.226109226687055
1768734165188,131,3,3.6553575316378586,3.61305780282477,3.376051252444948
1768734165192,130,2,2.6831410000141815,2.1368323040208343,2.409740465605229
1768734165196,129,1,1.8255096051891897,1.3092633197486188,1.5560667783217517
1768734165200,129,1,1.125938251888955,1.2378052880241903,0.8586432992197175
1768734165204,128,0,0.4992081608341367,0.268856529903436,0.2334939657414496
1768734165208,127,-1,-0.131745373200508,-0.4981739896731815,-0.3948002895601821
1768734165212,127,-1,-0.7427431255991185,-0.853476076219664,-1.001188968782179
1768734165216,126,-2,-1.2253714336971355,-1.6280024095229388,-1.4779497525469123
1768734165220,126,-2,-1.481707180359081,-1.862985480795712,-1.7289446223723135
1768734165224,126,-2,-1.5110890771590428,-1.6050349923745704,-1.7549410408660815
1768734165228,126,-2,-1.4239719432628626,-1.6093367563542884,-1.6662382847077022
1768734165232,126,-2,-1.3806995376594584,-1.770319764837439,-1.6215835978767266
1768734165236,126,-2,-1.5014762369243555,-1.6793575605450366,-1.739610407546686
1768734165240,126,-2,-1.7996913383684905,-1.8463782620064648,-2.0334326669192277
1768734165244,125,-3,-2.1721446100259367,-2.5818409882745086,-2.400730023355647
1768734165248,125,-3,-2.4535438497695123,-2.6474071203633134,-2.677292319179661
1768734165252,125,-3,-2.5072459442487327,-2.717479181293018,-2.7272026419880104
1768734165256,125,-3,-2.296985695188442,-2.7439420255145306,-2.514522825893776
1768734165260,126,-2,-1.8957587940942964,-1.77055543597554,-2.112023752321972
1768734165264,126,-2,-1.435035611407407,-1.645541942265066,-1.650160363292013
1768734165268,126,-2,-1.037125456845118,-1.5907774333860547,-1.249947936703652
1768734165272,127,-1,-0.7686120932375099,-0.7563600717815807,-0.97763542466393
1768734165276,127,-1,-0.6221273678425868,-0.7365706214251008,-0.8268566563734208
1768734165280,127,-1,-0.5255527940096973,-0.7472632269664472,-0.726630019789508
1768734165284,127,-1,-0.3857277719987753,-0.6732837771475154,-0.583976688778507
1768734165288,127,-1,-0.152963886447369,-0.5476579092827496,-0.3488930074955091
1768734165292,128,0,0.1415939054321827,0.1885444505766793,-0.0525730451295903
1768734165296,128,0,0.4102342283320188,0.3276681424360573,0.2171760479154234
1768734165300,128,0,0.570903254601804,0.1834334334918121,0.3789357134003865
1768734165304,128,0,0.5943573595714773,0.4169943903646701,0.4044460821285735
1768734165308,128,0,0.5135828825917428,0.3605478758121708,0.3268708859106269
1768734165312,128,0,0.4092179539582052,0.2629461481670946,0.2260228073598791
1768734165316,128,0,0.382164573733518,0.2873502424480506,0.2019416950342705
1768734165320,128,0,0.5106305057235567,0.1873135823393913,0.3325622632657606
1768734165324,128,0,0.802426493478055,0.475139500678985,0.6256135971127244
1768734165328,129,1,1.176279001325598,1.2516067844049596,0.9996654253176078
1768734165332,129,1,1.493772009554986,1.415169334994766,1.3167391757406066
1768734165336,129,1,1.622683267341586,1.1027781243171284,1.445964925483799
1768734165340,129,1,1.496368955011384,1.3970138526392406,1.321763799368743
1768734165344,129,1,1.15196388278547,1.2697787650122043,0.9807652204655412
1768734165348,128,0,0.7351353871861563,0.4399604097088376,0.5670910692575468
1768734165352,128,0,0.4482046146908405,0.2647620520572864,0.2820215682833817
1768734165356,128,0,0.4444126521436947,0.2091231363661153,0.2787962079642183
1768734165360,128,0,0.7303289291634527,0.3486836378191897,0.5643876843659053
1768734165364,129,1,1.155056581345957,1.2750383891658794,0.9882978720827428
1768734165368,129,1,1.5018650122181318,1.491759059479178,1.3344951485077248
1768734165372,129,1,1.6136357600749802,1.158961746587408,1.4467914446367578
1768734165376,129,1,1.464665337741629,1.3601255302356814,1.299646923942133
1768734165380,129,1,1.1477280293322236,1.1616232600808951,0.984719885922603
1768734165384,128,0,0.8050725976164326,0.4926459507443314,0.642974981525567
1768734165388,128,0,0.5494147450949733,0.2850322340256733,0.3870518275674323
1768734165392,128,0,0.4163899495116794,0.3444774169111906,0.253542038179363
1768734165396,128,0,0.3750641453790166,0.2118067476791181,0.2121998688810488
1768734165400,128,0,0.3848600197204522,0.2609346959216146,0.2221768170048154
1768734165404,128,0,0.4461906993215814,0.4643160569512194,0.2832589547009949
1768734165408,128,0,0.5941987745863964,0.259505768516357,0.4305481550944847
1768734165412,128,0,0.8402524960467402,0.4193844801124518,0.675923940694335
1768734165416,129,1,1.12673618340719,1.103249500827667,0.9619648598058128
1768734165420,129,1,1.3575017070940605,1.3798748880691774,1.1921766075979203
1768734165424,129,1,1.486334922860976,1.3812374355399917,1.320270500551712
1768734165428,129,1,1.574115383047756,1.2981168255097617,1.4076844540756213
1768734165432,129,1,1.751355324657176,1.445872736947927,1.5851993961045852
1768734165436,130,2,2.1182129508598235,1.9912872282483176,1.9521275110431904
1768734165440,130,2,2.6693368746325215,2.5849453254749126,2.501893172687932
1768734165444,131,3,3.296461475022082,3.1219735500841153,3.126119476294694
1768734165448,131,3,3.852934600925568,3.609975940248404,3.679441643740179
1768734165452,132,4,4.231759051056999,4.108141451032339,4.0563008138576615
1768734165456,132,4,4.417683576808901,4.305080481907669,4.241836037955136
1768734165460,132,4,4.491534506236253,4.328505859104804,4.316196354073442
1768734165464,132,4,4.582277168285608,4.327566282304081,4.407211319166231
1768734165468,132,4,4.7893345883330465,4.489049670824073,4.613170068448054
1768734165472,133,5,5.120335726777175,5.142307198601981,4.941118970990646
1768734165476,133,5,5.479041683928727,5.340036544680863,5.295506658150869
1768734165480,133,5,5.703515072320384,5.242940640020884,5.516138635935872
1768734165484,133,5,5.635478213424831,5.477870402245027,5.445958252246934
1768734165488,133,5,5.200612358278973,5.301264167358937,5.010228468341685
1768734165492,132,4,4.463198842843783,4.352366015044499,4.272033558683295
1768734165496,131,3,3.6044478850438777,3.1021942461479366,3.411985417193456
1768734165500,130,2,2.8191299443967206,2.514268508946345,2.624767019960845
1768734165504,130,2,2.2048264777987363,2.201478616185822,2.00766749176794
1768734165508,129,1,1.7300976109994055,1.6029190931240525,1.5291243099627814
1768734165512,129,1,1.2904195461177286,1.035670161735865,1.0853569548552116
1768734165516,128,0,0.7911445671908046,0.4189793039887239,0.5827060154073533
1768734165520,128,0,0.2019526001773259,0.2030706066833102,-0.0090405164294751
1768734165524,127,-1,-0.4346932371711922,-0.4811403609023179,-0.6479805116788986
1768734165528,126,-2,-1.037301332646136,-1.690807288987458,-1.25286610610501
1768734165532,126,-2,-1.539028949517065,-1.695443001705783,-1.756821483983587
1768734165536,126,-2,-1.9192598619005188,-1.823554040451106,-2.1396482685018716
1768734165540,125,-3,-2.190150380770923,-2.5889652859354664,-2.41422823484537
1768734165544,125,-3,-2.3653332026194183,-2.62617438376436,-2.5943247940013703
1768734165548,125,-3,-2.4512524101991744,-2.582315698877271,-2.6853996482902462
1768734165552,125,-3,-2.4642994927070307,-2.774182946650983,-2.702083377664215
1768734165556,125,-3,-2.44455811133975,-2.774659535537748,-2.683244009545361
1768734165560,125,-3,-2.440735704190392,-2.6146960249566304,-2.67876599382974
1768734165564,125,-3,-2.4691147967624953,-2.5903474237752437,-2.708828275421692
1768734165568,125,-3,-2.4813171209479563,-2.615433638720482,-2.7287478689486218
1768734165572,125,-3,-2.377239556434332,-2.733056846317572,-2.6376147199179556
1768734165576,125,-3,-2.044437883971334,-2.841181473775734,-2.316634525658966
1768734165580,126,-2,-1.3410193798310075,-1.520060789885942,-1.616451495683323
1768734165584,128,0,0.0256986965945593,0.3241415431603451,-0.2423020185863501
1768734165588,130,2,2.6122271033088325,2.4779829873407877,2.3563490298832095
1768734165592,135,7,7.104881264871294,7.1918559011195144,6.855617411623689
1768734165596,141,13,13.81362204349058,13.196407022562536,13.558450830050075
1768734165600,148,20,22.017247466748753,20.4868086911697,21.74463087269931
1768734165604,157,29,29.68592091067175,29.30085159867397,29.3917315928234
1768734165608,162,34,34.01986024330594,34.547463347565724,33.70828177049064
1768734165612,161,33,32.69969262526983,33.061675228506076,32.37989679850268
1768734165616,153,25,25.134006021945495,25.31822115839187,24.81597220808776
1768734165620,140,12,12.87223528174539,12.31870640059896,12.56344577418423
1768734165624,125,-3,-1.106869929820057,-2.516882862390143,-1.4039232190883508
1768734165628,113,-15,-13.742523350664516,-14.574248034444604,-14.031998845068829
1768734165632,105,-23,-23.00369040831885,-22.784414384502625,-23.29572469165574
1768734165636,100,-28,-28.195916377922476,-27.800621795169008,-28.5019538335505
1768734165640,98,-30,-29.573538159752065,-29.56574235866391,-29.899293179212105
1768734165644,99,-29,-27.80693818238995,-28.633270217907803,-28.14839804335655
1768734165648,103,-25,-23.7233429486252,-24.475149819371367,-24.07000658849833
1768734165652,109,-19,-18.29126774879202,-18.820422408524227,-18.634581119429573
1768734165656,115,-13,-12.558551235894186,-12.848591452219544,-12.89829200815715
1768734165660,121,-7,-7.402090256317837,-6.407268576072903,-7.744775556805204
1768734165664,124,-4,-3.265923728129974,-3.9416845361019495,-3.617033553873581
1768734165668,125,-3,-0.1500626827701474,-2.0535023286100387,-0.508657390304073
1768734165672,131,3,2.1447234919564564,2.665511117526147,1.7834427818424825
1768734165676,131,3,3.778806808946327,3.759117820127327,3.417369257155128
1768734165680,132,4,4.84219096819672,3.9475688590324336,4.478717419864143
1768734165684,133,5,5.458407291889661,5.735107178778992,5.089361555885096
1768734165688,133,5,5.831422804612322,5.255332536349423,5.454903341769044
1768734165692,133,5,6.157313607946518,5.302587523507495,5.7740354847412245
1768734165696,134,6,6.490960865699431,6.265073621082945,6.103092073178233
1768734165700,134,6,6.71755813397259,6.300456498206125,6.326807454355189
1768734165704,134,6,6.684836470520145,6.559727496688096,6.291339593598962
1768734165708,134,6,6.3880303692897815,6.249718112616995,5.990828924126264
1768734165712,133,5,6.028741125809849,5.425809434192315,5.6271815073355445
1768734165716,133,5,5.875640594404724,5.089932209304593,5.470077658657407
1768734165720,133,5,6.045602615900773,5.526148913412631,5.636600825881515
1768734165724,134,6,6.408241112232292,6.34856447298425,5.995417687417255
1768734165728,134,6,6.700767092576863,6.413254758962534,6.282966468423116
1768734165732,134,6,6.739662222355763,6.3087942962885695,6.316372040446672
1768734165736,134,6,6.536628027062696,6.1601309845410075,6.108936697227432
1768734165740,133,5,6.234209365793939,5.527382745121929,5.804132795953157
1768734165744,133,5,5.947255836398686,5.306447074198114,5.515908304436427
1768734165748,133,5,5.668185750163394,5.480619014561008,5.234500371236666
1768734165752,133,5,5.311698474415728,5.2329991471811335,4.873296567432337
1768734165756,132,4,4.826706579039067,4.233001199952768,4.382442125571692
1768734165760,131,3,4.246294774743908,3.504966803645823,3.7977024589145993
1768734165764,131,3,3.6371772885545783,3.2727874612954957,3.1869200424892803
1768734165768,130,2,3.0280147346563933,2.575556574652079,2.577005672141441
1768734165772,130,2,2.399574941225458,2.076264698987758,1.9461199806855576
1768734165776,129,1,1.727475870102969,1.4679345233558476,1.269385319160058
1768734165780,128,0,1.0095060069100177,0.2289401258318624,0.5466507387201833
1768734165784,127,-1,0.2495034169913201,-0.4250368144603493,-0.2161796428633642
1768734165788,127,-1,-0.5575586720898538,-0.7381909087134002,-1.024420872246415
1768734165792,126,-2,-1.3956425418815197,-1.6156151071461395,-1.8638869278135368
1768734165796,125,-3,-2.186480642604434,-2.790606232475106,-2.6571184845253475
1768734165800,124,-4,-2.807783678939147,-3.5452734155184933,-3.280901188283757
1768734165804,124,-4,-3.1726328697355877,-3.616803898877421,-3.647474753954019
1768734165808,124,-4,-3.2910561812685186,-3.589258320814351,-3.7673847767846143
1768734165812,124,-4,-3.254449874126638,-3.713067336866824,-3.732947491134605
1768734165816,124,-4,-3.1695402354134172,-3.705077258799624,-3.650818479363501
1768734165820,124,-4,-3.107365239315316,-3.603254914402888,-3.5910871425591715
1768734165824,124,-4,-3.0952313981109865,-3.591111912067227,-3.5803162353154105
1768734165828,124,-4,-3.1314337170964115,-3.6060292775898697,-3.61684319570038
1768734165832,124,-4,-3.1948675851462927,-3.680347911668555,-3.680172290589877
1768734165836,124,-4,-3.2440635246867244,-3.725771003038877,-3.7295222860891206
1768734165840,124,-4,-3.221003114461056,-3.5654987148189914,-3.707196847674049
1768734165844,124,-4,-3.0760331588973373,-3.6593336552104976,-3.5633067985056046
1768734165848,124,-4,-2.8078124650064664,-3.5212081129103496,-3.2960521537826524
1768734165852,125,-3,-2.48413544184929,-2.7625032793315203,-2.973053384904535
1768734165856,125,-3,-2.2130306979629917,-2.6101891147429632,-2.7023804394376874
1768734165860,125,-3,-2.0778760729732375,-2.692005935050227,-2.567249192613838
1768734165864,125,-3,-2.0861978958335836,-2.533258182243883,-2.5749374369548024
1768734165868,125,-3,-2.1670200438408176,-2.6629170561879327,-2.654576214533901
1768734165872,125,-3,-2.2117415912070832,-2.599812715615563,-2.6979052941355857
1768734165876,125,-3,-2.1311589234128423,-2.7398486850277397,-2.615882443123961
1768734165880,125,-3,-1.8973449090410373,-2.5809035553516724,-2.3807027658067392
1768734165884,126,-2,-1.54594728702029,-1.62465375853491,-2.0283398908961976
1768734165888,126,-2,-1.1427287492083833,-1.6110267537971823,-1.6246022011198995
1768734165892,126,-2,-0.7505185315271072,-1.6032194535039996,-1.2316494738094472
1768734165896,127,-1,-0.4222179566521444,-0.7369732432979494,-0.9016280838338148
1768734165900,127,-1,-0.2022688108094391,-0.569255333153221,-0.6789331800752314
1768734165904,127,-1,-0.111237962501403,-0.6586613065944356,-0.5845913764783135
1768734165908,127,-1,-0.1249453603547113,-0.5681675089015106,-0.59483625436358
1768734165912,127,-1,-0.1783195077503355,-0.6404622698653429,-0.6449348207276606
1768734165916,127,-1,-0.201149475575307,-0.6702488052178507,-0.664969693077955
1768734165920,127,-1,-0.1640965405365342,-0.6401452998676748,-0.6254797413990364
1768734165924,127,-1,-0.104121632653151,-0.5911229381068002,-0.5627516358137374
1768734165928,127,-1,-0.106796294920765,-0.6439293579427693,-0.5617601831624076
1768734165932,127,-1,-0.2469845149982947,-0.5409889584882297,-0.6975021519838374
1768734165936,127,-1,-0.5248798369766594,-0.760027056070359,-0.9707179656601944
1768734165940,126,-2,-0.8528473420776828,-1.539604967331934,-1.293931817448148
1768734165944,126,-2,-1.11411891256142,-1.7081520208999723,-1.5501471321967222
1768734165948,126,-2,-1.2449884311675063,-1.5270198694976564,-1.6757039891656296
1768734165952,126,-2,-1.2659608116314975,-1.6352288998847695,-1.6914599195758369
1768734165956,126,-2,-1.2417514993946246,-1.653230152833944,-1.6621423412752836
1768734165960,126,-2,-1.2199077758670496,-1.6282468861695094,-1.6348369947897203
1768734165964,126,-2,-1.2058426410815488,-1.653207619083077,-1.614628068007665
1768734165968,126,-2,-1.1858244882682674,-1.5713389096489538,-1.5879488008984233
1768734165972,126,-2,-1.1666335185480865,-1.5756458757924123,-1.561940113742741
1768734165976,126,-2,-1.1922347804971516,-1.6964227654391473,-1.5807686917943276
1768734165980,126,-2,-1.319003212211303,-1.5645123555104423,-1.7007782067458366
1768734165984,126,-2,-1.5667340329335744,-1.7557854644144606,-1.9414311098163608
1768734165988,125,-3,-1.8889702272384232,-2.45308528458137,-2.2557246848163923
1768734165992,125,-3,-2.192323790346594,-2.683053955517778,-2.5501692876550233
1768734165996,125,-3,-2.3860708527603993,-2.573611228842552,-2.7348666085986237
1768734166000,125,-3,-2.417670220630127,-2.654234670913605,-2.758207227463171
1768734166004,125,-3,-2.277448250984669,-2.728900109659752,-2.610245405793663
1768734166008,125,-3,-1.9886747265497209,-2.41237909066803,-2.3129403527995445
1768734166012,126,-2,-1.5936067327882202,-1.793203545944466,-1.9077816414607285
1768734166016,126,-2,-1.1320632353127262,-1.3494825950118026,-1.4352655351421146
1768734166020,127,-1,-0.6226904227693124,-0.9589172829697892,-0.9153564048703918
1768734166024,127,-1,-0.0706219952300859,-0.3667444903564675,-0.3537742775651447
1768734166028,128,0,0.4977914646393542,0.1734849544288753,0.2237857073414679
1768734166032,128,0,1.01008456389806,0.6538998532628714,0.7461266347079871
1768734166036,129,1,1.3722304410331043,1.239117802819107,1.1200079114465953
1768734166040,129,1,1.5378580543735354,1.424256192232097,1.2987164407491496
1768734166044,129,1,1.5645546203126328,1.2859579679275528,1.3386929329081012
1768734166048,129,1,1.5931176899997854,1.457719436126712,1.3797916755127388
1768734166052,129,1,1.7435065218787544,1.439015734903192,1.5419580863378712
1768734166056,129,1,2.001383783364855,1.4369764585473868,1.81144601351255
1768734166060,130,2,2.198809446289627,2.262396702998542,2.0207200274563
1768734166064,130,2,2.1262654373195433,2.4306055936816917,1.9605558665000256
1768734166068,129,1,1.691736921562546,1.2893813596342134,1.539716558576755
1768734166072,128,0,0.9899938342395364,0.6467387277685273,0.8535990300684166
1768734166076,128,0,0.2307762825670258,0.2200586843356708,0.111008399694703
1768734166080,127,-1,-0.3990476557129168,-0.4889682401991888,-0.5032515559970452
1768734166084,127,-1,-0.8342163952480321,-0.8302664872493619,-0.9247442864817352
1768734166088,126,-2,-1.1456201257547294,-1.452550425989542,-1.222918175996788
1768734166092,126,-2,-1.480165178234432,-1.5990857184274687,-1.542831539021838
1768734166096,126,-2,-1.958810915622045,-1.5196628285426752,-2.0052676132879625
1768734166100,125,-3,-2.5909187797158997,-2.7389657165835293,-2.6206880946475866
1768734166104,124,-4,-3.27089935762641,-3.5857173110850704,-3.2841023672356453
1768734166108,124,-4,-3.864844411564656,-3.6992063988968056,-3.86108190896586
1768734166112,123,-5,-4.309955870031653,-4.350504070224722,-4.288136707839767
1768734166116,123,-5,-4.637330229164322,-4.737567976482687,-4.5966972084707
1768734166120,123,-5,-4.905598027570273,-4.518242922690356,-4.846851564587452
1768734166124,123,-5,-5.119867502930415,-4.792902420128354,-5.044766836570576
1768734166128,122,-6,-5.2268541188096425,-5.5360470697685,-5.136156066856122
1768734166132,122,-6,-5.196166402578001,-5.453678950550788,-5.088181250873315
1768734166136,123,-5,-5.086742298222662,-4.682231318440282,-4.9584297484564175
1768734166140,123,-5,-4.994130052025102,-4.48202203962216,-4.843571858140758
1768734166144,123,-5,-4.912654504422473,-4.896172635934457,-4.740355849691176
1768734166148,123,-5,-4.668027322720263,-4.40266876898889,-4.476041972016076
1768734166152,124,-4,-4.027471340318337,-3.5929162294647443,-3.817217556495118
1768734166156,124,-4,-2.9209146068934153,-3.55422089387653,-2.691715587654876
1768734166160,126,-2,-1.5745142135000527,-1.522349513286374,-1.32460472562008
1768734166164,129,1,-0.3991748704725826,1.0635066101073771,-0.1278824308335554
1768734166168,128,0,0.3027297867505703,0.7154915243511482,0.5949661094397383
1768734166172,128,0,0.546205397404032,0.1968633617307366,0.8598781736464132
1768734166176,128,0,0.5905104411877891,0.7423251632375343,0.9273467065307304
1768734166180,129,1,0.6786549172600349,1.1409160533126788,1.039365805265724
1768734166184,129,1,0.8548329524027674,1.437423621612543,1.238085010759579
1768734166188,129,1,1.001187463920456,1.367893717921617,1.4056749907349233
1768734166192,129,1,1.0102311152279988,1.4745471984177747,1.4368351094138978
1768734166196,129,1,0.9198613687475534,1.5643867409362788,1.3709055059338775
1768734166200,129,1,0.9050359729187564,1.2115014319073052,1.38177931114528
1768734166204,129,1,1.1412341305554077,1.5025494942438842,1.6427053002167558
1768734166208,130,2,1.6483332630959175,2.209128154905296,2.172638596825478
1768734166212,130,2,2.241202189433568,2.7064302199434382,2.787690143497896
1768734166216,131,3,2.6394725984484815,3.2850346087564293,3.209489982960939
1768734166220,131,3,2.668870859954225,3.524958759615186,3.264611370129892
1768734166224,131,3,2.40526370539572,3.1947281199876634,3.0282563626855734
1768734166228,130,2,2.138490408221282,2.515176437958909,2.7890997762157195
1768734166232,130,2,2.168767403887114,2.4109098007354293,2.846387094483803
1768734166236,131,3,2.594972932998986,3.566495246126098,3.2983255283778288
1768734166240,132,4,3.266046166887681,4.283861699684867,3.993969058028193
1768734166244,132,4,3.9188930553735544,4.432501845627085,4.671485408781293
1768734166248,133,5,4.3706610910031145,5.293021892988028,5.149472134282483
1768734166252,133,5,4.615108613009256,5.617594052455125,5.421997719989022
1768734166256,133,5,4.771734703585148,5.341872316656028,5.607708624705705
1768734166260,133,5,4.949920729376186,5.565476515938395,5.8147669920022675
1768734166264,134,6,5.149656659735644,6.125494198314385,6.042151199623317
1768734166268,134,6,5.283858117945966,6.648850540533061,6.20275216926564
1768734166272,134,6,5.287813394874201,6.220347109959941,6.233505615527688
1768734166276,133,5,5.196035919773911,5.743876020883465,6.170982136414833
1768734166280,134,6,5.116937951118836,6.203981606829973,6.123346442202696
1768734166284,134,6,5.149807500738983,6.448987941819543,6.186965567761654
1768734166288,134,6,5.320509366748244,6.419510464745972,6.385426028590135
1768734166292,134,6,5.5597048234578645,6.34203025931578,6.6506087494563575
1768734166296,134,6,5.721429153559093,6.7255095052426075,6.839828974259847
1768734166300,135,7,5.6566857788140625,7.131300789728036,6.80576156148639
1768734166304,134,6,5.328879586714728,6.625168299101997,6.510606449942758
1768734166308,134,6,4.8826774235576975,6.197964584304686,6.0968861872952145
1768734166312,133,5,4.571816237914452,5.582295105652019,5.81728044655
1768734166316,133,5,4.568640405340746,5.4804261845830835,5.844136575820014
1768734166320,134,6,4.8072112404885115,6.360878627026446,6.111675059278031
1768734166324,134,6,5.002827163179804,6.47813181025308,6.335611857608631
1768734166328,134,6,4.839485825061656,6.284396101418169,6.201253733852547
1768734166332,133,5,4.1753927243395434,5.568820220358749,5.568397243746672
1768734166336,132,4,3.1179546143911656,4.385300985666872,4.544666369757184
1768734166340,131,3,1.9374936456859997,3.5493155229533926,3.39870780378732
1768734166344,130,2,0.9000382925693156,2.260250371456358,2.394465212562827
1768734166348,129,1,0.129950402260595,1.558734007058577,1.6555250032159576
1768734166352,129,1,-0.4245436627991854,1.2807333568630386,1.1307986759680462
1768734166356,128,0,-0.9174998258677682,0.6327450781539866,0.6674235282365544
1768734166360,128,0,-1.4840775675236162,0.3569638969820443,0.1313549333064716
1768734166364,127,-1,-2.1599635221976237,-0.5765581097196462,-0.5121545859384047
1768734166368,126,-2,-2.8888678729120785,-1.5214328551643486,-1.2066127317629238
1768734166372,126,-2,-3.586607122719804,-1.7226780484312951,-1.8691817019228076
1768734166376,125,-3,-4.191226753934745,-2.302152165789042,-2.440221285877426
1768734166380,125,-3,-4.670687097598326,-2.773497733699083,-2.8887500863121764
1768734166384,124,-4,-5.021617306230534,-3.336395172226602,-3.2098484179352096
1768734166388,124,-4,-5.285246955797214,-3.813094848076405,-3.4421820163417345
1768734166392,124,-4,-5.546265137877093,-3.4049721091264065,-3.669635886064712
1768734166396,124,-4,-5.873419667711749,-3.6380515561095983,-3.962386503729854
1768734166400,123,-5,-6.239170542187946,-4.453941847021206,-4.294419851143313
1768734166404,123,-5,-6.511935624176612,-4.561257295481551,-4.534135268982135
1768734166408,123,-5,-6.553800620543972,-4.6612554115646105,-4.542821892054393
1768734166412,123,-5,-6.341918103288369,-4.486606741934731,-4.2976973851715625
1768734166416,124,-4,-5.99934565860543,-3.635754091012944,-3.92283885717802
1768734166420,124,-4,-5.70767721341496,-3.3814935157771626,-3.6001638613590017
1768734166424,124,-4,-5.585204212709424,-3.639638090624073,-3.4464539968153387
1768734166428,124,-4,-5.6337756021084875,-3.5694224098484733,-3.4615318442914793
1768734166432,124,-4,-5.77314202013788,-3.5833855630635,-3.56513844639482
1768734166436,124,-4,-5.9005644759873315,-3.5782851142319143,-3.657015571699453
1768734166440,124,-4,-5.9255530709285145,-3.3659857517213343,-3.649067731633583
1768734166444,124,-4,-5.793107620539611,-3.670165012945956,-3.485934283170434
1768734166448,124,-4,-5.520356050258615,-3.5073332246988462,-3.1821989862112092
1768734166452,125,-3,-5.216509928118622,-2.6690998913643007,-2.8454694849339357
1768734166456,125,-3,-5.030873203128872,-2.521026107257994,-2.626069745414481
1768734166460,125,-3,-5.043029751101589,-2.3510039057255265,-2.6054107295792623
1768734166464,125,-3,-5.195662572077914,-2.707583114579708,-2.7261236377689535
1768734166468,124,-4,-5.347386986355989,-3.426928358865374,-2.845104160885732
1768734166472,125,-3,-5.395452169158932,-2.806644850208795,-2.859007899132218
1768734166476,125,-3,-5.337814579278788,-2.3630938810879423,-2.7675638957164233
1768734166480,125,-3,-5.22073461705533,-2.4772221914269306,-2.6188432886136175
1768734166484,125,-3,-5.0591834418778925,-2.5622694276884403,-2.4270936287522513
1768734166488,125,-3,-4.837104338119127,-2.553905817674064,-2.173966721701537
1768734166492,126,-2,-4.573000505243776,-1.7523103421826631,-1.8771583309366409
1768734166496,126,-2,-4.346806027343078,-1.359504643084041,-1.6180658235643686
1768734166500,126,-2,-4.242088719570831,-1.4951664656067971,-1.4817035262615617
1768734166504,126,-2,-4.27067142092491,-1.4666571505718509,-1.4794148975560737
1768734166508,126,-2,-4.364975573497476,-1.694357072296319,-1.5421547490655028
1768734166512,126,-2,-4.440060268656657,-1.6398187950353005,-1.5847413241421904
1768734166516,126,-2,-4.456674646704136,-1.4426541601224816,-1.569376185862955
1768734166520,126,-2,-4.433105337129552,-1.4061472549037168,-1.5156346731943071
1768734166524,126,-2,-4.418297672979041,-1.4733687051736963,-1.4718258488753189
1768734166528,126,-2,-4.466780862005327,-1.7573988699049363,-1.490624303708571
1768734166532,126,-2,-4.624014373519923,-1.5689808741191769,-1.6167586783542487
1768734166536,126,-2,-4.901606083772755,-1.5349241601650292,-1.8630713118360631
1768734166540,125,-3,-5.248310041717348,-2.249964597796553,-2.179729022239111
1768734166544,125,-3,-5.559936471371911,-2.601028062739223,-2.46224643121811
1768734166548,125,-3,-5.744093072867949,-2.655181391307929,-2.616792099910938
1768734166552,125,-3,-5.786742050008989,-2.6963854317050093,-2.6289038019475663
1768734166556,125,-3,-5.7526804240173455,-2.410228768920302,-2.5648740992506673
1768734166560,125,-3,-5.719937041581421,-2.303063772487231,-2.5045393655207135
1768734166564,125,-3,-5.720437642242558,-2.5412942637912668,-2.479546603327866
1768734166568,125,-3,-5.748322407493642,-2.717797731782151,-2.4814100348509855
1768734166572,125,-3,-5.809034521816284,-2.687983396910604,-2.513242887543709
1768734166576,125,-3,-5.921613228995209,-2.4002538949168195,-2.594760233690864
1768734166580,125,-3,-6.044080565322643,-2.2489789945106833,-2.6870402141302945
1768734166584,125,-3,-6.015685092091225,-2.582709118614937,-2.63136285784303
1768734166588,125,-3,-5.636862955342423,-2.677438555608269,-2.227266980636155
1768734166592,126,-2,-4.864532517866646,-1.7971657043183678,-1.4298312790356118
1768734166596,127,-1,-3.933890505000008,-0.2534637062078934,-0.4743406446193757
1768734166600,128,0,-3.244706177156919,0.6525221957043814,0.2379812713763482
1768734166604,128,0,-3.074728983029872,0.556317872168951,0.4299490594585307
1768734166608,128,0,-3.3645309502620138,0.1449628071757683,0.164774303315916
1768734166612,127,-1,-3.7553294059780176,-0.6679123399640766,-0.1955049525008461
1768734166616,127,-1,-3.8283313711292735,-0.3846208095772476,-0.2344562413311689
1768734166620,128,0,-3.342520839785153,0.8847961643874702,0.2809752658816094
1768734166624,129,1,-2.3336035854028303,1.3430491396830424,1.30826334308226
1768734166628,130,2,-1.09559757561855,2.341855617279207,2.555040506623528
1768734166632,131,3,-0.1071013438331496,3.090600561909641,3.553085233262532
1768734166636,131,3,0.1224874631005179,3.800304139628451,3.804370436400643
1768734166640,131,3,-0.6744725682014487,3.860815582036078,3.04413328624466
1768734166644,129,1,-2.2518686790644113,1.3269303975637563,1.5089543167102917
1768734166648,128,0,-3.847283444020091,0.35838716603781,-0.0551491420160484
1768734166652,127,-1,-4.617862783566487,-0.9122537146323102,-0.8153815160129957
1768734166656,126,-2,-4.336274002827913,-1.4168803555214096,-0.5371659788832532
1768734166660,126,-2,-3.82874331061524,-0.451308645220107,-0.0267452839957601
1768734166664,126,-2,-4.618962658513862,-2.795153377948082,-0.7948756004976323
1768734166668,126,-2,-7.741999822702349,-0.0498293651444643,-3.883735289382845
1768734166672,126,-2,-12.539123709875572,-4.018216147410625,-8.649921464161915
1768734166676,106,-22,-16.654744045302124,-19.01346987007955,-12.7416916695523
1768734166680,112,-16,-17.601344115351665,-16.945925912951527,-13.66606235029505
1768734166684,119,-9,-14.65514682569683,-7.21172097025484,-10.701134115861192
1768734166688,124,-4,-9.34752055511725,-4.522112931878788,-5.386895394003734
1768734166692,128,0,-4.192464031501332,0.2493463192851136,-0.2355992930001259
1768734166696,130,2,-0.9336453379174108,3.0295729385336543,3.0247459524735234
1768734166700,131,3,0.2587073025545581,3.4761247068387187,4.23664656832187
1768734166704,131,3,0.3270783789510525,3.915638362089013,4.338656323979556
1768734166708,132,4,0.3089294273895264,3.9009362520162014,4.35252066956689
1768734166712,133,5,0.6416171628800749,5.274189399456692,4.702926706891608
1768734166716,133,5,1.1634252274520684,5.7502847767533085,5.227779170124618
1768734166720,133,5,1.5582304366476842,5.795249470296558,5.62072142024282
1768734166724,133,5,1.73055331014615,5.6214242499022085,5.7971585704007635
1768734166728,133,5,1.8196446466199163,5.16600467696188,5.900280066779454
1768734166732,134,6,1.9735066351093673,6.13033935905243,6.073477970366597
1768734166736,134,6,2.196447465855325,6.839753336184465,6.313110193588241
1768734166740,134,6,2.4187154087974623,6.668775560160892,6.54523279335283
1768734166744,134,6,2.653063135847077,6.779920173570767,6.784819900848453
1768734166748,135,7,3.023658582783451,7.006019397004739,7.161082891452926
1768734166752,135,7,3.627746815975096,7.356694268937846,7.773594425481065
1768734166756,136,8,4.390330208147262,8.603647331139447,8.545194762790539
1768734166760,137,9,5.0777264861650515,9.851554907097762,9.239014833458786
1768734166764,137,9,5.4601163242548445,9.646221604704216,9.6254334340608
1768734166768,137,9,5.464176253003121,9.11081966466784,9.634427419448826
1768734166772,137,9,5.196803879262964,9.348396199618277,9.374591849088471
1768734166776,137,9,4.867691392036369,9.537638827951168,9.053188051530784
1768734166780,136,8,4.693374357728392,8.950458867618773,8.883476835885217
1768734166784,136,8,4.810062363252295,8.523005064460046,9.001715833288293
1768734166788,137,9,5.2053050963464145,9.28167877467185,9.3980227272633
1768734166792,138,10,5.725232342557157,10.205535729317754,9.919779778671366
1768734166796,138,10,6.190930160567176,10.656455233044918,10.3870136541572
1768734166800,138,10,6.539148328091389,10.838564489791295,10.735660360987964
1768734166804,138,10,6.850291972510866,10.619000378966703,11.047123067137033
1768734166808,139,11,7.239223002578791,11.214927243394571,11.437312171030172
1768734166812,140,12,7.733610628933711,12.311418689658522,11.932880694372615
1768734166816,140,12,8.26522281026094,12.522817153137725,12.463381821248824
1768734166820,140,12,8.758466183842334,12.998108221085284,12.95254628687798
1768734166824,141,13,9.19776031310128,13.427519359885704,13.38667960341732
1768734166828,141,13,9.603202949599956,13.439083164543035,13.788356818044594
1768734166832,142,14,9.96515217780752,14.116196276136373,14.14825269003889
1768734166836,142,14,10.23536473705128,14.701841430624777,14.415890684418663
1768734166840,142,14,10.394184551166603,14.847645488104249,14.569468728015572
1768734166844,142,14,10.505383027407555,14.533518286911283,14.67329471565344
1768734166848,142,14,10.673255683828804,14.390060248933482,14.834019699425443
1768734166852,143,15,10.93919300654039,15.150617240975974,15.093937800102044
1768734166856,143,15,11.2398287029508,15.699981389693836,15.387984817799822
1768734166860,143,15,11.47634515981516,15.84407862442855,15.615605803556576
1768734166864,143,15,11.607991616263766,15.521759316796183,15.73677374946698
1768734166868,143,15,11.664166946767072,15.440237782736364,15.782955852136078
1768734166872,144,16,11.6830880528115,16.07059418960474,15.792878023329624
1768734166876,143,15,11.668420967758497,15.84733296358929,15.768642218620933
1768734166880,143,15,11.608679158949304,15.648575133701806,15.697398198799036
1768734166884,143,15,11.51418288195304,15.76215775768429,15.590005590432677
1768734166888,143,15,11.414537884294065,15.174877158608256,15.477561065500243
1768734166892,143,15,11.32129683614662,15.349700702679288,15.371993252321529
1768734166896,143,15,11.204326327884722,15.61356559264559,15.241960530107557
1768734166900,142,14,11.006587803700238,14.842692860209972,15.029219365668428
1768734166904,142,14,10.673363343474808,14.61811366667159,14.679347093963855
1768734166908,142,14,10.166905746185387,14.279829496992468,14.156044632746394
1768734166912,141,13,9.472414868522126,13.271484184235517,13.445594714501944
1768734166916,140,12,8.615901078234472,12.71572590654485,12.5737421931087
1768734166920,139,11,7.688155834599075,11.736260168321646,11.630037786340967
1768734166924,138,10,6.83916265002948,10.734065525016996,10.76352207255289
1768734166928,138,10,6.215528993315332,10.165106412631696,10.120985575054338
1768734166932,137,9,5.865731329960386,9.382643643297095,9.75160015871728
1768734166936,137,9,5.689076058611093,9.65156478442261,9.554671492748689
1768734166940,137,9,5.4875614806358035,9.780372213068,9.331593922968452
1768734166944,136,8,5.090109316486827,8.723170821628742,8.91149263996595
1768734166948,136,8,4.448985898604079,8.133469205802196,8.248093899391204
1768734166952,135,7,3.6435750689178703,7.463133933812696,7.421946701709968
1768734166956,134,6,2.819994164583785,6.542093950609578,6.578455016689829
1768734166960,133,5,2.1324046860019896,5.953739516812519,5.869649573690748
1768734166964,133,5,1.7101145285698838,5.516196168745248,5.423339656620587
1768734166968,133,5,1.6278116535815863,5.360789137785749,5.3148156181098996
1768734166972,133,5,1.8643450112576057,5.234749576394041,5.524880315374521
1768734166976,133,5,2.2834845588948145,5.778606540804328,5.91834348221119
1768734166980,134,6,2.687205841803544,6.756379358142835,6.296324203172885
1768734166984,134,6,2.9297691430389,6.687529842243269,6.512031503970223
1768734166988,134,6,2.999792488771976,6.217820711676344,6.554696978936264
1768734166992,134,6,2.9950107497988947,6.341047979481047,6.5234196877989925
1768734166996,134,6,3.0266743439350474,6.726560241356978,6.529263686131463
1768734167000,134,6,3.153192212417194,6.785662012074555,6.628729102683126
1768734167004,134,6,3.382227102285002,6.7209499403144966,6.827993254671773
1768734167008,135,7,3.696623951627024,7.126234012711199,7.110425815102282
1768734167012,135,7,4.0589266014331455,7.4798139399726,7.4405479317433745
1768734167016,135,7,4.405456590001802,7.55489334801864,7.756324587727943
1768734167020,135,7,4.669478607462819,8.015319610171389,7.990971299523847
1768734167024,136,8,4.841095692794819,8.485215484340607,8.133147244207827
1768734167028,136,8,5.010757280764022,8.358618837354886,8.27217278560956
1768734167032,136,8,5.325202071485491,8.252222211048515,8.554915676144724
1768734167036,136,8,5.859666853729634,8.776687399797044,9.056801236441602
1768734167040,137,9,6.515424880563799,9.837675003238097,9.678177367845162
1768734167044,138,10,7.050436544969067,10.662726883653669,10.17645868172821
1768734167048,138,10,7.223251565579963,10.190512598141254,10.31220976080031
1768734167052,137,9,6.930574671884968,9.40471643200172,9.985315050787325
1768734167056,137,9,6.2602847863521,9.620845356413795,9.283991102310768
1768734167060,136,8,5.4689999014435555,9.03311281504729,8.461557921877056
1768734167064,135,7,4.896860770227198,7.467657568963457,7.855098970704248
1768734167068,135,7,4.812347826534565,7.416549892501138,7.733306095803605
1768734167072,136,8,5.248296839163055,8.14992604516101,8.130960476666441
1768734167076,136,8,5.9646014772393965,8.875082064464756,8.808783882578506
1768734167080,137,9,6.599494958020279,9.833978268753675,9.404734511588984
1768734167084,137,9,6.8981831982139905,9.650751996605443,9.664585213301022
1768734167088,137,9,6.835416299377096,9.270709234547398,9.56473993174292
1768734167092,137,9,6.559184948039903,9.231694934961071,9.253717009014734
1768734167096,136,8,6.247056437601509,8.830704253752781,8.906837569098009
1768734167100,136,8,6.012090858504717,8.888455801651903,8.633757789632352
1768734167104,136,8,5.90041154533353,8.657672162706877,8.479689109720585
1768734167108,136,8,5.918720108835165,8.223459944771252,8.454524465356887
1768734167112,136,8,6.033802231810723,8.29271641587795,8.529565043590864
1768734167116,136,8,6.166537242801967,8.726205658945549,8.626828820110035
1768734167120,136,8,6.231652214181631,9.076265610469544,8.657119889975263
1768734167124,136,8,6.203196345310707,8.474222946547947,8.588764084050368
1768734167128,136,8,6.122221540502531,8.39933880284059,8.46058089229742
1768734167132,136,8,6.018831131260388,8.12709808050456,8.306811111870676
1768734167136,135,7,5.841422132371394,7.8000272190615325,8.084290540090993
1768734167140,135,7,5.514352790505187,8.177437229405466,7.723594632173078
1768734167144,135,7,5.118017490871447,7.280193038608194,7.30220443167303
1768734167148,135,7,5.010872689042171,7.662194611810746,7.165960069418323
1768734167152,136,8,5.672233356394381,7.865681850350557,7.781527194555027
1768734167156,136,8,7.2319961928994445,8.865729268930172,9.279647503925222
1768734167160,137,9,8.985344281706235,10.526775650043474,10.971976698648572
1768734167164,137,9,9.416515680641412,8.474430100294112,11.35880144881042
1768734167168,138,10,7.050807834245051,11.997794470450778,8.963813908471291
1768734167172,139,11,1.711942439006826,8.988144940719124,3.596046205534869
1768734167176,117,-11,-4.940662874297352,-7.87864456727975,-3.0935494035833013
1768734167180,117,-11,-10.361664073281892,-11.951709575297611,-8.55690452300666
1768734167184,117,-11,-12.881121939642185,-8.901925733568248,-11.122359449204868
1768734167188,118,-10,-12.66738593597402,-10.57491430274262,-10.961082747457038
1768734167192,119,-9,-11.07511099034186,-8.548853300455082,-9.424446375310122
1768734167196,120,-8,-9.14014151120106,-7.012351200988481,-7.536383215817104
1768734167200,122,-6,-6.62132755658411,-5.360417050454421,-5.048435070563413
1768734167204,126,-2,-2.3303768227102495,-0.9648684516764928,-0.7799751294824002
1768734167208,133,5,4.5925675407689805,5.003275625211057,6.112415174135828
1768734167212,142,14,13.464700180663254,14.379620253543358,14.935304005543182
1768734167216,151,23,21.838045045585165,23.81798662896846,23.243832409370125
1768734167220,156,28,26.497715142106223,28.84179556436041,27.836457743892066
1768734167224,154,26,25.059548437053273,26.796391726706947,26.34296273731491
1768734167228,146,18,17.153313977499884,18.155833446788492,18.399173068211976
1768734167232,133,5,4.521156410082519,5.373759129302996,5.742716625831317
1768734167236,118,-10,-9.874203572318898,-9.235845657031932,-8.674873318209084
1768734167240,105,-23,-23.06294219446985,-22.07039686944252,-21.894457061385996
1768734167244,96,-32,-32.920263710568456,-31.284873748961367,-31.79572863576135
1768734167248,91,-37,-38.40813027278432,-36.72990857451834,-37.33749266923888
1768734167252,89,-39,-39.42140553562546,-38.63340677840018,-38.40685887918187
1768734167256,91,-37,-36.57946321358931,-36.27027720535861,-35.61651419760757
1768734167260,97,-31,-31.080838074562564,-30.02957566814135,-30.163409133050695
1768734167264,104,-24,-24.493524245248235,-23.388145266676897,-23.618054367248952
1768734167268,110,-18,-18.37108028758088,-17.563874339815293,-17.53656895598355
1768734167272,115,-13,-13.795832312172177,-12.780970455708555,-13.001811180619692
1768734167276,117,-11,-11.08933214195285,-10.132476935387588,-10.334974311207455
1768734167280,118,-10,-9.865528178574452,-9.220851443241608,-9.150185418957486
1768734167284,118,-10,-9.398498817128242,-9.210841306075796,-8.722405931742383
1768734167288,119,-9,-9.074187038896682,-8.676534540747369,-8.438983005715144
1768734167292,120,-8,-8.64222604844265,-7.624579575311982,-8.050931723601918
1768734167296,120,-8,-8.150368787249711,-7.258574330209411,-7.605731879725589
1768734167300,120,-8,-7.704687630503271,-7.177552128522662,-7.20643281723048
1768734167304,120,-8,-7.305597894498232,-7.223315215344489,-6.84969412276517
1768734167308,121,-7,-6.869620390044982,-6.676188261267607,-6.451434572575742
1768734167312,122,-6,-6.340790213537863,-5.520227519988688,-5.959319880572654
1768734167316,122,-6,-5.749459718129282,-5.3869975077019205,-5.408021848625889
1768734167320,122,-6,-5.187869329787628,-5.081914956134117,-4.890522111439557
1768734167324,123,-5,-4.762916175004386,-4.322432947137471,-4.510461960154556
1768734167328,123,-5,-4.56533847805561,-4.5814334582976795,-4.354700717694044
1768734167332,123,-5,-4.63784234553385,-4.5128764597607915,-4.4649947117747555
1768734167336,123,-5,-4.925512457842972,-4.421777012543674,-4.7889508048284
1768734167340,122,-6,-5.246188896317222,-5.062753900757748,-5.1476158020155935
1768734167344,122,-6,-5.349076632420356,-5.37476713773474,-5.290892379019183
1768734167348,122,-6,-5.068055139755149,-5.488785833388713,-5.050764874999675
1768734167352,123,-5,-4.458563123738735,-4.555843538948617,-4.481031318323048
1768734167356,124,-4,-3.775973594899056,-3.3452268818406146,-3.8375135000290257
1768734167360,124,-4,-3.2870066440407464,-3.205360758157973,-3.3879400895355647
1768734167364,124,-4,-3.0781242321393374,-3.2202953343090615,-3.2180618169772925
1768734167368,124,-4,-3.0328946963016556,-3.6571061089146464,-3.2096893350163933
1768734167372,124,-4,-2.974566804291845,-3.3054471027132437,-3.1860941994492182
1768734167376,125,-3,-2.812861589706381,-2.594886392748806,-3.059553570658953
1768734167380,124,-4,-2.5662070843958804,-2.973048222505923,-2.850794299703812
1768734167384,125,-3,-2.285848663803703,-2.4749401701088467,-2.610217671358104
1768734167388,125,-3,-1.9927003110420092,-2.381779598913102,-2.3554373668063304
1768734167392,125,-3,-1.680309463632924,-2.5392305702031535,-2.0778028857170048
1768734167396,126,-2,-1.3422667948608915,-1.3381868207108008,-1.7722124616867243
1768734167400,126,-2,-0.9707970437179309,-1.2455221010524236,-1.434221523109173
1768734167404,126,-2,-0.5413695221312529,-1.2416152094248707,-1.0409950169646698
1768734167408,127,-1,-0.0354717649220912,-0.5653436701614212,-0.5724414679650947
1768734167412,127,-1,0.5035538943429629,-0.3484742188467262,-0.069041095356496
1768734167416,128,0,0.9580317587865594,0.5148350509094891,0.3526413493656397
1768734167420,128,0,1.2159357631140972,0.8811950415542895,0.5791483125797604
1768734167424,128,0,1.2833120643356413,0.5940163919091483,0.6144269897740987
1768734167428,128,0,1.3077216548900743,0.6465925213138346,0.6054973203592675
1768734167432,128,0,1.462859015443759,0.440907744991328,0.72730754560602
1768734167436,128,0,1.7873373093791645,0.7760548358801602,1.0197155262053794
1768734167440,129,1,2.135339909636982,1.5925806934647402,1.3365398560365325
1768734167444,129,1,2.3007115577018467,1.8698259697542436,1.470347297902688
1768734167448,129,1,2.201529122386169,1.3968545325581272,1.3391526680052142
1768734167452,128,0,1.9435742886578504,0.6952715120052692,1.0503637617479324
1768734167456,128,0,1.7054375684539895,0.5775636247295707,0.7837151415134044
1768734167460,128,0,1.5726067479603223,0.723099051395379,0.6234653622255234
1768734167464,128,0,1.4851116408250982,0.8043497407130791,0.5072453566696044
1768734167468,128,0,1.3238190679345614,0.4055577885897721,0.3152381891969961
1768734167472,127,-1,1.019683965926657,-0.2100301840346476,-0.0197496430698431
1768734167476,127,-1,0.579997334025224,-0.5746211370676118,-0.4882380774321042
1768734167480,126,-2,0.0419092204774607,-1.093347660995903,-1.0528131459926555
1768734167484,126,-2,-0.5672958902686127,-1.4055997273311078,-1.6875061903441564
1768734167488,125,-3,-1.2247580282415518,-2.353559504583613,-2.3704912787767127
1768734167492,124,-4,-1.8932203724356405,-3.4136494418338437,-3.064699398245973
1768734167496,124,-4,-2.527991204341561,-3.3885510993143537,-3.725681669943064
1768734167500,123,-5,-3.1083266837049104,-4.26340402583244,-4.333088751869496
1768734167504,122,-6,-3.6677198128954704,-5.271664304146442,-4.91982701385093
1768734167508,122,-6,-4.296839965105195,-5.421881293143159,-5.574808727392332
1768734167512,121,-7,-5.097110158524819,-6.3533490505647325,-6.3981931271120445
1768734167516,120,-8,-6.091578936194862,-7.427874650538367,-7.413863080798908
1768734167520,119,-9,-7.15403266565722,-8.239748521663678,-8.497962172720955
1768734167524,118,-10,-8.037943249785517,-9.30590434772323,-9.405387171656042
1768734167528,117,-11,-8.524366482808738,-10.344598901031022,-9.916138030890398
1768734167532,117,-11,-8.591355688232813,-10.41884111607416,-10.006219091412708
1768734167536,118,-10,-8.446873542213002,-9.348202020198904,-9.883150079135024
1768734167540,118,-10,-8.366471268193536,-9.327948549532564,-9.823703322958814
1768734167544,117,-11,-8.474118943703207,-10.229179810730807,-9.952557430173655
1768734167548,117,-11,-8.676617673937734,-10.383872872014958,-10.175879649691868
1768734167552,117,-11,-8.804333307578052,-10.386002608801642,-10.323409778467653
1768734167556,117,-11,-8.801778863914667,-10.354598894637707,-10.340008168100768
1768734167560,117,-11,-8.779238990394177,-10.330453425703318,-10.336658285849191
1768734167564,117,-11,-8.887154246974003,-10.220586818726632,-10.463911941450286
1768734167568,117,-11,-9.14251141892816,-10.369256572645376,-10.738059088986567
1768734167572,116,-12,-9.377722188765686,-11.405918418701878,-10.990626194887218
1768734167576,116,-12,-9.367894796597357,-11.31114964177956,-10.99683658673105
1768734167580,117,-11,-9.021734621097078,-10.38890058675562,-10.666974049432294
1768734167584,117,-11,-8.46175027827568,-10.13222171980247,-10.12509532420984
1768734167588,118,-10,-7.931546135715264,-9.460132049040762,-9.614238087995526
1768734167592,118,-10,-7.623489039176043,-9.275085716956662,-9.324189539964802
1768734167596,118,-10,-7.564200735685153,-9.48715170694761,-9.279511749277075
1768734167600,118,-10,-7.620599003090277,-9.170481148194058,-9.347745953966848
1768734167604,118,-10,-7.59614748577901,-9.375592793124406,-9.33511615447803
1768734167608,118,-10,-7.348067637797838,-9.169125704788073,-9.10121037932198
1768734167612,119,-9,-6.865871342474728,-8.55618679627224,-8.635603759421532
1768734167616,119,-9,-6.276234407117348,-8.22361912107352,-8.062966788604918
1768734167620,120,-8,-5.770142000825839,-7.412542472380263,-7.571887719112374
1768734167624,120,-8,-5.489462665257531,-7.14504738409276,-7.303016600572005
1768734167628,120,-8,-5.443089292985636,-7.360805351111508,-7.265913370958187
1768734167632,120,-8,-5.511846931379804,-7.365418976127442,-7.343767154456606
1768734167636,120,-8,-5.540703675281241,-7.41183257947951,-7.384269141412511
1768734167640,120,-8,-5.453952396334773,-7.234860325819077,-7.312439294925126
1768734167644,120,-8,-5.314814186896712,-7.282950796013747,-7.188821547766133
1768734167648,120,-8,-5.284176697129259,-7.240562749423282,-7.170183456200386
1768734167652,120,-8,-5.485517057696402,-7.412587474423257,-7.37875271636525
1768734167656,120,-8,-5.846482131470154,-7.46199479976862,-7.745464436437054
1768734167660,120,-8,-6.0482222636328835,-7.078046247729461,-7.955417284670831
1768734167664,119,-9,-5.693874932196878,-8.531313513945404,-7.611675348885986
1768734167668,119,-9,-4.631102870073898,-7.873066016420458,-6.559103737970443
1768734167672,124,-4,-3.149395089628414,-3.841311091700699,-5.0867230943708055
1768734167676,124,-4,-1.8168771971713964,-2.98987957709444,-3.7648367927729094
1768734167680,124,-4,-1.0738784092142506,-3.5648582865807503,-3.0337925457598125
1768734167684,124,-4,-0.9596853048102868,-3.0346734363469894,-2.929152196774227
1768734167688,124,-4,-1.1874848474657729,-3.352046695510986,-3.1609898169217443
1768734167692,124,-4,-1.4256212274934876,-3.408513545113093,-3.3991157961969396
1768734167696,124,-4,-1.5080183381573384,-3.3142729212059776,-3.4825566959914123
1768734167700,124,-4,-1.446529062554723,-3.3332178749975463,-3.4280943880431334
1768734167704,124,-4,-1.3182122888084766,-3.1368048325187305,-3.314199743640521
1768734167708,124,-4,-1.1621981163089017,-3.3738766706308376,-3.176380656933732
1768734167712,124,-4,-0.936156973842639,-3.287976761335022,-2.964812380853198
1768734167716,125,-3,-0.47158364386455,-2.4887029900662263,-2.5039352692650048
1768734167720,126,-2,0.6296259805898057,-1.0787359433861474,-1.3944706007889307
1768734167724,129,1,3.0705406307523617,1.571246336787014,1.0597572388517902
1768734167728,133,5,7.686879011455332,5.959287528718673,5.683379369796518
1768734167732,140,12,14.89772812240378,12.343088202220123,12.88775512306343
1768734167736,148,20,23.99477923274424,20.936459522582386,21.965353080904453
1768734167740,158,30,32.81671438351491,30.498427765841942,30.763002370233146
1768734167744,164,36,38.29050353320923,37.00191926143635,36.21764273908223
1768734167748,164,36,37.76212477938539,36.52093635762141,35.68166809389834
1768734167752,156,28,30.38295189065201,28.7118482046701,28.30690362492412
1768734167756,143,15,17.64967212273886,15.59757722579064,15.58544004623934
1768734167760,127,-1,2.718563858290103,-0.2021294607926402,0.6669200898822614
1768734167764,113,-15,-11.055958371180465,-14.207085614896744,-13.100176271710358
1768734167768,104,-24,-21.41320834628817,-23.25044480548982,-23.459052210834063
1768734167772,99,-29,-27.585572763323068,-28.468136309246383,-29.642523581485175
1768734167776,96,-32,-29.833105651525173,-31.20122108008687,-31.90595377030291
1768734167780,96,-32,-28.763322757647025,-31.41790548061442,-30.84865377436045
1768734167784,99,-29,-25.03942540925494,-27.976550549933844,-27.12823217400178
1768734167788,106,-22,-19.504747995717914,-21.49759232472589,-21.58990671901547
1768734167792,112,-16,-13.302885212172871,-15.18453368499451,-15.384224604211518
1768734167796,118,-10,-7.668970990523037,-9.488076816709796,-9.751250990084351
1768734167800,122,-6,-3.488876919400491,-5.1267772934580815,-5.575834521858846
1768734167804,124,-4,-0.985368977141047,-3.3058428558286215,-3.0761483084098615
1768734167808,125,-3,0.2199695347907724,-2.1708633578131193,-1.870571149319889
1768734167812,126,-2,0.739265265060514,-1.474249573932496,-1.3478221223578095
1768734167816,126,-2,1.041072327817692,-1.182723332576782,-1.0431305068439447
1768734167820,127,-1,1.3154086958940954,-0.3920473380495302,-0.7699098992871127
1768734167824,127,-1,1.59028950581588,-0.0819167782460399,-0.5002925837309324
1768734167828,127,-1,1.8996686187020184,-0.3719368493556577,-0.1968584653877394
1768734167832,127,-1,2.314020438266884,-0.2785366056876296,0.2149350659410156
1768734167836,128,0,2.8431532102785653,0.6779664112830873,0.7456849980878676
1768734167840,129,1,3.375479191463263,1.726793123030093,1.2807494443461742
1768734167844,129,1,3.75497771375182,1.8276157838353784,1.660694319042364
1768734167848,129,1,3.9142479112356914,1.676551570191035,1.8176863615466552
1768734167852,129,1,3.916054038209876,1.7186994709612895,1.8166479408175429
1768734167856,129,1,3.8707148884878846,1.6767477946345792,1.7699159978206445
1768734167860,129,1,3.832366347877504,1.7568933740644173,1.7319075309424334
1768734167864,129,1,3.783192836469941,1.797973154548442,1.6838218708100938
1768734167868,129,1,3.710140591629671,1.6933474117866525,1.6114595602621802
1768734167872,129,1,3.6821458973639887,1.726696479527289,1.5831359242872554
1768734167876,129,1,3.83367130855196,1.6738925033330905,1.7334242479206736
1768734167880,129,1,4.250903902317935,1.782004191845616,2.1490659659576914
1768734167884,130,2,4.862317459296537,2.7750952033521328,2.758948780523891
1768734167888,131,3,5.451638065589923,3.709885026877079,3.3469593303363188
1768734167892,131,3,5.804807001928649,3.73113754426891,3.699379891249043
1768734167896,131,3,5.872052990840068,3.6731952841241937,3.76688029877948
1768734167900,131,3,5.808054886166634,3.8045019565216376,3.703913039910435
1768734167904,131,3,5.859100214817431,3.735724298807072,3.7557069974796815
1768734167908,131,3,6.186743055708098,3.769277429725281,4.082769557335878
1768734167912,132,4,6.760380150834791,4.675794267692039,4.654269078576168
1768734167916,133,5,7.396838652868929,5.759465462005471,5.287831338738287
1768734167920,133,5,7.908899345886739,5.718254975783185,5.797703354498387
1768734167924,133,5,8.238835958519353,5.819320033926717,6.127174655274593
1768734167928,134,6,8.479777651418974,6.687337578825442,6.36888953514977
1768734167932,134,6,8.788352177931426,6.764515990017297,6.678054224779594
1768734167936,134,6,9.261759096611232,6.7032179291980585,7.150983593242665
1768734167940,135,7,9.86212430002958,7.780465279053395,7.749682848104801
1768734167944,136,8,10.441474250602804,8.756385416842745,8.326182123974949
1768734167948,136,8,10.848270038902562,8.74715250059564,8.72940871266013
1768734167952,136,8,11.0220887430682,8.715631843251973,8.90041551748552
1768734167956,136,8,11.000235293734375,8.783673167247116,8.877830638590845
1768734167960,136,8,10.861049261607896,8.682921737319884,8.739373921908246
1768734167964,136,8,10.683365905482429,8.887960763521871,8.561682618023585
1768734167968,136,8,10.546389651674698,8.57870033483656,8.422592023868829
1768734167972,135,7,10.522310338454568,7.943138736964097,8.395033294869027
1768734167976,136,8,10.632135992025392,8.531670765569997,8.501467205426286
1768734167980,136,8,10.80900800419248,8.974478184576757,8.675405163364019
1768734167984,136,8,10.925856437232977,8.578165555983587,8.789284389361068
1768734167988,136,8,10.875702802617202,8.892862490922258,8.736118850904871
1768734167992,136,8,10.637113321706476,8.67418746148646,8.495230603905718
1768734167996,135,7,10.274607076074613,7.743967602198001,8.131491418528618
1768734168000,135,7,9.882790968485304,7.859768175376991,7.738389293104823
1768734168004,135,7,9.52313769459764,7.602258667763754,7.375530764577738
1768734168008,134,6,9.191031251284096,6.957264001350402,7.0378528657927335
1768734168012,134,6,8.815078557709484,6.575828625418308,6.6558203557072435
1768734168016,133,5,8.285152108947443,5.863436012381069,6.121524567302163
1768734168020,133,5,7.518821467856657,5.759997639179449,5.352724159958795
