timestamp_ms,ecg_u8_raw,ecg_counts_raw_int,ecg_counts_filt_monitor,ecg_counts_filt_diagnostic,ecg_counts_filt_st
1769241122936,134,6,5.966308834460847,6.809197171675514,6.511458057392055
1769241122940,134,6,6.497604112601271,6.988498911581139,7.036030321254442
1769241122944,135,7,7.056905089645953,7.649954637212128,7.5868320343715245
1769241122948,135,7,7.738614824812107,8.158595847577304,8.258794030095114
1769241122952,136,8,8.550419087026583,8.754625478362998,9.061119040046854
1769241122956,137,9,9.363758331643965,10.024690627209688,9.866136806114678
1769241122960,138,10,9.989013369261176,10.723479139520183,10.483777766099598
1769241122964,138,10,10.325741167754998,10.862132546206729,10.8126437295366
1769241122968,138,10,10.4517417173908,10.961602836310886,10.93034035814973
1769241122972,138,10,10.558845522327498,10.845925409388974,11.02945979577528
1769241122976,138,10,10.784141426742632,10.998450592744105,11.247688310558647
1769241122980,139,11,11.086061918302608,11.642419511062055,11.54271608861456
1769241122984,139,11,11.274339608148896,11.98343200129316,11.72257730659703
1769241122988,139,11,11.156080040755558,11.75667661146172,11.593731834173068
1769241122992,138,10,10.651622938206756,11.041117809424811,11.078338668299075
1769241122996,137,9,9.778858213917054,9.779675358415798,10.197134174397164
1769241123000,136,8,8.557659732854395,8.798509423258027,8.970603112001646
1769241123004,135,7,6.972604673635972,7.864508846215725,7.380581612045122
1769241123008,133,5,5.044072555236486,5.76679778277225,5.444326692204346
1769241123012,130,2,2.9013402744128234,3.0882543600443526,3.291204607765727
1769241123016,128,0,0.7351113847887945,0.6208991622850482,1.1147701441881583
1769241123020,126,-2,-1.3357767356497074,-1.01564743969558,-0.9641992374325206
1769241123024,125,-3,-3.3262595139463818,-2.372544877732162,-2.9614169067424188
1769241123028,122,-6,-5.298714389325999,-5.01024397127005,-4.94093766863762
1769241123032,120,-8,-7.226347562895519,-7.1432222501452145,-6.876488302710385
1769241123036,119,-9,-8.953533571152965,-8.228354338204868,-8.611936946301133
1769241123040,117,-11,-10.291362805665823,-10.149256669340788,-9.957802301233649
1769241123044,116,-12,-11.160453124547624,-11.319127758570872,-10.834526404786404
1769241123048,116,-12,-11.654655645082077,-11.003847382147166,-11.33634629513615
1769241123052,116,-12,-11.96472356803208,-11.246613343615476,-11.654574808717182
1769241123056,115,-13,-12.228327681480687,-12.11183187869133,-11.926722585546994
1769241123060,115,-13,-12.445801900034224,-12.342322398292769,-12.152252535240176
1769241123064,115,-13,-12.530091062375174,-12.128433641636327,-12.24365139512334
1769241123068,115,-13,-12.424209350070049,-12.215711059053255,-12.144432305288404
1769241123072,115,-13,-12.169774756825872,-12.052442756735694,-11.897047015040512
1769241123076,116,-12,-11.873185975670951,-11.34897961001337,-11.60832681251018
1769241123080,116,-12,-11.611504835839172,-11.135258814698592,-11.355047290922844
1769241123084,116,-12,-11.371055323463604,-11.376256204793323,-11.12263214922011
1769241123088,116,-12,-11.07809217987982,-10.961665625582302,-10.836595927369972
1769241123092,117,-11,-10.687168978361294,-10.34880861532805,-10.451845021568042
1769241123096,117,-11,-10.23524164636651,-10.07257030921358,-10.006627506291323
1769241123100,118,-10,-9.811420530539532,-9.456585703894254,-9.590923281642352
1769241123104,118,-10,-9.48109040626485,-9.073907697006591,-9.269416085108931
1769241123108,118,-10,-9.241846437768064,-9.282897406132951,-9.037920889056762
1769241123112,118,-10,-9.044406105774469,-9.053614868713725,-8.846236833272405
1769241123116,119,-9,-8.83971967270186,-8.3983148554917,-8.64649861660941
1769241123120,119,-9,-8.599498850963208,-8.171161158986317,-8.412455140227774
1769241123124,119,-9,-8.311945079167167,-8.366632491146705,-8.132903571043478
1769241123128,119,-9,-7.98876490576327,-8.025089534232865,-7.818342293728959
1769241123132,120,-8,-7.681264796192519,-7.315905164085115,-7.518690581656194
1769241123136,120,-8,-7.465050499110409,-7.202605615692251,-7.309089460825446
1769241123140,120,-8,-7.385330012651215,-7.354456488328848,-7.234958585736577
1769241123144,120,-8,-7.408910378231497,-7.251602123956883,-7.263668735694591
1769241123148,120,-8,-7.429652023494984,-7.109026780818488,-7.289926744161492
1769241123152,120,-8,-7.33126770211843,-7.312385050673553,-7.198094286323437
1769241123156,120,-8,-7.069717986677652,-7.189561642880668,-6.944039487780914
1769241123160,121,-7,-6.715685988849564,-6.430402226300418,-6.597735561597622
1769241123164,121,-7,-6.414484431169555,-6.170319279381305,-6.303645622274343
1769241123168,121,-7,-6.283902102225714,-6.225959974222391,-6.178964251817891
1769241123172,121,-7,-6.3276100692113495,-6.2166640787454925,-6.227475958039229
1769241123176,121,-7,-6.430820019694211,-6.326369904804378,-6.335353884810923
1769241123180,121,-7,-6.440151879557222,-6.311457013252087,-6.350216907376569
1769241123184,121,-7,-6.27195526182054,-6.320159255804412,-6.188447624926816
1769241123188,121,-7,-5.974034304793419,-6.068727521292808,-5.897163506926045
1769241123192,122,-6,-5.689924932697295,-5.435489996344069,-5.619556079781499
1769241123196,122,-6,-5.544487873575751,-5.102352521411859,-5.480503932943113
1769241123200,122,-6,-5.545903250833772,-5.60242239524604,-5.487649376785868
1769241123204,121,-7,-5.5952690060533605,-6.017484653799277,-5.541314789940317
1769241123208,122,-6,-5.587837668308131,-5.407045125905248,-5.5373487430962145
1769241123212,122,-6,-5.497113202319467,-5.127213619381666,-5.451256722701615
1769241123216,122,-6,-5.370686920684362,-5.414904842175867,-5.331681210312734
1769241123220,122,-6,-5.273720602195998,-5.350491745073388,-5.242350761871587
1769241123224,122,-6,-5.247929738214233,-5.248793747586443,-5.222629550281819
1769241123228,122,-6,-5.298939879424724,-5.2468312572135005,-5.27745050583414
1769241123232,122,-6,-5.388239429475725,-5.271275700035791,-5.369709794387844
1769241123236,122,-6,-5.430702024233488,-5.319272762180869,-5.416005382220762
1769241123240,122,-6,-5.324655682394818,-5.463512601093104,-5.315075392735817
1769241123244,122,-6,-5.015925596732041,-5.149585493417571,-5.011977246974175
1769241123248,123,-5,-4.548219375926214,-4.396831538268463,-4.549674165912403
1769241123252,123,-5,-4.046829558335887,-4.10197030321884,-4.053380517381428
1769241123256,124,-4,-3.638064182113209,-3.5590427067741066,-3.6495786565439943
1769241123260,124,-4,-3.3668392662554103,-3.197151955558934,-3.382980820326634
1769241123264,124,-4,-3.1774790617670905,-3.496664561965413,-3.1974458536864443
1769241123268,124,-4,-2.9653042069860063,-3.034013664320656,-2.9883810249240153
1769241123272,125,-3,-2.645609289670543,-2.503111236016294,-2.672012158705902
1769241123276,125,-3,-2.18500713024083,-2.1816523036440048,-2.215703869101132
1769241123280,126,-2,-1.594238883475183,-1.566053081032484,-1.6296967164191845
1769241123284,126,-2,-0.9179366483519736,-1.2072772452221603,-0.9575459307433009
1769241123288,127,-1,-0.2336628294529608,-0.2917990704295725,-0.2768399117161069
1769241123292,128,0,0.3598686266042632,0.6764055281997412,0.3125455112227446
1769241123296,128,0,0.7701422214783311,0.6755208635985857,0.7177498123766037
1769241123300,128,0,0.9285237306242728,0.5115515802686907,0.8715243298718494
1769241123304,128,0,0.7921812632641565,0.7110823038845542,0.7323495021641877
1769241123308,128,0,0.3612929687206927,0.7449164825063983,0.2997758691453782
1769241123312,127,-1,-0.2837077072546115,-0.3702488132729122,-0.3474972143460446
1769241123316,126,-2,-0.981263853362706,-1.2889566331107858,-1.0486551598719744
1769241123320,126,-2,-1.566215156738811,-1.5474660479761164,-1.637821799907817
1769241123324,125,-3,-1.9755281430206104,-2.272509140477138,-2.051016462120872
1769241123328,125,-3,-2.2825531008215445,-2.277768320341856,-2.3613936144961647
1769241123332,125,-3,-2.620191499371754,-2.382544496812705,-2.7021871803643043
1769241123336,124,-4,-3.058769772142994,-3.25898559158571,-3.143835256111327
1769241123340,124,-4,-3.547314915998479,-3.643396285352943,-3.635096119109885
1769241123344,123,-5,-3.965001997145577,-4.175476709251387,-4.055088011063798
1769241123348,123,-5,-4.225578627249942,-4.434760113342056,-4.3180799303830595
1769241123352,123,-5,-4.3357096616647635,-4.205485495513053,-4.43125555463283
1769241123356,123,-5,-4.363325674535728,-4.44889464501694,-4.462200781225332
1769241123360,123,-5,-4.359831730132832,-4.507319537201818,-4.461243407460853
1769241123364,123,-5,-4.31422748361676,-4.301759501987029,-4.416843067611263
1769241123368,123,-5,-4.177015918485348,-4.401601689721927,-4.280568800054423
1769241123372,123,-5,-3.9258862034384383,-4.173614881794756,-4.032257388126951
1769241123376,124,-4,-3.610978039587017,-3.545581135446154,-3.723100747708593
1769241123380,124,-4,-3.338114599319897,-3.401185584697256,-3.456727584354594
1769241123384,124,-4,-3.2023290308568386,-3.4633018529306465,-3.323279356487242
1769241123388,124,-4,-3.221763312491324,-3.273435459202954,-3.337586503680156
1769241123392,124,-4,-3.318748792782111,-3.284947697246386,-3.4251433476247115
1769241123396,124,-4,-3.370742777321402,-3.4772777699651254,-3.473117689992131
1769241123400,124,-4,-3.320660529967587,-3.4490342666628635,-3.433609382155457
1769241123404,124,-4,-3.2786691162492327,-3.5037205250346632,-3.415760610494938
1769241123408,123,-5,-3.483260748039349,-4.211390337103575,-3.643777954682677
1769241123412,123,-5,-4.000637796741423,-4.398254026441603,-4.165511498111223
1769241123416,124,-4,-4.217284674166167,-3.3357674386561724,-4.3605821254091905
1769241123420,126,-2,-2.488021305189689,-1.6292191821360031,-2.596198716817991
1769241123424,131,3,3.5216420873210765,3.640099602974715,3.438862246606318
1769241123428,142,14,15.56045401994875,14.661129363540145,15.47666976360384
1769241123432,158,30,33.12354125108364,30.685231157222205,33.013100837825405
1769241123436,179,51,52.60449600790308,51.64752249646487,52.456192101316994
1769241123440,198,70,68.27889960844723,70.31466977257875,68.09855782278774
1769241123444,204,76,74.911201284384,76.66962580793165,74.71705411897159
1769241123448,198,70,70.42941261390806,70.50308015715835,70.24531079497743
1769241123452,183,55,56.88488578766972,55.78245617723623,56.73107077099735
1769241123456,165,37,39.12162960239903,37.50336030931118,39.00388017286609
1769241123460,149,21,22.191288654325664,21.50728939395069,22.095689854393385
1769241123464,137,9,9.232880780434598,9.57055809470041,9.132961937667424
1769241123468,129,1,0.901930148492375,1.578881381279733,0.7749977555328442
1769241123472,124,-4,-3.8013705904631383,-3.266793068168255,-3.960428209939405
1769241123476,121,-7,-6.274168480774005,-6.586639289300017,-6.451532984593278
1769241123480,119,-9,-7.521072851026366,-8.347656993047899,-7.695260274544539
1769241123484,119,-9,-8.065619828598049,-8.632239128211445,-8.222483670738427
1769241123488,119,-9,-8.206022047975035,-8.164939009811114,-8.346633533018252
1769241123492,120,-8,-8.180064624898709,-7.624103351928149,-8.316471490778952
1769241123496,119,-9,-8.131778569641888,-8.230121166970054,-8.275305096010275
1769241123500,119,-9,-8.060050841650938,-8.782294109710257,-8.212697705818996
1769241123504,119,-9,-7.892428217159008,-8.131954135671666,-8.048215361229335
1769241123508,120,-8,-7.610336697668016,-7.708250970059907,-7.763322375510354
1769241123512,120,-8,-7.274885744830843,-7.094418211823587,-7.424731063479199
1769241123516,121,-7,-6.941581199280826,-6.785837839837355,-7.091821675664584
1769241123520,120,-8,-6.592714478201421,-7.310524239546878,-6.745511218017722
1769241123524,121,-7,-6.1739778814272634,-6.508136932131866,-6.3279887420835825
1769241123528,122,-6,-5.673988205089021,-5.449052810558223,-5.826862784950245
1769241123532,122,-6,-5.137932610758499,-5.2519554145149225,-5.289304045037232
1769241123536,123,-5,-4.6073559381085625,-4.790973760497602,-4.758835063138477
1769241123540,123,-5,-4.073116856879443,-4.222293531355094,-4.226122887707195
1769241123544,124,-4,-3.5004744785491377,-3.6868518295190618,-3.6546484495444647
1769241123548,124,-4,-2.8923526768690437,-3.22058589187076,-3.045992092296708
1769241123552,125,-3,-2.3120170742505817,-2.5058774028837227,-2.4639736952683897
1769241123556,126,-2,-1.8285659752341712,-1.6128488522248858,-1.979590580052129
1769241123560,126,-2,-1.4373337041464094,-1.3536261595603687,-1.5891146889445604
1769241123564,126,-2,-1.0512360648780323,-1.6553764574715926,-1.204148960696875
1769241123568,126,-2,-0.5874871632099756,-1.1606840582259643,-0.7401218646967092
1769241123572,128,0,-0.052920586759261,0.3385792590323273,-0.2040649996486276
1769241123576,128,0,0.4770102035713388,0.5556316738074458,0.3268826262896267
1769241123580,128,0,0.9592448757251096,0.4488647773423002,0.808976258227192
1769241123584,129,1,1.4416323014447965,1.50155258054051,1.291087250688721
1769241123588,129,1,2.0159425149799866,1.742910485865767,1.8660564094667809
1769241123592,130,2,2.7235115576016145,2.309306026340152,2.5749164234909676
1769241123596,131,3,3.5121249741478,3.689539002636417,3.3642081673413284
1769241123600,132,4,4.281888601782882,4.165435088733318,4.133472479872108
1769241123604,132,4,4.969158857553934,4.879361681470503,4.820149149061368
1769241123608,133,5,5.587203671239286,5.29572343305781,5.4391423492184146
1769241123612,133,5,6.1979331240342805,5.731528014441896,6.0523819732261295
1769241123616,135,7,6.860306945907485,7.300060310949322,6.716910753626476
1769241123620,135,7,7.600634133843359,7.446311030605211,7.457513116107738
1769241123624,135,7,8.399741848151056,7.702501369059319,8.255731617040883
1769241123628,137,9,9.18464799055054,9.345295842553284,9.040357768134385
1769241123632,137,9,9.848780104209904,9.76276746321087,9.705421695443489
1769241123636,138,10,10.31540875673958,10.14863665468473,10.173449525795109
1769241123640,138,10,10.597723150346011,10.67393059607975,10.457016543453324
1769241123644,138,10,10.791613373526252,10.392613687829876,10.65221146964598
1769241123648,138,10,11.000301978979072,10.684566808438928,10.862474957474335
1769241123652,139,11,11.258951401809986,11.383224338726482,11.122511550864663
1769241123656,139,11,11.521415481417362,11.503590966988291,11.38565967897368
1769241123660,139,11,11.701582312458813,11.33553127549921,11.566138154741855
1769241123664,139,11,11.71525465661792,11.683235858048024,11.580550451891654
1769241123668,139,11,11.49133033354704,11.411002854706512,11.357947883679628
1769241123672,138,10,10.965022730610944,10.59384686584238,10.83290663961074
1769241123676,138,10,10.076217188050236,10.315229069499985,9.944894649531234
1769241123680,136,8,8.779900998989884,8.487645933149745,8.649352404694165
1769241123684,134,6,7.064857596068043,6.528339073564055,6.9357036656795
1769241123688,133,5,4.977327251857334,5.550345259122131,4.850069128979342
1769241123692,130,2,2.637245630315306,2.416848226445002,2.511760129985766
1769241123696,127,-1,0.2202194994211934,-0.5023471645053688,0.0960732059799891
1769241123700,126,-2,-2.099885150889519,-1.714736558363504,-2.223040764093948
1769241123704,123,-5,-4.20667372775731,-4.27342481464891,-4.328931595233652
1769241123708,121,-7,-6.052589610489003,-6.676323445850397,-6.173640592982604
1769241123712,120,-8,-7.626665424289296,-7.361313363692616,-7.745997496975773
1769241123716,119,-9,-8.91111518067652,-8.744170196765323,-9.028534839396483
1769241123720,117,-11,-9.866037950056535,-10.497037880007754,-9.981809844819832
1769241123724,117,-11,-10.4627538321755,-10.464978798365996,-10.57728316575088
1769241123728,117,-11,-10.737938402793024,-10.562743592467736,-10.851487613190184
1769241123732,116,-12,-10.810452777732303,-11.425240125700167,-10.923071509533033
1769241123736,117,-11,-10.831740200662631,-10.759194720664894,-10.943342837728634
1769241123740,117,-11,-10.898824849255249,-10.435035438713868,-11.009114141965265
1769241123744,116,-12,-10.99831654565891,-11.58633956315643,-11.106488211571692
1769241123748,116,-12,-11.033080384453935,-11.440926416627407,-11.138203096812749
1769241123752,117,-11,-10.907090024888486,-10.55479791939636,-11.009373331570504
1769241123756,117,-11,-10.591094257108391,-10.68279552694872,-10.69219830775462
1769241123760,117,-11,-10.130628100116454,-10.449100962851585,-10.231967458132525
1769241123764,118,-10,-9.619108747525356,-9.66274446107525,-9.72022536706993
1769241123768,118,-10,-9.158698910207162,-9.315334517346775,-9.257903845546394
1769241123772,119,-9,-8.811450060698002,-8.765554500384997,-8.907747525777328
1769241123776,119,-9,-8.562396322452361,-8.427484611261727,-8.65617145248386
1769241123780,119,-9,-8.33643746349258,-8.744582085767142,-8.428450314283022
1769241123784,119,-9,-8.071752688020531,-8.369268622837211,-8.162263585703833
1769241123788,120,-8,-7.784476541474634,-7.62186754591692,-7.873573209227338
1769241123792,120,-8,-7.55570038911693,-7.511771136126751,-7.643723223235086
1769241123796,120,-8,-7.452466682788492,-7.628652656475007,-7.539518871033947
1769241123800,120,-8,-7.462000873385834,-7.615267779719378,-7.547383534763854
1769241123804,120,-8,-7.495124017123216,-7.456037997836544,-7.57776677486481
1769241123808,120,-8,-7.444690610546044,-7.612112239221166,-7.524169247070636
1769241123812,120,-8,-7.24765775656085,-7.497517109657688,-7.32471016759852
1769241123816,121,-7,-6.910907751601631,-6.660302802756811,-6.986916449171953
1769241123820,121,-7,-6.49599074094625,-6.5886358076538905,-6.571757805943505
1769241123824,121,-7,-6.086634512362443,-6.4951758346660835,-6.161597197688047
1769241123828,122,-6,-5.759719298511128,-5.612484326690791,-5.832563013038277
1769241123832,122,-6,-5.559973924315774,-5.495109717650404,-5.629954237537262
1769241123836,122,-6,-5.481708115861816,-5.680215510615003,-5.549137977377234
1769241123840,122,-6,-5.47659473277341,-5.556131448829709,-5.542239624095676
1769241123844,122,-6,-5.4908410851718745,-5.564458076284002,-5.555193530100345
1769241123848,122,-6,-5.501443757283575,-5.560902199893192,-5.564463758959541
1769241123852,122,-6,-5.5191046651239075,-5.5574983271190765,-5.580351853466082
1769241123856,122,-6,-5.557446090499761,-5.619170132272906,-5.616491279774176
1769241123860,122,-6,-5.597616222107063,-5.620562565125906,-5.654476324913593
1769241123864,122,-6,-5.58204771810987,-5.520805454947342,-5.637115454445856
1769241123868,122,-6,-5.450804564422049,-5.638603130405585,-5.504255297967472
1769241123872,122,-6,-5.196836352502384,-5.475691618485055,-5.248374412718679
1769241123876,123,-5,-4.88875141978842,-4.7134209340550495,-4.938185506785967
1769241123880,123,-5,-4.6302380980681965,-4.51710695026011,-4.678021894692168
1769241123884,123,-5,-4.488642956567695,-4.65706018431608,-4.535448375207887
1769241123888,123,-5,-4.459964904737005,-4.5254094294583025,-4.5057979353380615
1769241123892,123,-5,-4.496202185153252,-4.596182047392669,-4.540204282521471
1769241123896,123,-5,-4.554483957462843,-4.60855181128347,-4.595637235918322
1769241123900,123,-5,-4.614012431394852,-4.590939641675765,-4.652043447390507
1769241123904,123,-5,-4.652513847661902,-4.643734074255137,-4.688213856861018
1769241123908,123,-5,-4.62294941605331,-4.521477527789033,-4.657568239595074
1769241123912,123,-5,-4.473468140707943,-4.655230603934543,-4.50763965867055
1769241123916,123,-5,-4.203518338725775,-4.512748148268836,-4.2368080424736405
1769241123920,124,-4,-3.894763488992669,-3.712502391747427,-3.9263106093937186
1769241123924,124,-4,-3.6651251764904687,-3.5203756944704905,-3.694478266470054
1769241123928,124,-4,-3.573468262907498,-3.687189780842268,-3.6006221894660113
1769241123932,124,-4,-3.564314783773076,-3.492596821452201,-3.5892755879485483
1769241123936,124,-4,-3.5095782105594893,-3.682226693377565,-3.5323715632975032
1769241123940,124,-4,-3.3112836375184003,-3.548509785259885,-3.3323996815852297
1769241123944,125,-3,-2.9738940554445827,-2.67845992994713,-2.9942507496299173
1769241123948,125,-3,-2.5879664937389544,-2.5812111831615914,-2.6080191125989316
1769241123952,125,-3,-2.2472476562556087,-2.5757106958657427,-2.2662769909259044
1769241123956,126,-2,-1.968902397906608,-1.6461169687310058,-1.985551465265732
1769241123960,126,-2,-1.6740835117392292,-1.540756862091409,-1.687547388040497
1769241123964,126,-2,-1.2449232571523456,-1.747518580450853,-1.255514766043465
1769241123968,127,-1,-0.6247897785383252,-0.4882769427232194,-0.6337017645498548
1769241123972,128,0,0.1110783668793802,0.2919568219468873,0.1023988160718776
1769241123976,128,0,0.7733896207823361,0.4795119507177818,0.7640935678585317
1769241123980,129,1,1.1555566484038562,1.370024769971891,1.146065841857702
1769241123984,129,1,1.1433389027576362,1.2624711596484204,1.13523888499128
1769241123988,128,0,0.7691199887181037,0.5516085057173035,0.7641905360090115
1769241123992,128,0,0.1835888585261131,0.1676484514633136,0.1824779919716332
1769241123996,127,-1,-0.4285376964795868,-0.3426860475784066,-0.4270001837349175
1769241124000,127,-1,-0.9349761652029768,-0.8358996008777124,-0.9329193150893538
1769241124004,126,-2,-1.305338693314992,-1.5377801335816876,-1.304032138989777
1769241124008,126,-2,-1.6079159462813926,-1.6477281010754243,-1.6069058560846354
1769241124012,126,-2,-1.9514758650435775,-1.695490348572025,-1.949471404843111
1769241124016,125,-3,-2.3971958531660422,-2.4161479865986735,-2.3933484299789343
1769241124020,125,-3,-2.902223304957144,-2.8352906610493265,-2.896371934247689
1769241124024,124,-4,-3.3464387908845787,-3.4753686473311833,-3.3386506459284324
1769241124028,124,-4,-3.623626172295604,-3.8017584188748534,-3.6141356042958206
1769241124032,124,-4,-3.716859218556853,-3.5061747380944266,-3.706427120780802
1769241124036,124,-4,-3.6953899338131606,-3.6228465007699193,-3.685084354670155
1769241124040,124,-4,-3.6486286548448383,-3.634753439294776,-3.63875507690493
1769241124044,124,-4,-3.626021261712267,-3.652541749291064,-3.615421601211856
1769241124048,124,-4,-3.6286851464200742,-3.710727156393292,-3.6156195432170906
1769241124052,124,-4,-3.6389476138779697,-3.549189264926212,-3.6230299201309712
1769241124056,124,-4,-3.646865670067028,-3.624878015118431,-3.630090918910632
1769241124060,124,-4,-3.6538728389205017,-3.5991761820717816,-3.639283832923251
1769241124064,124,-4,-3.663424171518742,-3.6994991609948986,-3.652013154996228
1769241124068,124,-4,-3.673011029279475,-3.7279095709608456,-3.6613886338161423
1769241124072,124,-4,-3.669400524489029,-3.486600054138839,-3.6510585005840728
1769241124076,124,-4,-3.626116693397985,-3.749926987019724,-3.59694462459301
1769241124080,124,-4,-3.5130755445720387,-3.4032119530222684,-3.477586843191148
1769241124084,125,-3,-3.331840699148998,-2.952193688571589,-3.3034504277758447
1769241124088,124,-4,-3.1637650393095393,-3.494649060772416,-3.1554918828905794
1769241124092,124,-4,-3.156661868919878,-3.7084920833629726,-3.168081522130779
1769241124096,124,-4,-3.3301834417510996,-3.579620077358117,-3.343180597836058
1769241124100,125,-3,-3.1766078829158246,-2.485294131137313,-3.166708651472474
1769241124104,128,0,-1.3213760143938904,0.0253512194432392,-1.276678731648766
1769241124108,132,4,4.2489718236580405,4.612269887962767,4.317723734078364
1769241124112,142,14,15.088456587506222,14.07576312529813,15.155390417052912
1769241124116,156,28,30.75600889461905,28.744623609979502,30.7977095569834
1769241124120,175,47,47.98626902344463,47.12984507358844,47.994437838935674
1769241124124,191,63,61.57934151604634,63.46240452117535,61.56163160848277
1769241124128,197,69,66.84989011166977,69.09853292263142,66.82387283811295
1769241124132,190,62,62.1356306402962,62.50731249670946,62.122105134718424
1769241124136,176,48,49.6203816467597,48.27477555034903,49.63589090884474
1769241124140,160,32,33.9292393524272,32.524050635566,33.97724251893673
1769241124144,147,19,19.579031056552378,19.20267369320589,19.645616194708857
1769241124148,137,9,9.029325328331613,9.356115604141646,9.090013743098224
1769241124152,131,3,2.368064475965297,3.374129060693643,2.4029308537997163
1769241124156,127,-1,-1.6395505373923047,-0.7215365084546326,-1.6335223248113024
1769241124160,123,-5,-4.229075293473177,-4.453099066140692,-4.2374642196689285
1769241124164,121,-7,-5.980241295019376,-6.904710552784197,-5.982367613664957
1769241124168,120,-8,-6.977941660481208,-7.448420385348892,-6.961349852571212
1769241124172,121,-7,-7.276595524126657,-6.840951007433921,-7.244267216110665
1769241124176,121,-7,-7.117473416469505,-6.534849278484354,-7.082836696617936
1769241124180,121,-7,-6.799046958026128,-6.65570782701788,-6.773846864246307
1769241124184,121,-7,-6.481406238343274,-6.776367698471669,-6.467181715485518
1769241124188,121,-7,-6.173014505640437,-6.472129870768602,-6.162634768499952
1769241124192,122,-6,-5.86380674448957,-5.894307422982283,-5.849820656835213
1769241124196,122,-6,-5.606063397878754,-5.40950248599891,-5.587202133091616
1769241124200,123,-5,-5.450534894605853,-4.898474871306884,-5.43093675171005
1769241124204,122,-6,-5.344797190162322,-5.479971748514222,-5.328304351701895
1769241124208,122,-6,-5.144790890862513,-5.805242612925296,-5.131178867886568
1769241124212,123,-5,-4.73971739687078,-4.510364750748861,-4.726466053119575
1769241124216,124,-4,-4.147663826709051,-3.829593019823619,-4.133910692118942
1769241124220,124,-4,-3.484283665337005,-3.5010487517669553,-3.471681925362514
1769241124224,125,-3,-2.860363054907904,-2.8760501866789703,-2.850488928593493
1769241124228,125,-3,-2.321225260688478,-2.4256232128910034,-2.3134825374965544
1769241124232,126,-2,-1.8608032048537375,-1.8565454103830783,-1.8533007841583784
1769241124236,126,-2,-1.4574882803888407,-1.517703934690117,-1.4493811711959586
1769241124240,127,-1,-1.0822225681705857,-0.8215002237935884,-1.0745750442054387
1769241124244,127,-1,-0.6890430547415556,-0.5685145758663275,-0.6833403753817509
1769241124248,127,-1,-0.2280832776845052,-0.730494908244526,-0.2244525916460471
1769241124252,128,0,0.3171683476155207,0.4568866074477578,0.3196986243399156
1769241124256,129,1,0.9154058962075138,1.1665157906108656,0.9171935574480612
1769241124260,129,1,1.521943469288567,1.4480516378121786,1.522163552074722
1769241124264,130,2,2.1213350411638814,2.2025649648712116,2.1192795215869493
1769241124268,130,2,2.725976806554589,2.4369082915565174,2.7221788774765567
1769241124272,131,3,3.3406969748220363,3.3607934418973957,3.3362510821991873
1769241124276,132,4,3.9477650790825782,4.191176404076499,3.942857529933824
1769241124280,132,4,4.532731437986103,4.458353292747161,4.526384383529778
1769241124284,133,5,5.111153954797967,5.152363957725639,5.102400529261765
1769241124288,133,5,5.714271826945969,5.500924760878286,5.703143053919101
1769241124292,134,6,6.34857115019061,6.30323775141899,6.335794770204619
1769241124296,135,7,6.981006026987758,7.216293495287131,6.967111512560322
1769241124300,135,7,7.570200178741212,7.470454609239657,7.5551949208588605
1769241124304,136,8,8.107617975330403,8.063909793001596,8.091255452883725
1769241124308,136,8,8.621989432958232,8.668162492616197,8.603942807118067
1769241124312,137,9,9.141229661626893,9.054288474293678,9.121056095051111
1769241124316,137,9,9.648081695894918,9.5272948210526,9.625346954273471
1769241124320,138,10,10.07248443280315,10.112207118374972,10.047100088684015
1769241124324,138,10,10.334918575705071,10.419086298792742,10.307391879923166
1769241124328,138,10,10.410958067017209,10.336363566339514,10.382240707677196
1769241124332,138,10,10.363426269324185,10.33636375155291,10.334261417900834
1769241124336,138,10,10.309693337868694,10.299184537958135,10.279889412042513
1769241124340,138,10,10.339807322298292,10.273994390010689,10.30820964756508
1769241124344,138,10,10.437044237085283,10.301463070533622,10.402375574983228
1769241124348,138,10,10.455474448154106,10.419161494321385,10.41726693325893
1769241124352,138,10,10.17821915375113,10.270055528344638,10.137012700795427
1769241124356,137,9,9.427366887312404,9.35690773348344,9.384148667699051
1769241124360,136,8,8.15586777859501,8.192872183940796,8.111363316748218
1769241124364,134,6,6.4600048450811975,6.399348839224574,6.414397829463252
1769241124368,132,4,4.5076901983905175,4.287616630446156,4.460799706167347
1769241124372,130,2,2.4402195065865855,2.436596488821825,2.3916579985095208
1769241124376,128,0,0.32352919385389,0.164741303174936,0.272606207069229
1769241124380,126,-2,-1.8199129155085816,-1.6172262356521063,-1.8740203251159748
1769241124384,124,-4,-3.942307593891777,-3.7746190051686215,-3.9997309367986382
1769241124388,121,-7,-5.941262405636161,-6.587595524971272,-6.000895098507332
1769241124392,120,-8,-7.696674574598623,-7.626626090722803,-7.75709077743973
1769241124396,119,-9,-9.125273233727754,-8.83869417030432,-9.186315837100338
1769241124400,117,-11,-10.199126645280453,-10.561275677273333,-10.262126753307424
1769241124404,117,-11,-10.93276312855738,-10.876569002081563,-10.999129259893984
1769241124408,116,-12,-11.372307823561671,-11.455309039869537,-11.44223266714745
1769241124412,116,-12,-11.592357636802422,-11.798273788859762,-11.664889662156629
1769241124416,116,-12,-11.68090586432045,-11.6326316527587,-11.75501188999247
1769241124420,116,-12,-11.70459495890982,-11.803405982115349,-11.780078559586238
1769241124424,116,-12,-11.675854947204805,-11.613614901231744,-11.75329915566361
1769241124428,116,-12,-11.555217072159992,-11.735042574379326,-11.635113441109675
1769241124432,116,-12,-11.296803105402866,-11.529648896894576,-11.378924171140454
1769241124436,117,-11,-10.901232612277472,-10.881173788623348,-10.985032679089263
1769241124440,117,-11,-10.426832566792111,-10.584049080991296,-10.51236421581978
1769241124444,118,-10,-9.95014381936968,-9.802126178233282,-10.038235802882207
1769241124448,118,-10,-9.52005679330455,-9.585544555572632,-9.611396744512373
1769241124452,118,-10,-9.153411914139594,-9.6534472739638,-9.24769585414281
1769241124456,119,-9,-8.865177009773664,-8.797465903853883,-8.961477809916518
1769241124460,119,-9,-8.68092378885651,-8.620401518965963,-8.77871517109669
1769241124464,119,-9,-8.605679398181831,-8.81907541398511,-8.705098909509697
1769241124468,119,-9,-8.587049310861406,-8.517574205184864,-8.688286407674783
1769241124472,119,-9,-8.525434272059895,-8.774151284235753,-8.628421782758343
1769241124476,119,-9,-8.333121690097347,-8.660825839247684,-8.43804431212169
1769241124480,120,-8,-7.992210618371723,-7.744635156802427,-8.099853388998417
1769241124484,120,-8,-7.565388264261169,-7.719119987637559,-7.676399428710117
1769241124488,120,-8,-7.158272568419049,-7.584756294132236,-7.272202871447508
1769241124492,121,-7,-6.860759102487104,-6.7494761552340465,-6.976422567169463
1769241124496,121,-7,-6.694354623298376,-6.674248906325961,-6.811120292937441
1769241124500,121,-7,-6.595021151334934,-6.732729354606308,-6.713195137338491
1769241124504,121,-7,-6.457547176680738,-6.727341774154884,-6.577571927567568
1769241124508,121,-7,-6.220886562827512,-6.572271608708771,-6.342900582340434
1769241124512,122,-6,-5.920764286837738,-5.786892041000356,-6.045080239065174
1769241124516,122,-6,-5.657013893980029,-5.62065764991873,-5.784270805142861
1769241124520,122,-6,-5.50953693350127,-5.800575170338268,-5.639877424082845
1769241124524,122,-6,-5.484582851163578,-5.637360182029014,-5.617061034108027
1769241124528,122,-6,-5.528864497844998,-5.682007536657571,-5.662171847761422
1769241124532,122,-6,-5.578849881820696,-5.691400047574038,-5.712601075237553
1769241124536,122,-6,-5.5967279504570895,-5.69591858970191,-5.731851499014635
1769241124540,122,-6,-5.577413897763464,-5.744220431927065,-5.715331683648845
1769241124544,122,-6,-5.539292358671306,-5.660469670734043,-5.680743561710206
1769241124548,122,-6,-5.5119052425576385,-5.693408825217056,-5.656358838025322
1769241124552,122,-6,-5.521686324355249,-5.679073556385245,-5.667728324479511
1769241124556,122,-6,-5.572700831826014,-5.7013546992268544,-5.7191335744603755
1769241124560,122,-6,-5.629018029107755,-5.748942960315792,-5.775832925999039
1769241124564,122,-6,-5.618373995192567,-5.623620583045944,-5.766695752221024
1769241124568,122,-6,-5.472712153760908,-5.772062291953682,-5.623732524013013
1769241124572,122,-6,-5.18848740314856,-5.582314990669859,-5.342517337525837
1769241124576,123,-5,-4.853427095808531,-4.813582168704895,-5.00994529709962
1769241124580,123,-5,-4.598653047832041,-4.6193497705646696,-4.756917719325626
1769241124584,123,-5,-4.503249882802381,-4.7449523410694106,-4.662674359345519
1769241124588,123,-5,-4.531606837604349,-4.6778306178308675,-4.691874306070697
1769241124592,123,-5,-4.559044863324347,-4.664299017875606,-4.7202031761840795
1769241124596,123,-5,-4.46589294807481,-4.765353211050751,-4.628358207104781
1769241124600,123,-5,-4.225063842610867,-4.6046318044391565,-4.389530915184574
1769241124604,124,-4,-3.912172677434236,-3.810762860288576,-4.079396920317814
1769241124608,124,-4,-3.629906394231207,-3.555734140445078,-3.8000525693117377
1769241124612,124,-4,-3.4149586458887473,-3.8731192125338327,-3.5869403545678504
1769241124616,124,-4,-3.208231920933496,-3.483135966076967,-3.3803177090545544
1769241124620,125,-3,-2.900360944055669,-2.941929244235755,-3.071926925144406
1769241124624,125,-3,-2.4023172187650568,-2.4121665216201365,-2.5745538459865687
1769241124628,126,-2,-1.6995081888128816,-1.9936913255254227,-1.8740101207086208
1769241124632,126,-2,-0.8773108721156082,-1.4300433420216478,-1.0545081000861067
1769241124636,128,0,-0.1026800027089196,0.0650049445682481,-0.2820483768348971
1769241124640,128,0,0.4478038945423885,0.5215026804127283,0.2667021249678538
1769241124644,128,0,0.6734112924781934,0.1324415201685087,0.4907908007423036
1769241124648,128,0,0.5814956975991441,0.4574905276083343,0.3977993754512843
1769241124652,128,0,0.2508180408636957,0.102470355940635,0.0666225662621249
1769241124656,127,-1,-0.2253259334406454,-0.4816182458133311,-0.4097983837551782
1769241124660,127,-1,-0.7681521939406672,-0.8872478096662366,-0.9531806603812728
1769241124664,126,-2,-1.311961861375222,-1.4869847997217462,-1.4980794053985358
1769241124668,126,-2,-1.7996874767554076,-1.8802994783518765,-1.9873972886265752
1769241124672,125,-3,-2.196353482748403,-2.628123826277723,-2.3860064556793517
1769241124676,125,-3,-2.511588934374029,-2.7066077095559193,-2.703324847873748
1769241124680,125,-3,-2.8013028281671675,-2.681074561928577,-2.9948009964664872
1769241124684,124,-4,-3.133229329672392,-3.6537890660648102,-3.3275083685155193
1769241124688,124,-4,-3.5342927964295354,-3.7394147406900062,-3.728299808695525
1769241124692,124,-4,-3.9534153600310127,-3.775574243189107,-4.147138080228754
1769241124696,123,-5,-4.270309240246635,-4.569442884376327,-4.464884452420424
1769241124700,123,-5,-4.363522784357547,-4.7973022614883964,-4.559947511511108
1769241124704,123,-5,-4.203516751988361,-4.514875216860083,-4.401600559060663
1769241124708,124,-4,-3.8910539738453394,-3.901581950373048,-4.089802710090217
1769241124712,124,-4,-3.593361784746981,-3.613019849885985,-3.792066737956817
1769241124716,124,-4,-3.428883632303501,-3.741934493047893,-3.627856257299927
1769241124720,124,-4,-3.402885598062941,-3.615389163318736,-3.603544452601801
1769241124724,124,-4,-3.4411887581825775,-3.6646323829394305,-3.645181125056257
1769241124728,124,-4,-3.4759345977043403,-3.796093202832359,-3.683112470059263
1769241124732,124,-4,-3.499386706735713,-3.688017151789458,-3.706145163630686
1769241124736,124,-4,-3.540516548678486,-3.69883380073928,-3.7412458487671536
1769241124740,124,-4,-3.5945638285201325,-3.625734872454162,-3.78683340392122
1769241124744,124,-4,-3.5894141379639724,-3.64130118460426,-3.7789775747067904
1769241124748,124,-4,-3.4511870344320963,-3.8493087965092054,-3.650802035968719
1769241124752,124,-4,-3.2248015762715077,-3.618328362261229,-3.4449653026613696
1769241124756,124,-4,-3.086573849636427,-3.7866821438796303,-3.32447216767637
1769241124760,124,-4,-3.0882620692010363,-3.5189566275666304,-3.325588910501808
1769241124764,126,-2,-2.683329050753645,-1.717431903625018,-2.897647282371727
1769241124768,128,0,-0.4151973350779396,0.1865654935072891,-0.5970416336223883
1769241124772,133,5,5.714069104661645,5.379106529487228,5.552722207446447
1769241124776,144,16,17.031304874225512,16.191838451055993,16.864758189233548
1769241124780,158,30,32.72506257085698,30.559015700803982,32.53117286780575
1769241124784,176,48,49.26003863584173,48.20591896136905,49.032713381145065
1769241124788,191,63,61.50198297400674,63.27858054627418,61.251210225809494
1769241124792,195,67,65.19986356458821,67.22330457933236,64.94414582408638
1769241124796,187,59,59.28062824291714,59.29314760313807,59.039600086444075
1769241124800,172,44,46.34341440310689,44.42020789170516,46.131290481454286
1769241124804,157,29,31.030470775814152,29.318633922554767,30.848596805383902
1769241124808,145,17,17.514627062015748,17.266872266693507,17.348005160446988
1769241124812,136,8,7.812823918226988,8.280488564651144,7.637509427668604
1769241124816,130,2,1.747012363696876,2.318800848707201,1.5455123610364958
1769241124820,126,-2,-1.923171134118009,-1.6680850268389174,-2.1508020110934085
1769241124824,123,-5,-4.300285136926442,-4.616006930286242,-4.538462731326404
1769241124828,121,-7,-5.86463644860742,-6.8272444237088505,-6.094503442043408
1769241124832,120,-8,-6.712260421725222,-7.556538640555054,-6.924201434649262
1769241124836,121,-7,-6.980118666684821,-6.8394174577152125,-7.178250592445132
1769241124840,121,-7,-6.971696972137247,-6.508842820617673,-7.168375276109902
1769241124844,121,-7,-6.954489515711342,-6.842365595487923,-7.159610588848715
1769241124848,120,-8,-6.960798971092466,-7.582878302372875,-7.174525692925304
1769241124852,120,-8,-6.848259619818215,-7.780792025323616,-7.0630729386281565
1769241124856,121,-7,-6.527895315593547,-6.580746956165117,-6.73726088782737
1769241124860,122,-6,-6.0817642991221526,-5.763545178497162,-6.2862382891668735
1769241124864,122,-6,-5.6592767804343,-5.651339852123335,-5.8641554954597055
1769241124868,122,-6,-5.311888185881876,-5.722243730685977,-5.520230529462926
1769241124872,122,-6,-4.964178527145467,-5.687947814705494,-5.17370148315823
1769241124876,123,-5,-4.521699914466473,-4.576914031200279,-4.7284219139157555
1769241124880,124,-4,-3.963247469442768,-3.833350818992533,-4.1665028416787795
1769241124884,124,-4,-3.3283000516713592,-3.5540980044558568,-3.531022082005425
1769241124888,125,-3,-2.660438625857534,-2.8460733047463953,-2.8651699292345025
1769241124892,125,-3,-1.997387861132046,-2.5444487123310187,-2.2034077559959178
1769241124896,126,-2,-1.3987688257823083,-1.6921897405864317,-1.6035320278180525
1769241124900,127,-1,-0.9345276458463408,-0.7305174078205132,-1.1369556697200198
1769241124904,127,-1,-0.6167789209829633,-0.6574864540353555,-0.8180177041361381
1769241124908,127,-1,-0.3572140498134086,-0.7543319580183194,-0.5583263118647399
1769241124912,127,-1,-0.0223454458020901,-0.6228334355068634,-0.2226038819654947
1769241124916,128,0,0.4602888126535192,0.4079742043695793,0.2620848342763242
1769241124920,129,1,1.0596422631937803,1.1674494538849185,0.8630010926981249
1769241124924,129,1,1.6984057952626876,1.4474984115775975,1.5014376024928735
1769241124928,130,2,2.329287496526539,2.1331789058861945,2.1311227936605324
1769241124932,130,2,2.9468450760707605,2.4878104367073783,2.7489369526362455
1769241124936,131,3,3.5488657009423243,3.329944672318475,3.3535150512893894
1769241124940,132,4,4.120583175486392,4.221408606603767,3.92851415449316
1769241124944,132,4,4.667259725670705,4.441251340603701,4.4770378126076364
1769241124948,133,5,5.2411074359364545,5.075128310616051,5.050875043273521
1769241124952,133,5,5.9059370231219885,5.610882256882194,5.715361086789695
1769241124956,134,6,6.66247147474572,6.165780201564174,6.472778094491394
1769241124960,135,7,7.419896250243779,7.426049556507882,7.23220998855806
1769241124964,136,8,8.06143876970266,8.248721184527893,7.875633644542846
1769241124968,136,8,8.546003655932221,8.214402660552594,8.361413491244072
1769241124972,136,8,8.938043139623911,8.549206411228736,8.754718535839672
1769241124976,137,9,9.332994851994496,9.144859931987028,9.151553913935274
1769241124980,137,9,9.75943270810124,9.539809257928326,9.57982290838827
1769241124984,138,10,10.157245594349584,10.0926608995057,9.978411343523591
1769241124988,138,10,10.443749638592225,10.384565639172346,10.26497127558238
1769241124992,138,10,10.593426958058396,10.39834620598418,10.41576363752626
1769241124996,138,10,10.65655581674354,10.245582591439206,10.482309300254368
1769241125000,138,10,10.711133883644084,10.522832538259877,10.54143623778834
1769241125004,139,11,10.797304437106405,11.0457707095397,10.63053510886992
1769241125008,138,10,10.872447594168571,10.501534105871972,10.705590014947994
1769241125012,138,10,10.793176199452258,10.230169530689755,10.624674397743632
1769241125016,138,10,10.3385792198546,10.439955723863648,10.169602807479222
1769241125020,137,9,9.299961833739104,9.33458620842748,9.133222343853404
1769241125024,135,7,7.61188744196872,7.23072407303611,7.449511454320624
1769241125028,133,5,5.434091225206332,5.346760892787626,5.276219790940576
1769241125032,131,3,3.104435328109683,3.351141376451856,2.9495972527639203
1769241125036,128,0,0.9678896988200956,0.3397195013798817,0.814808893111965
1769241125040,126,-2,-0.8161396111271984,-1.5526302270096783,-0.9675750489858136
1769241125044,126,-2,-2.3405632955484545,-1.873284004535389,-2.490439378608838
1769241125048,124,-4,-3.823458149613185,-3.520879814102754,-3.9727815305769214
1769241125052,122,-6,-5.397820199948269,-5.817836486282882,-5.547107161796998
1769241125056,120,-8,-7.013305941890842,-7.460240730681653,-7.1609210166717965
1769241125060,119,-9,-8.51316207802014,-8.776606625087917,-8.656426653718514
1769241125064,118,-10,-9.764623447245135,-9.621676800916548,-9.902506996750684
1769241125068,117,-11,-10.707615487896971,-10.738840268502589,-10.841535602428223
1769241125072,116,-12,-11.320141667769697,-11.640964436207913,-11.4522671212325
1769241125076,116,-12,-11.587435176335676,-11.58316769465922,-11.71887219672828
1769241125080,116,-12,-11.524731461966846,-11.72195143713405,-11.655213776206056
1769241125084,116,-12,-11.22195385468418,-11.596656785503614,-11.35054749058878
1769241125088,117,-11,-10.84598005068495,-10.789149093445692,-10.971789807335782
1769241125092,117,-11,-10.572174112886122,-10.563768259634372,-10.69463798276523
1769241125096,117,-11,-10.486075762536586,-10.680180017555518,-10.604975132415504
1769241125100,117,-11,-10.534818591837102,-10.632754337940602,-10.650278457793515
1769241125104,117,-11,-10.573974771804354,-10.650188279311251,-10.686409703030655
1769241125108,117,-11,-10.478586748884387,-10.74651853224828,-10.58842679826802
1769241125112,117,-11,-10.233654929551944,-10.555986840324652,-10.341136531981611
1769241125116,118,-10,-9.930470608445455,-9.751054020759424,-10.035701033040649
1769241125120,118,-10,-9.670947114999402,-9.497562824664326,-9.773771208637072
1769241125124,118,-10,-9.468186063017438,-9.839120859901172,-9.567811954631852
1769241125128,118,-10,-9.237192497268769,-9.471489403103016,-9.332570079744354
1769241125132,119,-9,-8.877293691155286,-8.888289389636775,-8.96836831386332
1769241125136,119,-9,-8.362355678334529,-8.381969794170328,-8.450488236670196
1769241125140,120,-8,-7.766645350413675,-7.880359215938492,-7.853207899857726
1769241125144,120,-8,-7.221917913876446,-7.4438681425449955,-7.306715847140409
1769241125148,121,-7,-6.841277150527763,-6.82459971728697,-6.922825311820592
1769241125152,121,-7,-6.650407389613539,-6.584628527608038,-6.727539061574263
1769241125156,121,-7,-6.5678253912718825,-6.6268282692493585,-6.640523729846315
1769241125160,121,-7,-6.460118374340013,-6.701036432264811,-6.5289534259313315
1769241125164,121,-7,-6.242619103115712,-6.532404720502927,-6.30809743913008
1769241125168,122,-6,-5.943288051807753,-5.789506334629756,-6.005910434875923
1769241125172,122,-6,-5.671159290735892,-5.557249689162422,-5.731398997542977
1769241125176,122,-6,-5.5215453676364765,-5.701480736314448,-5.579218421201037
1769241125180,122,-6,-5.507227989554617,-5.594592345413874,-5.561211531320528
1769241125184,122,-6,-5.566470452809902,-5.638434383303069,-5.615594278244571
1769241125188,122,-6,-5.6214498098169035,-5.6730208281758605,-5.665697231379034
1769241125192,122,-6,-5.630170195004162,-5.649170678910218,-5.67074334608214
1769241125196,122,-6,-5.6006197664840265,-5.632552046262824,-5.63873907943861
1769241125200,122,-6,-5.571667830593615,-5.634277264637785,-5.607369253797602
1769241125204,122,-6,-5.580099610550431,-5.614553456844186,-5.612242269504851
1769241125208,122,-6,-5.630983114910465,-5.654589377376077,-5.658416552563079
1769241125212,122,-6,-5.6844826531891695,-5.689638879572554,-5.707124412597029
1769241125216,122,-6,-5.6705909286639855,-5.560095568373046,-5.689257446378773
1769241125220,122,-6,-5.533182553930997,-5.731665157465095,-5.548484491775649
1769241125224,122,-6,-5.278460706110621,-5.487007609486241,-5.2902514644155465
1769241125228,123,-5,-4.982429113699981,-4.768067806863623,-4.990425536893988
1769241125232,123,-5,-4.737676032730604,-4.588850243348183,-4.742055564818148
1769241125236,123,-5,-4.583242774073152,-4.613573912552249,-4.58416758765249
1769241125240,123,-5,-4.486219818322468,-4.743652083828042,-4.483165982755165
1769241125244,123,-5,-4.387316740665789,-4.386183284333145,-4.379471803876816
1769241125248,124,-4,-4.254320982172759,-3.940146663911374,-4.241537005487454
1769241125252,123,-5,-4.09277488410563,-4.31836584669329,-4.075766091781095
1769241125256,124,-4,-3.92023754043289,-3.952077570884292,-3.899934517492298
1769241125260,124,-4,-3.740687289839431,-3.355685071303339,-3.717482615225832
1769241125264,124,-4,-3.542131919502282,-3.787990732449299,-3.5154682663371273
1769241125268,124,-4,-3.313493578484953,-3.5388152996254765,-3.282197338780847
1769241125272,125,-3,-3.054788649461735,-2.6494345725687585,-3.0181800296848342
1769241125276,125,-3,-2.760455256518627,-2.700884950841058,-2.7190858571734533
1769241125280,125,-3,-2.3968892600675886,-2.5116876906025736,-2.351851408192176
1769241125284,126,-2,-1.9171122807884604,-1.7135315082952165,-1.868693230063303
1769241125288,126,-2,-1.3143704021655649,-1.5273610464865237,-1.2617541392382186
1769241125292,127,-1,-0.6607606966417299,-0.6981892536028687,-0.60321058115984
1769241125296,128,0,-0.0809999618516794,0.3908509792073906,-0.019040114033026
1769241125300,128,0,0.3213783929637239,0.3758178655767388,0.3864898450440259
1769241125304,128,0,0.5116526576989076,0.4092259341584991,0.579676794262963
1769241125308,128,0,0.5008866513840049,0.3745279825467742,0.5731820269402772
1769241125312,128,0,0.2956116450501986,0.3788085725891195,0.3735775790257651
1769241125316,128,0,-0.1062717770907175,0.375668528635146,-0.0228281117459432
1769241125320,127,-1,-0.6719809834086616,-0.6646885077738318,-0.5844219747053101
1769241125324,126,-2,-1.313912058482043,-1.479915804749325,-1.223104212572332
1769241125328,126,-2,-1.934610902485896,-1.792220186318524,-1.8402755499890215
1769241125332,125,-3,-2.490831563499708,-2.3836349497010825,-2.3923217344789487
1769241125336,125,-3,-3.005523960144207,-2.8972778651014712,-2.9025906235516152
1769241125340,124,-4,-3.516555257854975,-3.3404799755375114,-3.409249588880333
1769241125344,124,-4,-4.015813126344365,-3.829197155599096,-3.904053119409856
1769241125348,123,-5,-4.43757940873036,-4.430915377433932,-4.321152332010586
1769241125352,123,-5,-4.706425281013814,-4.718368470502399,-4.585483238213071
1769241125356,123,-5,-4.800048651250084,-4.581289868654453,-4.675371875702446
1769241125360,123,-5,-4.771255568210082,-4.592927622628257,-4.643568187052709
1769241125364,123,-5,-4.71384406453623,-4.6321011457038415,-4.582681210664825
1769241125368,123,-5,-4.7036138144788,-4.568552544553571,-4.567330623507258
1769241125372,123,-5,-4.755086468003693,-4.616045218753063,-4.612644044042605
1769241125376,123,-5,-4.81551829242107,-4.641165197304505,-4.6682877595503705
1769241125380,123,-5,-4.799410800692485,-4.528837596838277,-4.650444755734417
1769241125384,123,-5,-4.650591089013815,-4.694720078424894,-4.50126655349335
1769241125388,123,-5,-4.393674458425595,-4.49298164803282,-4.24097248310901
1769241125392,124,-4,-4.123722191495428,-3.6894416671698456,-3.9616404846270634
1769241125396,124,-4,-3.9256582289581887,-3.5464934189256563,-3.750605241758721
1769241125400,124,-4,-3.797466812516785,-3.61304815977231,-3.6134543750524606
1769241125404,124,-4,-3.672872261493195,-3.5995726418740444,-3.491367570168543
1769241125408,124,-4,-3.536244538252652,-3.604844997340536,-3.3686157531128904
1769241125412,124,-4,-3.4786259349124573,-3.541966593686328,-3.3253344153999844
1769241125416,124,-4,-3.519459485001987,-3.703207753223896,-3.365387356488106
1769241125420,125,-3,-3.196068273290164,-2.410165709271846,-3.018808344205034
1769241125424,128,0,-1.2242240119897998,0.1846230627679035,-1.0108683467263475
1769241125428,132,4,4.2846211557380425,4.617696640604928,4.526178735646343
1769241125432,142,14,14.791564779347532,14.271309869408164,15.037140067806092
1769241125436,156,28,29.89201602384074,28.4833782627231,30.117517374113746
1769241125440,173,45,46.512296466070566,45.47586712775627,46.70797931577497
1769241125444,189,61,59.69027316651006,61.24818901040662,59.86330112755855
1769241125448,195,67,64.85990748241305,67.59462812831,65.02802111511717
1769241125452,189,61,60.293563500535285,61.17704408955771,60.47741628440328
1769241125456,174,46,48.01155923555311,46.59806532450763,48.227418321490816
1769241125460,159,31,32.52145207279116,31.30044060664748,32.77296798250266
1769241125464,146,18,18.344156694061553,18.51122943566266,18.61796203695368
1769241125468,136,8,8.025374188339061,8.428586052364412,8.29761629254973
1769241125472,130,2,1.7103047373046376,2.3965168845364535,1.9615847614620252
1769241125476,127,-1,-1.8905666803908705,-0.6042126691633243,-1.663567284701711
1769241125480,124,-4,-4.152259717538888,-3.57870036394392,-3.9366654797001335
1769241125484,121,-7,-5.766725167207434,-6.593952776754692,-5.543218634349748
1769241125488,120,-8,-6.827318203103003,-7.427602131404004,-6.582711389782371
1769241125492,121,-7,-7.3223834144276045,-6.70879872487883,-7.0573859496467275
1769241125496,121,-7,-7.425455259254436,-6.493247193230097,-7.152342652195177
1769241125500,121,-7,-7.388097453148672,-6.738756974408,-7.119773998424256
1769241125504,120,-8,-7.3169939260167824,-7.418508910174233,-7.056715022117704
1769241125508,120,-8,-7.153178016827983,-7.584145936616077,-6.894026589392385
1769241125512,121,-7,-6.841780677231226,-6.499706346026227,-6.5753066108695
1769241125516,122,-6,-6.445805491222049,-5.7009421531007245,-6.170228303118135
1769241125520,122,-6,-6.071114488281157,-5.554692252465954,-5.791152734742474
1769241125524,122,-6,-5.727773204434614,-5.588736722928331,-5.448006026534552
1769241125528,122,-6,-5.316663719236407,-5.411837484761895,-5.0367229333859065
1769241125532,123,-5,-4.752808542152311,-4.614600309168502,-4.469169933442446
1769241125536,124,-4,-4.067896641065698,-3.593528912571802,-3.7789474661575295
1769241125540,125,-3,-3.3757160610368153,-2.6573609749422933,-3.0836242181412685
1769241125544,125,-3,-2.7601037051310473,-2.489741834281945,-2.4676740374253243
1769241125548,125,-3,-2.2268382930160784,-2.4979051180877727,-1.9338744744574403
1769241125552,126,-2,-1.7564922539488437,-1.4935479228337645,-1.4603501983428289
1769241125556,127,-1,-1.3580073186483903,-0.7071451835653058,-1.0571406400962595
1769241125560,127,-1,-1.0401310765672245,-0.5480554536214113,-0.7356944114508988
1769241125564,127,-1,-0.7515295124069374,-0.5746936799054132,-0.4453972745296215
1769241125568,127,-1,-0.3908469405825716,-0.4378411728276847,-0.0833506577142442
1769241125572,128,0,0.1100505942951266,0.520428854219765,0.4197841945163674
1769241125576,129,1,0.7249882745215976,1.233140190860511,1.0373358184814805
1769241125580,129,1,1.360052487222908,1.585218161229224,1.674414123954356
1769241125584,130,2,1.933538768671301,2.2346732078524054,2.2492540184961216
1769241125588,130,2,2.4328677424203597,2.8093458743687014,2.750007443611776
1769241125592,131,3,2.910140150064537,3.2600933700657806,3.229464282613548
1769241125596,131,3,3.433340592148867,3.517822662985957,3.7556662574137856
1769241125600,132,4,4.039466196025279,4.334634519462453,4.364832031818285
1769241125604,133,5,4.726823887721161,5.437108278142393,5.054194843303522
1769241125608,133,5,5.478953826168905,5.693549855557369,5.80708447973571
1769241125612,134,6,6.27714864957706,6.30029389307302,6.605775278388694
1769241125616,135,7,7.0836435439633725,7.590129507299824,7.413523581335938
1769241125620,136,8,7.829600847128022,8.189046089474434,8.161465278703933
1769241125624,136,8,8.441799966554765,8.64197396095378,8.775631023897539
1769241125628,137,9,8.890855101429466,9.484284846701817,9.226200310481946
1769241125632,137,9,9.212829612390427,9.50361962311624,9.549504935425418
1769241125636,137,9,9.480278380216124,9.449780261590524,9.81845242306965
1769241125640,138,10,9.749554749489906,10.276218437045198,10.08915486203917
1769241125644,138,10,10.032714136844117,10.632132746576676,10.37326912457016
1769241125648,138,10,10.307896985413189,10.442759321901413,10.649276123765564
1769241125652,138,10,10.540724353768256,10.61582989706254,10.883420940820027
1769241125656,139,11,10.696902344210852,11.31210593706797,11.041086507581952
1769241125660,139,11,10.748516183175674,11.434278718098934,11.09348315419378
1769241125664,138,10,10.666298536590055,10.506169220303978,11.01145704459424
1769241125668,138,10,10.391414793358088,10.526101407717386,10.737127725199365
1769241125672,138,10,9.82273520586222,10.636717954239394,10.16954229258306
1769241125676,137,9,8.860726694206516,9.180844798172275,9.208368439852482
1769241125680,135,7,7.478653220427509,7.717276364124054,7.826505920044335
1769241125684,134,6,5.746434212209364,6.097102186813039,6.094501966304721
1769241125688,131,3,3.784131203187529,4.060962738513032,4.13307056864789
1769241125692,130,2,1.697401748367647,2.030384258381723,2.0476188137657463
1769241125696,127,-1,-0.4440451669505521,-0.1471424192572441,-0.0930994418477055
1769241125700,126,-2,-2.576780470312116,-1.9457415951514188,-2.2262329144529307
1769241125704,123,-5,-4.608730745161667,-4.261344856614649,-4.259043628519976
1769241125708,121,-7,-6.427675557261626,-6.507102474524087,-6.07799681247805
1769241125712,120,-8,-7.946729085298848,-7.481688635633343,-7.595902020433529
1769241125716,119,-9,-9.1326745747312,-8.503778734701559,-8.780720711723227
1769241125720,118,-10,-9.990468823575934,-9.690791797716996,-9.638542151992503
1769241125724,117,-11,-10.53951412667458,-10.388525128766272,-10.188556080950782
1769241125728,117,-11,-10.818695985838277,-10.476960561179997,-10.468723969107913
1769241125732,117,-11,-10.90268090651593,-10.426384445858847,-10.55325989165293
1769241125736,117,-11,-10.891199310302085,-10.587273148083687,-10.541971840370248
1769241125740,117,-11,-10.869090124177712,-10.562207973773573,-10.51983099382734
1769241125744,117,-11,-10.867868844882606,-10.513311311829506,-10.518544182966735
1769241125748,117,-11,-10.85652308717951,-10.361461441361689,-10.507408649029106
1769241125752,117,-11,-10.76995615565089,-10.51118488323934,-10.421411450209211
1769241125756,117,-11,-10.56087582527902,-10.50441207507454,-10.213009833051752
1769241125760,118,-10,-10.238229690219711,-9.59889763393197,-9.890992103285546
1769241125764,118,-10,-9.859075906439775,-9.484015092449368,-9.512575031365412
1769241125768,118,-10,-9.482801798812543,-9.384115007363816,-9.137330278689054
1769241125772,119,-9,-9.132591098123818,-8.467866534187714,-8.788340864066631
1769241125776,119,-9,-8.797730867685825,-8.548709656119701,-8.454536287445222
1769241125780,119,-9,-8.468337681931192,-8.509032866195284,-8.125843344661721
1769241125784,120,-8,-8.161235791177392,-7.584803620268439,-7.819470765578042
1769241125788,120,-8,-7.903839741252846,-7.262701012413062,-7.563320730747919
1769241125792,120,-8,-7.694029567994576,-7.5882938895756675,-7.354959387639309
1769241125796,120,-8,-7.487494835616106,-7.406163423067436,-7.149329290276462
1769241125800,121,-7,-7.227601212693598,-6.6219992756344945,-6.889958145923256
1769241125804,121,-7,-6.881399201489702,-6.488614414235067,-6.544944980386505
1769241125808,121,-7,-6.453370035830982,-6.305813176474389,-6.119144875003306
1769241125812,122,-6,-5.983309467189226,-5.589855924323253,-5.651430599226749
1769241125816,122,-6,-5.534281287450678,-5.321727074077999,-5.203910786827899
1769241125820,123,-5,-5.162437770641809,-4.758562003274974,-4.832961067120964
1769241125824,123,-5,-4.878500464917087,-4.2742853161303485,-4.550199849915377
1769241125828,123,-5,-4.639059793307635,-4.563021053965958,-4.3125145551735855
1769241125832,123,-5,-4.389337010944804,-4.2921873328743825,-4.064692569496601
1769241125836,124,-4,-4.1210430992288325,-3.605222567041288,-3.798212237707811
1769241125840,124,-4,-3.883840206186383,-3.4799555159831836,-3.562995314192136
1769241125844,124,-4,-3.738490723356086,-3.49385511738822,-3.419893396009824
1769241125848,124,-4,-3.702198856754389,-3.3848157700281263,-3.3857692725068915
1769241125852,124,-4,-3.736443554817981,-3.4152986070556937,-3.421870808495935
1769241125856,124,-4,-3.7795549007547087,-3.5085696126827215,-3.466737418775551
1769241125860,124,-4,-3.790641525783521,-3.5219728778007147,-3.479804383372465
1769241125864,124,-4,-3.7705989532137174,-3.456846955698357,-3.462045518854268
1769241125868,124,-4,-3.747796274939786,-3.3966966585230405,-3.4416777572253467
1769241125872,124,-4,-3.7444373377385984,-3.407496931241122,-3.440728828782776
1769241125876,124,-4,-3.755128352855413,-3.4941156297101745,-3.453760733322427
1769241125880,124,-4,-3.7565046644287454,-3.5214611972330383,-3.4575471408591953
1769241125884,124,-4,-3.73584055905511,-3.434183282993709,-3.4395533683040447
1769241125888,124,-4,-3.708380504840572,-3.411998066408436,-3.414975619486066
1769241125892,124,-4,-3.7054182243679312,-3.3875451471943463,-3.4147286359010067
1769241125896,124,-4,-3.742714598450475,-3.486587355125271,-3.4542882007084437
1769241125900,124,-4,-3.794655686401413,-3.532913843253544,-3.5083611884620134
1769241125904,124,-4,-3.7951859496069575,-3.370430094197243,-3.5115761301659534
1769241125908,124,-4,-3.670745052285576,-3.506155887153349,-3.3905051863346465
1769241125912,124,-4,-3.388848170120281,-3.243662415729602,-3.111920759038335
1769241125916,125,-3,-2.985480192749153,-2.6482471878574234,-2.71114668480143
1769241125920,125,-3,-2.539063713627406,-2.3285490515324474,-2.2670715666861043
1769241125924,126,-2,-2.103887110562442,-1.567136838960549,-1.83506878135286
1769241125928,126,-2,-1.6663877593527046,-1.2982158082014768,-1.4016361850499974
1769241125932,126,-2,-1.1782876106086952,-1.438863071919382,-0.9171434920115922
1769241125936,127,-1,-0.6385802544851218,-0.4524411961075039,-0.3796476786830629
1769241125940,128,0,-0.1290383211695056,0.5168430524202665,0.128043660992311
1769241125944,128,0,0.2459293279205501,0.585411447366667,0.4997219557376513
1769241125948,128,0,0.446502230667158,0.5875112301163581,0.695421856481576
1769241125952,128,0,0.5077118640293838,0.6541929560900024,0.7519428140330002
1769241125956,128,0,0.4657553450975817,0.4825678880139468,0.7069628626107898
1769241125960,128,0,0.2965000497702101,0.5845289967443725,0.5357827858491198
1769241125964,128,0,-0.0559721652429321,0.575583306391505,0.1806769531002645
1769241125968,127,-1,-0.5952809982466292,-0.4290880897364637,-0.3628019122657901
1769241125972,126,-2,-1.2364998369012148,-1.276802054190166,-1.008768315091899
1769241125976,126,-2,-1.864013610928822,-1.6440807367629762,-1.6402794213335468
1769241125980,125,-3,-2.419278726806007,-2.199832362275754,-2.198645122479994
1769241125984,125,-3,-2.9245611596333925,-2.6671040452529824,-2.7070154531472284
1769241125988,124,-4,-3.424525571287932,-3.1150397254992273,-3.2107513715117015
1769241125992,124,-4,-3.912849647749237,-3.632006841493259,-3.7033467662828103
1769241125996,123,-5,-4.319800621839026,-4.270678832820158,-4.11441312406163
1769241126000,123,-5,-4.570979453562828,-4.54508653528225,-4.369312300355636
1769241126004,123,-5,-4.655743621752666,-4.3144621076179925,-4.457861467449332
1769241126008,123,-5,-4.637423560203966,-4.396198315483698,-4.4438083390542
1769241126012,123,-5,-4.60013100001631,-4.420675397696861,-4.410877526352637
1769241126016,123,-5,-4.587275520577888,-4.40255183118426,-4.401723156776051
1769241126020,123,-5,-4.584419441898673,-4.479274877157748,-4.401987995623741
1769241126024,123,-5,-4.551147574545371,-4.264992046455748,-4.372531450655517
1769241126028,123,-5,-4.467140347160972,-4.489033624455751,-4.294323614082656
1769241126032,123,-5,-4.3521296637026055,-4.280549524859181,-4.186568373699073
1769241126036,124,-4,-4.2448236704935045,-3.5712259701362843,-4.084816617284863
1769241126040,123,-5,-4.1658239205017615,-4.276088417787145,-4.005924612938951
1769241126044,123,-5,-4.104727200496255,-4.443598719670769,-3.939976649839148
1769241126048,124,-4,-4.0396149824577146,-3.279391158304626,-3.8725843886803832
1769241126052,124,-4,-3.9681144904412866,-3.4981394303119,-3.810921492134381
1769241126056,123,-5,-3.938282571787045,-4.3498381459901525,-3.804219462019441
1769241126060,123,-5,-4.043468461063217,-4.46619771239925,-3.9339242581098146
1769241126064,123,-5,-4.271853120379362,-4.247369325633883,-4.171164883451722
1769241126068,124,-4,-4.151444508948169,-3.4274229092680053,-4.036292446432453
1769241126072,126,-2,-2.410710998115419,-1.3624259580776703,-2.26751252670792
1769241126076,131,3,2.862541424305446,3.5409200210956886,3.026529862572098
1769241126080,140,12,13.241896102133405,12.664259669461094,13.403108111345936
1769241126084,154,26,28.504365457581372,26.650455450329787,28.638746185357853
1769241126088,172,44,45.72410250013686,44.73073444471651,45.82079120973876
1769241126092,189,61,59.92912031154892,61.45760841705878,59.99342243228016
1769241126096,196,68,66.32972218524354,68.75090010125797,66.37819727480789
1769241126100,191,63,62.82322722700105,63.35939582087713,62.87688906406229
1769241126104,177,49,51.06936603988021,49.964011488039375,51.14575602450442
1769241126108,162,34,35.41460766787675,34.36297014622606,35.518683704282175
1769241126112,147,19,20.50008836515627,19.91463142137283,20.619707602417375
1769241126116,137,9,9.188202960693877,9.397891371276026,9.300392356655117
1769241126120,130,2,1.9561646235930867,2.767735341647281,2.0411810624297244
1769241126124,126,-2,-2.2788308408440727,-1.4029930069551255,-2.226064644692901
1769241126128,123,-5,-4.840250857346475,-4.3733430402429665,-4.808832571507851
1769241126132,120,-8,-6.473869364801735,-7.267924144771057,-6.445227602900239
1769241126136,119,-9,-7.369503420997914,-8.463596985342559,-7.329578319180745
1769241126140,120,-8,-7.617885996943218,-7.232129698114303,-7.565687378566685
1769241126144,121,-7,-7.486587899165728,-6.485966732747299,-7.433097781315348
1769241126148,120,-8,-7.29941688859201,-7.250066529568157,-7.257482012303336
1769241126152,120,-8,-7.193795116009021,-7.43090087914363,-7.167758378339415
1769241126156,120,-8,-7.089475449085333,-7.242145953136044,-7.073539595728931
1769241126160,120,-8,-6.877868476993157,-7.417398828767302,-6.863424514287073
1769241126164,121,-7,-6.580486162982695,-6.2961725740941725,-6.5644397278337925
1769241126168,122,-6,-6.299571274536169,-5.421814313355134,-6.285851068885735
1769241126172,121,-7,-6.054141555949151,-6.294125863223215,-6.0480447606898755
1769241126176,121,-7,-5.728100903277532,-6.307566242511815,-5.730486249769267
1769241126180,122,-6,-5.202347315752412,-5.351010521266568,-5.210028568692491
1769241126184,123,-5,-4.505591713653585,-4.33356991886306,-4.516262100819331
1769241126188,124,-4,-3.80214837757993,-3.3725850032648137,-3.817023920726712
1769241126192,124,-4,-3.2403218162478686,-3.359305986536157,-3.261719543624737
1769241126196,124,-4,-2.8354499761554344,-3.183274772535909,-2.8633470894437223
1769241126200,125,-3,-2.491877090043851,-2.497478575108312,-2.524007403746431
1769241126204,125,-3,-2.1051438613637767,-2.1229038721585844,-2.1399667697218017
1769241126208,126,-2,-1.630034968931728,-1.620691315407382,-1.6685743430410254
1769241126212,126,-2,-1.075471371094001,-1.048706273663805,-1.120033707170243
1769241126216,127,-1,-0.4706092073527719,-0.5114396251685047,-0.5221794088141527
1769241126220,127,-1,0.1496166443692814,-0.1316914321878806,0.0922744200539216
1769241126224,128,0,0.743424029029764,0.5342141847616588,0.6820742017988115
1769241126228,129,1,1.2786738921609182,1.6957780055459128,1.2135609415730837
1769241126232,129,1,1.764791669844899,1.7236915075789487,1.6948213679783102
1769241126236,129,1,2.253550774536511,1.6371065801492568,2.178089627635571
1769241126240,130,2,2.791310184796353,2.847433420191841,2.710829266793632
1769241126244,131,3,3.3763525429421986,3.4647247540921917,3.2913364068145867
1769241126248,131,3,3.974249666471152,3.8588971601947746,3.88448965157329
1769241126252,132,4,4.566588504859313,4.5484585797501165,4.471851661087462
1769241126256,132,4,5.169233972856453,4.816294795041757,5.069833430455918
1769241126260,133,5,5.803782422823536,5.728452872566608,5.699964330992427
1769241126264,134,6,6.46262197101889,6.5291816969032235,6.353874459756371
1769241126268,134,6,7.103843039525368,6.890261340115337,6.989462804920676
1769241126272,135,7,7.672878918450088,7.474329422729073,7.553080191852194
1769241126276,135,7,8.132175627215759,7.947434563804308,8.008057954584359
1769241126280,136,8,8.488701528323826,8.590274917765381,8.36106722355505
1769241126284,136,8,8.804826553732674,8.673031489266288,8.673441872084197
1769241126288,136,8,9.169489936198469,8.805026395842066,9.033539590535874
1769241126292,137,9,9.633055710686609,9.529295857997363,9.491927511709058
1769241126296,137,9,10.155005763019089,9.9609041473339,10.008566041624452
1769241126300,138,10,10.61560176234726,10.54230992440844,10.464098609130918
1769241126304,138,10,10.887493321394889,10.767796462267256,10.731438894076057
1769241126308,138,10,10.908984195704274,10.728068813951683,10.748999955892527
1769241126312,138,10,10.699798105550078,10.598596156974356,10.5363452660303
1769241126316,137,9,10.308792599666438,9.950663262005662,10.141864764784836
1769241126320,137,9,9.73920329736602,9.507527093444327,9.568147581686528
1769241126324,136,8,8.91597606986328,8.880620424554866,8.739742451103888
1769241126328,135,7,7.723611261961757,7.595842865147427,7.54156414030235
1769241126332,133,5,6.083560848977126,5.764707153437817,5.896219141705188
1769241126336,131,3,4.015292556401583,3.805169187671552,3.824076978187911
1769241126340,129,1,1.6492338576301822,1.630720206817419,1.455360166855852
1769241126344,126,-2,-0.8069615523076887,-1.1730978474656153,-1.0033027160172807
1769241126348,124,-4,-3.1317533478268,-3.373048344136836,-3.3312782068356137
1769241126352,122,-6,-5.157402103162433,-5.207205420892585,-5.361058659907313
1769241126356,120,-8,-6.812791893271189,-7.231370118184126,-7.021193222427758
1769241126360,119,-9,-8.122797151729575,-8.324107325733348,-8.336080369751675
1769241126364,118,-10,-9.16796280031113,-9.163924741626738,-9.385895270982504
1769241126368,117,-11,-10.030040030071962,-10.412192846427097,-10.252059958270308
1769241126372,116,-12,-10.755297873894584,-11.087549805436986,-10.980615612275376
1769241126376,116,-12,-11.348912873625252,-11.402404949169838,-11.576925772807504
1769241126380,115,-13,-11.78923891871523,-12.094066130694666,-12.01995121259534
1769241126384,115,-13,-12.047203050541496,-12.3986694147734,-12.281164942734511
1769241126388,115,-13,-12.10559776293746,-12.143412292066063,-12.343402249723615
1769241126392,115,-13,-11.975342643835257,-12.329964440243788,-12.217143851918369
1769241126396,115,-13,-11.701514253774668,-12.17637665176848,-11.947004990118751
1769241126400,116,-12,-11.350932651734196,-11.269316766802612,-11.59972687226509
1769241126404,116,-12,-10.984029096685385,-11.243058158339494,-11.235908341032603
1769241126408,116,-12,-10.631463722985924,-11.234681271849103,-10.886311415294973
1769241126412,117,-11,-10.294100972591082,-10.25520881686614,-10.5518914926224
1769241126416,117,-11,-9.96073674232918,-10.2167165398883,-10.22159047664951
1769241126420,117,-11,-9.624931809422344,-10.238597260671703,-9.88894660014792
1769241126424,118,-10,-9.289915100534682,-9.226636913393914,-9.556930084848547
1769241126428,118,-10,-8.960943613195736,-9.2419408557101,-9.230565088930415
1769241126432,118,-10,-8.633965449418568,-9.22982625839744,-8.905878474861384
1769241126436,119,-9,-8.294023141071115,-8.220769931582126,-8.568332462634602
1769241126440,119,-9,-7.928776619753714,-8.241759581469704,-8.205950122595471
1769241126444,119,-9,-7.550136766985821,-8.178680700817534,-7.830512968709553
1769241126448,120,-8,-7.206394418980327,-7.27585307153991,-7.489839663740136
1769241126452,120,-8,-6.96477132756467,-7.177037786284521,-7.250782393093511
1769241126456,120,-8,-6.866976237110363,-7.267557075795756,-7.154960483210571
1769241126460,120,-8,-6.891756186048611,-7.171833586760604,-7.1813869204725265
1769241126464,120,-8,-6.95662792734156,-7.242283239780504,-7.248132955833788
1769241126468,120,-8,-6.959601504985359,-7.165102544758035,-7.253454087585031
1769241126472,120,-8,-6.836216822820525,-7.292984899963438,-7.132381548953298
1769241126476,120,-8,-6.595694712129768,-7.119407622436864,-6.893606203110354
1769241126480,121,-7,-6.304034359766142,-6.323942567787046,-6.603559902446109
1769241126484,121,-7,-6.02122530919062,-6.050448622864266,-6.323043979195468
1769241126488,121,-7,-5.754002961889439,-6.346184213885992,-6.058538591479293
1769241126492,121,-7,-5.477976634713762,-6.085771767961412,-5.784495512926795
1769241126496,122,-6,-5.1989779801458464,-5.3235606930358115,-5.506363532812569
1769241126500,122,-6,-4.971270783342478,-5.10924463535628,-5.279317020559823
1769241126504,122,-6,-4.847967226160223,-5.221798427061493,-5.157354226403292
1769241126508,122,-6,-4.826084452027122,-5.17123597025038,-5.137376104155582
1769241126512,122,-6,-4.849630888512989,-5.223356462634983,-5.162801488398818
1769241126516,122,-6,-4.862505730605939,-5.2115468204912965,-5.177243802332294
1769241126520,122,-6,-4.85386149823179,-5.168084540466294,-5.1698201282720015
1769241126524,122,-6,-4.85416845179342,-5.165088725194802,-5.17090351574735
1769241126528,122,-6,-4.889007059205399,-5.169733490557986,-5.206105858166124
1769241126532,122,-6,-4.933959772291834,-5.246204475123544,-5.25147399641538
1769241126536,122,-6,-4.914731254269882,-5.158652639097818,-5.233266463123435
1769241126540,122,-6,-4.7621602247207635,-5.221846558954779,-5.082270416772112
1769241126544,122,-6,-4.481585439189178,-5.061673425953599,-4.803163729458891
1769241126548,123,-5,-4.169521184923856,-4.263084679189204,-4.491943358774546
1769241126552,123,-5,-3.9465672526935673,-4.12454146401428,-4.269258965238702
1769241126556,123,-5,-3.856821955080014,-4.298662627207478,-4.179481743696966
1769241126560,123,-5,-3.8275423651616727,-4.039488923076115,-4.150005993038318
1769241126564,123,-5,-3.7323666448193302,-4.235533896103118,-4.054628822507822
1769241126568,123,-5,-3.5041550933589747,-4.0554371595688945,-3.826676807647768
1769241126572,124,-4,-3.1951751735357794,-3.305727600459869,-3.518938764873395
1769241126576,124,-4,-2.929007523933831,-3.141589072795453,-3.254719680930105
1769241126580,124,-4,-2.7876055380428375,-3.131278464711435,-3.114511183488029
1769241126584,124,-4,-2.732247748450571,-3.175739943179868,-3.058118052043987
1769241126588,124,-4,-2.617276865891808,-3.0308649464891877,-2.9402068811844337
1769241126592,125,-3,-2.275447708875827,-2.3785414398799283,-2.5957362398172963
1769241126596,125,-3,-1.6175011982428136,-1.996140627285556,-1.9374436278694973
1769241126600,126,-2,-0.7010862400715565,-1.306842486950203,-1.0229376788782698
1769241126604,127,-1,0.2625559073495305,0.0606380611274808,-0.0617661070975628
1769241126608,128,0,0.984278807839002,0.7401333477464913,0.6586241107326414
1769241126612,128,0,1.2328702930242326,0.8475804209371356,0.9077317449836796
1769241126616,128,0,0.954805314584504,0.8289755308256992,0.6317992482257537
1769241126620,127,-1,0.2980047857104417,-0.1719457566560689,-0.0220628976477348
1769241126624,126,-2,-0.4774463877994779,-0.99268728580236,-0.7948578300375089
1769241126628,126,-2,-1.1407678304143205,-1.2311712567417477,-1.4567680857115417
1769241126632,125,-3,-1.5937060701825685,-2.125595789110805,-1.909834490908888
1769241126636,125,-3,-1.8814795746114117,-2.207935861563385,-2.1986427192916382
1769241126640,125,-3,-2.122993952608714,-2.096505900612936,-2.440882778172277
1769241126644,124,-4,-2.4180556416810224,-3.065005968710429,-2.735321968187417
1769241126648,124,-4,-2.790649644743153,-3.12764408647571,-3.105796996657397
1769241126652,124,-4,-3.190210723586418,-3.212962152840827,-3.5025430169024547
1769241126656,123,-5,-3.5339034890610317,-4.116144444910507,-3.843736044350826
1769241126660,123,-5,-3.758881410870149,-4.153225725549092,-4.0670921693904445
1769241126664,123,-5,-3.854579795694673,-3.9984980794951976,-4.162126803327866
1769241126668,123,-5,-3.857379670650636,-4.168397063016074,-4.164793757351013
1769241126672,123,-5,-3.819414236730816,-4.15362086498603,-4.12614556746036
1769241126676,123,-5,-3.782557222001308,-4.161354634948911,-4.086957617232831
1769241126680,123,-5,-3.771402791831238,-4.09619440472236,-4.0720829374235255
1769241126684,123,-5,-3.79278570095488,-4.0237653549434,-4.090441143041764
1769241126688,123,-5,-3.831540983289949,-4.132931345336674,-4.1291100268035565
1769241126692,123,-5,-3.851881211718819,-4.164502254162393,-4.151896105365207
1769241126696,123,-5,-3.8157510027595793,-4.128805507558466,-4.116574064215612
1769241126700,123,-5,-3.7073828968509934,-4.138031749155539,-4.002339992419587
1769241126704,123,-5,-3.536446061283468,-3.914356108552472,-3.8186747057026422
1769241126708,124,-4,-3.3125252869465265,-3.2809223524161504,-3.5828829764840298
1769241126712,124,-4,-3.0341030869598304,-2.9244935033487267,-3.3043509483165576
1769241126716,124,-4,-2.746201494279547,-3.4284781784544673,-3.0318871106908207
1769241126720,123,-5,-2.6193637281749016,-3.762783899266892,-2.926427273510605
1769241126724,124,-4,-2.858189687549173,-3.3104850368979997,-3.174768253577398
1769241126728,124,-4,-3.290458853409497,-2.8536060313973843,-3.5923058862281354
1769241126732,125,-3,-2.831637112783074,-2.293111673726731,-3.098525118233069
1769241126736,128,0,0.6078371208433566,0.8924744820763717,0.3768894155997651
1769241126740,136,8,9.272554931410308,9.026750619860776,9.057509010945166
1769241126744,149,21,23.93261923222089,21.82597407449056,23.705654916132577
1769241126748,167,39,42.47575828234983,40.150583065797434,42.21820198347173
1769241126752,188,60,59.97723389405768,60.671966788901166,59.68761042892716
1769241126756,200,72,70.69135965876825,72.96546444733946,70.38320110069219
1769241126760,199,71,70.94474037206362,71.89829954665856,70.64040656766153
1769241126764,187,59,61.03311512829745,59.8842677508637,60.75579797959246
1769241126768,170,42,44.84952677980972,43.08085326257312,44.61223293691262
1769241126772,154,26,27.6247506684158,26.78069395431624,27.421266369317575
1769241126776,140,12,13.398401666237342,12.979353736384336,13.205559473990816
1769241126780,131,3,3.7319049119051737,3.98762642815779,3.5240551987027686
1769241126784,126,-2,-1.9411320254260935,-1.2084829105757322,-2.1762945892656704
1769241126788,122,-6,-5.0424246798371914,-4.833157098844204,-5.2981782675496385
1769241126792,120,-8,-6.729631743559313,-7.3367301505954,-6.98697097072285
1769241126796,118,-10,-7.55141612445016,-8.83201117110941,-7.792238820392567
1769241126800,119,-9,-7.733331219642848,-8.159655513804582,-7.9514650027299885
1769241126804,120,-8,-7.5258266430928,-7.0694357758729955,-7.729019339968815
1769241126808,120,-8,-7.235095766837602,-6.968916789617403,-7.4368414449086275
1769241126812,120,-8,-7.036538103001474,-7.237932905073138,-7.244583496144194
1769241126816,119,-9,-6.89130487866535,-7.837192239885111,-7.102849460655745
1769241126820,120,-8,-6.6808438694637875,-7.157476982059262,-6.887879056803884
1769241126824,121,-7,-6.378382932810413,-6.026440822706431,-6.576373356865022
1769241126828,121,-7,-6.05946337357817,-6.031095923734296,-6.250256186950373
1769241126832,121,-7,-5.77913888003157,-6.1770459476827995,-5.966835080002396
1769241126836,121,-7,-5.490591555674403,-5.82342083693843,-5.676702787953626
1769241126840,122,-6,-5.094814767191551,-5.189962706211656,-5.277762849406645
1769241126844,122,-6,-4.549303461301367,-4.92563123778382,-4.727206982607266
1769241126848,123,-5,-3.915924884970611,-4.174296274570759,-4.088808831236299
1769241126852,124,-4,-3.3062256246805473,-2.993992268390844,-3.475502340879569
1769241126856,124,-4,-2.7864112628434867,-2.975717959443986,-2.952561628611351
1769241126860,124,-4,-2.337541571487834,-3.025666064837655,-2.499009233100071
1769241126864,125,-3,-1.8967079880974116,-2.044205942021006,-2.0517980613565103
1769241126868,126,-2,-1.4154292345812731,-1.0963488313578362,-1.5648015867850709
1769241126872,126,-2,-0.8797001977814733,-1.011841274851521,-1.0257038386766977
1769241126876,126,-2,-0.3106993931368866,-0.9534073806729376,-0.4543001778073661
1769241126880,127,-1,0.2289921187050256,0.0047939304363477,0.0892834386564023
1769241126884,128,0,0.6580670849261405,0.9098055061890395,0.524015847921274
1769241126888,128,0,0.950918266875133,0.9761150058277712,0.8226478700067137
1769241126892,128,0,1.1959171636281622,0.9149797810002074,1.0726993072999305
1769241126896,128,0,1.551727914877595,1.1819628685607726,1.4335181210283876
1769241126900,129,1,2.1255707895320968,1.862418897782975,2.012737050230884
1769241126904,130,2,2.892887566538395,3.083258788299016,2.784994509896637
1769241126908,131,3,3.731519729405012,3.813017229496717,3.627545897062964
1769241126912,131,3,4.520074704494836,4.0800310220265725,4.419876047450979
1769241126916,132,4,5.2037545059355566,5.093910950814979,5.10843611693207
1769241126920,133,5,5.793471318888252,5.893283894899417,5.704099630860236
1769241126924,133,5,6.330443406871837,6.1494682461207155,6.247066770662667
1769241126928,134,6,6.851080285805106,6.677257656782368,6.773236942154301
1769241126932,134,6,7.366047994604436,7.318746154530345,7.293599830606195
1769241126936,135,7,7.8613459554352065,7.821645886479399,7.794363191434793
1769241126940,135,7,8.319826560766955,8.214856957596583,8.257976104119074
1769241126944,136,8,8.74113397521718,8.838840287050733,8.683781796128631
1769241126948,136,8,9.134997610330924,8.978338837547085,9.082113713201156
1769241126952,136,8,9.49286790465966,9.089680641849757,9.4454513095171
1769241126956,137,9,9.777214135852017,10.011863709147402,9.736424370281515
1769241126960,137,9,9.955849663926411,10.116149059651256,9.921896107527054
1769241126964,137,9,10.047532654854717,9.87465271218754,10.019734290051437
1769241126968,137,9,10.11219529188627,10.034532129792131,10.089863939049003
1769241126972,137,9,10.174000281268556,9.986444998834054,10.156847311480549
1769241126976,137,9,10.148417267829306,10.190155306166918,10.13631507612127
1769241126980,137,9,9.85256144886673,9.934032359036514,9.845469446546254
1769241126984,136,8,9.102613290702177,9.071990032973916,9.100860569447502
1769241126988,135,7,7.826223253617276,7.876319797898214,7.83054608447008
1769241126992,133,5,6.108724062483935,6.109551376823243,6.1198512960001334
1769241126996,131,3,4.144222621473233,4.161011225218752,4.1624909302411695
1769241127000,129,1,2.1296870867800988,1.905803226958044,2.1549275596309876
1769241127004,127,-1,0.17866453655905,0.2090637352056328,0.2101686522239454
1769241127008,126,-2,-1.6869987282287928,-1.3313783070407288,-1.6502587705827994
1769241127012,123,-5,-3.477766062483963,-3.587328258842323,-3.4363403531927847
1769241127016,122,-6,-5.177000118531007,-5.180568548817462,-5.130214503156514
1769241127020,120,-8,-6.7332721619258145,-6.687966856826431,-6.6796390299790325
1769241127024,119,-9,-8.090986242515491,-8.20035491820251,-8.029619583939644
1769241127028,118,-10,-9.213014366157106,-8.910409801315048,-9.144475057954123
1769241127032,117,-11,-10.078100724148802,-9.9539502426776,-10.003598057067698
1769241127036,116,-12,-10.676199052314097,-10.848530810351017,-10.596086744456182
1769241127040,116,-12,-11.020515386452225,-10.929209496551085,-10.93398818679633
1769241127044,116,-12,-11.158257048460056,-11.013501482479672,-11.064597549380498
1769241127048,116,-12,-11.154171033245373,-11.023735900277313,-11.053797938799882
1769241127052,116,-12,-11.05815914743419,-10.849961341653168,-10.951999653579264
1769241127056,116,-12,-10.894588182216,-10.92511297298465,-10.782603298028876
1769241127060,116,-12,-10.683127102024448,-10.821683975382516,-10.564060934938684
1769241127064,117,-11,-10.454690367191985,-10.134798837678131,-10.327526924246197
1769241127068,117,-11,-10.230439096193985,-9.84317028101172,-10.095668036053162
1769241127072,117,-11,-9.989681486308072,-10.048899984377506,-9.848685776618504
1769241127076,117,-11,-9.68164242070639,-9.664235133217144,-9.535057003751575
1769241127080,118,-10,-9.284243916361126,-9.104402407975527,-9.131325710181493
1769241127084,118,-10,-8.845725724574102,-8.810870998935307,-8.685284933272733
1769241127088,119,-9,-8.454396186959015,-8.155632515391854,-8.286037254509468
1769241127092,119,-9,-8.160354032707932,-7.708371382626207,-7.984660330104865
1769241127096,119,-9,-7.931316791188138,-7.97980387175658,-7.748978973280342
1769241127100,119,-9,-7.694636568955791,-7.796668058945989,-7.505772275515906
1769241127104,120,-8,-7.424239782365934,-7.074836518208308,-7.228632652514932
1769241127108,120,-8,-7.178757389741205,-6.899652525688978,-6.976240518141406
1769241127112,120,-8,-7.049393649425108,-6.8973012529237545,-6.83966381656699
1769241127116,120,-8,-7.069066519544734,-6.806278003978743,-6.851568774481668
1769241127120,120,-8,-7.16604546670549,-6.940065343317047,-6.940507337407092
1769241127124,120,-8,-7.202180681418308,-6.934259450351503,-6.969034424935993
1769241127128,120,-8,-7.070443397789099,-7.000550719337167,-6.830387861312168
1769241127132,120,-8,-6.779730449235799,-6.768084367543349,-6.533060798845955
1769241127136,121,-7,-6.4536308204970885,-5.918201005589454,-6.200199393877114
1769241127140,121,-7,-6.232737241077376,-5.813761708187896,-5.972245436224047
1769241127144,121,-7,-6.159381688480557,-6.063161357897986,-5.89137806492767
1769241127148,121,-7,-6.147752212185818,-5.82600245866195,-5.8715966498746495
1769241127152,121,-7,-6.064599590075026,-5.931505385401814,-5.779897858953112
1769241127156,121,-7,-5.844392971687631,-5.726913126971258,-5.551593085169279
1769241127160,122,-6,-5.538388427329613,-4.988527450499704,-5.238697567855219
1769241127164,122,-6,-5.264822701269937,-4.888338113931866,-4.9591638196151955
1769241127168,122,-6,-5.1159212898218875,-4.954252960591123,-4.803860274030328
1769241127172,122,-6,-5.102514989868162,-4.800714972392856,-4.782477931637572
1769241127176,122,-6,-5.166307896088995,-4.821783333484055,-4.837048586695063
1769241127180,122,-6,-5.230518379572089,-4.898765309200417,-4.89227083846702
1769241127184,122,-6,-5.246910787901649,-4.942451391349699,-4.901068941308436
1769241127188,122,-6,-5.216743997194392,-4.889611869884807,-4.864569268674587
1769241127192,122,-6,-5.180890416423274,-4.824773739665458,-4.822512754904883
1769241127196,122,-6,-5.185845319617817,-4.7992344475040705,-4.820250595434308
1769241127200,122,-6,-5.244196028154061,-4.888729874524104,-4.870041481908688
1769241127204,122,-6,-5.314299007070302,-4.958243009527071,-4.930907443889668
1769241127208,122,-6,-5.31618029795383,-4.820672736959094,-4.923977415287768
1769241127212,122,-6,-5.1808608137029815,-4.897601850065508,-4.780976601196943
1769241127216,122,-6,-4.905769432220039,-4.6842547690655145,-4.499257489277059
1769241127220,123,-5,-4.573991802176867,-4.006715811870873,-4.161248370109499
1769241127224,123,-5,-4.3122047770650305,-3.8180556178227434,-3.892714956456381
1769241127228,123,-5,-4.209776417802413,-3.924027440862757,-3.78227892157393
1769241127232,123,-5,-4.255493356570693,-3.7992671978195167,-3.818774202098345
1769241127236,123,-5,-4.335508933148336,-3.726956603646739,-3.88934648623163
1769241127240,123,-5,-4.296228338644661,-4.001863829744833,-3.841503660360158
1769241127244,123,-5,-4.038297505459152,-3.746884624658315,-3.576210465859783
1769241127248,124,-4,-3.582462179805094,-3.0165296911135417,-3.1137972222802057
1769241127252,124,-4,-3.055366280442504,-2.6442356898592534,-2.580285711950421
1769241127256,125,-3,-2.5993008607864896,-1.8960866335472015,-2.117318536268941
1769241127260,125,-3,-2.2741214825842304,-1.799047249593133,-1.784169011952204
1769241127264,125,-3,-2.025210855503545,-1.948050217911883,-1.5261904262325392
1769241127268,126,-2,-1.731954636083711,-0.7849615021969258,-1.2235469969455504
1769241127272,126,-2,-1.2922112483211592,-0.8393252487613467,-0.7750270898106595
1769241127276,126,-2,-0.6888061509750507,-0.7149305926990901,-0.1638259263934971
1769241127280,128,0,-0.0049805905972086,1.086314210002338,0.5268597071160745
1769241127284,128,0,0.6168659408604329,1.1236357645625623,1.154865549536539
1769241127288,128,0,1.0429133693107562,1.217211934126535,1.5871105230322082
1769241127292,129,1,1.194846071946321,2.1495747330426713,1.7464397818680917
1769241127296,128,0,1.0582075378419191,1.3312130389613683,1.6189615614414483
1769241127300,128,0,0.6735092229986281,1.0332898852769057,1.2442210366343636
1769241127304,128,0,0.1318187714176439,1.224199720727178,0.7113625238457386
1769241127308,127,-1,-0.4367619411635104,0.1063302338055445,0.1496569285535733
1769241127312,126,-2,-0.9121825847071174,-0.6808756804818117,-0.3194746900109981
1769241127316,126,-2,-1.2599252766273414,-0.838705369842959,-0.659744035649013
1769241127320,126,-2,-1.5574068600854734,-0.7934482316124427,-0.9488844171815928
1769241127324,126,-2,-1.918651433751396,-0.8946826394886536,-1.302688864349268
1769241127328,125,-3,-2.381306480851886,-1.796089745300029,-1.7590278608981245
1769241127332,124,-4,-2.878342013285347,-2.6983867887039636,-2.2488577159596677
1769241127336,124,-4,-3.318959849179314,-2.874418655860182,-2.680145041179726
1769241127340,124,-4,-3.670449673820389,-2.6885029799369833,-3.0220196239002965
1769241127344,124,-4,-3.9455190414183487,-3.017197195130678,-3.28991682901019
1769241127348,123,-5,-4.136891531766901,-3.6084201906067825,-3.476300451511439
1769241127352,123,-5,-4.206718843434757,-3.879204307669159,-3.5400731441483004
1769241127356,123,-5,-4.14526584569684,-3.707019273591886,-3.469388113178378
1769241127360,124,-4,-4.005685493895106,-2.8078470772390665,-3.3191812004392567
1769241127364,124,-4,-3.858630554048534,-2.909831478187465,-3.163713085085655
1769241127368,123,-5,-3.73124626918137,-3.6255286495922343,-3.0317001849454392
1769241127372,124,-4,-3.6150077789790607,-2.907871594188455,-2.9128808694662367
1769241127376,124,-4,-3.5209437910743926,-2.6299219898830635,-2.814549630761362
1769241127380,124,-4,-3.4929057615321284,-2.9175975912346495,-2.7768010548037805
1769241127384,124,-4,-3.550479098926295,-2.7162522758324648,-2.8181874828892903
1769241127388,124,-4,-3.628411447860482,-2.807129539982654,-2.8780973389063447
1769241127392,124,-4,-3.598923750915839,-2.7261621596611896,-2.83828653638812
1769241127396,124,-4,-3.3962308719154213,-2.780010450422276,-2.6403173790289043
1769241127400,124,-4,-3.149235871303044,-2.81210434079897,-2.4094815326660752
1769241127404,124,-4,-3.1380886820377123,-2.6956401872875313,-2.410235432747628
1769241127408,124,-4,-3.434563986522469,-2.8801916220143733,-2.6973796962348637
1769241127412,125,-3,-3.3369501887724065,-1.5754741447945912,-2.5659382150202026
1769241127416,128,0,-1.0553995452974665,1.022566034145152,-0.241384495233103
1769241127420,133,5,5.78566806053893,6.423478859834743,6.629096040268816
1769241127424,145,17,18.699145519842215,18.1417308058772,19.545139543441465
1769241127428,162,34,36.673820539294624,35.29692583004034,37.49909104020928
1769241127432,183,55,55.60836441676027,56.301203805419426,56.40411895128303
1769241127436,200,72,69.68935264915025,73.12122401412763,70.46291792572765
1769241127440,203,75,74.1671277737282,76.31265580289518,74.9384459023594
1769241127444,195,67,67.78479970264158,68.22055908599765,68.57920646299968
1769241127448,180,52,53.25671664511736,53.1690834173865,54.09289084127094
1769241127452,162,34,35.59903533573346,35.436305202141675,36.47740237662361
1769241127456,147,19,19.556735688479947,20.06464674082564,20.458412671720826
1769241127460,135,7,7.743529160561412,8.504035795421064,8.642216609932234
1769241127464,129,1,0.3539957639918833,2.077124273853668,1.2316925327297763
1769241127468,125,-3,-3.837097204774477,-1.6892463236435535,-2.9812311026914458
1769241127472,121,-7,-6.188248022185023,-5.737489565985141,-5.339643895597759
1769241127476,119,-9,-7.504534823407289,-7.773351236517312,-6.643357681293334
1769241127480,119,-9,-8.116430494294969,-7.534900840222756,-7.230385522527889
1769241127484,120,-8,-8.24443815252571,-6.93848830428842,-7.335932019587097
1769241127488,120,-8,-8.144629755503013,-6.582583077722098,-7.226536505607852
1769241127492,120,-8,-7.986317473052564,-6.957330870142377,-7.070016998406906
1769241127496,119,-9,-7.7528114739428355,-7.470472636546281,-6.839573697334939
1769241127500,120,-8,-7.348253853638032,-6.826136692895799,-6.431295241224129
1769241127504,121,-7,-6.781126454276288,-5.591330904181465,-5.854417636374714
1769241127508,122,-6,-6.1985723375448885,-4.912367348154893,-5.262350335697748
1769241127512,122,-6,-5.745029607071208,-4.666613837328291,-4.803261667667747
1769241127516,122,-6,-5.4263377809165645,-4.710605922680468,-4.480924208079802
1769241127520,122,-6,-5.128037596056498,-4.598220762490202,-4.177122786400563
1769241127524,123,-5,-4.741108133298679,-3.722244209796122,-3.782580086027119
1769241127528,124,-4,-4.24481462525128,-2.818527829966696,-3.2794969180364575
1769241127532,124,-4,-3.6854837489304058,-2.719240439718434,-2.7157939185572517
1769241127536,124,-4,-3.1201404529004075,-2.678797978847609,-2.146691342125881
1769241127540,125,-3,-2.5938043573562606,-1.5894769440280987,-1.614899322595078
1769241127544,126,-2,-2.133961686872068,-0.6791957876625845,-1.148149616386156
1769241127548,126,-2,-1.7314375949051029,-0.8774903827575291,-0.7391510139050026
1769241127552,126,-2,-1.33539588178758,-0.6055401076370144,-0.3379557928178371
1769241127556,127,-1,-0.8937165842927497,0.150164189879931,0.1082247307887107
1769241127560,127,-1,-0.4042976054869498,0.6658207846853839,0.6024884519202027
1769241127564,128,0,0.0814960075780908,1.066209202052702,1.0938606700743776
1769241127568,128,0,0.5102200174607483,1.4226834909561403,1.5284671091931838
1769241127572,129,1,0.8853931862078157,2.096154724142329,1.9089178294305809
1769241127576,129,1,1.2801462337624048,2.420123733523585,2.308031751762212
1769241127580,129,1,1.7829599995014518,2.473188785050529,2.815304976185918
1769241127584,130,2,2.415225058363682,3.2409858860538296,3.4532949417860896
1769241127588,131,3,3.103337298894054,4.33622563676475,4.147812441096975
1769241127592,132,4,3.747962104616603,5.1307925217213555,4.797586236596777
1769241127596,132,4,4.321945171481941,5.414791549330651,5.374832207456239
1769241127600,132,4,4.880469062822122,5.510521560357608,5.936525989761269
1769241127604,133,5,5.467888256219563,6.198460437682244,6.528913189251888
1769241127608,134,6,6.040536360432895,7.4742218310130255,7.107803836161406
1769241127612,135,7,6.510647889877069,7.915685973492554,7.58343537808367
1769241127616,134,6,6.8615465331673215,7.714906716207277,7.938524846084216
1769241127620,135,7,7.190793892859955,8.17628672881602,8.27197124100773
1769241127624,135,7,7.62447385105984,8.58208706336551,8.710838088628224
1769241127628,136,8,8.19402910227532,9.13689940870952,9.285557102572472
1769241127632,137,9,8.800203150589857,10.207796470884055,9.895240295449334
1769241127636,137,9,9.28862850948842,10.526667848592403,10.38579691001419
1769241127640,137,9,9.55561585361124,10.266018905256432,10.655868854794376
1769241127644,137,9,9.59972777581448,10.636019766149255,10.705644106793564
1769241127648,138,10,9.507884003190648,10.999055742309729,10.620882259172346
1769241127652,137,9,9.405667120433048,10.441370999938789,10.524630226893642
1769241127656,137,9,9.384993136570838,10.26612248384938,10.507715425137068
1769241127660,137,9,9.424600970962564,10.551099332738223,10.549818062605548
1769241127664,137,9,9.357728864818188,10.393360898934295,10.4854650360813
1769241127668,137,9,8.937351609012284,10.224270294285756,10.068036716100565
1769241127672,136,8,7.971918772926333,9.288947074685195,9.105954547679769
1769241127676,134,6,6.4340536772609696,7.37340816192815,7.572180529276912
1769241127680,132,4,4.464219318286968,5.5013420929225925,5.607574256444028
1769241127684,130,2,2.2830092113545946,3.4344047280876406,3.432238733758026
1769241127688,128,0,0.0933637740045099,1.221178779823448,1.2477254508205489
1769241127692,126,-2,-1.9645501143606596,-0.6741885211876992,-0.8068255391745542
1769241127696,124,-4,-3.8100802831437734,-2.663283829470192,-2.650319672622243
1769241127700,122,-6,-5.410094210915157,-4.440373756907388,-4.248136555467967
1769241127704,121,-7,-6.774984246241605,-5.607425494618469,-5.60967074288027
1769241127708,120,-8,-7.944589708095549,-6.717197923666724,-6.775101030901821
1769241127712,119,-9,-8.952321553286396,-7.695013226039437,-7.778738514350012
1769241127716,118,-10,-9.792530226379082,-8.644607333104794,-8.61518386118618
1769241127720,117,-11,-10.425292884872116,-9.440093294363445,-9.24412389310022
1769241127724,117,-11,-10.814936014353568,-9.597096740016214,-9.629843909143649
1769241127728,117,-11,-10.963086276527555,-9.69856228133504,-9.774558639300713
1769241127732,117,-11,-10.910018620089224,-9.68135773747317,-9.718844489480023
1769241127736,117,-11,-10.715980878547924,-9.64823577754856,-9.522341599460626
1769241127740,117,-11,-10.44333627478172,-9.42841923104037,-9.246595477158614
1769241127744,118,-10,-10.14094285409159,-8.598377260438298,-8.940356848277622
1769241127748,118,-10,-9.82904315824941,-8.661838437865754,-8.624366806329416
1769241127752,118,-10,-9.499152837975045,-8.69773050308999,-8.290705850725828
1769241127756,119,-9,-9.137127233341614,-7.606837602338589,-7.925681359214199
1769241127760,119,-9,-8.750772701064744,-7.4775314645142945,-7.537139087456381
1769241127764,119,-9,-8.379749672632528,-7.5263795768833885,-7.163977160875114
1769241127768,120,-8,-8.082472104831883,-6.705388593539952,-6.863621234857017
1769241127772,120,-8,-7.90283311213723,-6.6208094347899795,-6.679960301319962
1769241127776,120,-8,-7.830553774228219,-6.687329809811356,-6.603815450244727
1769241127780,120,-8,-7.7897980430651,-6.3663252087235245,-6.560243219556812
1769241127784,120,-8,-7.683471932435631,-6.6507582790269515,-6.451756009100359
1769241127788,120,-8,-7.469175227641359,-6.529992992408176,-6.234868833897027
1769241127792,121,-7,-7.196340286891378,-5.7687126753429085,-5.958756632363945
1769241127796,121,-7,-6.95710465649834,-5.544963167431921,-5.7164196395006215
1769241127800,121,-7,-6.79214782466713,-5.466607946832774,-5.54909902821982
1769241127804,121,-7,-6.651291361257314,-5.580348126748369,-5.405895647751326
1769241127808,121,-7,-6.454513505997513,-5.532264285228289,-5.205853364808056
1769241127812,122,-6,-6.18592499921769,-4.775424445411032,-4.933516197856831
1769241127816,122,-6,-5.917764768730762,-4.4896625851863075,-4.662565949015066
1769241127820,122,-6,-5.744977210732003,-4.534758848294682,-4.488459403597087
1769241127824,122,-6,-5.706476073533868,-4.483237826409155,-4.448837881578714
1769241127828,122,-6,-5.767133347711775,-4.620552678484899,-4.506916694212742
1769241127832,122,-6,-5.856834012549248,-4.656593436111904,-4.59244759128344
1769241127836,122,-6,-5.91136527039825,-4.586494563358325,-4.642770859209525
1769241127840,122,-6,-5.8826931507005895,-4.426699705939345,-4.611358567071574
1769241127844,122,-6,-5.738388278061775,-4.574996022468291,-4.465649551856609
1769241127848,122,-6,-5.479634688521031,-4.51344800781078,-4.2054968587641195
1769241127852,123,-5,-5.163888344323317,-3.738059999817503,-3.887591566499726
1769241127856,123,-5,-4.889739761065251,-3.4819933214520193,-3.610985331674697
1769241127860,123,-5,-4.739000561751742,-3.5197978060209874,-3.458064400384697
1769241127864,123,-5,-4.725873974347993,-3.4633553760226583,-3.442747283849095
1769241127868,123,-5,-4.797967960210009,-3.618504095244592,-3.512055920592292
1769241127872,123,-5,-4.8784938261889295,-3.6068353760659946,-3.589374517995806
1769241127876,123,-5,-4.905910534624114,-3.583731615314673,-3.614011522879051
1769241127880,123,-5,-4.847853563854557,-3.4136207984186244,-3.553995617791848
1769241127884,123,-5,-4.702119875855235,-3.5307977205258188,-3.4065711863286574
1769241127888,123,-5,-4.499235910097202,-3.575416647577599,-3.2017674218434986
1769241127892,124,-4,-4.294618023881952,-2.585790778015494,-2.9954228628292734
1769241127896,124,-4,-4.138406235753944,-2.6226126785863864,-2.8380484964122603
1769241127900,123,-5,-4.047225600072505,-3.315532000764378,-2.745340459811938
1769241127904,124,-4,-4.00701729148704,-2.651779233353783,-2.7020183030157967
1769241127908,124,-4,-3.990164065267223,-2.4176180233488367,-2.680983249533654
1769241127912,124,-4,-3.955673046001984,-2.744492655297998,-2.6432859704051297
1769241127916,124,-4,-3.8491663152239224,-2.4174987985715033,-2.5357482351004315
1769241127920,124,-4,-3.6409788891228976,-2.5015653218360328,-2.327744626310941
1769241127924,124,-4,-3.383629302709518,-2.478938080239051,-2.0699573315201576
1769241127928,125,-3,-3.2124404685074364,-1.5459163224537376,-1.8969555584645976
1769241127932,125,-3,-3.250861192846936,-1.6297355630851116,-1.9327084130931849
1769241127936,124,-4,-3.490414462909456,-2.47195450163624,-2.169343125423618
1769241127940,124,-4,-3.763755323384592,-2.442597722700847,-2.439749974740532
1769241127944,124,-4,-3.848388301976776,-2.5444673023473845,-2.5218117572771503
1769241127948,124,-4,-3.6184233047961976,-2.4468418036902966,-2.290163152778373
1769241127952,125,-3,-3.126712610207933,-1.7246318831377043,-1.7977166663404258
1769241127956,125,-3,-2.5616669685829883,-1.308196510089184,-1.2324051073754156
1769241127960,126,-2,-2.1145259541670782,-0.6334813020514063,-0.7849096620050608
1769241127964,126,-2,-1.8541335814249704,-0.3130401321674516,-0.5234973206267064
1769241127968,126,-2,-1.7003997698859283,-0.7149865471443548,-0.3673859768858785
1769241127972,126,-2,-1.507961916406606,-0.383954009640977,-0.1711247486817662
1769241127976,127,-1,-1.1770494152565325,0.3505985752841445,0.1636793618687995
1769241127980,127,-1,-0.6965684598169464,0.7550921438096152,0.6460760574635329
1769241127984,128,0,-0.1117555483348775,1.270959669816957,1.2302845602750323
1769241127988,128,0,0.5124938085301505,1.7433962737355737,1.8532403876668004
1769241127992,129,1,1.086734738502,2.143297174731301,2.427897999945604
1769241127996,129,1,1.48770892553683,2.8934641393826293,2.831455254425915
1769241128000,130,2,1.6027325793060667,3.20569844293595,2.9495019767630564
1769241128004,129,1,1.4113438042903748,2.8236038469053257,2.7599143209967436
1769241128008,129,1,1.0164963471460684,2.2321896743514,2.3658871887258144
1769241128012,128,0,0.5736541632136098,1.6035994009375778,1.9242218131020865
1769241128016,128,0,0.1773310093980882,1.56976666538502,1.5297950651125816
1769241128020,128,0,-0.1856605260200321,1.4278883595066216,1.1684064347770224
1769241128024,127,-1,-0.5817904634824109,0.7443908408442916,0.7727762168851462
1769241128028,127,-1,-1.046156919844235,0.1916116137844068,0.3083299169001261
1769241128032,126,-2,-1.5520309905218248,-0.2367441798178418,-0.197039642867292
1769241128036,126,-2,-2.045166414106294,-0.633452144807559,-0.6885316383596569
1769241128040,125,-3,-2.491133796819806,-1.307047190235136,-1.1321429087028707
1769241128044,125,-3,-2.8876008881902724,-1.5074240441436104,-1.5265170955891634
1769241128048,125,-3,-3.2383154076190483,-1.5813061309136294,-1.8762187544165907
1769241128052,124,-4,-3.525862072323619,-2.398398977798049,-2.163861728956125
1769241128056,124,-4,-3.720192905474659,-2.5074440188859297,-2.35860669208848
1769241128060,124,-4,-3.815100114556567,-2.339451627553085,-2.45323863823686
1769241128064,124,-4,-3.846303668858609,-2.5277616087138455,-2.4828598761082685
1769241128068,124,-4,-3.863477113549469,-2.49821785521498,-2.4973157778732773
1769241128072,124,-4,-3.88042063549302,-2.506647439930872,-2.511652534070952
1769241128076,124,-4,-3.853179992944455,-2.3527170920724885,-2.4837626049542183
1769241128080,124,-4,-3.715298144280219,-2.4742745765561542,-2.348005788644303
1769241128084,124,-4,-3.4495306947927595,-2.3885040800393025,-2.0854211722247316
1769241128088,125,-3,-3.1308222192374036,-1.612032009732692,-1.767151554127203
1769241128092,125,-3,-2.885815962229013,-1.397479241303296,-1.516729036757661
1769241128096,125,-3,-2.7922111978285975,-1.4174543742076713,-1.413067492154663
1769241128100,125,-3,-2.814451479468237,-1.4019673946393365,-1.4275901617928888
1769241128104,125,-3,-2.85418055947627,-1.439182827666328,-1.470722009611534
1769241128108,125,-3,-2.886999481213401,-1.5665554116974016,-1.5202504185992003
1769241128112,124,-4,-3.0394511845857948,-2.410025112127935,-1.6929645247606129
1769241128116,124,-4,-3.425948795586551,-2.3947656967191193,-2.086767664285331
1769241128120,125,-3,-3.706056857748088,-1.3846843490066654,-2.351297612133436
1769241128124,126,-2,-2.639456808472973,-0.4533773881889926,-1.2526236916032103
1769241128128,130,2,1.8282628929414184,3.4546230717789017,3.244275471834851
1769241128132,139,11,11.590314806577096,12.6215451444959,13.014301493129045
1769241128136,153,25,26.832709648097865,26.56392688858459,28.239138398812344
1769241128140,171,43,44.946112215435576,44.75755211714483,46.32022382176815
1769241128144,190,62,60.965205983435645,63.35780007610333,62.30870838627723
1769241128148,200,72,69.68533568986561,73.6908345214685,71.01296352776478
1769241128152,197,69,68.28970173040398,70.29487922986577,69.6227558381598
1769241128156,184,56,57.74912841977403,57.86935181047939,59.10770093293553
1769241128160,169,41,42.0755022115475,42.44187728427288,43.4685812438412
1769241128164,153,25,26.063725757365624,26.68670813478944,27.482327614031504
1769241128168,141,13,13.098285936830772,14.532485549137949,14.519524106143542
1769241128172,133,5,4.264050751535533,6.455832026829386,5.665393805742822
1769241128176,127,-1,-1.1104833766241278,0.806975954289344,0.2625323340504435
1769241128180,124,-4,-4.268222741748575,-2.615725109155904,-2.914583065947311
1769241128184,121,-7,-6.1354757452799715,-5.180500207131142,-4.782877539573505
1769241128188,120,-8,-7.143661058021383,-6.621321009924654,-5.776962863811982
1769241128192,120,-8,-7.516041361685995,-6.297640945770609,-6.132247878593242
1769241128196,121,-7,-7.515422497517895,-5.453476827290379,-6.123608009733641
1769241128200,121,-7,-7.405323994194862,-5.398490839851444,-6.017782024207694
1769241128204,120,-8,-7.289531685496839,-6.352164155149301,-5.911375990098309
1769241128208,120,-8,-7.10338421343871,-6.475591335054397,-5.729949454399565
1769241128212,121,-7,-6.7772538729339225,-5.324445238869938,-5.401127550778301
1769241128216,122,-6,-6.356947903049787,-4.485243673721755,-4.976173873135564
1769241128220,122,-6,-5.946831752011567,-4.319778165192517,-4.5653377542253555
1769241128224,122,-6,-5.5846951783599454,-4.4622791165507705,-4.206060058311966
1769241128228,122,-6,-5.21999772227214,-4.3261313293337,-3.843230932404458
1769241128232,123,-5,-4.798971831659539,-3.427334400402627,-3.4209347123007463
1769241128236,124,-4,-4.322682430922927,-2.3925210448098784,-2.942685653345358
1769241128240,124,-4,-3.813509047668155,-2.369100999204814,-2.433748793490958
1769241128244,124,-4,-3.268092968022583,-2.4590594235985916,-1.8902398353511536
1769241128248,125,-3,-2.676813588968498,-1.2612625960930486,-1.299990589082508
1769241128252,126,-2,-2.0723376038365044,-0.4972931230008508,-0.6947386932742874
1769241128256,126,-2,-1.523732845032966,-0.2833394505331119,-0.1450377008928516
1769241128260,127,-1,-1.074200677003425,0.5385958597266645,0.3042559723151665
1769241128264,127,-1,-0.698879894455958,0.6015107519252783,0.6781470613230955
1769241128268,127,-1,-0.3344190833950848,0.7348870035857376,1.0415659609949817
1769241128272,128,0,0.0538980107698101,1.493162673332345,1.4302979504171134
1769241128276,128,0,0.447054948485077,1.795573146774093,1.824618690558847
1769241128280,129,1,0.8213301112841702,2.434992723995892,2.1992163780934995
1769241128284,129,1,1.2123699615088557,2.727353253286024,2.5892736281271853
1769241128288,129,1,1.7081354436066851,2.6171466016480283,3.083955988314778
1769241128292,130,2,2.364740537455409,3.6143007760920742,3.740545224648153
1769241128296,131,3,3.136951271413916,4.7624198079095565,4.513354854861646
1769241128300,132,4,3.9052290399694902,5.389677716464686,5.2815460617654475
1769241128304,132,4,4.570867967006865,5.888216657995299,5.946134737233478
1769241128308,133,5,5.119263808104285,6.348120555895651,6.493535545032913
1769241128312,133,5,5.599139275823228,6.999340789716931,6.973376800086236
1769241128316,134,6,6.057779731725509,7.352201328263276,7.432720394221327
1769241128320,134,6,6.502874510294895,7.818704754310001,7.878326095731128
1769241128324,135,7,6.918253050210827,8.520268878365624,8.293474497154975
1769241128328,135,7,7.302023727209543,8.616526113314235,8.676652961799107
1769241128332,135,7,7.677535618046914,8.888716801644225,9.051928199595334
1769241128336,136,8,8.064525838511955,9.34477578051784,9.439008550576345
1769241128340,136,8,8.446533540956093,9.973196174112402,9.820626779711947
1769241128344,137,9,8.771469526488342,10.280511368252208,10.14441759250624
1769241128348,136,8,8.981193229720278,9.906107671896462,10.353224879654135
1769241128352,137,9,9.04427076421348,10.623794511644435,10.416732784875938
1769241128356,137,9,8.977613282732989,10.587209166645492,10.351654328007289
1769241128360,136,8,8.846462630887963,9.82310068752015,10.221851474247638
1769241128364,137,9,8.727267223177671,10.354059290800196,10.10257237043827
1769241128368,136,8,8.640327101251964,9.924693985803971,10.01417653903465
1769241128372,136,8,8.497265210746288,9.546347078925896,9.869502523075004
1769241128376,136,8,8.116013805643185,9.745885636827012,9.487667201965587
1769241128380,135,7,7.315079686030506,8.663666220466947,8.687230142545474
1769241128384,134,6,6.031713389206977,7.494555079330942,7.404584373522629
1769241128388,132,4,4.370962815716715,5.855540757928028,5.744222518327017
1769241128392,130,2,2.5358891724365886,3.534339911007637,3.9095156643890383
1769241128396,128,0,0.6924637632077411,1.8860867229743683,2.0667507904746985
1769241128400,127,-1,-1.1109624555228663,0.4658312772882769,0.2636980685084809
1769241128404,125,-3,-2.900531693220091,-1.2518324642575225,-1.526548550343592
1769241128408,123,-5,-4.66836523721467,-3.392525038786773,-3.29562320581054
1769241128412,121,-7,-6.319602094340176,-5.24392495569301,-4.947135123382398
1769241128416,120,-8,-7.722506268972422,-6.250960979474099,-6.348621197344592
1769241128420,119,-9,-8.796414961425258,-7.448077382009274,-7.420487933171934
1769241128424,118,-10,-9.55020951640924,-8.250590036154676,-8.173391319157634
1769241128428,118,-10,-10.05232675026828,-8.44217530790356,-8.676467126118283
1769241128432,117,-11,-10.378308586847828,-9.144213206986162,-9.004231093801934
1769241128436,117,-11,-10.58413651893935,-9.36520190371293,-9.210867860504996
1769241128440,117,-11,-10.708854206175827,-9.285258198402287,-9.334480456902682
1769241128444,117,-11,-10.775323199464165,-9.423795972611211,-9.39862024385912
1769241128448,117,-11,-10.773882656565128,-9.232886925440557,-9.395185698060276
1769241128452,117,-11,-10.655411776708725,-9.367014707414738,-9.276082623140107
1769241128456,117,-11,-10.366257641164466,-9.11320868150733,-8.987476800493418
1769241128460,118,-10,-9.91195330266144,-8.51785761444707,-8.533955375525403
1769241128464,118,-10,-9.391586610367758,-8.183871677866728,-8.013802689032236
1769241128468,119,-9,-8.955956411085902,-7.441388797705868,-7.577668747072852
1769241128472,119,-9,-8.707853479904685,-7.175640208644036,-7.328582684491006
1769241128476,119,-9,-8.623860684558704,-7.264746697252269,-7.243187662797475
1769241128480,119,-9,-8.570375826639333,-7.374244132534627,-7.1878614063144495
1769241128484,119,-9,-8.405419807601138,-7.2864096320586915,-7.021212682642805
1769241128488,120,-8,-8.078704704358223,-6.348713721109454,-6.693989454542402
1769241128492,120,-8,-7.6518354770792945,-6.229703738198121,-6.267901668115485
1769241128496,120,-8,-7.2416137287122195,-6.221844417643722,-5.858348790546572
1769241128500,121,-7,-6.942851408851607,-5.375021647151563,-5.558750585048256
1769241128504,121,-7,-6.775087443621809,-5.298649208255527,-5.38886036492877
1769241128508,121,-7,-6.6741133393402405,-5.306636895788427,-5.285742336969129
1769241128512,121,-7,-6.538265939747151,-5.263557580756969,-5.148471393499705
1769241128516,121,-7,-6.307547782720079,-5.171378885915819,-4.916900483840335
1769241128520,122,-6,-6.013252754721872,-4.412861790171127,-4.6220426574081825
1769241128524,122,-6,-5.7509186592403445,-4.239576113535289,-4.359288424747685
1769241128528,122,-6,-5.6020513577065145,-4.363216411974445,-4.209792607569473
1769241128532,122,-6,-5.577259171800908,-4.179099774093116,-4.183744343584354
1769241128536,122,-6,-5.622899248014731,-4.256329913821449,-4.227565873494223
1769241128540,122,-6,-5.6709350918442025,-4.314247395086969,-4.273736293633135
1769241128544,122,-6,-5.68480726449153,-4.30803552298271,-4.286040181288919
1769241128548,122,-6,-5.670819174863202,-4.298819240923487,-4.270688732975642
1769241128552,122,-6,-5.65554814901334,-4.207129913045364,-4.254094612375116
1769241128556,122,-6,-5.653704357519061,-4.238923891871716,-4.251046278151104
1769241128560,122,-6,-5.655944452049114,-4.30599720981938,-4.2523196408478565
1769241128564,122,-6,-5.646676639142971,-4.304490368886331,-4.242108886662592
1769241128568,122,-6,-5.630960651387706,-4.2854253900979815,-4.224963121779177
1769241128572,122,-6,-5.63695881685892,-4.2081585087862186,-4.228748375580461
1769241128576,122,-6,-5.683148047395542,-4.223227131224659,-4.272307120957708
1769241128580,122,-6,-5.739223269391273,-4.31915960858709,-4.32615442589787
1769241128584,122,-6,-5.726494404955597,-4.259482913033145,-4.312068216022324
1769241128588,122,-6,-5.574151327862509,-4.334351457550536,-4.158827838619189
1769241128592,122,-6,-5.29047210497585,-4.125238519871559,-3.87392150179078
1769241128596,123,-5,-4.977291346365599,-3.3159723062175517,-3.5589417752932953
1769241128600,123,-5,-4.757566852721078,-3.189676709372848,-3.337228713342592
1769241128604,123,-5,-4.673143678912039,-3.3978062295918856,-3.250862643267022
1769241128608,123,-5,-4.649051884580528,-3.159831929911161,-3.2245907445490984
1769241128612,123,-5,-4.56054943804298,-3.3091858560565153,-3.1334156075109156
1769241128616,123,-5,-4.341380731445572,-3.113237138018099,-2.911500209946571
1769241128620,124,-4,-4.036124196686773,-2.364629869982677,-2.604299315184272
1769241128624,124,-4,-3.756731733053043,-2.226799329183329,-2.324053393342252
1769241128628,124,-4,-3.5934529407031905,-2.289102774498492,-2.1600693090643683
1769241128632,124,-4,-3.5621767772130615,-2.2054079132899513,-2.1268846258396867
1769241128636,124,-4,-3.618072469622893,-2.18465236836017,-2.179412260785028
1769241128640,124,-4,-3.698829937555216,-2.2871098508537577,-2.2565416808394145
1769241128644,124,-4,-3.751373321683997,-2.284937109372662,-2.3066010327474733
1769241128648,124,-4,-3.7337896669535025,-2.197216914323284,-2.2878030906648927
1769241128652,124,-4,-3.613333603397064,-2.329204633350887,-2.1661300647735873
1769241128656,124,-4,-3.373116691082598,-2.00729345161535,-1.9234492276091608
1769241128660,125,-3,-3.0153807147894436,-1.490772782033976,-1.5622269289004933
1769241128664,125,-3,-2.5484742202792514,-1.0269336467613543,-1.0922347080578545
1769241128668,126,-2,-1.973420158466871,-0.4490591343880323,-0.515375662555563
1769241128672,126,-2,-1.2991483426176336,-0.0964023085616889,0.1601607418371702
1769241128676,127,-1,-0.5806450800782819,0.816760653892127,0.880805720631594
1769241128680,128,0,0.0689417425953524,1.6267613914340848,1.533729504642558
1769241128684,128,0,0.526923892425498,1.9707499515303968,1.9950663582239132
1769241128688,129,1,0.736539996191274,2.472641678584151,2.2068719995230826
1769241128692,128,0,0.7322762942830758,2.0692658479556245,2.2039804712582605
1769241128696,128,0,0.5822910084707638,1.585856658433309,2.0559913238849
1769241128700,128,0,0.3092954444155174,1.9111265754669329,1.7862677790153545
1769241128704,128,0,-0.116473830090761,1.717541570783994,1.3641799921039333
1769241128708,127,-1,-0.701884604791402,0.7005208214669256,0.7817647497342359
1769241128712,126,-2,-1.3652227902567473,-0.0795360213071809,0.1206425313616388
1769241128716,126,-2,-1.9630321173967251,-0.3670902526998296,-0.4751119802464076
1769241128720,125,-3,-2.388510122159359,-1.0183272334081348,-0.8981882825806773
1769241128724,125,-3,-2.6478405910668332,-1.41234192900228,-1.1546964600614595
1769241128728,125,-3,-2.8431921298965195,-1.0761027666926188,-1.3470991900732383
1769241128732,125,-3,-3.0752884662284896,-1.346102518301985,-1.5764351484267114
1769241128736,124,-4,-3.353976631001398,-2.0946643293967737,-1.8525213163056833
1769241128740,124,-4,-3.600405694677849,-2.263721886475258,-2.0963521927431743
1769241128744,124,-4,-3.732804685960717,-2.172536958212865,-2.2262808689556444
1769241128748,124,-4,-3.7463186187124338,-2.246057340384287,-2.2374704658860063
1769241128752,124,-4,-3.713662119778494,-2.220892075641053,-2.201993010797045
1769241128756,124,-4,-3.714482613596219,-2.1764484723124964,-2.198890374716429
1769241128760,124,-4,-3.758870877974561,-2.2189408451950965,-2.2390375286745514
1769241128764,124,-4,-3.769723583359278,-2.150456762821177,-2.2473109337718435
1769241128768,124,-4,-3.645004821641456,-2.2786010588890093,-2.1226408533835484
1769241128772,124,-4,-3.357456269892945,-2.1525086771939974,-1.8358061523828533
1769241128776,125,-3,-3.0050727095265617,-1.2788404666174031,-1.480727882935093
1769241128780,125,-3,-2.753351578399372,-1.0728203568260477,-1.2203207552130495
1769241128784,125,-3,-2.7077025718647896,-1.3105021212606278,-1.1627790744902264
1769241128788,125,-3,-2.831418769608314,-1.0515159709384003,-1.2796838195165874
1769241128792,125,-3,-2.995731940896512,-1.4205998219728952,-1.449904898873794
1769241128796,124,-4,-3.1251832982506342,-1.990671080655132,-1.596168478438543
1769241128800,124,-4,-3.269612678798257,-2.3476524560608647,-1.7548338231258476
1769241128804,124,-4,-3.411639363068365,-2.0346587794485975,-1.892853955325577
1769241128808,126,-2,-3.015382033286486,-0.2527784060067972,-1.4705676112654906
1769241128812,128,0,-0.6837189987067624,1.7271599409282778,0.8958468441303262
1769241128816,133,5,5.519484879856423,6.91760012201431,7.1215607241106085
1769241128820,144,16,16.875338829905793,17.717269858052227,18.47494800988876
1769241128824,158,30,32.53347962798632,31.96900338960205,34.109483716626315
1769241128828,176,48,48.92571009140701,49.75768099952716,50.4720777789236
1769241128832,191,63,60.9167576509619,64.74181676952279,62.44249674101258
1769241128836,194,66,64.30840616578662,67.8518800724035,65.83134757062575
1769241128840,186,58,58.11319999850029,59.72146853168791,59.653584058270035
1769241128844,171,43,44.99802507051987,44.953617494550144,46.571067565169834
1769241128848,156,28,29.628875078594753,29.735397581435542,31.235783808566737
1769241128852,144,16,16.176130477516775,17.907797865989565,17.800630184923836
1769241128856,135,7,6.649435548905277,8.721194687618357,8.266664182368565
1769241128860,129,1,0.8469640423243874,2.93428049159633,2.439747996864258
1769241128864,126,-2,-2.5324649122891074,-0.294119295246809,-0.963292801949258
1769241128868,123,-5,-4.6703317308188295,-3.071461701454451,-3.1089479213795137
1769241128872,121,-7,-6.0892393699187854,-5.231971616833725,-4.5168693489280365
1769241128876,120,-8,-6.858006790637732,-6.138194940114512,-5.264810916178428
1769241128880,121,-7,-7.0417152695419825,-5.130704367059747,-5.431609942263627
1769241128884,122,-6,-6.883741396610423,-4.2981805788517295,-5.269643177156119
1769241128888,121,-7,-6.645369715651801,-5.04603741355947,-5.038242444605155
1769241128892,121,-7,-6.414013973587656,-5.284334571471045,-4.814590997687646
1769241128896,121,-7,-6.135918890778366,-5.0020727540123415,-4.536357280613586
1769241128900,122,-6,-5.789940902530784,-4.290335299357741,-4.1829773235465915
1769241128904,123,-5,-5.45349859757572,-3.1008930328033153,-3.839075178811121
1769241128908,123,-5,-5.191025105323475,-3.2899177444343275,-3.5740337163206486
1769241128912,122,-6,-4.939848625758078,-4.001116848354989,-3.323301636935682
1769241128916,123,-5,-4.556216584706212,-3.2740905324631457,-2.93864607417437
1769241128920,124,-4,-3.9628367016628454,-1.988615273069368,-2.341903258033146
1769241128924,125,-3,-3.2222015646542976,-1.4109547722222304,-1.5983514610823968
1769241128928,125,-3,-2.4763440997508734,-0.9662541625541968,-0.8517317740903341
1769241128932,126,-2,-1.8470308501149957,-0.327085060154979,-0.2222180634720487
1769241128936,126,-2,-1.389093258650457,0.0761387640862421,0.237627183456746
1769241128940,127,-1,-1.0934746621223137,0.6703036579617212,0.5368109488768105
1769241128944,127,-1,-0.8988298952120735,0.944036470261095,0.7348186319990737
1769241128948,127,-1,-0.7092094653265484,0.6750626539062887,0.9264656511653347
1769241128952,127,-1,-0.4363367859864651,1.0501247447072743,1.2005668960846836
1769241128956,128,0,-0.0483360046967265,1.7003950307527729,1.5899387439441628
1769241128960,128,0,0.4218399339074785,2.0769099078395628,2.061759230913518
1769241128964,129,1,0.9206722376098676,2.536754048222471,2.562063544746311
1769241128968,129,1,1.428468644986431,3.094441090723765,3.071041202687354
1769241128972,130,2,1.97320191695433,3.633735502666923,3.61727683447386
1769241128976,130,2,2.5944207200693863,4.113430865590992,4.2410496515325935
1769241128980,131,3,3.2953937477022075,4.720541925113898,4.945231612518999
1769241128984,132,4,4.034149460820341,5.841689193744301,5.686077407346739
1769241128988,133,5,4.761408694216445,6.880835955169351,6.413126935529023
1769241128992,133,5,5.451811871949541,6.750227068940646,7.102521623405288
1769241128996,133,5,6.082010454843249,7.107163231543986,7.733761645969706
1769241129000,135,7,6.597423962257015,8.654083214829972,8.252742579782703
1769241129004,135,7,6.9470201640000395,8.985381783530823,8.605731647640848
1769241129008,135,7,7.1663861056094165,8.71079222166896,8.826021082537277
1769241129012,135,7,7.389502195455093,8.931455477692676,9.048629738925932
1769241129016,135,7,7.73762139116995,8.951692813683753,9.397430158704315
1769241129020,136,8,8.196105252970506,9.76835731505636,9.8582596398455
1769241129024,137,9,8.625348432208545,10.970007908328268,10.289405801105335
1769241129028,137,9,8.900324658262992,10.653813379995093,10.564392236597772
1769241129032,136,8,9.02175386656686,10.0721831869952,10.685222482364145
1769241129036,137,9,9.08320338690609,10.735542573956604,10.74755153438377
1769241129040,137,9,9.152437834607564,11.039081921537418,10.819271465313982
1769241129044,137,9,9.20554827863658,10.701053422071045,10.874813828622845
1769241129048,137,9,9.164176544309402,10.95730337306622,10.834486110285628
1769241129052,137,9,8.970227554358974,10.768772505992306,10.640287365743758
1769241129056,136,8,8.61330577805096,10.011126379111436,10.282855146217
1769241129060,136,8,8.090305660682143,9.788256899115089,9.760072695932015
1769241129064,135,7,7.349257298327347,8.967135722684873,9.0201575827221
1769241129068,134,6,6.2887954645211135,7.723199840691356,7.960947997625511
1769241129072,133,5,4.8322840716371,6.997973282863158,6.5048142197445635
1769241129076,131,3,3.014657873627478,4.772871708719263,4.686816857050625
1769241129080,128,0,0.9927856324513588,2.014191914453404,2.6651753129909057
1769241129084,127,-1,-1.0381297116525523,0.7999552476291951,0.6358929226727015
1769241129088,125,-3,-2.9397612994048767,-1.1205279625569906,-1.263810279075062
1769241129092,123,-5,-4.652018358443918,-3.1214263169688694,-2.9756383600110494
1769241129096,122,-6,-6.150511748035205,-4.142218839229334,-4.475403613950442
