timestamp_ms,ecg_u8_raw,ecg_counts_raw_int,ecg_counts_filt_monitor,ecg_counts_filt_diagnostic,ecg_counts_filt_st
1768733912000,125,-3,-2.3696499979272296,-1.259833278183606,-1.2408394332563486
1768733912004,125,-3,-2.3691882164800515,-1.235540681251954,-1.2413218213176442
1768733912008,125,-3,-2.368821736784529,-1.214883035693478,-1.241733196703965
1768733912012,125,-3,-2.3715219352625536,-1.2169636190321484,-1.2452832372057336
1768733912016,125,-3,-2.3757803742359616,-1.2401894503014457,-1.2505973800003036
1768733912020,125,-3,-2.3762922314359995,-1.274277873596227,-1.2523227924292786
1768733912024,125,-3,-2.370844010048447,-1.240024602964487,-1.2480997728949652
1768733912028,125,-3,-2.364954126416451,-1.2238221352008862,-1.2432774836014957
1768733912032,125,-3,-2.3675499185713753,-1.22446047331458,-1.2466163680458708
1768733912036,125,-3,-2.381074815778438,-1.2405865083267638,-1.2605173524770124
1768733912040,125,-3,-2.3959493649109582,-1.3013514192479632,-1.2756884791737944
1768733912044,125,-3,-2.395792659134084,-1.2299057508417692,-1.2763044619631152
1768733912048,125,-3,-2.3713863317940422,-1.243361161088926,-1.2534246599286354
1768733912052,125,-3,-2.33508245812746,-1.233607241304992,-1.2188717201062031
1768733912056,125,-3,-2.32394835773603,-1.2159788007032242,-1.20870814581442
1768733912060,125,-3,-2.380546124058424,-1.3865359090161369,-1.265141025099263
1768733912064,125,-3,-2.5136684634138895,-1.1227988730054634,-1.3978351788070584
1768733912068,125,-3,-2.6683321313637434,-1.4017522590985758,-1.5530044522973308
1768733912072,124,-4,-2.7447079129561778,-2.0615642153704163,-1.630993170319631
1768733912076,125,-3,-2.6661398183573493,-1.414619785919829,-1.554140357987393
1768733912080,125,-3,-2.4372289377411622,-1.2091979492637277,-1.3259162788682846
1768733912084,125,-3,-2.1303136636639888,-1.3065183731874286,-1.0184742500574258
1768733912088,126,-2,-1.8068994887796497,-0.2539212700031803,-0.694281885765107
1768733912092,126,-2,-1.449558683636793,-0.1814851205835466,-0.3371522888205869
1768733912096,126,-2,-0.979790791553194,-0.3755866213919592,0.131056187583991
1768733912100,127,-1,-0.3574306933766449,0.8071777502306511,0.7512709337454595
1768733912104,128,0,0.3356179351419472,1.5810752466894569,1.4427569628511665
1768733912108,128,0,0.9257183281850544,1.9146170435581027,2.032642566160984
1768733912112,129,1,1.2838115285597156,2.5981924755278403,2.39172241963999
1768733912116,129,1,1.4515987830250934,2.835869841036461,2.5607302996715813
1768733912120,129,1,1.6338732481247136,2.580295670377827,2.743518309897602
1768733912124,129,1,2.0368167486562108,2.759240632090066,3.146031644271586
1768733912128,130,2,2.673178402814266,3.777608964811842,3.7811923408482846
1768733912132,131,3,3.307313901149169,4.67126876310922,4.413485535858897
1768733912136,131,3,3.603356321196959,4.806094989491596,4.707379259715815
1768733912140,131,3,3.3610944867581387,4.525522495222829,4.463532847270285
1768733912144,130,2,2.6509793142578197,3.829874651078023,3.753458309401557
1768733912148,129,1,1.7521997595821168,2.672517250793609,2.856791470601435
1768733912152,128,0,0.9592185173450172,1.767689324844374,2.067077098756083
1768733912156,128,0,0.4152001783716894,1.7309062300360938,1.5251877017410216
1768733912160,128,0,0.0846442278570932,1.5265258946705886,1.1934497814044518
1768733912164,127,-1,-0.1602638745804366,0.8752976890303723,0.9442072050056768
1768733912168,127,-1,-0.4538837046526501,0.5340074504487975,0.6460310569482823
1768733912172,126,-2,-0.9156551245543584,-0.0260559519197804,0.1827668680723144
1768733912176,126,-2,-1.6446901056077698,-0.5675986866319627,-0.5440348464830596
1768733912180,125,-3,-2.660871057241026,-1.1233339785434318,-1.5565798735081544
1768733912184,124,-4,-3.821280476528977,-2.5527420644929233,-2.7147957432639167
1768733912188,122,-6,-4.825333626957889,-4.013835387764401,-3.7191124184276942
1768733912192,122,-6,-5.363787852653418,-4.512283065329978,-4.25945680986477
1768733912196,122,-6,-5.31471695474253,-4.09455181893876,-4.21245286401394
1768733912200,123,-5,-4.822201520552205,-3.5872056358455784,-3.7207138011396728
1768733912204,123,-5,-4.19233439405779,-3.13902844053843,-3.0893324066546675
1768733912208,124,-4,-3.695603135100048,-2.398438003001445,-2.589594396689745
1768733912212,124,-4,-3.4273411287663844,-2.2103056311236684,-2.3199964746871595
1768733912216,124,-4,-3.3157551463458628,-2.355513370274139,-2.212013058412333
1768733912220,124,-4,-3.23912073709333,-2.395463431305867,-2.143613488502165
1768733912224,124,-4,-3.107756334199623,-2.288744872277346,-2.0199982167527586
1768733912228,125,-3,-2.7781423750402547,-1.31200817817893,-1.6907510839677788
1768733912232,126,-2,-1.8321534288368644,-0.2733374625927125,-0.7344043375591047
1768733912236,128,0,0.5417345896079286,1.6581874678939308,1.6566055200123897
1768733912240,133,5,5.29701085076123,6.604006716001436,6.4256602329771235
1768733912244,140,12,12.876252609231404,13.69616097822317,14.005508154427911
1768733912248,149,21,22.489473126105764,22.682642229966,23.604003260707387
1768733912252,159,31,31.868651931803683,32.74653729778844,32.960775940102316
1768733912256,166,38,37.882127459329666,39.575943098248025,38.95658495310407
1768733912260,166,38,37.86679014319267,39.684363666899245,38.93744904576708
1768733912264,159,31,30.974051259187632,32.53552336981731,32.05540891430561
1768733912268,146,18,18.68957980596141,19.81935805464077,19.78903779885951
1768733912272,131,3,4.158913925019931,4.57791441793043,5.274490073182814
1768733912276,117,-11,-9.274678581569155,-9.243493869102643,-8.151276558021326
1768733912280,108,-20,-19.403346488730833,-18.446196352760023,-18.28199469302404
1768733912284,103,-25,-25.592900960993493,-23.34593898038062,-24.481250906713647
1768733912288,100,-28,-28.274239001752523,-26.260741352987583,-27.1747724231226
1768733912292,99,-29,-28.126926205665104,-27.43221458241442,-27.035639009807426
1768733912296,101,-27,-25.666766137297913,-25.20883569299891,-24.575758936253447
1768733912300,106,-22,-21.40099277732776,-20.549737320820704,-20.30427869641206
1768733912304,111,-17,-16.140616564186562,-15.206275414618332,-15.038237441080636
1768733912308,117,-11,-10.99326758475197,-9.424290330435774,-9.890007935102744
1768733912312,121,-7,-6.9600996243155535,-5.303575126563965,-5.86044525638108
1768733912316,123,-5,-4.47616832908259,-3.3764750304053153,-3.3802263714278515
1768733912320,124,-4,-3.2921060311915147,-2.433698436902904,-2.1957390096876024
1768733912324,124,-4,-2.786555293252814,-2.292457847955243,-1.6853612814286918
1768733912328,125,-3,-2.4310327120509454,-1.3694458251316308,-1.3246923780487756
1768733912332,126,-2,-2.0390309253958883,-0.320405618221579,-0.9319708590807728
1768733912336,126,-2,-1.6768005700627706,-0.4395059191054964,-0.5742437883126937
1768733912340,126,-2,-1.4251003759879055,-0.3561090718863335,-0.328246674098724
1768733912344,126,-2,-1.252931438331061,-0.40567292254483,-0.1581982787315144
1768733912348,126,-2,-1.07474277302261,-0.2543654223716692,0.0222491983139793
1768733912352,127,-1,-0.8592116618653598,0.5681373954082389,0.2409200000354268
1768733912356,127,-1,-0.6479182340588558,0.6254174491707166,0.4526845992037102
1768733912360,127,-1,-0.4838587694919243,0.5753741787805002,0.6147495912551685
1768733912364,127,-1,-0.3504679819925096,0.6306714392313504,0.7467420510901158
1768733912368,127,-1,-0.1827265340114899,0.7131636737977232,0.91550425793385
1768733912372,128,0,0.0805651250224561,1.5798987742149684,1.180706137563131
1768733912376,128,0,0.456448470412589,1.610994848818167,1.5566213039278012
1768733912380,128,0,0.9003860927658047,1.5471140417025198,1.997927304351329
1768733912384,129,1,1.3069512761696278,2.653802160183512,2.401015767022958
1768733912388,129,1,1.5470087004791775,2.687139755915389,2.639326267617315
1768733912392,129,1,1.5509964065776027,2.552346736019108,2.644547557106326
1768733912396,129,1,1.3946351512842887,2.708612991043301,2.491324688274596
1768733912400,129,1,1.3133609420117498,2.3038867525393467,2.4123989361304834
1768733912404,129,1,1.6033968712339473,3.006619971970709,2.7020309372723306
1768733912408,130,2,2.441479678124134,3.217531032380694,3.537547898907273
1768733912412,130,2,3.7363307464669218,4.086106365707361,4.829729966220651
1768733912416,134,6,5.147683825785866,7.142676503053369,6.239339941174444
1768733912420,134,6,6.2987035804901454,7.8126706279976545,7.389266236832523
1768733912424,134,6,7.022514838415068,7.544626361425381,8.112682895183843
1768733912428,135,7,7.432131353077809,8.56802931073432,8.523090269945692
1768733912432,135,7,7.772247062074727,8.837036745324076,8.864702214626869
1768733912436,136,8,8.208012895294758,9.246481411888311,9.301232165444596
1768733912440,136,8,8.725006392123758,9.837125487002153,9.817371268608424
1768733912444,137,9,9.187594643480557,10.376720343390309,10.27781446347897
1768733912448,137,9,9.476296823333774,10.811635521217983,10.564015865143444
1768733912452,137,9,9.58154980343308,10.527850541140786,10.667387373122834
1768733912456,137,9,9.583539084251951,10.53265843008526,10.668888382040375
1768733912460,137,9,9.554988836850027,10.595760820913677,10.641293575898487
1768733912464,137,9,9.49386046315238,10.512428671433904,10.581390984771014
1768733912468,137,9,9.354185558312798,10.764523459362438,10.441461148145237
1768733912472,137,9,9.130745953724633,10.46143504249507,10.215758030705096
1768733912476,136,8,8.88716659645654,9.657373919963174,9.969521372073284
1768733912480,136,8,8.680518362967224,9.407926953112046,9.761888138931996
1768733912484,136,8,8.466812423809749,9.70292277415464,9.548797798625293
1768733912488,136,8,8.108815733220053,9.567298743150436,9.190853334356834
1768733912492,135,7,7.490511887109223,8.6247124015254,8.570619666990929
1768733912496,134,6,6.614765733951868,7.506918893882371,7.692115144011212
1768733912500,133,5,5.584902705257321,6.500398329761113,6.660870548624973
1768733912504,132,4,4.508106677918768,5.618757226002983,5.584651289612474
1768733912508,131,3,3.4340428265549,4.632252658713474,4.511535684034852
1768733912512,130,2,2.3798569590693934,3.552345290194795,3.456768490090396
1768733912516,129,1,1.386037480602372,2.578211311878035,2.4605570475698864
1768733912520,128,0,0.5205408811776735,1.3735294574498167,1.592286394550824
1768733912524,127,-1,-0.1801799850064891,0.7534663663897083,0.8899513733010265
1768733912528,127,-1,-0.7622558741951839,0.4714025960273437,0.307536815002102
1768733912532,126,-2,-1.3271158011554762,-0.2779360244493098,-0.2576297032426755
1768733912536,126,-2,-1.940131620091766,-0.6120056805807432,-0.872000492527317
1768733912540,125,-3,-2.5651792059535525,-1.4681408255374575,-1.499089026974656
1768733912544,124,-4,-3.095528883087076,-2.4311470832298827,-2.030855990975402
1768733912548,124,-4,-3.451845937215422,-2.342812764004411,-2.387517794774734
1768733912552,124,-4,-3.645314967783862,-2.4725757452088657,-2.581445538724173
1768733912556,124,-4,-3.745042312160467,-2.4226442735145226,-2.6830107102902208
1768733912560,124,-4,-3.799540738592908,-2.6896616055812155,-2.7401935616684363
1768733912564,123,-5,-3.8065212428441417,-3.240279479697689,-2.748998528485094
1768733912568,124,-4,-3.751717943118144,-2.5403903213306656,-2.6946804127319677
1768733912572,124,-4,-3.651568801446892,-2.2765222373658887,-2.59507080797616
1768733912576,124,-4,-3.548555102708611,-2.6269832329402933,-2.493868371749864
1768733912580,124,-4,-3.4811996403583354,-2.5124638110779003,-2.429048010457018
1768733912584,124,-4,-3.468833275910977,-2.4457857646649717,-2.4186842025430457
1768733912588,124,-4,-3.509183405505896,-2.3621730872301097,-2.4602828790119036
1768733912592,124,-4,-3.5703969063051972,-2.4283597553547738,-2.522661776964109
1768733912596,124,-4,-3.588659034997123,-2.5077821387991843,-2.5422158556851127
1768733912600,124,-4,-3.4949805227841013,-2.6314722993925876,-2.449544549578899
1768733912604,124,-4,-3.259217501721861,-2.3876788005001135,-2.214723832506278
1768733912608,125,-3,-2.9080665372671426,-1.41088840003744,-1.865593511528441
1768733912612,125,-3,-2.5018583421388545,-1.389123738404563,-1.4628491443228833
1768733912616,125,-3,-2.1061884505839563,-1.5385927692178036,-1.07052999327284
1768733912620,126,-2,-1.7860291549369087,-0.6467457062680073,-0.7518132843486852
1768733912624,126,-2,-1.595450554732562,-0.3910253109816833,-0.5611411073994476
1768733912628,126,-2,-1.5362003576035097,-0.4491363277935669,-0.5024315996386483
1768733912632,126,-2,-1.5253440767269937,-0.2982873372876331,-0.4939804561491037
1768733912636,126,-2,-1.4365233755689668,-0.6801568089582253,-0.4082585458261291
1768733912640,126,-2,-1.203247008507364,-0.5046579873401492,-0.1769073381072711
1768733912644,127,-1,-0.8839175896305217,0.4116401123008361,0.141654099728775
1768733912648,127,-1,-0.6099797274727876,0.7419130578290595,0.4141177567985888
1768733912652,127,-1,-0.4653192851841555,0.5430745192706221,0.5555216092137583
1768733912656,127,-1,-0.4278856292238548,0.4347542155828824,0.5892544115985983
1768733912660,127,-1,-0.4327257637884958,0.3809560067347424,0.5823965739584873
1768733912664,127,-1,-0.4715441298494933,0.4386576297434529,0.5433782142155081
1768733912668,127,-1,-0.6034401901493975,0.7669981268656105,0.4109310447298557
1768733912672,127,-1,-0.8636207202981867,0.4900341557701185,0.1480718219421197
1768733912676,126,-2,-1.1860650551055398,-0.4879621581200295,-0.1782766229136441
1768733912680,126,-2,-1.4425212541126642,-0.7664453830466262,-0.4374984522801726
1768733912684,126,-2,-1.5568425637536003,-0.4470066113838931,-0.5527519632331436
1768733912688,126,-2,-1.5617617838809257,-0.3364723133832142,-0.5585243587460484
1768733912692,126,-2,-1.5405333699011,-0.3959977643970865,-0.539790447024955
1768733912696,126,-2,-1.5340326798033577,-0.5923050585115813,-0.5369020908012587
1768733912700,126,-2,-1.520664486168597,-0.7389931799879077,-0.5263868030136446
1768733912704,126,-2,-1.4761955879160098,-0.5050879719331305,-0.4833059316150693
1768733912708,126,-2,-1.4297743655993018,-0.2729515385172972,-0.4381095137888144
1768733912712,126,-2,-1.4512828100947976,-0.4390639709494099,-0.4622586269916252
1768733912716,126,-2,-1.5913441415899796,-0.5410562231442106,-0.6062041282924893
1768733912720,126,-2,-1.8411449375246272,-0.8699408366436783,-0.859312268428343
1768733912724,125,-3,-2.1438268348534897,-1.4082254070652345,-1.163412449263371
1768733912728,125,-3,-2.427771523240051,-1.3622888988982236,-1.4478092821565225
1768733912732,125,-3,-2.620676447170951,-1.3285468361055763,-1.6423661710522457
1768733912736,125,-3,-2.6515905073451664,-1.6341541492097076,-1.6767672203998374
1768733912740,125,-3,-2.480981817599938,-1.8702033607978776,-1.5097523800291626
1768733912744,125,-3,-2.152479102033831,-1.4195818640407003,-1.183432967436599
1768733912748,126,-2,-1.7952866032095975,-0.3810903861504027,-0.8280268126666419
1768733912752,126,-2,-1.5415491329121376,-0.2412516257098612,-0.5775812663852733
1768733912756,126,-2,-1.4350727986583938,-0.7494101868932274,-0.4754240686254434
1768733912760,126,-2,-1.4323358557867685,-0.8100768302866623,-0.4754804643157881
1768733912764,126,-2,-1.4789586563312282,-0.5343511034022083,-0.5225212603496764
1768733912768,126,-2,-1.5477230730350728,-0.2687319395314221,-0.5918215925091912
1768733912772,126,-2,-1.5919960626257117,-0.2890924782920403,-0.6393302507042234
1768733912776,126,-2,-1.5047008350017372,-0.7234650798127964,-0.5569337862625854
1768733912780,126,-2,-1.1758881182023393,-0.8899500523205597,-0.2313354537392523
1768733912784,127,-1,-0.5974650983708478,0.4685954467526376,0.3464650154259967
1768733912788,128,0,0.121936811072264,1.760332654644202,1.0648831227694835
1768733912792,128,0,0.8596107056914528,1.7143258714042282,1.7984890695508842
1768733912796,129,1,1.5690142225171932,2.292825427354827,2.5021094457853876
1768733912800,130,2,2.248608182244199,2.991134796359341,3.177956353004614
1768733912804,130,2,2.8512437677024236,3.5337867889697616,3.780128444182725
1768733912808,131,3,3.2778534741251155,4.70873083479416,4.206702586116432
1768733912812,131,3,3.4808436335887514,4.831882524520146,4.406887275017439
1768733912816,131,3,3.5402244108361547,4.164645622023327,4.461399793051041
1768733912820,131,3,3.5878350629530344,4.04007194296601,4.5056403582678355
1768733912824,131,3,3.645202472907804,4.400586181087371,4.562260165577209
1768733912828,131,3,3.570887932704217,4.884784260539858,4.486242656222834
1768733912832,131,3,3.1984859035658504,4.704489364991526,4.107614482723111
1768733912836,130,2,2.5145174122903464,3.319250214905372,3.415419444949639
1768733912840,129,1,1.6735609433124428,1.7489832510620755,2.5714859852286387
1768733912844,128,0,0.8523913658030476,1.6477294767959711,1.7557362854502256
1768733912848,128,0,0.1391105605594707,1.6465310694491548,1.0494703747401473
1768733912852,127,-1,-0.4270620457774389,1.02163235755107,0.4806983817433638
1768733912856,127,-1,-0.7900943107484547,0.0448579359544247,0.1019399501089258
1768733912860,126,-2,-0.9546867513575767,-1.1473492873784314,-0.0817344411478223
1768733912864,126,-2,-1.1318563902224883,-0.4876919372800941,-0.2657580125208356
1768733912868,126,-2,-1.6823749638189085,-0.2100559889560753,-0.8035265088875843
1768733912872,125,-3,-2.770935696315657,-1.0659190558888605,-1.8690397099896852
1768733912876,124,-4,-4.048369628150077,-2.748356838474036,-3.134694988713055
1768733912880,123,-5,-4.802890142448874,-4.637535707875979,-3.906409021907389
1768733912884,122,-6,-4.621252093662762,-3.953599508342211,-3.7668325599724666
1768733912888,122,-6,-4.007088661224585,-4.733534663534898,-3.190335737092454
1768733912892,122,-6,-4.205374769184336,-3.619217709644701,-3.3892522377138876
1768733912896,123,-5,-6.000280122585755,-3.693835500309172,-5.144502221127922
1768733912900,123,-5,-8.258779412497885,-5.618549962094298,-7.357197895209154
1768733912904,123,-5,-7.717943023511216,-1.0785734553959485,-6.802490498988201
1768733912908,123,-5,-1.004483740039684,-6.625092380984522,-0.110643618523305
1768733912912,123,-5,12.099432120869889,1.3094391876476008,12.960714936721448
1768733912916,168,40,27.02265116614188,36.76611988696566,27.855295153459007
1768733912920,169,41,36.56740190532458,45.19472443731143,37.37221783998824
1768733912924,162,34,35.56929687499473,32.93936535234243,36.35316908262448
1768733912928,149,21,24.17621111603459,24.09300422460032,24.96707754811856
1768733912932,132,4,7.222989547835326,5.925314599727206,8.053925833361909
1768733912936,118,-10,-9.23368805623617,-9.548987877323793,-8.357460364528752
1768733912940,107,-21,-21.210922532517056,-19.403833089704612,-20.32018739781999
1768733912944,101,-27,-27.851729154240573,-26.390012796600185,-26.987199924418928
1768733912948,98,-30,-30.31273430094502,-27.6991880362975,-29.493330964718293
1768733912952,97,-31,-29.99975818067625,-29.093204503864065,-29.21294398930184
1768733912956,99,-29,-27.62511141903186,-28.24579251861685,-26.841895860286375
1768733912960,103,-25,-23.46308348440541,-23.65716422567118,-22.66159373666924
1768733912964,110,-18,-18.076359993263672,-17.2404375514759,-17.25587331716821
1768733912968,115,-13,-12.569811790654388,-10.650266514194872,-11.746780347094408
1768733912972,120,-8,-8.118377530687658,-6.492721619482604,-7.309790467527916
1768733912976,122,-6,-5.306231766844462,-4.783546626131855,-4.515103634518893
1768733912980,123,-5,-3.929343336582213,-4.07432825690041,-3.1444799638182706
1768733912984,124,-4,-3.3671660828123615,-2.852794218181499,-2.575905572240768
1768733912988,124,-4,-3.0893789259896893,-1.9129936917263777,-2.2899820813063148
1768733912992,125,-3,-2.862541597238532,-1.505336237807092,-2.0643149173449427
1768733912996,125,-3,-2.633072786026423,-1.6401075475166538,-1.8455922245890168
1768733913000,125,-3,-2.3644328496643814,-2.305594289463776,-1.5881807969694617
1768733913004,125,-3,-2.018444130038958,-1.488341318748449,-1.2462864535348208
1768733913008,126,-2,-1.610406956015729,-0.3390186367493061,-0.8366029951514764
1768733913012,126,-2,-1.1945601825244516,-0.1881465219713005,-0.4203134070965657
1768733913016,127,-1,-0.7906076534180522,0.0620594208682671,-0.0207823035885558
1768733913020,127,-1,-0.3738275721939188,-0.040657817687028,0.3896373301704782
1768733913024,127,-1,0.0454911186819619,0.3589235072644436,0.8051611180152078
1768733913028,128,0,0.3767134453592109,1.7119199264269211,1.1353998229255926
1768733913032,128,0,0.530976038737234,1.7471174609058626,1.288061650844027
1768733913036,128,0,0.5432512516948331,1.032891560957763,1.296114148673832
1768733913040,128,0,0.5688384589142614,1.0783746147086275,1.3165992826598054
1768733913044,128,0,0.7354434339343583,1.224364107367544,1.4798111653035626
1768733913048,128,0,1.0162685470750883,1.842361456262554,1.7589038118065
1768733913052,129,1,1.2725171476261803,2.547629570671586,2.012857463643975
1768733913056,129,1,1.417744939652159,2.1864801444235717,2.1540316799582744
1768733913060,129,1,1.5191523295992506,1.97860343462794,2.250923876773846
1768733913064,129,1,1.72783635097425,2.318429920910785,2.456456277673516
1768733913068,129,1,2.1218327980633434,2.735757752059381,2.848514560985409
1768733913072,130,2,2.6313543350312387,3.5875740679892716,3.355464773064061
1768733913076,131,3,3.113213534379636,4.1219132787733,3.8331328771012414
1768733913080,131,3,3.482482083080302,4.080041856006343,4.197847268436966
1768733913084,131,3,3.768078908667568,4.209889746571312,4.480354347854181
1768733913088,131,3,4.059063384849608,4.838031567324395,4.769632824625432
1768733913092,132,4,4.416938736774193,5.3912662509811025,5.125328969988823
1768733913096,132,4,4.832714792225425,5.345295286579508,5.537270138665314
1768733913100,133,5,5.242332746316187,5.837672897542422,5.942188790554863
1768733913104,133,5,5.575464714891547,6.509204042210206,6.271257587296482
1768733913108,133,5,5.810801825164209,6.458861870589958,6.503724881344726
1768733913112,133,5,6.006414824501906,6.744858053320443,6.697171568982281
1768733913116,134,6,6.276167158642378,6.9653674308012175,6.9647815059842015
1768733913120,134,6,6.718540114035782,7.231895022190795,7.40464799805175
1768733913124,135,7,7.347108290516104,8.158345456391363,8.030112102936691
1768733913128,135,7,8.075248263377727,8.729994469593949,8.7543283998675
1768733913132,136,8,8.764867872959192,9.468619575430068,9.439286084171826
1768733913136,137,9,9.299107126364872,10.177317139662032,9.968934282255132
1768733913140,137,9,9.626312203969668,10.084640225117049,10.292877589995385
1768733913144,137,9,9.757111951345768,10.275756158300055,10.422200165804076
1768733913148,137,9,9.741833843729724,10.613897714254344,10.405968229794746
1768733913152,137,9,9.65826645794434,10.497350661685571,10.32002516662681
1768733913156,137,9,9.598074345829351,10.168280026959655,10.255564189756218
1768733913160,137,9,9.623316561196654,10.085168378293018,10.27616878371674
1768733913164,137,9,9.712395611737549,10.314719493880204,10.36183695142262
1768733913168,137,9,9.75986587175041,10.50500127605917,10.406926706742995
1768733913172,137,9,9.654490346006884,10.596447650045237,10.298817237012978
1768733913176,137,9,9.368367436571653,10.013651858143392,10.009138556565546
1768733913180,136,8,8.963990037579315,9.297773574952828,9.601454655607228
1768733913184,136,8,8.511689436876289,9.073106318428376,9.146988993414846
1768733913188,135,7,8.010789478504101,8.734120602897622,8.64423577338373
1768733913192,135,7,7.399461719480399,8.314997543945935,8.02979826080498
1768733913196,134,6,6.6307409021336605,7.283575461692158,7.256624239591819
1768733913200,133,5,5.721248049786201,6.0513728026564255,6.343001384055313
1768733913204,132,4,4.728084401507096,5.306264376872205,5.347317453744578
1768733913208,131,3,3.702105212463103,4.477820792963237,4.319789472706383
1768733913212,130,2,2.678438519646746,3.524935275964834,3.294058129213818
1768733913216,129,1,1.697249402924904,2.071525465693975,2.309822056324208
1768733913220,128,0,0.8076379659141146,1.275841226075605,1.4168336366953516
1768733913224,128,0,0.0422094852987218,1.0723567224187156,0.6482864231437172
1768733913228,126,-2,-0.6079323413498665,-0.3095305475898351,-0.0047232878348748
1768733913232,126,-2,-1.191707229453331,-0.7432225468159184,-0.5913992724671369
1768733913236,126,-2,-1.7688746028688365,-0.6396903606153512,-1.1716555500350845
1768733913240,125,-3,-2.3715962125116175,-2.031321383261174,-1.7774193878130964
1768733913244,124,-4,-2.984786593189966,-2.6101060292047595,-2.3931834386569997
1768733913248,124,-4,-3.5570924470000884,-2.652012173034358,-2.9676197956682984
1768733913252,123,-5,-4.025553306699982,-3.471478847070677,-3.4382975355529797
1768733913256,123,-5,-4.336226865776727,-3.861931365161186,-3.7515954673823786
1768733913260,123,-5,-4.460145619525548,-3.859900139834081,-3.8783418661270015
1768733913264,123,-5,-4.403522387097292,-3.725684544402807,-3.824440782183995
1768733913268,123,-5,-4.2055005805104795,-3.626592278783176,-3.6289787038703145
1768733913272,123,-5,-3.92563744024943,-3.4810600559380527,-3.351695511564648
1768733913276,124,-4,-3.630056341429277,-2.903364606569097,-3.058959536145252
1768733913280,124,-4,-3.3801906447738004,-2.770575411658743,-2.8121968732962412
1768733913284,124,-4,-3.2237713422559873,-2.8496833525841523,-2.6587205182908344
1768733913288,124,-4,-3.1854324719239924,-2.5236361494782584,-2.6227312177633473
1768733913292,124,-4,-3.252556333978486,-2.610636245536597,-2.691665474040855
1768733913296,124,-4,-3.362390873250241,-2.8127840964339703,-2.80319516905381
1768733913300,124,-4,-3.411758654205991,-2.7937438595940622,-2.854456014081628
1768733913304,124,-4,-3.3011819869770096,-2.902131445180258,-2.7460704281495936
1768733913308,124,-4,-2.9908432919036647,-2.433184978546893,-2.438320765672118
1768733913312,125,-3,-2.52683577295722,-1.7957399370525289,-1.977313415243705
1768733913316,125,-3,-2.018277805443518,-1.587523932098315,-1.4717910221708608
1768733913320,126,-2,-1.584068700131479,-1.0333526914412834,-1.0400964001376192
1768733913324,126,-2,-1.3027530371863274,-0.6646429831242643,-0.7607064008371754
1768733913328,126,-2,-1.1876518748810063,-0.6988089015635369,-0.647485929290699
1768733913332,126,-2,-1.1944432386465955,-0.5857022449905676,-0.6564986133120658
1768733913336,126,-2,-1.2552564451705326,-0.7644332363441693,-0.7194778476880469
1768733913340,126,-2,-1.3172658185064343,-0.8935473528013743,-0.7829663748991572
1768733913344,126,-2,-1.3564116350463382,-0.7563835737834171,-0.8231762441609525
1768733913348,126,-2,-1.357065771066026,-0.6968042343322732,-0.8256596927488272
1768733913352,126,-2,-1.288651714539466,-0.5727779823621474,-0.7603532111079305
1768733913356,126,-2,-1.1241064202267943,-0.8123067943373565,-0.5989983985869347
1768733913360,126,-2,-0.8951277066300822,-0.8230426793263679,-0.371841539241368
1768733913364,127,-1,-0.711350601720166,0.1662623826531113,-0.1889869401712794
1768733913368,127,-1,-0.6889782448633983,0.3344137132811606,-0.1684319887540249
1768733913372,126,-2,-0.846805156517354,-0.6118347634635593,-0.3292552758680974
1768733913376,126,-2,-1.0878220128811809,-0.8087329733339154,-0.5725214943124929
1768733913380,126,-2,-1.291115451005775,-0.7854262462685767,-0.775975823888047
1768733913384,126,-2,-1.4078980601594178,-0.9293684046154465,-0.8923508277633125
1768733913388,126,-2,-1.4622540025717796,-0.535974559108727,-0.948417942341306
1768733913392,126,-2,-1.4847996941153834,-0.8240896822560329,-0.9750591941794048
1768733913396,125,-3,-1.4823083584613417,-1.5543991997880444,-0.9762989110800276
1768733913400,126,-2,-1.4748987179721609,-1.0894126511614566,-0.969972197383451
1768733913404,126,-2,-1.521162263396176,-0.5945943106305036,-1.0157571114639117
1768733913408,126,-2,-1.6660078768623627,-0.9252140914354204,-1.1612687332535512
1768733913412,125,-3,-1.8708120770865635,-1.4255821078764768,-1.368408510347218
1768733913416,125,-3,-2.0319046165204706,-1.9867632835286675,-1.53153329430783
1768733913420,125,-3,-2.0813601291736967,-1.6657118966720863,-1.581568442530083
1768733913424,126,-2,-2.051286510453812,-1.009001820981086,-1.5520408576070743
1768733913428,125,-3,-2.0302336558935283,-1.5471284410079686,-1.5331769089434055
1768733913432,125,-3,-2.0757915895604206,-1.79446912604331,-1.5818601118449087
1768733913436,125,-3,-2.1833687606435688,-1.661213548600115,-1.691309741071676
1768733913440,125,-3,-2.3195575309072263,-1.997708049942574,-1.8273378144368888
1768733913444,125,-3,-2.4540425627147164,-1.6838898802419409,-1.9611010505351092
1768733913448,125,-3,-2.555737224762232,-1.8700866619224656,-2.063296085629662
1768733913452,124,-4,-2.58610556532735,-2.5031185595353236,-2.095640647545972
1768733913456,125,-3,-2.5234250686988555,-1.9586088234501244,-2.035447566428128
1768733913460,125,-3,-2.395184478714774,-1.7409029599280463,-1.909277511047366
1768733913464,125,-3,-2.272529703883892,-1.9191247849398196,-1.7877785587707622
1768733913468,125,-3,-2.221842007850314,-1.657157165203938,-1.7371370878937575
1768733913472,125,-3,-2.253781499830592,-1.7121657366176772,-1.768400899134297
1768733913476,125,-3,-2.3125668936946475,-1.8133462100768936,-1.8269096941045195
1768733913480,125,-3,-2.3192867798858927,-1.858721484928363,-1.834836651936564
1768733913484,125,-3,-2.244348025262817,-1.851326582531083,-1.762536060495155
1768733913488,125,-3,-2.1536055408369688,-1.6732754504129077,-1.6745308059898103
1768733913492,125,-3,-2.1770461300726,-1.7611185591949552,-1.6993551123323232
1768733913496,125,-3,-2.401157884184067,-1.761022641061027,-1.9232037736204537
1768733913500,125,-3,-2.7583372254744014,-1.9487778866452363,-2.2793084185862837
1768733913504,124,-4,-3.01659698748787,-2.753970896943125,-2.5365705281489683
1768733913508,124,-4,-2.9094434386064476,-2.7705913101360005,-2.428952639492551
1768733913512,125,-3,-2.3211044501450853,-1.6900267139667071,-1.8411727039678176
1768733913516,126,-2,-1.377503671455881,-0.8425935962298596,-0.8997004937168515
1768733913520,127,-1,-0.3681548110365983,0.0992047610543396,0.1062823441085767
1768733913524,128,0,0.4339382144215462,1.22228242204287,0.9055006925184844
1768733913528,128,0,0.916728341642971,1.2187748949822346,1.3879446906820108
1768733913532,128,0,1.1512144744696304,1.3081542483177002,1.6249530852861571
1768733913536,129,1,1.3104619440517005,2.1370742439347037,1.7874640949612888
1768733913540,129,1,1.5630230295558571,2.090237675961362,2.0412286963124338
1768733913544,129,1,1.9936247631560269,2.2689696830325525,2.4701660557033005
1768733913548,130,2,2.5615925299848397,3.1275371782716683,3.0352615745870466
1768733913552,130,2,3.106743392214241,3.4102522206564228,3.578371244032441
1768733913556,131,3,3.4190563725928316,3.9725643210178134,3.8899980009841744
1768733913560,131,3,3.3504985815250192,4.2749151540989665,3.8214945675935272
1768733913564,130,2,2.895459259102277,3.072695054088672,3.3669437678044964
1768733913568,129,1,2.177763018280092,2.302831685264975,2.650291229769745
1768733913572,129,1,1.365200100701342,2.2415994832526116,1.838878098689235
1768733913576,128,0,0.5915191641256696,1.06353087735409,1.0655300859243746
1768733913580,127,-1,-0.0685151591634531,0.2408819220081373,0.4048680214659133
1768733913584,127,-1,-0.5909050175242723,0.0692541311217792,-0.1182390544172836
1768733913588,126,-2,-0.9918104200049052,-0.6911459267869563,-0.5193129804291867
1768733913592,126,-2,-1.3177428744319286,-0.7865042027480027,-0.8452726289759278
1768733913596,126,-2,-1.6301601772378498,-0.9581268566983514,-1.158226443762982
1768733913600,125,-3,-1.9896645274544809,-1.69987353872579,-1.5184580272003676
1768733913604,125,-3,-2.4463397437700323,-2.0314443082891924,-1.97500117038164
1768733913608,124,-4,-3.0265546002114125,-2.563733685943056,-2.553939683499658
1768733913612,124,-4,-3.705536479830592,-2.9820771588415385,-3.231537298339397
1768733913616,123,-5,-4.388556992615552,-3.757812622889888,-3.914126625983492
1768733913620,122,-6,-4.94399221722563,-4.903428505601166,-4.469977458256406
1768733913624,122,-6,-5.284275538999851,-4.8512729103130345,-4.810855475333573
1768733913628,122,-6,-5.421219444222746,-4.707677327256402,-4.9483681746714785
1768733913632,122,-6,-5.433888083572069,-4.936674145398783,-4.961359283454316
1768733913636,122,-6,-5.382226027803785,-4.7442724458456444,-4.908657326384392
1768733913640,122,-6,-5.259327133869249,-4.9805405190707575,-4.7824318002513175
1768733913644,122,-6,-5.026084707833258,-4.7520709038396145,-4.545203523250249
1768733913648,123,-5,-4.680892962629666,-3.812740808687907,-4.19956284577594
1768733913652,123,-5,-4.2887340424615115,-3.895361197726228,-3.813399026854491
1768733913656,123,-5,-3.935769535434763,-3.7432797952512735,-3.470317462628972
1768733913660,124,-4,-3.616984157386585,-3.0433396448732135,-3.157741537723075
1768733913664,124,-4,-3.085318520166261,-2.6558109549087625,-2.6216745022573296
1768733913668,126,-2,-1.738936300938375,-0.9460441825628894,-1.2601891986431006
1768733913672,129,1,1.3087974190964395,2.2242208224336393,1.8052143080155896
1768733913676,134,6,6.8501016233430985,7.148090630262404,7.35557375890977
1768733913680,142,14,14.95374657180793,15.022543254137572,15.453482675606152
1768733913684,151,23,24.42164316374208,24.337374336079357,24.90419382231125
1768733913688,160,32,32.79693727368917,32.969104264373414,33.26104324401087
1768733913692,165,37,37.16411266642755,38.35193988807271,37.618235540465896
1768733913696,164,36,35.454457216274385,36.928961066202945,35.91065189781755
1768733913700,155,27,27.51208108145697,28.21995951523858,27.979648765507346
1768733913704,142,14,15.21391612465636,15.131385700013965,15.69639984870443
1768733913708,128,0,1.5428068005792666,1.1028218591765335,2.037940891259282
1768733913712,116,-12,-10.760068888986378,-10.683362835136109,-10.259013340268485
1768733913716,108,-20,-20.09646106028571,-19.088879328267577,-19.598049402091625
1768733913720,102,-26,-26.040706024949507,-24.668272357581618,-25.55121103884474
1768733913724,99,-29,-28.784348718838284,-28.04011621835677,-28.30407935400771
1768733913728,98,-30,-28.635798529095403,-28.757063255080205,-28.15929191303442
1768733913732,101,-27,-25.960377927705306,-25.81792048846081,-25.481088444102262
1768733913736,106,-22,-21.41665404692303,-21.012290329770185,-20.932125975303087
1768733913740,111,-17,-16.070265754550412,-15.651892327242711,-15.583197395438932
1768733913744,117,-11,-11.141609427296094,-10.164913731422494,-10.656453703167404
1768733913748,120,-8,-7.526897855254973,-6.603108350931619,-7.04540101764541
1768733913752,122,-6,-5.457965806851322,-5.084910366983362,-4.97724848084307
1768733913756,122,-6,-4.556527599991002,-4.698547663547899,-4.071322270701573
1768733913760,123,-5,-4.208018365359611,-3.979830114478887,-3.715546045406685
1768733913764,124,-4,-3.9398383750435686,-2.829114781774042,-3.4428452937277143
1768733913768,124,-4,-3.5584367059468884,-2.956044509062065,-3.062948276056499
1768733913772,124,-4,-3.065291827359167,-2.784840419668931,-2.5752066459912375
1768733913776,125,-3,-2.529905762135434,-1.9717481876422325,-2.044097442196936
1768733913780,125,-3,-2.031582945167733,-1.7337208717706414,-1.54597629466504
1768733913784,126,-2,-1.6477311016593867,-1.0569016239213338,-1.1593409867004874
1768733913788,126,-2,-1.4304825926888172,-0.7604965760783102,-0.9392617606354996
1768733913792,126,-2,-1.3682591889887876,-1.017458559393791,-0.8758352100365284
1768733913796,126,-2,-1.3746434738669713,-0.741280628916417,-0.8821329575360555
1768733913800,126,-2,-1.3297406359474944,-0.9570132807195536,-0.8369927658057581
1768733913804,126,-2,-1.1476504624167272,-0.8602113911383414,-0.6542219852882816
1768733913808,127,-1,-0.8181341915025997,0.0676562141664721,-0.3243835277102438
1768733913812,127,-1,-0.3982346746468901,0.0674416327957357,0.0949506082342146
1768733913816,127,-1,0.0240765730918683,0.2192381065660571,0.5164125181801763
1768733913820,128,0,0.3634996655499183,1.0422268871144236,0.8556426079783989
1768733913824,128,0,0.5640953587183608,1.156219156915912,1.05686556483505
1768733913828,128,0,0.6229207982641745,1.026627583105845,1.1166035352595831
1768733913832,128,0,0.5968325244669965,1.072817199916929,1.091245958279903
1768733913836,128,0,0.5784731195542077,1.2151160068851092,1.073386761817878
1768733913840,128,0,0.6514861161745715,1.036633820006001,1.1467982649919417
1768733913844,128,0,0.8529710616280244,1.1617922454884402,1.3484442343191885
1768733913848,129,1,1.167767977228631,2.0112317342944115,1.6627598182034509
1768733913852,129,1,1.5544734536996954,2.041194670019961,2.048406590678119
1768733913856,129,1,1.974412716683156,2.2596177938281716,2.4676946661287222
1768733913860,130,2,2.3989486070890025,2.9691430968183607,2.8929136201837387
1768733913864,130,2,2.8062736284458865,3.2371441858444463,3.3017414149761546
1768733913868,131,3,3.190424968930277,3.916192557156645,3.6865525842509497
1768733913872,131,3,3.572587706523773,4.099569324826275,4.0676455102186875
1768733913876,131,3,3.98376769691946,4.213877165235484,4.477101874192789
1768733913880,132,4,4.422145441283955,4.9735642807705736,4.914991571289606
1768733913884,132,4,4.835749649871149,5.278341375649318,5.3298204996378615
1768733913888,133,5,5.167976302351105,5.801045019198779,5.663389375194451
1768733913892,133,5,5.429547660746029,6.247276471354437,5.924584615039024
1768733913896,133,5,5.7111656824368255,6.010996449722627,6.204281478334934
1768733913900,133,5,6.101088281359365,6.1850797636854535,6.592705472269324
1768733913904,134,6,6.585548063863231,7.0787933112710295,7.077309297084731
1768733913908,135,7,7.052550430790456,7.942309710212375,7.545151995978777
1768733913912,135,7,7.412689442335438,8.14994399725081,7.905358137036023
1768733913916,135,7,7.70574316842475,8.029858884139724,8.197801138998091
1768733913920,135,7,8.064963516387824,8.204826777366945,8.556753141995639
1768733913924,136,8,8.57060209612727,9.019719044182072,9.062307063345584
1768733913928,137,9,9.147029766899344,9.994980512032496,9.637542943892743
1768733913932,137,9,9.60294199366992,10.113251677448003,10.090984527800268
1768733913936,137,9,9.76678318973321,10.00475874889232,10.252827892132602
1768733913940,137,9,9.601373702692287,10.267106283017156,10.087505715884031
1768733913944,137,9,9.226475037047646,9.887828806176518,9.714313968718452
1768733913948,136,8,8.846212068669825,9.1545667415807,9.335474785317484
1768733913952,136,8,8.62306907643974,8.948974628745237,9.111959575727557
1768733913956,136,8,8.573390943367432,9.116698802592577,9.059883797833704
1768733913960,136,8,8.557597052067305,9.214403382228564,9.040675834834996
1768733913964,136,8,8.37318776104176,8.817802656141975,8.853603292751764
1768733913968,135,7,7.8808037677709715,8.346361125447594,8.360669546496641
1768733913972,135,7,7.079053230182454,7.61299299359047,7.560121935350919
1768733913976,133,5,6.091679823823199,6.5570286354220855,6.573741593237792
1768733913980,133,5,5.085055793405744,5.66042643554001,5.566215702372258
1768733913984,131,3,4.166237640673568,4.425671775374392,4.644838659883962
1768733913988,131,3,3.3248815286530577,3.708122631802664,3.8009358117529106
1768733913992,130,2,2.4654993681859856,3.229136949821765,2.9401940079408027
1768733913996,129,1,1.5144890588974858,1.975619427563948,1.988670987206915
1768733914000,128,0,0.5142720599747017,1.1374041767097511,0.9877754696110326
1768733914004,127,-1,-0.3877158421331914,0.0530827932569442,0.0845905063119236
1768733914008,126,-2,-1.057342973930007,-1.0637010113174905,-0.5863596081762998
1768733914012,126,-2,-1.4932089248728682,-0.8670425557455843,-1.023553864358105
1768733914016,126,-2,-1.8287236200147376,-1.0637564134866149,-1.36090583237202
1768733914020,125,-3,-2.2103023092360634,-1.743545003791954,-1.744970268401517
1768733914024,125,-3,-2.669951983140955,-2.1393889614520463,-2.2068197310953312
1768733914028,124,-4,-3.1113468779431934,-2.8594977643802437,-2.6490776422959295
1768733914032,124,-4,-3.408992792761185,-3.0855448142171897,-2.946597858455437
1768733914036,124,-4,-3.51567027438775,-2.865073894240028,-3.0538596420306714
1768733914040,124,-4,-3.485910506157275,-2.929764785011115,-3.026614567475619
1768733914044,124,-4,-3.418472495529536,-2.9913447281896883,-2.962895461782084
1768733914048,124,-4,-3.3871512888026527,-2.99796465693658,-2.934587779128047
1768733914052,124,-4,-3.4107344021135115,-2.9878484485884225,-2.959503534704885
1768733914056,124,-4,-3.4587430845368283,-2.952743803677682,-3.008019595917973
1768733914060,124,-4,-3.4704617803957465,-2.859971211425452,-3.020832069266071
1768733914064,124,-4,-3.3816990711534345,-3.06530841228368,-2.934096195432206
1768733914068,124,-4,-3.158592734055705,-2.947472114364587,-2.713278166057015
1768733914072,125,-3,-2.8187986848236735,-2.046124964447543,-2.3755436496956195
1768733914076,125,-3,-2.419769924240015,-1.9142803370818675,-1.978531479277413
1768733914080,125,-3,-2.0268772723596604,-1.8867876748050867,-1.5880117245596044
1768733914084,126,-2,-1.6924214884947983,-1.0697915319335265,-1.256480744479218
1768733914088,126,-2,-1.4537406927967054,-0.9435049828565972,-1.0210392523480465
1768733914092,126,-2,-1.3349488256668398,-1.0888246970970568,-0.904969600586422
1768733914096,126,-2,-1.339673863440741,-0.8575732897928281,-0.9110421801365184
1768733914100,126,-2,-1.434076153751837,-0.956498527588584,-1.0057063586596913
1768733914104,126,-2,-1.5334362239046415,-1.0241157618706913,-1.1058673077893486
1768733914108,126,-2,-1.5213797764564438,-0.9752178314855144,-1.0966020037678392
1768733914112,126,-2,-1.3193338642370616,-1.1232445618952842,-0.8990356426472238
1768733914116,126,-2,-0.9690910466781384,-0.770064353107985,-0.5532305757012832
1768733914120,127,-1,-0.6444008888410596,-0.1023241775354,-0.231612083852486
1768733914124,127,-1,-0.5443082979019855,0.1492695284623328,-0.1333678448030617
1768733914128,127,-1,-0.734879986387371,-0.1887275950928781,-0.3254558011628363
1768733914132,126,-2,-1.0796879156307495,-0.9256931915954366,-0.6719817664579923
1768733914136,126,-2,-1.3345875936229192,-0.9690297290916144,-0.928855111567628
1768733914140,126,-2,-1.3338189540698306,-0.92352389277495,-0.930401145968822
1768733914144,126,-2,-1.111809750841017,-1.01412831826572,-0.7114285027735415
1768733914148,127,-1,-0.8626147756180185,-0.0622543242222086,-0.4663388464449295
1768733914152,127,-1,-0.7788940324859814,-0.0388815779038628,-0.387323491876266
1768733914156,126,-2,-0.9136770756639698,-0.9159970179248114,-0.5259181229021721
1768733914160,126,-2,-1.1766083795909166,-0.932783177414265,-0.7906418844480665
1768733914164,126,-2,-1.4379887686996424,-1.0687245866981798,-1.0526753999724383
1768733914168,126,-2,-1.6201699231293702,-0.9691532671536892,-1.2365278609292385
1768733914172,126,-2,-1.706555991984002,-1.1778336102477232,-1.3264917568763688
1768733914176,125,-3,-1.705695059095678,-1.7685566286987782,-1.329904627858806
1768733914180,126,-2,-1.6317113746831275,-1.1094040643362328,-1.259535140360184
1768733914184,126,-2,-1.507958482318893,-0.8882437740925722,-1.1388578597022463
1768733914188,126,-2,-1.3715541325753309,-1.1766072609993894,-1.0057093627656404
1768733914192,126,-2,-1.2740118585642812,-0.9561039051827476,-0.9115429903964892
1768733914196,126,-2,-1.2767376893392737,-1.0268477982127904,-0.917324816880938
1768733914200,126,-2,-1.425749982458644,-0.861110277419644,-1.0692685546556937
1768733914204,126,-2,-1.7094296535874864,-1.1348416966727304,-1.3562204552121868
1768733914208,125,-3,-2.0432246428599132,-1.965837689218766,-1.6933978096871731
1768733914212,125,-3,-2.3134334139774744,-2.128653787454411,-1.9665179488651807
1768733914216,125,-3,-2.445926912721786,-1.9358227862228925,-2.1016417919281425
1768733914220,125,-3,-2.4352088686651885,-1.8918197445829743,-2.0941261087828833
1768733914224,125,-3,-2.318995947457376,-2.1893962496605086,-1.982012836961949
1768733914228,125,-3,-2.140374794087935,-1.834784888935124,-1.8077944304506977
1768733914232,126,-2,-1.933090121135854,-1.3517144277835442,-1.6044400065603075
1768733914236,125,-3,-1.7264445362395129,-1.6691905284520754,-1.4009540000754512
1768733914240,126,-2,-1.5498767113555214,-1.2156895421678433,-1.22705364239806
1768733914244,126,-2,-1.4257852097562458,-0.8456539385619799,-1.1057711023542318
1768733914248,126,-2,-1.3562869774760795,-1.187324983224973,-1.0397536141728934
1768733914252,126,-2,-1.32227416344442,-1.0361850112133266,-1.0099286931650393
1768733914256,126,-2,-1.3025511648588497,-0.9593902568598628,-0.9946610897297792
1768733914260,126,-2,-1.2948973762027431,-1.0004929782756644,-0.99106882681198
1768733914264,126,-2,-1.3150231950513862,-0.9935556238023862,-1.0143483252843222
1768733914268,126,-2,-1.370606079972179,-1.1104671079985513,-1.0723970212991534
1768733914272,126,-2,-1.4304023895935805,-1.078615223688332,-1.1351208472932384
1768733914276,126,-2,-1.4173246966144837,-0.9675910283313506,-1.1264531458450695
1768733914280,126,-2,-1.2455040800157708,-0.993297476265982,-0.9599360875148844
1768733914284,126,-2,-0.8861578782726997,-0.9978330808094736,-0.6049194878212447
1768733914288,127,-1,-0.4011532454846633,-0.1276420252514086,-0.1224415252477336
1768733914292,128,0,0.1101561634822521,0.944472712993443,0.3867246994629022
1768733914296,128,0,0.6135981395467065,0.9692143377885036,0.8865898191680941
1768733914300,128,0,1.174364223018019,1.075479872988407,1.4424221197637856
1768733914304,129,1,1.8641136418527036,1.9141599521987511,2.127338802237956
1768733914308,130,2,2.635791734004372,2.955657094559023,2.8949956770179925
1768733914312,131,3,3.3133517333041422,3.851639135088103,3.5688570098938137
1768733914316,131,3,3.7205412637539417,4.04958931341849,3.972309822421898
1768733914320,131,3,3.8236852862676582,3.978702893140052,4.072008404408175
1768733914324,131,3,3.754253525592712,3.9962554595768767,3.99953177532905
1768733914328,131,3,3.69630184365538,3.8623593135920617,3.938289682483745
1768733914332,131,3,3.737908221911975,3.934965348501767,3.9757533809517622
1768733914336,131,3,3.804308017566436,3.975469832612488,4.03736536250371
1768733914340,131,3,3.72214708327267,4.015776924991209,3.9504149653052663
1768733914344,131,3,3.364607003540101,3.9701150343098384,3.5884671433427764
1768733914348,130,2,2.76064789683746,2.8444459214741418,2.980613911432645
1768733914352,129,1,2.0759788516507856,1.97150168642934,2.2926930458525865
1768733914356,129,1,1.4839435907962186,1.9096681855138729,1.6979663332164954
1768733914360,128,0,1.0421080849740678,1.0926761507115228,1.2533935936385237
1768733914364,128,0,0.6770265233039388,0.8530718799246043,0.8845645973990751
1768733914368,128,0,0.2743841634991272,0.9878605323367012,0.4765926518638583
1768733914372,127,-1,-0.2210330795782471,-0.2237245780569785,-0.0250500768228028
1768733914376,126,-2,-0.7883726979529089,-0.874309533178357,-0.5977207014397383
1768733914380,126,-2,-1.3936736716265163,-1.1495086406496378,-1.2061795500950976
1768733914384,125,-3,-2.0394087679754453,-1.9295259754129503,-1.85358567361693
1768733914388,125,-3,-2.7300956752932533,-2.2028040291408715,-2.546500341557272
1768733914392,124,-4,-3.39711959970669,-3.0829395165847577,-3.217574161037764
1768733914396,123,-5,-3.8916695671442096,-3.989480715823946,-3.717311407256993
1768733914400,123,-5,-4.085771932532661,-4.0807864745165405,-3.916281387858595
1768733914404,123,-5,-3.990317893421761,-3.9921829055222022,-3.825048386880139
1768733914408,124,-4,-3.761155443310623,-3.148064897507128,-3.600222462311081
1768733914412,124,-4,-3.5759760109200127,-3.145962565092545,-3.41955148273023
1768733914416,123,-5,-3.5008842425475364,-3.925579513048949,-3.3480219129808586
1768733914420,124,-4,-3.467121271646888,-3.2060539141640234,-3.3164717018469116
1768733914424,124,-4,-3.3594680724541304,-2.8258288618312735,-3.211152557658163
1768733914428,124,-4,-3.130219811348962,-3.3844978783657784,-2.9860615690759587
1768733914432,124,-4,-2.860648138261227,-2.8303630765938323,-2.722429490230004
1768733914436,125,-3,-2.7330211738243255,-2.3183772334804487,-2.6010243239354636
1768733914440,124,-4,-2.919952077102201,-2.814492470263475,-2.792951885755129
1768733914444,124,-4,-3.457473292588781,-3.2226069242395683,-3.333493128946711
1768733914448,123,-5,-4.19836307504967,-4.030009357442162,-4.075682796519017
1768733914452,122,-6,-4.887949955980622,-5.1154420995874545,-4.766414332306157
1768733914456,122,-6,-5.305872816898414,-5.136292879183383,-5.187705012984674
1768733914460,122,-6,-5.37129787549655,-4.923153145620818,-5.259796054255562
1768733914464,122,-6,-5.155365309390197,-5.217952056178776,-5.051588377722556
1768733914468,122,-6,-4.819715848360333,-4.950593756060737,-4.720484343784548
1768733914472,123,-5,-4.524902636228951,-4.2554675516613,-4.425275849245087
1768733914476,123,-5,-4.343017771579584,-3.9981719657480586,-4.241569213841721
1768733914480,123,-5,-4.219843533652,-4.065581083743995,-4.121300962543133
1768733914484,123,-5,-4.030240162120781,-4.135461088316067,-3.942294064679878
1768733914488,123,-5,-3.6905619941186,-3.9605483292726618,-3.6172916698384223
1768733914492,124,-4,-3.1895416754932215,-3.330905276490471,-3.1269941861723263
1768733914496,125,-3,-2.425546834174605,-1.865948887009105,-2.3631309985108255
1768733914500,127,-1,-0.9408206776536784,-0.2645746054275806,-0.8677978555210131
1768733914504,129,1,2.1487006959973103,2.0765215804064647,2.2356771012253156
1768733914508,135,7,7.76690093067668,7.834858293133149,7.860196940169331
1768733914512,143,15,16.109381184167653,15.839749618583795,16.19400495316379
1768733914516,152,24,25.96143505556762,25.000648909445573,26.02427317586671
1768733914520,162,34,34.68396730873696,34.80846596097726,34.722049173788896
1768733914524,167,39,39.122062245326674,40.03232543670809,39.14376416611529
1768733914528,165,37,37.06823564626572,37.79231474977347,37.087381036164224
1768733914532,156,28,28.426661062459733,28.882242998894174,28.45465489428801
1768733914536,142,14,15.313131651615574,14.88681883958137,15.354249235888512
1768733914540,127,-1,1.0079881248092448,-0.0655119476158061,1.059211174338694
1768733914544,115,-13,-11.54125655748856,-12.068601714909846,-11.48774387368695
1768733914548,107,-21,-20.713071488810296,-20.067318871879472,-20.666629786721924
1768733914552,102,-26,-26.219585849950857,-25.24047128713277,-26.187302192310472
1768733914556,99,-29,-28.44218362185097,-28.004774657223344,-28.42508901969268
1768733914560,99,-29,-27.832162874763053,-28.22126588922563,-27.824382956986653
1768733914564,101,-27,-24.835445063796623,-25.913474931256317,-24.828608376787585
1768733914568,107,-21,-20.16734632225536,-20.23935679898856,-20.157469901548048
1768733914572,113,-15,-14.92918440774767,-14.0366119621324,-14.9193862693711
1768733914576,117,-11,-10.304993296848458,-10.245722073714983,-10.301068419018128
1768733914580,120,-8,-7.061518784492809,-7.027463352749922,-7.065315649880812
1768733914584,122,-6,-5.272094009732348,-5.123748890003769,-5.279750682884644
1768733914588,122,-6,-4.461859993364623,-5.0830486279621,-4.4680195787781045
1768733914592,123,-5,-4.0186214230554995,-4.108407921107167,-4.021746669886946
1768733914596,124,-4,-3.5503246824392383,-3.2270323629250126,-3.554146488503079
1768733914600,124,-4,-2.980757608141282,-3.0322249555763965,-2.9910129293802985
1768733914604,125,-3,-2.415655079739332,-2.1693771338217287,-2.435289738055087
1768733914608,125,-3,-1.962539336650551,-2.0438085888817894,-1.9895483960468845
1768733914612,125,-3,-1.6482367859103997,-2.120420230132196,-1.6778225796405215
1768733914616,126,-2,-1.4366546288567776,-1.241694976629194,-1.465506580911441
1768733914620,126,-2,-1.2663739002396404,-1.0042105935465218,-1.2949798020801424
1768733914624,126,-2,-1.064698422886589,-1.2826058708897266,-1.095804671272065
1768733914628,126,-2,-0.7638253876573458,-0.871275760118608,-0.7993224163987102
1768733914632,127,-1,-0.3406222826518497,-0.3455586228842736,-0.3803105090728031
1768733914636,127,-1,0.1521399047095435,0.0307574492128905,0.1092788329392988
1768733914640,128,0,0.605247939113267,0.6759187960101063,0.5594297355852965
1768733914644,128,0,0.9160216105398769,1.0054928825792613,0.8666204145030263
1768733914648,128,0,1.0435906349251076,0.8589847000987967,0.9904401537710544
1768733914652,128,0,1.0165630502496636,0.8838171379178572,0.9607777031294314
1768733914656,128,0,0.9041714803584232,0.8596894445096387,0.847270441660907
1768733914660,128,0,0.792119092107728,0.7615987361525905,0.7343616197867373
1768733914664,128,0,0.7777501223282841,0.9520421855059696,0.7177352880372952
1768733914668,128,0,0.9539863913364416,0.8651450560847365,0.8901328858525069
1768733914672,128,0,1.3570498225027945,0.9002240733463149,1.289140801242942
1768733914676,129,1,1.9152945028219104,1.8483195804695365,1.8441787588108447
1768733914680,130,2,2.4711999592091582,2.727072179134089,2.397423467844388
1768733914684,130,2,2.885219289818477,2.993664058263714,2.8088225548238
1768733914688,130,2,3.1323431030985134,2.792052192008547,3.053826181573459
1768733914692,130,2,3.3019996307597856,2.9799789101519667,3.2222938362736953
1768733914696,131,3,3.5148648882478586,3.7750561672965905,3.43395166967539
1768733914700,131,3,3.841314925749792,3.753743809506787,3.757796084648687
1768733914704,131,3,4.274034229261676,3.9901621435026193,4.186699913930772
1768733914708,132,4,4.748168566175206,4.75108546256312,4.657476991557477
1768733914712,132,4,5.188220413024153,5.043341502888505,5.095703727120323
1768733914716,133,5,5.562115861999031,5.6916676202078555,5.468624484622402
1768733914720,133,5,5.907219883813871,5.819595656517238,5.812194241301113
1768733914724,133,5,6.296312768783063,5.92507369068612,6.198662126830328
1768733914728,134,6,6.761803582407891,6.773352486902642,6.661150671489427
1768733914732,134,6,7.247036748902631,7.0665476434854195,7.144067360606976
1768733914736,135,7,7.6386683525256815,7.602462284146989,7.534400373045264
1768733914740,135,7,7.859560592411836,7.961964057984331,7.754252852336806
1768733914744,135,7,7.940315626749841,7.7044652753058624,7.833115935812873
1768733914748,135,7,7.998666271112906,8.015748450799117,7.888595870973355
1768733914752,135,7,8.13419177793492,7.822430483850987,8.021538476487201
1768733914756,135,7,8.330108217872844,7.803393023281185,8.216324795388354
1768733914760,136,8,8.465684385789151,8.82172906782517,8.351521256153202
1768733914764,136,8,8.445436009880654,8.744462238426083,8.329799531000141
1768733914768,135,7,8.317515491977225,8.035625365207252,8.198988370865088
1768733914772,135,7,8.240505596306276,7.748460309652441,8.11954140407905
1768733914776,135,7,8.317757365785154,7.882781688922522,8.196239169953966
1768733914780,136,8,8.477379626380511,8.75128504514688,8.356019629362683
1768733914784,136,8,8.530329775928596,8.767182128457573,8.40762274305966
1768733914788,135,7,8.33741282938589,8.056285863757683,8.21161225347828
1768733914792,135,7,7.904484551345758,7.655639856597581,7.775835188216936
1768733914796,134,6,7.325146940568407,7.011458388235443,7.195515686909078
1768733914800,134,6,6.660995063843407,6.5706538433657,6.531688312810968
1768733914804,133,5,5.894248657791032,5.976348398454892,5.764829722206459
1768733914808,132,4,4.986096911383566,4.836991887768378,4.8552751808273635
1768733914812,131,3,3.961093609469219,3.83803906353117,3.82826147274282
1768733914816,130,2,2.924852171086564,2.849636226331286,2.790596606278303
1768733914820,129,1,1.998242976703362,1.6669482280590375,1.8635859731312008
1768733914824,128,0,1.231818266479817,0.9428317793612324,1.0970770020793106
1768733914828,128,0,0.5796161091380463,0.8185437902190433,0.4440322516568575
1768733914832,127,-1,-0.0482765045466113,-0.1256515235627175,-0.1856689647156082
1768733914836,126,-2,-0.7099284223497961,-1.2240868550565618,-0.8491497342791527
1768733914840,126,-2,-1.3982590190627149,-1.2767166034793456,-1.538297363176086
1768733914844,125,-3,-2.0618277614024514,-2.089674150127553,-2.2015481615971693
1768733914848,124,-4,-2.6468311552750414,-3.1887252521064147,-2.7858395958593105
1768733914852,124,-4,-3.125543505597726,-3.082686584215181,-3.2644982215420892
1768733914856,124,-4,-3.4958372474290575,-3.336180281081316,-3.6360114574285785
1768733914860,123,-5,-3.764506764863585,-4.143837200216454,-3.906598073102744
1768733914864,123,-5,-3.942088116561196,-4.235185675099689,-4.085360622920764
1768733914868,123,-5,-4.051009002777053,-4.050764756447702,-4.193977681456471
1768733914872,123,-5,-4.118684055721214,-4.212576822894193,-4.260655407631323
1768733914876,123,-5,-4.148636284726438,-4.2637501665519695,-4.29026363406937
1768733914880,123,-5,-4.106192206924387,-4.178580256495817,-4.248509928862106
1768733914884,123,-5,-3.950152734278942,-4.258997888853506,-4.093358194575709
1768733914888,123,-5,-3.6876374319256024,-3.9727145891997546,-3.831017660225739
1768733914892,124,-4,-3.392675114570265,-3.349600289967928,-3.5356004778959167
1768733914896,124,-4,-3.159779289650648,-3.1206325288596326,-3.302414903572478
1768733914900,124,-4,-3.03418026634088,-3.3256656412191923,-3.177082858586185
1768733914904,124,-4,-2.9887439847208506,-3.161428785980722,-3.1320064808928154
1768733914908,124,-4,-2.9678552810033296,-2.9941156582525403,-3.110884508480672
1768733914912,124,-4,-2.9488211569751286,-3.449853374343656,-3.0909796891380714
1768733914916,124,-4,-2.956468573666102,-2.91421948824457,-3.0978306922773142
1768733914920,125,-3,-3.018361552147388,-2.6524217408679416,-3.159560851456574
1768733914924,123,-5,-3.115007973209905,-3.7546430910397177,-3.256246493148491
1768733914928,124,-4,-3.186306671410337,-3.4594267461003416,-3.327001324919079
1768733914932,124,-4,-3.186508509758635,-2.980857714489215,-3.326200106517523
1768733914936,124,-4,-3.124113345938226,-3.385181978571573,-3.26316015129801
1768733914940,124,-4,-3.0509965851930514,-3.2230423768820256,-3.189971537661661
1768733914944,124,-4,-3.0213996480080088,-3.1298818734476774,-3.160262133685345
1768733914948,124,-4,-3.0540182225025125,-3.170278349181588,-3.192230229367394
1768733914952,124,-4,-3.115342849722493,-3.2067546444428956,-3.25242569455589
1768733914956,124,-4,-3.133558783721567,-3.2422054329903047,-3.269201592744064
1768733914960,124,-4,-3.039799066191816,-3.3133945364586705,-3.173779091001208
1768733914964,124,-4,-2.809634976719185,-3.0841797072913564,-2.9421658704969342
1768733914968,125,-3,-2.471060667515049,-2.202315218434908,-2.603035128458013
1768733914972,125,-3,-2.078452252572118,-2.2011120882628177,-2.2106483071626477
1768733914976,125,-3,-1.6884599413306427,-2.2528174091300004,-1.820445378394714
1768733914980,126,-2,-1.357612310667061,-1.3148268260632996,-1.4880512717457084
1768733914984,126,-2,-1.1371120696805224,-1.0830679769193363,-1.2652576757287746
1768733914988,126,-2,-1.0457364435967174,-1.226082270845826,-1.172086265430854
1768733914992,126,-2,-1.049715158782376,-1.1693383369635122,-1.1751097552995544
1768733914996,126,-2,-1.0847244577332622,-1.3161877423429569,-1.2092884394490708
1768733915000,126,-2,-1.104637280072585,-1.2515201359786423,-1.2278009717891651
1768733915004,126,-2,-1.1072583606667403,-1.1476034671756292,-1.2285159051419954
1768733915008,126,-2,-1.1134009283085722,-1.1816193507868384,-1.2327754541981797
1768733915012,126,-2,-1.1274840663128622,-1.2046631961027203,-1.245301458122393
1768733915016,126,-2,-1.126289972126286,-1.3135835798566728,-1.2427065391102514
1768733915020,126,-2,-1.0899379546725392,-1.2586085923791823,-1.2048142330527332
1768733915024,126,-2,-1.0418023404134034,-1.1380792921524585,-1.155020033793346
1768733915028,126,-2,-1.0510314860135803,-1.2140222264246263,-1.162818240441874
1768733915032,126,-2,-1.18548531201349,-1.1557482610048084,-1.2961967699159525
1768733915036,126,-2,-1.4524147291477854,-1.4078580076382117,-1.561757822032646
1768733915040,125,-3,-1.7812208251108983,-2.1517135296410403,-1.887866241850364
1768733915044,125,-3,-2.065127893733502,-2.269294463973113,-2.1677350061379004
1768733915048,125,-3,-2.222772600850501,-2.0758987049539117,-2.321715388540078
1768733915052,125,-3,-2.232189872804239,-2.2987043092557435,-2.3297627862005776
1768733915056,125,-3,-2.133336879856513,-2.2963431654756574,-2.2316639746106337
1768733915060,125,-3,-2.020382031951348,-2.2399734120435606,-2.119207065797514
1768733915064,125,-3,-2.0174572744471053,-2.245777149794983,-2.1143585432057397
1768733915068,125,-3,-2.2128511500220163,-2.03709552123833,-2.3055419175729868
1768733915072,125,-3,-2.5734634326414434,-2.410246572159266,-2.6614826423592732
1768733915076,124,-4,-2.9237369109889837,-3.1420854612414875,-3.0080229520577393
1768733915080,124,-4,-3.048308494376716,-3.446456719567893,-3.1300099299772226
1768733915084,124,-4,-2.8583765041164284,-3.037009324159222,-2.9386214945496607
1768733915088,125,-3,-2.477741572812741,-2.2351927499915485,-2.557789203157372
1768733915092,125,-3,-2.1657522245017606,-2.237563828361272,-2.246106598708435
1768733915096,125,-3,-2.13943316173238,-2.2947022730273514,-2.218607626600532
1768733915100,125,-3,-2.4320221421996964,-2.351715567096412,-2.507018429146411
1768733915104,124,-4,-2.877046964696654,-3.1203206855779433,-2.9457315354572366
1768733915108,124,-4,-3.2122753133412703,-3.175205835743947,-3.275329487774607
1768733915112,124,-4,-3.235294467649409,-3.266457281915619,-3.2956890172571445
1768733915116,124,-4,-2.9258942121809266,-3.3003240718209605,-2.9864406518859656
1768733915120,125,-3,-2.4662674583636117,-2.3432630528307197,-2.52760708278868
1768733915124,125,-3,-2.137218137188434,-2.16341241583662,-2.197792455133166
1768733915128,125,-3,-2.1432422289047732,-2.1287729508777535,-2.200706518577286
1768733915132,125,-3,-2.4790304865417427,-2.2995214318720896,-2.5316454585712544
1768733915136,124,-4,-2.9342403670791244,-3.3036978100487824,-2.981486484249918
1768733915140,124,-4,-3.2362230525296107,-3.338332666235007,-3.278835449866427
1768733915144,124,-4,-3.225748554161352,-3.200421998647308,-3.265423958920311
1768733915148,124,-4,-2.939974384557561,-3.0758206629654308,-2.9786013357746803
1768733915152,125,-3,-2.557321885442891,-2.345828487871157,-2.5957990393876966
1768733915156,125,-3,-2.26487345154926,-2.275891295047428,-2.3023048528840433
1768733915160,125,-3,-2.150596838322259,-2.3917245287368023,-2.184799208926576
1768733915164,125,-3,-2.1793088522843953,-2.1697568551185156,-2.208500078882436
1768733915168,125,-3,-2.2391236805003816,-2.093519480287146,-2.263274392249958
1768733915172,125,-3,-2.2115818847806827,-2.332366131519113,-2.2321345296344615
1768733915176,125,-3,-2.028229524876663,-2.280465281944945,-2.046722428116162
1768733915180,126,-2,-1.6914117391838854,-1.4386741857252618,-1.708402257507594
1768733915184,126,-2,-1.252957321806808,-1.1187083834516915,-1.2677753597433368
1768733915188,126,-2,-0.7718265251285605,-1.1541403867511002,-0.7831727770114136
1768733915192,127,-1,-0.2824537820341435,-0.2553656009868164,-0.289722421697431
1768733915196,128,0,0.2142353361236642,0.6285296775424725,0.2101821214677841
1768733915200,128,0,0.7367656230551272,0.6164790756820206,0.7347460993026661
1768733915204,128,0,1.2858932922021666,0.8188419623075025,1.2861545482452814
1768733915208,129,1,1.8133688417214548,1.9103146045364996,1.8172703395746943
1768733915212,130,2,2.2479993515458117,2.6824203426155613,2.2560721741689975
1768733915216,130,2,2.570324741923878,2.690031713447258,2.581735855526602
1768733915220,130,2,2.844697361682554,2.5168572151067172,2.858700674125514
1768733915224,130,2,3.150252249907528,2.906771901361148,3.1670668012368477
1768733915228,131,3,3.478099160124028,3.8188809856167945,3.498062742504153
1768733915232,131,3,3.7095920030027503,3.790158796689735,3.732392283742237
1768733915236,131,3,3.6989573160229576,3.5700498273618173,3.724180435837155
1768733915240,131,3,3.379118787129438,3.622280450991576,3.4069755770253423
1768733915244,130,2,2.8042939946096785,2.7487500025126534,2.835383272769912
1768733915248,129,1,2.10947329190315,2.009947599544542,2.1441348181906887
1768733915252,129,1,1.4284567279595797,1.5783994337006804,1.4666746092537108
1768733915256,128,0,0.831590233088073,0.8186084015571149,0.8733618395744662
1768733915260,128,0,0.3200319258099159,0.3093803635091965,0.3653935746107105
1768733915264,127,-1,-0.1333044926197619,0.0648147262348921,-0.0847764409140588
1768733915268,127,-1,-0.542171132713673,-0.3213919840593982,-0.4914665815709902
1768733915272,126,-2,-0.9099838289497412,-1.08294612223109,-0.8578057790181606
1768733915276,126,-2,-1.2746860272572098,-1.488893892506904,-1.2206290351638986
1768733915280,126,-2,-1.7327248781268965,-1.473849813074421,-1.675615887661868
1768733915284,125,-3,-2.3840431962000617,-2.096277740142606,-2.322954681505613
1768733915288,124,-4,-3.2275358809333414,-3.248667103474376,-3.162308814247549
1768733915292,123,-5,-4.109313791391433,-4.057141751787153,-4.040396297377508
1768733915296,123,-5,-4.791572414810366,-4.588404541781164,-4.7196254595236855
1768733915300,122,-6,-5.1019680406132055,-5.364508856446952,-5.027596717352489
1768733915304,122,-6,-5.045966395670651,-5.230526638429634,-4.969763618629139
1768733915308,123,-5,-4.7847426391660255,-4.13491117573371,-4.707107446506681
1768733915312,123,-5,-4.4962434315146975,-4.103666949915463,-4.41623362070464
1768733915316,123,-5,-4.25218176809158,-4.624859686286211,-4.166897613655748
1768733915320,123,-5,-4.022057057047435,-4.281099477975864,-3.929382200601101
1768733915324,124,-4,-3.764713971927104,-3.4173278779370113,-3.6678839451511336
1768733915328,124,-4,-3.4796491396107925,-2.88117639785686,-3.3870054686535664
1768733915332,124,-4,-3.166325904440304,-3.3618395064545497,-3.083478103948787
1768733915336,124,-4,-2.7361295077790286,-3.381948359969776,-2.6579433793451557
1768733915340,126,-2,-1.907142550517624,-1.5328649926557616,-1.8194236796020355
1768733915344,128,0,-0.0992868137766116,0.7591171730936344,0.009984172897949
1768733915348,131,3,3.53728091358318,4.016115385791568,3.667579167031193
1768733915352,137,9,9.748518903334071,9.732180919789991,9.886430524043607
1768733915356,145,17,18.464549224684724,17.534697667345743,18.59290687206835
1768733915360,155,27,28.187026730935695,27.50492473549668,28.29579994478941
1768733915364,164,36,36.10126926430657,36.67143504230178,36.19305315369621
1768733915368,167,39,39.14945330571773,40.170901849607304,39.23732530692516
1768733915372,164,36,35.55275287312853,36.490677013336274,35.65237157696125
1768733915376,153,25,25.80374190745832,25.8298933722704,25.923952025765384
1768733915380,140,12,12.427428219689746,12.016406125602836,12.565222599090692
1768733915384,125,-3,-1.3460826591728594,-1.760264438336803,-1.2021340925361264
1768733915388,113,-15,-13.093693872516337,-14.32402910899024,-12.954341455250647
1768733915392,106,-22,-21.888019742850556,-21.07462624566948,-21.75701935904508
1768733915396,101,-27,-27.794278931550423,-26.30381977326807,-27.669507579317933
1768733915400,98,-30,-30.74538865135529,-30.405940928154894,-30.622506386440257
1768733915404,98,-30,-29.880038319838363,-27.77110151838815,-29.752160202652284
1768733915408,102,-26,-24.03200507380435,-26.90502203884046,-23.889123425742103
1768733915412,108,-20,-12.982943869691423,-16.90104760346754,-12.820265325312596
1768733915416,137,9,1.7055039025990126,7.125851737398876,1.875981955488752
1768733915420,145,17,17.07976931106141,19.34788714660221,17.234311093727197
1768733915424,155,27,29.97485467105248,26.347701372715825,30.10115733479271
1768733915428,164,36,37.95708905224539,37.914211718254165,38.06817047066699
1768733915432,168,40,39.64797206623967,40.392079902533474,39.76878880431835
1768733915436,163,35,34.82299610868672,35.516488108262614,34.967124220764646
1768733915440,153,25,24.54837975713473,25.40314714549627,24.71057127666667
1768733915444,138,10,11.083039773913722,10.778271768948228,11.249980142887306
1768733915448,124,-4,-2.7484615264207353,-3.05473498961533,-2.585022265278896
1768733915452,112,-16,-14.511052765344772,-15.045411844990335,-14.350746927816616
1768733915456,105,-23,-22.86450332758977,-22.725584800425462,-22.703660901167115
1768733915460,101,-27,-27.596789085175654,-26.444908022701348,-27.434649450722457
1768733915464,99,-29,-29.10674224369582,-28.318682589684595,-28.946138860412074
1768733915468,99,-29,-27.879072902817605,-28.033183495789867,-27.72216061904922
1768733915472,102,-26,-24.391405403863757,-25.107596877834,-24.236416782869227
1768733915476,108,-20,-19.374634535236407,-19.67022014723221,-19.21777091818134
1768733915480,114,-14,-13.957708814580918,-13.423365204729077,-13.797531293931945
1768733915484,119,-9,-9.370916229298214,-8.377824922251435,-9.209525631889802
1768733915488,121,-7,-6.383303931841445,-6.0107920416092036,-6.222918366598818
1768733915492,122,-6,-4.963132388925198,-5.211282219295781,-4.8025306645556896
1768733915496,123,-5,-4.460909578027815,-4.575174473468328,-4.296238160036129
1768733915500,123,-5,-4.145979356218671,-4.437838571764678,-3.975140381919463
1768733915504,124,-4,-3.6511182991789983,-3.379112072035066,-3.4768997516392437
1768733915508,125,-3,-3.023992968464865,-1.9946910406954736,-2.852317325721347
1768733915512,125,-3,-2.4638949451073167,-2.3318330715207143,-2.2985524673752833
1768733915516,125,-3,-2.060901686931715,-2.43695436207944,-1.9000743000055984
1768733915520,126,-2,-1.754936606555636,-1.535723076764952,-1.593169768626001
1768733915524,126,-2,-1.4592607294679183,-1.291478747370403,-1.2926423491935086
1768733915528,126,-2,-1.1582825923898357,-1.0629413375767984,-0.9874959727292006
1768733915532,127,-1,-0.8851691956748469,-0.3751177726109831,-0.7139938883941661
1768733915536,127,-1,-0.6440892269093845,-0.3451927376523676,-0.4755113304234373
1768733915540,127,-1,-0.3898976741300756,-0.6479055291433724,-0.2237371201722029
1768733915544,127,-1,-0.0906097029148096,-0.1188418761941866,0.0752912305881793
1768733915548,128,0,0.2124156812283795,0.7107811947720004,0.3792365419814128
1768733915552,128,0,0.4302366156455106,0.8037842989942987,0.5971376784349054
1768733915556,128,0,0.51196960472584,0.4905448541262881,0.6778658851202028
1768733915560,128,0,0.4946760813129561,0.5028274451855739,0.6599319934833549
1768733915564,128,0,0.4752281006159942,0.7970473507867253,0.6409805544666383
1768733915568,128,0,0.547032442497204,0.7123527923808507,0.7134388858946223
1768733915572,128,0,0.7564123170753376,0.8031851346898389,0.9222749640081244
1768733915576,129,1,1.092136390506503,1.461977230965346,1.2562108345466618
1768733915580,129,1,1.4957527662607777,1.5585506183121876,1.6580109463517922
1768733915584,129,1,1.885390239506103,1.7731664868058044,2.0467283999250165
1768733915588,130,2,2.1945372266775003,2.671699753881078,2.3554408415680608
1768733915592,130,2,2.4135842054749013,2.8443418677253915,2.573724343944177
1768733915596,130,2,2.596891857570276,2.373106742604344,2.7561559114325274
1768733915600,130,2,2.815761270590037,2.7025699140671766,2.974725501113041
1768733915604,131,3,3.101840939387169,3.6320769833143896,3.260595971316145
1768733915608,131,3,3.4433029180626034,3.764525297150593,3.6006193981235737
1768733915612,131,3,3.8255441117179014,3.765976248878587,3.980109528360173
1768733915616,132,4,4.252366511010133,4.368283171407217,4.404508189006063
1768733915620,132,4,4.725159505844982,4.82054050615634,4.8766010251207526
1768733915624,133,5,5.223885601862431,5.421400443293715,5.375775279840894
1768733915628,133,5,5.725450636307738,6.054457799542744,5.877015854176742
1768733915632,134,6,6.233758410799373,6.3515698578147495,6.38305912566934
1768733915636,134,6,6.7714811086636875,6.837138044495831,6.917393134797694
1768733915640,135,7,7.330287999436131,7.337873357535707,7.473588215007261
1768733915644,135,7,7.838155376004903,7.908662867928138,7.980548804563652
1768733915648,136,8,8.200001966257645,8.588480790480268,8.3421768330304
1768733915652,136,8,8.389247238590029,8.7134195227931,8.530206188760296
1768733915656,136,8,8.494425154613948,8.553203905289287,8.632880588228037
1768733915660,136,8,8.652004792603654,8.535606396086763,8.788022362909095
1768733915664,136,8,8.915479923296626,8.82520516605762,9.050137739584718
1768733915668,137,9,9.19374567791892,9.55213321753845,9.32722670070843
1768733915672,137,9,9.330367520079411,9.817702199637548,9.4612372055549
1768733915676,137,9,9.244651988518136,9.35466306139481,9.371621446271066
1768733915680,136,8,8.988921992227194,8.806067516295306,9.112806104708737
1768733915684,136,8,8.676657342125203,8.522394351080914,8.799669896737171
1768733915688,136,8,8.379872226593113,8.83960771748146,8.503045946244558
1768733915692,136,8,8.104756379956484,8.543914168577508,8.226894394134636
1768733915696,135,7,7.836781428535106,7.5601741587438065,7.956003946518986
1768733915700,135,7,7.569526067688514,7.684336317673635,7.684969123394126
1768733915704,135,7,7.281618776661976,7.56566250684184,7.393448804861463
1768733915708,134,6,6.906037634701601,6.835308105351638,7.014762909972244
1768733915712,134,6,6.3420913141638575,6.5073394870951065,6.448375641370834
1768733915716,133,5,5.514025938934161,5.584854021847337,5.61858519468567
1768733915720,132,4,4.439876892538226,4.691499811337606,4.543012585532033
1768733915724,131,3,3.256375266814919,3.508471987084533,3.3577743461008507
1768733915728,129,1,2.161818394300766,1.932369184185052,2.2609727996770888
1768733915732,129,1,1.3001131019770695,1.3396604533046954,1.396636644859563
1768733915736,128,0,0.6728186694111051,0.8007536595483188,0.7662332539116057
1768733915740,128,0,0.1548480152025635,0.4384625768398944,0.2445590265686121
1768733915744,127,-1,-0.4016527620634313,-0.2153986064858346,-0.3157539880945026
1768733915748,126,-2,-1.0658288113050292,-1.358846903336972,-0.98301035843409
1768733915752,126,-2,-1.800945844189734,-1.430257026852915,-1.7202194961737218
1768733915756,125,-3,-2.509311795540877,-2.3548177693999324,-2.4302033688149343
1768733915760,124,-4,-3.1005868885363865,-3.5153567284500387,-3.023288738221124
1768733915764,124,-4,-3.5347252039631507,-3.1195613018214496,-3.459935930700689
1768733915768,124,-4,-3.816310999624059,-3.6115457719714184,-3.7449903290191258
1768733915772,123,-5,-3.95945888575314,-4.082821322720955,-3.8921681162982664
1768733915776,124,-4,-3.970150231847866,-3.7840055549831777,-3.906391235656605
1768733915780,123,-5,-3.8651786280189846,-4.045017113634311,-3.8037696737382634
1768733915784,124,-4,-3.6943735523607857,-3.591589377652954,-3.6347550580847874
1768733915788,124,-4,-3.527327803572302,-3.178077589537162,-3.47028287447935
1768733915792,124,-4,-3.414401077667172,-3.49575797437791,-3.361203806580432
1768733915796,124,-4,-3.366819883380477,-3.431069711782865,-3.317793120477735
1768733915800,124,-4,-3.373624552521366,-3.333006591019712,-3.3278387381728702
1768733915804,124,-4,-3.4227120785705223,-3.368183107937553,-3.379052554976296
1768733915808,124,-4,-3.4914987339935037,-3.357805822409392,-3.4497141262424793
1768733915812,124,-4,-3.52169589563877,-3.371823712155921,-3.482342362634594
1768733915816,124,-4,-3.4246010085811673,-3.545411041649756,-3.388277040753105
1768733915820,124,-4,-3.1342270779055137,-3.2147635382467574,-3.1011669934173547
1768733915824,125,-3,-2.668157478210566,-2.5020718989141035,-2.638484276193892
1768733915828,125,-3,-2.1375218966414975,-2.210618745577366,-2.1115159460781037
1768733915832,126,-2,-1.689621017457606,-1.5631253442317534,-1.6675031794980255
1768733915836,126,-2,-1.4239107796662338,-1.3307138443386293,-1.4053974627969752
1768733915840,126,-2,-1.3408495346669609,-1.471101175247739,-1.3250263521788683
1768733915844,126,-2,-1.3544226821513348,-1.2047648341096755,-1.3402135247195666
1768733915848,126,-2,-1.351643606993702,-1.5569586269936162,-1.338690158648132
1768733915852,126,-2,-1.2536661776301008,-1.2018370041186373,-1.2429100970715772
1768733915856,127,-1,-1.0443175541232097,-0.7087631591867318,-1.0374675424333089
1768733915860,126,-2,-0.7674082398940635,-1.1036472925375904,-0.7654769049447998
1768733915864,127,-1,-0.5112452218587238,-0.547576277853327,-0.5136558414491115
1768733915868,127,-1,-0.3808970607861701,-0.2635012964967367,-0.3862075184168227
1768733915872,127,-1,-0.4481874433971521,-0.4666332620245512,-0.4554758604531286
1768733915876,127,-1,-0.6996888099954426,-0.4994674104053325,-0.7089752379178886
1768733915880,126,-2,-1.0313334028907877,-1.257161658263446,-1.0429612049448715
1768733915884,126,-2,-1.308674272611053,-1.4626766453950644,-1.322860668015103
1768733915888,126,-2,-1.4485111872975929,-1.2920621957490728,-1.4655561825658638
1768733915892,126,-2,-1.456404283166095,-1.509297135036547,-1.4768145083881647
1768733915896,126,-2,-1.3994162967170165,-1.4159463696668542,-1.4234781014500977
1768733915900,126,-2,-1.3486191333704074,-1.3614825162306905,-1.3760271425100217
1768733915904,126,-2,-1.337306578858834,-1.3724945468966487,-1.3674185124508202
1768733915908,126,-2,-1.355710600015178,-1.371197317778218,-1.3880833221307844
1768733915912,126,-2,-1.37481674159727,-1.471879612074821,-1.409421874454741
1768733915916,126,-2,-1.3761399742056248,-1.42661571953308,-1.41321047680259
1768733915920,126,-2,-1.3642242840906835,-1.371848071117085,-1.40403552001462
1768733915924,126,-2,-1.3551423352526146,-1.3611377792458792,-1.3978616610918462
1768733915928,126,-2,-1.3564382645724946,-1.393741817884259,-1.4020261336572415
1768733915932,126,-2,-1.360484918556443,-1.4663152837047422,-1.4087306982792298
1768733915936,126,-2,-1.356435204364087,-1.4281011140192932,-1.407182100162225
1768733915940,126,-2,-1.344819704308566,-1.3762095448721452,-1.398138283171961
1768733915944,126,-2,-1.3376138045319803,-1.3628711968025442,-1.3936190942277715
1768733915948,126,-2,-1.3447287803122796,-1.400283842100588,-1.4032080283405417
1768733915952,126,-2,-1.3621636056835047,-1.475709129030206,-1.422597551669529
1768733915956,126,-2,-1.3727585514743454,-1.419640697221472,-1.4349139782287357
1768733915960,126,-2,-1.3580103629103817,-1.383677020388541,-1.4224044220958694
1768733915964,126,-2,-1.314614651271965,-1.3706477285917824,-1.3820785476918185
1768733915968,126,-2,-1.2695436527946131,-1.385926890795501,-1.3402467449239417
1768733915972,126,-2,-1.2812276036466104,-1.5252024072944692,-1.354416653082054
1768733915976,126,-2,-1.410855245844066,-1.349641171947574,-1.4857146533736527
1768733915980,126,-2,-1.6703753067013305,-1.4771817913780314,-1.7468227269016952
1768733915984,125,-3,-1.9918141672407488,-2.2656713957487424,-2.0701851690297763
1768733915988,125,-3,-2.2608880621315404,-2.5123944960968156,-2.3412129366067655
1768733915992,125,-3,-2.396144366850122,-2.408519936916099,-2.478217687623845
1768733915996,125,-3,-2.401747931304417,-2.466340575008104,-2.485731523689653
1768733916000,125,-3,-2.3478694328070313,-2.3660416250880414,-2.434321536521769
1768733916004,125,-3,-2.305894712837042,-2.3646756292952875,-2.395088193513478
1768733916008,125,-3,-2.301289826171663,-2.451567780321669,-2.392726881853241
1768733916012,125,-3,-2.317005104187698,-2.4605048348358554,-2.4097677144526672
1768733916016,125,-3,-2.3282699541643064,-2.440942307344284,-2.4218598478167057
1768733916020,125,-3,-2.3280641433072633,-2.3677211359451897,-2.422846863885589
1768733916024,125,-3,-2.324091646362337,-2.376585701282683,-2.4208601546400508
1768733916028,125,-3,-2.3222353393182127,-2.451310167312623,-2.421341947614893
1768733916032,125,-3,-2.320421731862967,-2.476627132014883,-2.421416506356915
1768733916036,125,-3,-2.3164174889745768,-2.4323085648187663,-2.418577519659419
1768733916040,125,-3,-2.3137548045846743,-2.3662330126364974,-2.4168679624546856
1768733916044,125,-3,-2.31610498183923,-2.3828421266908357,-2.4205921478683057
1768733916048,125,-3,-2.3198638200072494,-2.4587038976771067,-2.4261440324093844
1768733916052,125,-3,-2.318101401001018,-2.487512376079978,-2.42601257751706
1768733916056,125,-3,-2.311487144463767,-2.426405364337486,-2.420448458476319
1768733916060,125,-3,-2.3094521896861435,-2.364399158015606,-2.419106381782804
1768733916064,125,-3,-2.3172118113201634,-2.3867729351377105,-2.427750935089193
1768733916068,125,-3,-2.3254362716166668,-2.468013914148792,-2.4372985139448056
1768733916072,125,-3,-2.3190783743495675,-2.4991873896280508,-2.432461459922067
1768733916076,125,-3,-2.297845818560791,-2.4182522508594855,-2.412551275374509
1768733916080,125,-3,-2.2833571674051707,-2.3652457719655726,-2.3989724441332823
1768733916084,125,-3,-2.3002659233148792,-2.388084902469088,-2.416418396986193
1768733916088,125,-3,-2.346796560296089,-2.474967427098464,-2.4633646206210154
1768733916092,125,-3,-2.3827565785823275,-2.52391453251912,-2.4999602298477743
1768733916096,125,-3,-2.349265013222518,-2.382822572263263,-2.467428840466238
1768733916100,125,-3,-2.2091148404430685,-2.4135654644379554,-2.328218470071701
1768733916104,125,-3,-1.977307869732801,-2.311672768891361,-2.0969665467929763
1768733916108,126,-2,-1.7110830510276065,-1.598861354167027,-1.8311332781206175
1768733916112,126,-2,-1.4598469372784284,-1.378616633610712,-1.5806314652231683
1768733916116,126,-2,-1.2201454404030747,-1.5842781128258787,-1.341910343477775
1768733916120,126,-2,-0.9430834366815772,-1.1491387346896618,-1.0653800745075384
1768733916124,127,-1,-0.5845612464079621,-0.6324281784418133,-0.7066189137845871
1768733916128,127,-1,-0.1417160591821922,-0.2452113516087588,-0.2632944765390786
1768733916132,128,0,0.3583668262488249,0.2220276717185441,0.2367022008201604
1768733916136,128,0,0.8952036595705954,0.8192560725863873,0.7726426714696037
1768733916140,129,1,1.471375577707326,1.463650962291429,1.347760770329623
1768733916144,129,1,2.089078099471478,1.7204056679675106,1.96528824619195
1768733916148,130,2,2.712300386512412,2.436731569984687,2.589451949046685
1768733916152,131,3,3.262453086696844,3.4670552941516006,3.140560799913557
1768733916156,131,3,3.6610855311698898,3.631065820300078,3.538935284372719
1768733916160,131,3,3.8722747333674983,3.5981389494415073,3.74893594426071
1768733916164,131,3,3.892997839900465,3.6291924776183384,3.769031729839323
1768733916168,131,3,3.7101361271935063,3.482272823813791,3.586834227288625
1768733916172,131,3,3.292655597321456,3.4112069403984746,3.1704110665073113
1768733916176,130,2,2.6416547372085044,2.7124566978831983,2.5197529074373186
1768733916180,129,1,1.838317512706186,1.4732483750975691,1.716299059739707
1768733916184,128,0,1.0233358150954657,0.807289900670408,0.901830527370427
1768733916188,128,0,0.3206199643646241,0.229947145191227,0.2004550160860099
1768733916192,127,-1,-0.2213821777690279,-0.3098268295544917,-0.340431338404505
1768733916196,127,-1,-0.6270230824207621,-0.56942670757438,-0.7460448672313427
1768733916200,126,-2,-0.9546707001433584,-1.257986980615357,-1.0742888261335666
1768733916204,126,-2,-1.267934981458105,-1.4335418337870114,-1.3876195947381436
1768733916208,126,-2,-1.6273154175530926,-1.6023754841376618,-1.7461395276368474
1768733916212,125,-3,-2.0807372328032496,-2.4302815138121208,-2.198506630803112
1768733916216,125,-3,-2.641632470450454,-2.5033813288896085,-2.7588789542427383
1768733916220,124,-4,-3.273041218060267,-3.253439197877134,-3.3898161312336788
1768733916224,123,-5,-3.9017404039996753,-4.519200265143098,-4.016948612322407
1768733916228,123,-5,-4.453772002377455,-4.471657470209881,-4.566475991921797
1768733916232,123,-5,-4.8736927022247,-4.625625911657386,-4.984943557942944
1768733916236,122,-6,-5.116887834837215,-5.259680867012126,-5.229143964773571
1768733916240,122,-6,-5.153374397049516,-5.507110129134253,-5.267519015291521
1768733916244,122,-6,-5.003667281235611,-5.282744186320579,-5.11719929949333
1768733916248,123,-5,-4.758056857751679,-4.714140746266827,-4.866984094078282
1768733916252,123,-5,-4.526566679756111,-4.42528289050451,-4.629392009795897
1768733916256,123,-5,-4.35379977708949,-4.3928439916852575,-4.453893518927587
1768733916260,123,-5,-4.1917141448645765,-4.443453272526381,-4.295769737561091
1768733916264,123,-5,-3.960604287514624,-4.276314940542518,-4.0737115373710235
1768733916268,124,-4,-3.6075554891812938,-3.847460056742371,-3.728037480294303
1768733916272,124,-4,-3.037768935744131,-3.18997612567438,-3.156187697245753
1768733916276,126,-2,-1.9142677738277971,-1.7027422843697702,-2.018940873483958
1768733916280,128,0,0.4862362129158262,0.9442784596234302,0.4004224381442021
1768733916284,133,5,5.086666045757829,5.274049896276862,5.01352886163198
1768733916288,139,11,12.38685647744196,11.591806360839964,12.312737943843755
1768733916292,148,20,21.69440851627388,20.393891740422347,21.607108178631695
1768733916296,158,30,30.81930032642916,30.68692784760723,30.71475797316708
1768733916300,165,37,36.7015399633252,37.62151695544276,36.58469609272314
1768733916304,165,37,36.7951832463706,37.481659456159576,36.676621997197856
1768733916308,158,30,30.381018674355644,30.39550478986336,30.271912288183536
1768733916312,146,18,18.938370655556632,18.48802894356901,18.845445777419872
1768733916316,132,4,5.353879566312678,4.642099164685556,5.276637131153681
1768733916320,119,-9,-7.45683257792979,-8.297897592366132,-7.52498719376484
1768733916324,110,-18,-17.614193882862708,-17.583102230133377,-17.682031452541747
1768733916328,104,-24,-24.47508792971005,-23.496292335293013,-24.549419344915535
1768733916332,100,-28,-28.12355062544745,-27.69511716526829,-28.206379323079588
1768733916336,98,-30,-28.793036837616174,-29.117748525180875,-28.88086836475515
1768733916340,100,-28,-26.74056903722815,-27.57719891504474,-26.8269190387333
1768733916344,104,-24,-22.526217981497272,-23.284426227427016,-22.60655577060408
1768733916348,111,-17,-17.216256514745552,-16.80107650278052,-17.291469846529584
1768733916352,116,-12,-12.140043341902883,-11.443744191473796,-12.214735171724517
1768733916356,119,-9,-8.325651356565311,-8.324976248274492,-8.40272619356011
1768733916360,121,-7,-6.078947665492733,-6.454581703184979,-6.156330912448726
1768733916364,122,-6,-5.030878493246514,-5.3555360326339105,-5.103804832213289
1768733916368,123,-5,-4.556646900535748,-4.809343408132769,-4.622541518005847
1768733916372,123,-5,-4.20065773471854,-4.371424645380863,-4.261309409478573
1768733916376,124,-4,-3.8217040219080336,-3.420508919754273,-3.88118671144268
1768733916380,124,-4,-3.4575909056768896,-3.3405386761050604,-3.5188068171677527
1768733916384,124,-4,-3.1243736743152044,-3.5019416235104295,-3.187577510729134
1768733916388,125,-3,-2.754365587153128,-2.6755433541765266,-2.8181196882073323
1768733916392,125,-3,-2.2965261418806,-2.507988479488513,-2.359052719142059
1768733916396,125,-3,-1.8391820237998369,-2.261349972643237,-1.898900075125183
1768733916400,126,-2,-1.5985589126429545,-1.5130901026676962,-1.654652550192273
1768733916404,126,-2,-1.7443124757211406,-1.3342251558994491,-1.7975280389403006
1768733916408,126,-2,-2.206411905950647,-1.889705646084812,-2.258485534265733
1768733916412,124,-4,-2.6687826599725675,-3.2644305840227497,-2.72039408421295
1768733916416,124,-4,-2.799178080028799,-3.520367820185784,-2.8492020641632254
1768733916420,125,-3,-2.51478534572834,-2.2396358961529113,-2.5622194683125503
1768733916424,126,-2,-2.0240363151152274,-1.6138136254098736,-2.069827167185718
1768733916428,126,-2,-1.6109208984165164,-1.6507363707319438,-1.656898175237823
1768733916432,126,-2,-1.3856974517700509,-1.4584796999921277,-1.43210732522974
1768733916436,126,-2,-1.232204101697972,-1.3888469801461003,-1.27718133893175
1768733916440,126,-2,-0.9649480334139102,-1.327034798555589,-1.0065042875172172
1768733916444,127,-1,-0.5180010539346045,-0.5662738055985129,-0.5561566145389062
1768733916448,128,0,0.0092755884062512,0.3128653708391327,-0.0274684596549722
1768733916452,128,0,0.4647859095930426,0.583953340801291,0.4276732210455151
1768733916456,128,0,0.780520994374517,0.5390662190679884,0.7433633737321299
1768733916460,128,0,1.0021796037203043,0.7604757587120012,0.9667455729136568
1768733916464,129,1,1.2096464302358818,1.308841144435788,1.1767692978008888
1768733916468,129,1,1.4273055114349864,1.4595662038009825,1.3958856146835366
1768733916472,129,1,1.6039394700880216,1.4342517796607126,1.5725430900634576
1768733916476,129,1,1.6634932779628262,1.6745415815740332,1.632301363594422
1768733916480,129,1,1.580665769271176,1.629413798207635,1.5512860706955065
1768733916484,129,1,1.4296868522831403,1.396567765719693,1.4032445293179212
1768733916488,129,1,1.3672032141577977,1.4123226252561931,1.3431004986540929
1768733916492,129,1,1.5436819481632795,1.4521617642993414,1.520329172913979
1768733916496,129,1,1.992777093056977,1.6762260128282185,1.9691808020168415
1768733916500,130,2,2.5863079052168887,2.598640343120968,2.5626404031632224
1768733916504,131,3,3.111066008950114,3.420515028179946,3.087961925949136
1768733916508,131,3,3.423055351398987,3.397207310760921,3.4009489873905308
1768733916512,131,3,3.5533615714065485,3.4588177455862668,3.5326299182635794
1768733916516,131,3,3.67267123143811,3.666535043833175,3.6539219038540662
1768733916520,131,3,3.947317187796114,3.590036343957017,3.930965099993422
1768733916524,132,4,4.415166112006187,4.411820613459202,4.400559219899881
1768733916528,133,5,4.983097432510756,5.446231561445078,4.968469742016373
1768733916532,133,5,5.527639092066042,5.369980076472862,5.511546101253248
1768733916536,133,5,5.989144707526183,5.78604213614611,5.9720309689915485
1768733916540,134,6,6.38121485800668,6.414692478935221,6.365164253034826
1768733916544,134,6,6.741185692108924,6.589417886225106,6.72798564296744
1768733916548,135,7,7.095125052153243,7.297460392246069,7.084729247694087
1768733916552,135,7,7.4635940084762,7.491207704004841,7.454389982699457
1768733916556,135,7,7.872832520462305,7.6976067769214,7.863109130601504
1768733916560,136,8,8.335715882090044,8.42431781172077,8.324858302184827
1768733916564,136,8,8.816108671882837,8.627929747618833,8.80473296858596
1768733916568,137,9,9.224090091857136,9.217551948414014,9.213311930744322
1768733916572,137,9,9.468215390983078,9.634137746086788,9.458738699095928
1768733916576,137,9,9.533735216403937,9.491780746319613,9.525497275051496
1768733916580,137,9,9.516994920262754,9.636089853190413,9.509625837066933
1768733916584,137,9,9.570443108330924,9.392096127753495,9.56388426554015
1768733916588,137,9,9.790363250753408,9.46708993074398,9.78468885457613
1768733916592,138,10,10.140420901976716,10.408611564089972,10.135045120347993
1768733916596,138,10,10.477764322855888,10.69198545902084,10.471433582808023
1768733916600,138,10,10.65183273039402,10.416880804721773,10.64391026495171
1768733916604,138,10,10.584829910681798,10.597972168959153,10.576331123019106
1768733916608,138,10,10.28175331243902,10.271056739470335,10.27459502835078
1768733916612,137,9,9.795189632669157,9.605973556712843,9.790336472468786
1768733916616,137,9,9.19300238143192,9.50747695337748,9.18957356638499
1768733916620,136,8,8.54080233201951,8.5479280733577,8.537065060867189
1768733916624,135,7,7.880590872666043,7.488572481822769,7.8755691583306735
1768733916628,135,7,7.204705423869299,7.356561783929462,7.198610369945257
1768733916632,134,6,6.456647219349364,6.56199765166137,6.450121559388462
1768733916636,133,5,5.57624164631179,5.512507388127311,5.569768628315859
1768733916640,132,4,4.556864555302509,4.557531719922656,4.550794181055951
1768733916644,131,3,3.466251541070377,3.421487247614294,3.4607939907926717
1768733916648,130,2,2.416525056836247,2.474654497946579,2.4115248245817424
1768733916652,129,1,1.5073140774474512,1.411091450645917,1.5022741313122965
1768733916656,128,0,0.7783862396259416,0.7056173043605534,0.7728253397439347
1768733916660,128,0,0.1995154156254743,0.2986339080723045,0.1932454070303525
1768733916664,127,-1,-0.2984180206431963,-0.2937999149440615,-0.3053195251928369
1768733916668,127,-1,-0.7757124430067841,-0.8391358542856755,-0.7831094939186678
1768733916672,126,-2,-1.2541196183157304,-1.2417199220480803,-1.261965276397262
1768733916676,126,-2,-1.7213105464966496,-1.6509592923661298,-1.729552967519015
1768733916680,125,-3,-2.15747606104759,-2.3852186168190315,-2.165887884089102
1768733916684,125,-3,-2.555722197722234,-2.583840815800799,-2.564042598470403
1768733916688,125,-3,-2.9156275498621813,-2.601381262110235,-2.9238993797256287
1768733916692,124,-4,-3.220796414363021,-3.396642067186403,-3.229372426754341
1768733916696,124,-4,-3.4351717486356637,-3.576682030589242,-3.4444383692224205
1768733916700,124,-4,-3.5324973754268787,-3.409687670154254,-3.542766492540044
1768733916704,124,-4,-3.5305103996478713,-3.635355240701984,-3.541983248066793
1768733916708,124,-4,-3.49207725179635,-3.503435345329281,-3.5046233346150695
1768733916712,124,-4,-3.485749425030212,-3.488138475234492,-3.4988465109701856
1768733916716,124,-4,-3.531426019887062,-3.5187201531733887,-3.544558712148175
1768733916720,124,-4,-3.571526956702948,-3.438604245269685,-3.5845816579029273
1768733916724,124,-4,-3.4981594933691733,-3.690748818209423,-3.511341050375236
1768733916728,124,-4,-3.2280562306297784,-3.368341959999587,-3.241636853768169
1768733916732,125,-3,-2.77177865613153,-2.668765577071759,-2.786147467643687
1768733916736,125,-3,-2.2395539149056303,-2.300685435073235,-2.255339771417292
1768733916740,126,-2,-1.7776736049365665,-1.7032190494621549,-1.7954340567235152
1768733916744,126,-2,-1.4874672151099988,-1.437371140116792,-1.507053979381734
1768733916748,126,-2,-1.3861308335029463,-1.606015615373068,-1.4064754962724204
1768733916752,126,-2,-1.4235119720816305,-1.446888008261097,-1.4433490949511631
1768733916756,126,-2,-1.52121666718619,-1.4818767612905104,-1.5402300367906565
1768733916760,126,-2,-1.5977327956783824,-1.6022083169485362,-1.616898091830257
1768733916764,126,-2,-1.5798565628992491,-1.4835428631900092,-1.600475350581764
1768733916768,126,-2,-1.4236447967334038,-1.6216045430349042,-1.4461207869457589
1768733916772,126,-2,-1.1450241796480656,-1.3640318325941263,-1.1688294731852484
1768733916776,127,-1,-0.825151027298852,-0.6069970152578138,-0.8498789886679468
1768733916780,127,-1,-0.5667811145833668,-0.4779132504401251,-0.5926914255950622
1768733916784,127,-1,-0.431695199204215,-0.6233401367788228,-0.4590105916858535
1768733916788,127,-1,-0.4137963463685646,-0.4900284870772674,-0.4419614081637371
1768733916792,127,-1,-0.4621601559498995,-0.468992027796497,-0.4902670084683745
1768733916796,127,-1,-0.5197419924381612,-0.5295999697065008,-0.5475602938010097
1768733916800,127,-1,-0.545681972880781,-0.5453786465282716,-0.5739934591384517
1768733916804,127,-1,-0.5221684722822468,-0.5883953593578584,-0.5521053070106521
1768733916808,127,-1,-0.4602594240676984,-0.5119723498703047,-0.492385218952714
1768733916812,127,-1,-0.4046309024274379,-0.4399793302502963,-0.4385706414743875
1768733916816,127,-1,-0.4222459524723172,-0.5728458485937233,-0.4571199470588059
1768733916820,127,-1,-0.5662337182394741,-0.4991112416243914,-0.6014431836160692
1768733916824,127,-1,-0.8324431181204595,-0.6679831839020116,-0.8679956007818164
1768733916828,126,-2,-1.147101010415824,-1.4122501810873969,-1.1832573491679663
1768733916832,126,-2,-1.4071163032950125,-1.5503986463641055,-1.4440559760231912
1768733916836,126,-2,-1.5449186144542495,-1.4507506042739085,-1.582873901397713
1768733916840,126,-2,-1.5633524305809894,-1.644522482572766,-1.602681512053438
1768733916844,126,-2,-1.5172948087034914,-1.5303272335481857,-1.5580903718057546
1768733916848,126,-2,-1.4674692911643703,-1.5351692444199527,-1.509276313789632
1768733916852,126,-2,-1.446089932906602,-1.460529808158153,-1.4883190818100418
1768733916856,126,-2,-1.45401082592616,-1.485534332744164,-1.4966663794810628
1768733916860,126,-2,-1.4829297640030423,-1.7022952192246712,-1.5267782774665712
1768733916864,126,-2,-1.5401499368523828,-1.3912425947518705,-1.5859701975989182
1768733916868,126,-2,-1.6537434589973643,-1.760567633533238,-1.7013103595902823
1768733916872,125,-3,-1.8505861208306111,-2.161194566528777,-1.8986247814200423
1768733916876,126,-2,-2.1176603105977803,-1.833028638404444,-2.165106352532822
1768733916880,125,-3,-2.374546136241843,-2.35628429335769,-2.421698818850765
1768733916884,125,-3,-2.4952713285938257,-2.7244962151022176,-2.5433787448475353
1768733916888,125,-3,-2.3907450432260093,-2.477086476199416,-2.4406271466704577
1768733916892,125,-3,-2.097168334490493,-2.3618336936586193,-2.148684446502337
1768733916896,126,-2,-1.7817677460810526,-1.7382256668188634,-1.834574567033335
1768733916900,126,-2,-1.637218378963988,-1.3487985320885072,-1.6914032367839271
1768733916904,126,-2,-1.7451614766099086,-1.8451703152881416,-1.8006477204722775
1768733916908,125,-3,-2.0296244970343276,-2.2890832793861344,-2.085349098236448
1768733916912,125,-3,-2.3372721870191495,-2.5688118993947637,-2.3918727841148324
1768733916916,125,-3,-2.5588276982872875,-2.579823610286703,-2.612444457135484
1768733916920,125,-3,-2.6812147815695924,-2.406697667551471,-2.7359452976958893
1768733916924,125,-3,-2.751223554603343,-2.932480805165834,-2.8091363377342593
1768733916928,124,-4,-2.818144731511385,-3.0569738190895497,-2.879005623542169
1768733916932,125,-3,-2.90951222540457,-2.9344472090285385,-2.970950954573142
1768733916936,124,-4,-3.028669231676609,-3.1386050383209083,-3.088548309763904
1768733916940,125,-3,-3.1472259185386675,-2.872941719547044,-3.205519818619387
1768733916944,124,-4,-3.205496107333476,-3.4958459750710698,-3.263990312002349
1768733916948,124,-4,-3.1491851418849723,-3.4334829753551013,-3.2097950261931136
1768733916952,125,-3,-2.987569101177261,-2.6559336659636985,-3.050887740871043
1768733916956,124,-4,-2.81701718011818,-3.320682554652977,-2.881967673039724
1768733916960,125,-3,-2.7711533560904167,-2.791482694415361,-2.8359243902393043
1768733916964,125,-3,-2.919656893809539,-2.4796731700076133,-2.9832531208363267
1768733916968,124,-4,-3.1924889755351864,-3.550139997689159,-3.255422508161771
1768733916972,124,-4,-3.4076792647460463,-3.477815678550495,-3.4711265879822815
1768733916976,124,-4,-3.4030658474476594,-3.545791567748466,-3.4675965860415205
1768733916980,124,-4,-3.169182491060736,-3.5466238339606497,-3.234542332288561
1768733916984,125,-3,-2.860636107343786,-2.7206940067361756,-2.9266062027418585
1768733916988,125,-3,-2.665405709102983,-2.3200416312857572,-2.732275259331333
1768733916992,125,-3,-2.6482792980643506,-2.723928171057903,-2.716044250579701
1768733916996,124,-4,-2.715958744885619,-3.2931632552181274,-2.7835855417366995
1768733917000,125,-3,-2.7285086782472545,-2.8243391795677626,-2.794909170010423
1768733917004,125,-3,-2.6334525426523916,-2.418963406094463,-2.699081627624526
1768733917008,125,-3,-2.4942654609664405,-2.627811549102229,-2.560861283576039
1768733917012,125,-3,-2.411719416253245,-2.4367508995884424,-2.4802821621254663
1768733917016,125,-3,-2.431492082519493,-2.551840756210672,-2.501132892291806
1768733917020,125,-3,-2.511635384863169,-2.645391563990545,-2.580639833598821
1768733917024,125,-3,-2.553845529389222,-2.499494736230389,-2.6214444135363437
1768733917028,125,-3,-2.462725440127743,-2.649045263351626,-2.5295682338330705
1768733917032,125,-3,-2.195708170575635,-2.3150247519660283,-2.262907749030787
1768733917036,126,-2,-1.7784659975872965,-1.778264629323858,-1.846544349593836
1768733917040,126,-2,-1.2790660181060869,-1.357592855961992,-1.347769013059501
1768733917044,127,-1,-0.759438587776277,-0.8283393606566282,-0.8282484257375559
1768733917048,127,-1,-0.2393314350804987,-0.2946408702003864,-0.3079182686433035
1768733917052,128,0,0.300987444118403,0.321008604391253,0.2328163120546765
1768733917056,128,0,0.8832265160569004,0.560585747518373,0.8156974420093747
1768733917060,129,1,1.4935974344747214,1.314616345818212,1.4267083022163385
1768733917064,130,2,2.082433775570711,2.4824430365467296,2.015705719075348
1768733917068,130,2,2.59714976876416,2.423527635074509,2.53016726352796
1768733917072,130,2,3.004415021044899,2.570260295867346,2.9374446496525493
1768733917076,131,3,3.2787470154890026,3.3226848577880426,3.212195705417379
1768733917080,131,3,3.3879388154706467,3.5140812780258908,3.3214943132260473
1768733917084,131,3,3.304154602358761,3.314776954793005,3.2373631940048044
1768733917088,130,2,3.0233005353854043,2.585391676594737,2.9567726079128427
1768733917092,130,2,2.571109311293669,2.4011496423307164,2.506029049176311
1768733917096,130,2,2.0079949898612512,2.4776242048628694,1.9444191142858684
1768733917100,129,1,1.4346357246988135,1.347429860128327,1.371427828538084
1768733917104,128,0,0.9612220015553798,0.4917515034933818,0.8978526580151762
1768733917108,128,0,0.6327257108142981,0.4305916653234045,0.5699480287682284
1768733917112,128,0,0.3820557346089189,0.5109695092734701,0.3203767902381862
1768733917116,128,0,0.0774495417350725,0.3969110194189135,0.016075458805444
1768733917120,127,-1,-0.3786720130649839,-0.6241858745813575,-0.4406254673511784
1768733917124,126,-2,-1.0021136238107138,-1.4789311449225322,-1.064205664879232
1768733917128,126,-2,-1.7576941098220602,-1.648070107826841,-1.8187801144140083
1768733917132,125,-3,-2.600086460403814,-2.3823918376481332,-2.659724905979981
1768733917136,124,-4,-3.471436297885365,-3.7490905047207423,-3.529849696558742
1768733917140,123,-5,-4.280014795574166,-4.457710781670443,-4.337129230628752
1768733917144,123,-5,-4.905667663784011,-4.646724676382156,-4.9611027517630815
1768733917148,122,-6,-5.239750756193114,-5.491679368494005,-5.293796924841273
1768733917152,122,-6,-5.235909756698573,-5.532352173305543,-5.2899759505667685
1768733917156,123,-5,-4.941443192480086,-4.616453948440145,-4.996945183369455
1768733917160,123,-5,-4.488898630586759,-4.590966735786703,-4.545213009101191
1768733917164,123,-5,-4.050312958147266,-4.495564887606177,-4.104214074676131
1768733917168,124,-4,-3.7702695661950423,-3.680617805439891,-3.818723222014897
1768733917172,124,-4,-3.6976352567375503,-3.3091340026752483,-3.7418089650463497
1768733917176,124,-4,-3.7556809293203903,-3.9014607859541424,-3.8013970942022617
1768733917180,123,-5,-3.7899688706757098,-4.25029891002179,-3.843119737589328
1768733917184,124,-4,-3.65322620893816,-3.876567360400521,-3.714100661370575
1768733917188,124,-4,-3.200941371581737,-3.2865107938571847,-3.262524541950328
1768733917192,126,-2,-2.1350282161205794,-1.6987675052880642,-2.186865627090903
1768733917196,128,0,0.1610815831553171,0.4579424904665931,0.1259395345927401
1768733917200,132,4,4.519557806434352,4.438190604433679,4.499149523980109
1768733917204,139,11,11.475638720759289,11.379668407879418,11.459194817433827
1768733917208,147,19,20.5594642042904,19.516978789694495,20.53342770019162
1768733917212,157,29,29.90696839394972,29.42970117962576,29.863018709105184
1768733917216,165,37,36.65022275119924,37.4023327379247,36.59007786889968
1768733917220,166,38,38.07499029887417,38.39562747276125,38.00926523089771
1768733917224,161,33,32.94737627050374,33.45479435877545,32.889480334251935
1768733917228,150,22,22.192229493121808,22.349487269561088,22.151131256844614
1768733917232,135,7,8.476380151678857,7.612895402369364,8.452686369832307
1768733917236,122,-6,-5.041391451572334,-5.769161133578345,-5.0543053612152065
1768733917240,111,-17,-16.00106494134719,-16.3771464369004,-16.012824720039827
1768733917244,105,-23,-23.42122840479596,-22.76062742117242,-23.439876215229976
1768733917248,101,-27,-27.39990676520842,-26.406330729852108,-27.428323043161193
1768733917252,99,-29,-28.418399461375007,-28.677005094675287,-28.453003941822715
1768733917256,100,-28,-26.90201558926967,-27.46949732086729,-26.93543880003864
1768733917260,104,-24,-23.286705172416077,-23.68023490528094,-23.313539949085047
1768733917264,109,-19,-18.304930594839256,-18.470985514812185,-18.325833514480337
1768733917268,115,-13,-13.047044673713405,-12.665855369098615,-13.067196360802749
1768733917272,119,-9,-8.64247098284405,-8.46746251024664,-8.665995640423262
1768733917276,122,-6,-5.78967046091211,-5.6884347776540665,-5.815523008267047
1768733917280,123,-5,-4.49584130571917,-4.473007313535109,-4.518728746692484
1768733917284,123,-5,-4.206540392123353,-4.703696634979036,-4.221590148645077
1768733917288,123,-5,-4.206927567022827,-4.384434126769112,-4.213955977474351
1768733917292,124,-4,-4.005918712047349,-3.7845515643176,-4.009811077618961
1768733917296,124,-4,-3.483489526044991,-3.3475483285502357,-3.490328015248999
1768733917300,125,-3,-2.7937742646425883,-2.8304843443578447,-2.8059989834137204
1768733917304,125,-3,-2.1696753303471787,-2.3545461825034995,-2.1846014664564057
1768733917308,126,-2,-1.7676428225003802,-1.708816724311096,-1.7803790348337474
1768733917312,126,-2,-1.6024795787283332,-1.5055561317261683,-1.609962521465867
1768733917316,126,-2,-1.5649626748325431,-1.5816177009960468,-1.567414771517403
1768733917320,126,-2,-1.4995849677981596,-1.658619455894304,-1.4991760072876512
1768733917324,126,-2,-1.2997057379962236,-1.4734775638997708,-1.2987172407384393
1768733917328,127,-1,-0.9603505265094276,-0.6350163885685867,-0.9601537022237974
1768733917332,127,-1,-0.5583173498059328,-0.5449574477308028,-0.5588288704937141
1768733917336,127,-1,-0.1879463473256888,-0.5655090732286826,-0.1876299313567677
1768733917340,128,0,0.0976504556034831,0.3164742014012249,0.1006730810265951
1768733917344,128,0,0.3129721925248792,0.5636787371294145,0.3194734339755941
1768733917348,128,0,0.5240263345623686,0.2946525384718841,0.5333288048525724
1768733917352,128,0,0.7904555921977519,0.5731968499279649,0.8010666920750186
1768733917356,129,1,1.1027771683280865,1.2647381966027766,1.1130492032860813
1768733917360,129,1,1.3742653616985043,1.5112897202186115,1.3832350621084746
1768733917364,129,1,1.5038113300314608,1.3530733119143188,1.512394590686808
1768733917368,129,1,1.4613641786621547,1.4932861066535188,1.4725157310083044
1768733917372,129,1,1.3344292495279748,1.4184063982990678,1.3510717888268662
1768733917376,129,1,1.3049683601018174,1.3301314221770786,1.327095063963566
1768733917380,129,1,1.5576619554375817,1.557004875943133,1.5816312091384428
1768733917384,130,2,2.150343578136922,2.162748513574152,2.1717050495755497
1768733917388,130,2,2.9152783398793063,2.8481326214487988,2.9327933167642497
1768733917392,131,3,3.4818301100880364,2.9038034132978647,3.4984675012658526
1768733917396,131,3,3.4684539558866203,3.9649345965187015,3.4881758916391843
1768733917400,132,4,2.760285577996417,3.831211751891815,2.7845694996789447
1768733917404,128,0,1.652970604810729,0.9098040701745757,1.68093828045303
1768733917408,128,0,0.6901340538865544,0.1303014915248244,0.720689272037642
1768733917412,128,0,0.2902162466570186,0.5476513913524208,0.3225264607536313
1768733917416,128,0,0.4777483840921401,0.4123009330426057,0.5103643487807048
1768733917420,129,1,0.9385349825665816,1.2937025270190157,0.9697874639650884
1768733917424,129,1,1.315458546962376,1.55049124339086,1.3451582189299875
1768733917428,129,1,1.4732193633996389,1.3797941050343128,1.503342570082089
1768733917432,129,1,1.5332151730678072,1.3558185887032006,1.566454900871193
1768733917436,129,1,1.7005219863256984,1.5487245366711735,1.7380178671289943
1768733917440,130,2,2.067103469647845,2.198486958499289,2.107503965560081
1768733917444,130,2,2.5572257943553196,2.6486948633128287,2.597949683844439
1768733917448,131,3,3.0286350167664544,3.2717054618565418,3.068157796123572
1768733917452,131,3,3.408882710510579,3.431119507959104,3.4479538918928982
1768733917456,131,3,3.741424203160486,3.496643445390863,3.782110639825093
1768733917460,132,4,4.1208733534728985,4.207913430107424,4.164409142279708
1768733917464,132,4,4.597006743511028,4.723183138016213,4.6426764124689575
1768733917468,133,5,5.133911173494029,5.113889753445148,5.180043375355069
1768733917472,133,5,5.644367378839328,5.631392636099667,5.6901287501485385
1768733917476,134,6,6.060286370518295,6.255740046120172,6.106330625634761
1768733917480,134,6,6.385278447936789,6.446048326961084,6.432912894417575
1768733917484,134,6,6.693422701380626,6.552631084013587,6.743365293263138
1768733917488,135,7,7.075784063281069,7.185593327608735,7.127568294391742
1768733917492,135,7,7.573962332652131,7.653490059238528,7.626407821252138
1768733917496,136,8,8.146997311689418,8.110216575508476,8.199320606473124
1768733917500,136,8,8.691377261539866,8.702249129654666,8.743813861744307
1768733917504,137,9,9.100958219595324,9.239019820052295,9.154267350998843
1768733917508,137,9,9.329867146747349,9.515984877460273,9.38447248599208
1768733917512,137,9,9.413534458446858,9.320917838921815,9.469352369986645
1768733917516,137,9,9.42833478977063,9.377665888845714,9.485202810042754
1768733917520,137,9,9.423037914820778,9.527336916242763,9.480928396303554
1768733917524,137,9,9.38424818633108,9.336565566179518,9.44303472217955
1768733917528,137,9,9.265398456264624,9.491955110577454,9.324724244459231
1768733917532,137,9,9.044812616318602,9.271604998889975,9.104455385975085
1768733917536,136,8,8.749899555964745,8.437594872612209,8.810157462540168
1768733917540,136,8,8.423490991730544,8.48396057224275,8.484876650499757
1768733917544,136,8,8.072068389340982,8.363533329701976,8.134621881887375
1768733917548,135,7,7.650226301450585,7.500084617072518,7.713432989366245
1768733917552,135,7,7.0914749402380615,7.205695457936594,7.1548537005683635
1768733917556,134,6,6.353624069508269,6.5289592222141835,6.417146853274747
1768733917560,133,5,5.444797109552852,5.366514343294321,5.508776338733169
1768733917564,132,4,4.417249493425966,4.511725454538956,4.4820237530266915
1768733917568,131,3,3.340001182099801,3.352161457212736,3.405719535085155
1768733917572,130,2,2.274866226796879,2.308066122029337,2.3414617314055217
1768733917576,129,1,1.271589471365392,1.4707009942822975,1.3389449493699574
1768733917580,128,0,0.3741729708436079,0.35688641255275,0.4422878419262949
1768733917584,127,-1,-0.381098699300916,-0.3820004272724298,-0.3122339550436905
1768733917588,127,-1,-0.9821732990957476,-0.8408522127169284,-0.9129021303022012
1768733917592,126,-2,-1.4583719856274984,-1.43912432345223,-1.3893504699643464
1768733917596,126,-2,-1.8799221494828335,-1.8593735565461589,-1.8115395608117288
1768733917600,125,-3,-2.3322573326279823,-2.250995223744663,-2.2641036228960405
1768733917604,125,-3,-2.8712274910735216,-2.807684598191295,-2.802309967097846
1768733917608,124,-4,-3.4794712518030764,-3.3887577228453116,-3.409041553404073
1768733917612,124,-4,-4.05426242662172,-3.923013042591041,-3.9823769696970217
1768733917616,123,-5,-4.449080440236575,-4.388309553328481,-4.376324754317702
1768733917620,123,-5,-4.557496031224283,-4.693948429617352,-4.484371304839502
1768733917624,123,-5,-4.386702925213681,-4.389369391458638,-4.313554862539958
1768733917628,124,-4,-4.061036826189762,-3.7587403306794145,-3.9884028101545175
1768733917632,124,-4,-3.7475013955316623,-3.6276915619127648,-3.6759296111639217
1768733917636,124,-4,-3.5632134990623494,-3.6348384579776383,-3.49248272058747
1768733917640,124,-4,-3.533508846297689,-3.500975407476743,-3.4623689401741498
1768733917644,124,-4,-3.611912282259035,-3.527234836779509,-3.5389525758692906
1768733917648,124,-4,-3.7219886342042896,-3.6566245428933586,-3.6468339757973145
1768733917652,124,-4,-3.78628988976435,-3.7191133318611618,-3.709983679875672
1768733917656,124,-4,-3.7425772223211817,-3.5636493744547657,-3.666815763759491
1768733917660,124,-4,-3.5637809828877542,-3.5688790864291517,-3.489612755010461
1768733917664,124,-4,-3.281190382883392,-3.442955237867808,-3.2082752273338846
1768733917668,125,-3,-2.983784815709372,-2.755795491515396,-2.9108524214702176
1768733917672,125,-3,-2.7707080483813393,-2.612110950917884,-2.6966955445988283
1768733917676,125,-3,-2.679146496939555,-2.7046338575322864,-2.6039272775459197
1768733917680,125,-3,-2.6487634803174087,-2.4025029416572345,-2.5729510028960543
1768733917684,125,-3,-2.564258098725644,-2.621874269608891,-2.4884596977565296
1768733917688,125,-3,-2.350324928981288,-2.5698542094385237,-2.2746749686735552
1768733917692,126,-2,-2.039741123430612,-1.8009643372215192,-1.964166149444952
1768733917696,126,-2,-1.750863473596166,-1.539832668493834,-1.675544133144539
1768733917700,126,-2,-1.592112604469107,-1.5429436903433111,-1.5173476044888403
1768733917704,126,-2,-1.5805389390735902,-1.4997697446674352,-1.5061779592534807
1768733917708,126,-2,-1.644220848904098,-1.676431589218973,-1.5695180965370066
1768733917712,126,-2,-1.6949662105193894,-1.7247543380493693,-1.619174798083556
1768733917716,126,-2,-1.697146982127145,-1.600498534913422,-1.6203020370741252
1768733917720,126,-2,-1.674188335483016,-1.4956135260913572,-1.5972639657996388
1768733917724,126,-2,-1.661629797347354,-1.5236616515506032,-1.5857684893122066
1768733917728,126,-2,-1.6653145179188231,-1.6738253450156348,-1.5907656004145452
1768733917732,126,-2,-1.6668607085014535,-1.7295329640948809,-1.592721259648757
1768733917736,126,-2,-1.658544452832929,-1.6083997788766944,-1.583644492795116
1768733917740,126,-2,-1.6570720481175572,-1.4760918201572393,-1.5810723515418652
1768733917744,126,-2,-1.6776191640246445,-1.5369633289659237,-1.6011571416753476
1768733917748,126,-2,-1.7038368784857438,-1.668758491177262,-1.6277112612368578
1768733917752,126,-2,-1.697580085097881,-1.7432392481240464,-1.622030695847733
1768733917756,126,-2,-1.6444146408873812,-1.613937855423119,-1.5692189370743597
1768733917760,126,-2,-1.586267718050001,-1.4432194682086437,-1.5112685974827822
1768733917764,126,-2,-1.602489487772291,-1.5828802419026715,-1.527789819838862
1768733917768,126,-2,-1.7511599400459477,-1.6051194289738064,-1.6768059673685372
1768733917772,126,-2,-2.0203185521515095,-1.845296472394506,-1.9459287924211688
1768733917776,125,-3,-2.3305399741374195,-2.5052187296852564,-2.255454462072922
1768733917780,125,-3,-2.5853286323035367,-2.5520102186489737,-2.5093477873885326
1768733917784,125,-3,-2.725822397111066,-2.459214165209952,-2.6497104809524807
1768733917788,125,-3,-2.7512372072425237,-2.730158197514324,-2.676108619585361
1768733917792,125,-3,-2.705134750439625,-2.743726058715238,-2.6312652089799604
1768733917796,125,-3,-2.6482738760209754,-2.6017708267889175,-2.574849007527669
1768733917800,125,-3,-2.6285170599439667,-2.4712289489906305,-2.5546136123484535
1768733917804,125,-3,-2.6546214266625983,-2.502718712166846,-2.5800733951328354
1768733917808,125,-3,-2.6934027562368925,-2.715006473462839,-2.618611886084468
1768733917812,125,-3,-2.7021582983612378,-2.7542183865689167,-2.627505652672832
1768733917816,125,-3,-2.6715144625196108,-2.6161924564146903,-2.597278215419614
1768733917820,125,-3,-2.635116735266981,-2.4441882705514755,-2.5616047230547396
1768733917824,125,-3,-2.635162526042834,-2.511950906674323,-2.5623514440025117
1768733917828,125,-3,-2.680309035237996,-2.7192126506602823,-2.6074121721306227
1768733917832,125,-3,-2.73603463812338,-2.753917732270176,-2.662064156137755
1768733917836,125,-3,-2.7482381886753187,-2.645861554780992,-2.673269799431097
1768733917840,125,-3,-2.674823479251393,-2.3910507116742656,-2.6002099726152026
1768733917844,125,-3,-2.5117016350324324,-2.5564593832798694,-2.438629861248098
1768733917848,125,-3,-2.308867986556129,-2.675370920364512,-2.23710542805037
1768733917852,126,-2,-2.155031855108837,-1.817460861400694,-2.0834494738633618
1768733917856,126,-2,-2.115731563112931,-1.5962944452545835,-2.0434545076363273
1768733917860,125,-3,-2.16888069851706,-2.4349471133746197,-2.0954838670456946
1768733917864,125,-3,-2.21057856507588,-2.480299005508394,-2.13609696913517
1768733917868,126,-2,-2.134234325643769,-1.7868134688621882,-2.05985025445689
1768733917872,126,-2,-1.9054293023589937,-1.6870796993565051,-1.8332215699751464
1768733917876,126,-2,-1.572754437253407,-1.7813086242216325,-1.5034204393925985
1768733917880,126,-2,-1.2236429031791365,-1.1839564228836863,-1.154772953668284
1768733917884,127,-1,-0.9181277668467004,-0.7644699721678518,-0.8460484747494507
1768733917888,127,-1,-0.6295328297001979,-0.4947293604408217,-0.5533482105545974
1768733917892,128,0,-0.2386916478723544,0.0258338774730988,-0.1617957998850554
1768733917896,128,0,0.3711736289151461,0.4272663253514037,0.4444564179257883
1768733917900,128,0,1.149120201075357,0.7437199816099263,1.218190063604937
1768733917904,129,1,1.7873477393896635,1.153561987281141,1.855448520066937
1768733917908,130,2,1.865391662703119,2.763346343076588,1.9350325094800844
1768733917912,131,3,1.187003759461651,2.5686050178783626,1.2573071191738467
1768733917916,126,-2,0.0139498682472323,-0.9599957168777022,0.0836512385280132
1768733917920,126,-2,-1.0726834276659194,-1.995382505710852,-1.0019053939254337
1768733917924,126,-2,-1.5833126591026845,-1.01523447045633,-1.508926699463879
1768733917928,127,-1,-1.4133430384247685,-1.1113843744728906,-1.3362961267267712
1768733917932,127,-1,-0.7837191080053048,-0.5488626888863061,-0.7084178569681415
1768733917936,128,0,0.0272356196718071,0.2140370189038317,0.0973266083066658
1768733917940,128,0,0.8647679414883283,0.705140847735,0.9305130402420164
1768733917944,129,1,1.6690790116725602,1.4135991110549269,1.7346924530318295
1768733917948,130,2,2.3564544013694295,2.303301988649161,2.4256109379822273
1768733917952,131,3,2.793496993099776,3.213319567759674,2.866346556552426
1768733917956,131,3,2.905637343399759,3.303500338496481,2.979362275725975
1768733917960,130,2,2.782671186649765,2.730967200348546,2.854693802202296
1768733917964,130,2,2.6314167999905287,2.254881568352169,2.7016860220474435
1768733917968,130,2,2.59665667878964,2.555532526094629,2.6667580998982725
1768733917972,131,3,2.627605097562809,2.9207863714093216,2.6983067791267867
1768733917976,130,2,2.5265924778319704,2.6344199773136374,2.5969753483998237
1768733917980,130,2,2.1313435755606216,2.394464940648331,2.2002961649007484
1768733917984,129,1,1.457578736016386,1.516806931204345,1.5256102851141669
1768733917988,128,0,0.6804279384165153,0.3695505405394915,0.7495841298208039
1768733917992,128,0,-0.0098145147226361,0.0207153956552186,0.0619770257611315
1768733917996,127,-1,-0.5372468992946695,-0.3260865446748956,-0.463758254045295
1768733918000,127,-1,-0.9537672625957664,-0.7796784216168726,-0.8814580696051144
1768733918004,126,-2,-1.360483676210864,-1.221564437557397,-1.2914619596782049
1768733918008,126,-2,-1.8331114128655144,-1.9827218466109469,-1.7666268793088706
1768733918012,125,-3,-2.402305516081693,-2.5710598091550207,-2.3355765919671203
1768733918016,125,-3,-3.0578497051280933,-2.716933291249893,-2.988780953867525
1768733918020,124,-4,-3.737641830656193,-3.4349312592920533,-3.666309650359592
1768733918024,123,-5,-4.324158984592013,-4.523612853219216,-4.251881386742032
1768733918028,123,-5,-4.694035713679308,-4.76569008922644,-4.622015414721903
1768733918032,123,-5,-4.80287435408647,-4.6998567263196485,-4.73218022546809
1768733918036,123,-5,-4.727169700261982,-4.638193905470032,-4.659002667757061
1768733918040,123,-5,-4.617060706992374,-4.461088937644428,-4.551624985691411
1768733918044,123,-5,-4.59706255838686,-4.557861270952625,-4.531949200602247
1768733918048,123,-5,-4.690312929164915,-4.725118546265247,-4.62115452364961
1768733918052,123,-5,-4.810755151138167,-4.740774503528706,-4.734998889323453
1768733918056,123,-5,-4.818362967595939,-4.577260153161669,-4.739084263803856
1768733918060,123,-5,-4.607183799377312,-4.520242340098423,-4.532544877010962
1768733918064,123,-5,-4.179972209131519,-4.515220457297188,-4.117430523848222
1768733918068,124,-4,-3.635197983638783,-3.7910621593529914,-3.584645134100472
1768733918072,125,-3,-2.999993135229655,-2.65531767284275,-2.9516004420939796
1768733918076,126,-2,-1.9570632409067144,-1.6539792963198892,-1.896506577477735
1768733918080,128,0,0.314007921730898,0.5662156319972356,0.3956209038671594
1768733918084,133,5,4.9089540296973695,5.383627415257202,5.0075065736453785
1768733918088,140,12,12.50925870885022,12.281966171216986,12.60900906118414
1768733918092,149,21,22.53177833755166,21.318347602545025,22.615406040320348
1768733918096,160,32,32.72046682798368,32.35702243933677,32.779933134564644
1768733918100,168,40,39.697838712869306,40.603844604495336,39.7382187727365
1768733918104,169,41,40.41514716196867,41.24398560275726,40.45029440509107
1768733918108,162,34,33.72295072804059,34.42135897562101,33.76742327871686
1768733918112,149,21,21.049687412352448,21.11408898969826,21.112086914016132
1768733918116,132,4,5.711462882339372,4.580698514312441,5.791897226038897
1768733918120,118,-10,-8.692996282691945,-9.568233847832186,-8.601704861975282
1768733918124,108,-20,-19.74800621347761,-19.58648434985094,-19.657015304687103
1768733918128,102,-26,-26.697856249647803,-25.670326696718625,-26.617560604867105
1768733918132,99,-29,-29.91338199431452,-28.839431355028623,-29.84796658640282
1768733918136,97,-31,-30.058579349947284,-30.41016082617547,-30.00323135038403
1768733918140,99,-29,-27.68874965802989,-28.65260904734596,-27.6333348281588
1768733918144,104,-24,-23.40414516963986,-23.46806179729041,-23.341556170784955
1768733918148,110,-18,-18.115822455013845,-17.81315760668877,-18.04726542747802
