timestamp_ms,ecg_u8_raw,ecg_counts_raw_int,ecg_counts_filt_monitor,ecg_counts_filt_diagnostic,ecg_counts_filt_st
1769162420196,128,0,1.4206305200368852,0.3055199650565774,-0.0260303884111661
1769162420200,128,0,1.4776825955325634,0.1447035423289746,0.0107276846672362
1769162420204,128,0,1.5844021782651625,0.298587469215378,0.0974281462729786
1769162420208,128,0,1.618977993579461,0.1349702587256842,0.1132340940937142
1769162420212,128,0,1.4946251471237977,0.2948831761891455,-0.028717815520992
1769162420216,128,0,1.2210182897681678,0.1303314438090648,-0.3196770716132323
1769162420220,127,-1,0.9084749716956514,-0.7512316025928152,-0.6496451119393949
1769162420224,127,-1,0.6957897196525639,-0.7870960989794793,-0.879091880313198
1769162420228,127,-1,0.6531790142349504,-0.8625371666292085,-0.9373958728127364
1769162420232,127,-1,0.7484941415395775,-0.6792288349310067,-0.8576834505518508
1769162420236,128,0,0.9040116235593314,0.0371627736878934,-0.7188301193470018
1769162420240,127,-1,1.0698968340081698,-0.6607856457663401,-0.5701531012655492
1769162420244,127,-1,1.2275204124880044,-0.9414819686614896,-0.4286350352081618
1769162420248,128,0,1.3374243586957757,0.2756105110664717,-0.3332130532086881
1769162420252,128,0,1.3241120805172657,0.1602420328868719,-0.3603335479457703
1769162420256,127,-1,1.131291784612522,-0.8434479098555872,-0.5668622344762204
1769162420260,127,-1,0.781422744779933,-0.7730359279522963,-0.9299277009778568
1769162420264,127,-1,0.3747992537069533,-0.9265402950263416,-1.3491710269766888
1769162420268,126,-2,0.0338573949339832,-1.724361223772774,-1.7029311790448058
1769162420272,126,-2,-0.1650509339689397,-1.8891688315941615,-1.9153308111055276
1769162420276,126,-2,-0.2313645791794986,-1.7934077481300954,-1.9952187746985832
1769162420280,126,-2,-0.2409785156924782,-1.8629150223301785,-2.017417284028596
1769162420284,126,-2,-0.2616083378815047,-1.8869661476288797,-2.04905271039906
1769162420288,126,-2,-0.2765293307119191,-1.7892910125969388,-2.073661201589614
1769162420292,126,-2,-0.1752221724825568,-1.8471476279976968,-1.9815439829978192
1769162420296,126,-2,0.1676610804879341,-1.8548060196143552,-1.6482851880740133
1769162420300,127,-1,0.7803983551688581,-0.8298120296900864,-1.0462523190031066
1769162420304,128,0,1.5417038659992826,0.0262265766764437,-0.2965557824614436
1769162420308,128,0,2.2355396471285487,0.2794276028178051,0.3859913604365611
1769162420312,129,1,2.6774209784809853,1.0536126647097994,0.8183342372391633
1769162420316,129,1,2.829258589472728,1.2318508012890994,0.962789509623356
1769162420320,129,1,2.82947203881398,1.0330673634644254,0.9570704546170712
1769162420324,129,1,2.9113143222531956,1.1299265754526369,1.033468045672151
1769162420328,129,1,3.25186441831674,1.1494491100851172,1.3681518347697308
1769162420332,130,2,3.852188350765105,2.151660779552197,1.9611217325351509
1769162420336,131,3,4.53316080508707,3.147588821019353,2.632727213015006
1769162420340,131,3,5.037418191824405,3.0355454053705637,3.1269180613748917
1769162420344,131,3,5.150916518869092,3.1290867479675555,3.2324196282780906
1769162420348,131,3,4.777292699574883,3.077446091697751,2.8546233034083186
1769162420352,130,2,3.9640009706413473,2.222275240295431,2.039932772319572
1769162420356,129,1,2.8937780713293755,1.0624297105171003,0.968245303548274
1769162420360,128,0,1.8256311868930917,0.069123903613973,-0.1034741904794951
1769162420364,127,-1,0.97603561379901,-0.9175765074091063,-0.9585617194427868
1769162420368,126,-2,0.3918744838998467,-1.942769365874339,-1.5486159667805253
1769162420372,126,-2,-0.0865383687587428,-1.747391817028003,-2.0322398452592703
1769162420376,126,-2,-0.7180966647062674,-1.991027223676972,-2.667987691218414
1769162420380,124,-4,-1.6776368076052082,-3.9234116312155223,-3.6301798913592647
1769162420384,123,-5,-2.9404725494037542,-4.943307507868058,-4.893693515096276
1769162420388,122,-6,-4.310927806201872,-6.00269783704954,-6.263942124264963
1769162420392,120,-8,-5.541614623191939,-7.655101690110207,-7.495848858729799
1769162420396,120,-8,-6.443286178321861,-8.141004259706063,-8.40086104815202
1769162420400,119,-9,-6.9345909180116,-8.742791534302219,-8.894778938360178
1769162420404,119,-9,-7.038658673761437,-9.233850997169103,-8.996729821664488
1769162420408,119,-9,-6.848735147740233,-8.697572986846268,-8.800042512136045
1769162420412,120,-8,-6.4818437102580555,-8.023994455877867,-8.428079454760233
1769162420416,120,-8,-6.0506175664237265,-7.75496099600539,-8.001214772587483
1769162420420,120,-8,-5.6766305044458605,-8.153745687859836,-7.642011241237978
1769162420424,120,-8,-5.490581092207573,-7.906722817725446,-7.472090139333357
1769162420428,121,-7,-5.489052879089595,-7.02434910940622,-7.47422859802947
1769162420432,121,-7,-5.215561473452354,-6.767296949636217,-7.183690580356055
1769162420436,123,-5,-3.506478545423788,-4.954310148574146,-5.441991747500344
1769162420440,128,0,1.2839892586994042,-0.0252721549515189,-0.6208599590545885
1769162420444,136,8,10.368033150016284,7.955914624520521,8.472983495589803
1769162420448,148,20,23.252362853406307,20.03927230954821,21.3396319203488
1769162420452,162,34,36.96239528178979,34.20935491610401,35.01540890000689
1769162420456,173,45,46.61173742088884,45.01760719756368,44.63468761345619
1769162420460,175,47,47.424227214509685,46.99258799845062,45.43818379614579
1769162420464,165,37,37.22800123964333,36.785408671035256,35.25815633886421
1769162420468,144,16,17.860483765699783,16.13719969536507,15.92425649534552
1769162420472,119,-9,-5.537449284507474,-8.936668110508826,-7.435901589248349
1769162420476,97,-31,-26.96527271698092,-30.79888351545346,-28.83514731928476
1769162420480,84,-44,-42.17563697280677,-44.11999521986529,-44.03617568048011
1769162420484,78,-50,-49.87981780555116,-50.10998798004866,-51.752471947614474
1769162420488,76,-52,-51.15083102663527,-51.94773295070559,-53.04732563495987
1769162420492,78,-50,-47.94211228150151,-49.95533834384903,-49.855996680177086
1769162420496,83,-45,-41.97346700880427,-44.76208574802478,-43.884358701782816
1769162420500,91,-37,-34.502768494768134,-37.27198565822548,-36.391967496739
1769162420504,100,-28,-26.59616957892469,-27.91074773853868,-28.460059680544237
1769162420508,108,-20,-19.274508506033985,-20.23327381851289,-21.123563525538223
1769162420512,112,-16,-13.339114591789144,-15.676722599048963,-15.18522834869009
1769162420516,117,-11,-9.128555688736071,-11.120238762338502,-10.974622068662216
1769162420520,120,-8,-6.4846565978702895,-7.950989467840777,-8.325184311224154
1769162420524,121,-7,-4.95202985219273,-7.247108480769804,-6.780595203606085
1769162420528,122,-6,-4.048800832554344,-5.905508548075645,-5.863504916996703
1769162420532,123,-5,-3.4437299769918917,-5.00107461566913,-5.247189237241523
1769162420536,123,-5,-2.977949945873938,-4.900032553883642,-4.774024603010486
1769162420540,124,-4,-2.585672225314145,-4.138913194412169,-4.376259152667398
1769162420544,124,-4,-2.22029141445256,-4.151215329093871,-4.004130853366773
1769162420548,124,-4,-1.8451138162986656,-3.933868457709413,-3.618966059511077
1769162420552,125,-3,-1.457609281345321,-3.058362739606867,-3.2187654371145467
1769162420556,125,-3,-1.0815957540237808,-2.853457949548208,-2.8297104979180063
1769162420560,126,-2,-0.7174858671207986,-2.259000429388922,-2.454149259285341
1769162420564,126,-2,-0.3137154325809304,-2.01489129710456,-2.0403360772996324
1769162420568,126,-2,0.1868262377811027,-2.104114532075479,-1.5296144334776194
1769162420572,127,-1,0.7634374309396805,-0.904588252865413,-0.941962923871322
1769162420576,128,0,1.2957806105331344,-0.0523799431271343,-0.3984173994949008
1769162420580,128,0,1.6425026996914207,-0.1254094464772024,-0.0407384007851188
1769162420584,128,0,1.7478868280118371,-0.1131578296089061,0.0763607707783674
1769162420588,128,0,1.6810298071487435,-0.0780298262756695,0.0230123423429258
1769162420592,128,0,1.5896790850403917,0.0869195455171332,-0.0536979074197187
1769162420596,128,0,1.617597579799252,-0.1267643885187634,-0.0119000802003131
1769162420600,128,0,1.8351306533768028,-0.0650584109733578,0.2175312100170879
1769162420604,129,1,2.210524434260928,0.8184511741184484,0.6034408479457637
1769162420608,129,1,2.6335304794678014,0.955114739340481,1.0375457719032433
1769162420612,129,1,2.9817136374107953,1.0464299278267586,1.3990995009353342
1769162420616,130,2,3.1983059827479883,1.836354111085848,1.6311847448498695
1769162420620,130,2,3.3392015909944024,1.9678281220673313,1.7879495342198222
1769162420624,130,2,3.5466190971953333,1.745777062863842,2.0101487914335445
1769162420628,130,2,3.942814973288636,2.033363165887079,2.419917917522656
1769162420632,131,3,4.514901292256773,2.9269854067172787,3.0048557308948345
1769162420636,132,4,5.097739470327454,3.896362459329997,3.600295447569016
1769162420640,132,4,5.482555135138329,3.917882127072031,3.998346618203524
1769162420644,132,4,5.560883368141539,3.720603028227599,4.091662999975311
1769162420648,132,4,5.391112442301243,4.110462118906556,3.938677126799602
1769162420652,132,4,5.15190192690607,3.736898733672445,3.716600881883293
1769162420656,131,3,5.024870872579995,3.1051152509906936,3.605430413600801
1769162420660,132,4,5.082575928006412,3.649264992647759,3.677251518619572
1769162420664,132,4,5.254537615952403,3.989785437080418,3.8624155018437696
1769162420668,132,4,5.3949271437747575,3.8280502151777096,4.0166058222190735
1769162420672,132,4,5.39966586364492,3.957366769693087,4.036905000979143
1769162420676,132,4,5.287311840363912,3.874798847936914,3.941715429531118
1769162420680,132,4,5.1927255309255305,3.809653276616321,3.864627171684892
1769162420684,132,4,5.281148253231488,3.860118244302376,3.9698280371541528
1769162420688,132,4,5.636819986642265,3.90697836074657,4.341476729640156
1769162420692,133,5,6.202188269743984,4.858884429317926,4.9223481357926175
1769162420696,134,6,6.81525125283588,5.93230863459853,5.5506551612599795
1769162420700,134,6,7.311963966342745,5.707845898500307,6.062754439320455
1769162420704,134,6,7.603876559445417,5.971874029426192,6.370791539794159
1769162420708,135,7,7.678772012010034,6.7483652445237015,6.46266544750875
1769162420712,134,6,7.554082286654374,5.999015430167988,6.3552981254325465
1769162420716,134,6,7.242164929699048,5.730071393970144,6.060550213267404
1769162420720,134,6,6.754894886221751,5.916800318690785,5.590239097998857
1769162420724,133,5,6.131733023225896,4.7121354254231065,4.984068541729904
1769162420728,132,4,5.452004970500517,4.01824589612516,4.321469049395488
1769162420732,132,4,4.807966835569259,3.672362090115981,3.694325831009746
1769162420736,131,3,4.25827017595509,3.0144893576834377,3.1608838294027524
1769162420740,131,3,3.800800860445958,2.6355344359287773,2.719499286980388
1769162420744,130,2,3.3850159564602507,1.939751680646966,2.320756606391183
1769162420748,130,2,2.9604512911221557,1.8171591608530269,1.9144616240897256
1769162420752,130,2,2.537736556930076,1.7758696352017722,1.5101078597329178
1769162420756,129,1,2.211768855961271,0.9335160995986304,1.201549777910948
1769162420760,129,1,2.1028598061135737,0.6302611640890133,1.1094521326336433
1769162420764,129,1,2.247395476015907,0.9973640615077816,1.2710964733039585
1769162420768,130,2,2.5434541426362265,1.672253722078073,1.5845917560494862
1769162420772,130,2,2.817336991520727,1.9364719898267748,1.8757055071898407
1769162420776,130,2,2.9510285916383863,1.7046724670145257,2.026480460595951
1769162420780,130,2,2.9493557854791237,1.8366353986823467,2.0423182498649917
1769162420784,130,2,2.896827158423433,1.7949582896608154,2.007821658663709
1769162420788,130,2,2.862540464470027,1.7978493374500704,1.9915473207032803
1769162420792,130,2,2.8435410640430474,1.857331356152221,1.990149429194564
1769162420796,130,2,2.786761960339045,1.6624415554559129,1.9507123624122835
1769162420800,130,2,2.6601390934915057,1.93669425910302,1.8415290149533472
1769162420804,130,2,2.504596544632667,1.6012434466794314,1.7037620556064756
1769162420808,129,1,2.413846559215665,1.0151989798090393,1.6310960154618288
1769162420812,130,2,2.4550076638969065,1.5895188472709787,1.6902127187110385
1769162420816,130,2,2.603530768191084,1.8927646126151816,1.8560712308513632
1769162420820,130,2,2.7515812304175107,1.7059780374254696,2.0210411867584233
1769162420824,130,2,2.7778170893890413,1.7708300155106131,2.064526307834813
1769162420828,130,2,2.6227170923850176,1.8709732490412865,1.9272072129481137
1769162420832,130,2,2.322655696288065,1.6379905331151925,1.644931206565576
1769162420836,129,1,1.9824289737630825,0.8762958767863189,1.3222873245398556
1769162420840,129,1,1.7025776153286003,0.6403939819889967,1.0602584211325987
1769162420844,129,1,1.5214611460098462,0.862225304285104,0.8972971331342458
1769162420848,129,1,1.428454748310883,0.7263670124505011,0.8220981386587737
1769162420852,129,1,1.4290436676719958,0.7594874490628764,0.839782282032091
1769162420856,129,1,1.5771411577656869,0.7343655985416158,1.005009653526889
1769162420860,129,1,1.9259425158651304,0.7316067562626775,1.3717258261536185
1769162420864,130,2,2.4507330970901045,1.77141312672974,1.914476858649684
1769162420868,131,3,3.0368378544806944,2.782786539684611,2.5171519709344254
1769162420872,131,3,3.5493537488975124,2.6723395966121046,3.045084585970396
1769162420876,131,3,3.91100148439704,2.806705899297249,3.4231350873315094
1769162420880,132,4,4.12722013068092,3.5972159995088036,3.6581067544530783
1769162420884,132,4,4.269452620327641,3.9077221966087423,3.8202675630739265
1769162420888,132,4,4.441370204735828,3.610041877089061,4.011046178662831
1769162420892,132,4,4.721668403736366,3.831012481122272,4.308068619704689
1769162420896,133,5,5.092740477530469,4.617720193262729,4.694217545618528
1769162420900,133,5,5.410891172607119,4.73347468095268,5.027010734770318
1769162420904,133,5,5.463806966408939,4.771578702996239,5.095378310065863
1769162420908,133,5,5.0927976224935225,4.711068003026303,4.741407437559543
1769162420912,132,4,4.30168913386042,3.7131247805277057,3.9688648921724248
1769162420916,131,3,3.2744152899211567,2.6948390362829584,2.9608492290632107
1769162420920,130,2,2.2783333304625963,1.6159534665976891,1.9835317843913904
1769162420924,129,1,1.5090037742252522,0.8792913934236608,1.2314263623001338
1769162420928,129,1,0.9774154400127776,0.5839478206345081,0.7150517642152504
1769162420932,128,0,0.5131539305099442,-0.1756963743772608,0.2643900166710018
1769162420936,128,0,-0.1214822255956398,-0.459124091542952,-0.3569235706499714
1769162420940,127,-1,-1.082954254490648,-1.271375929812164,-1.303318295523621
1769162420944,125,-3,-2.357802362574204,-3.244392024514049,-2.5597175611546605
1769162420948,124,-4,-3.777517138222593,-4.337107509949047,-3.958371522982639
1769162420952,123,-5,-5.102017930810414,-5.226408113998324,-5.262972582310521
1769162420956,122,-6,-6.109284023521373,-6.512095843499013,-6.255421442497842
1769162420960,121,-7,-6.667555786554323,-7.17372740618338,-6.803659153423405
1769162420964,121,-7,-6.789471375880456,-7.431271697904264,-6.914900276147845
1769162420968,121,-7,-6.6338277561281505,-7.122897698449683,-6.741868745986172
1769162420972,122,-6,-6.411342851322875,-6.477643269803793,-6.494670050770573
1769162420976,122,-6,-6.2338105919398386,-6.313733451259664,-6.291955014605276
1769162420980,122,-6,-6.042737022112646,-6.3598845921442315,-6.084964108541784
1769162420984,122,-6,-5.716955690982188,-6.340851988055313,-5.75688930404397
1769162420988,122,-6,-5.267589902076295,-6.153874189251427,-5.3124335727902965
1769162420992,123,-5,-4.859345358045022,-5.550699200567507,-4.901826814573816
1769162420996,124,-4,-4.47575836842311,-4.18917949334776,-4.496109786198768
1769162421000,126,-2,-3.4054864704183423,-2.5784510444152766,-3.3835837404454177
1769162421004,128,0,-0.0870339599697662,-0.1014901360199616,-0.0168735510471707
1769162421008,135,7,7.204045746045315,6.55469770031279,7.307814507519022
1769162421012,146,18,18.942021516262088,17.747285535341938,19.05105209353628
1769162421016,160,32,33.07992875799814,31.48617280994146,33.168974192891454
1769162421020,173,45,45.028056363380465,44.74224533375811,45.09042453348109
1769162421024,179,51,49.357208274856305,50.519610983668095,49.40840512221888
1769162421028,172,44,42.50980641116425,43.864289368238055,42.57784480914582
1769162421032,154,26,24.905957624225536,25.33543972377135,25.015872021319367
1769162421036,128,0,1.019666323911105,-0.1545081267713746,1.1817163097462986
1769162421040,104,-24,-22.719811547231235,-24.631595924117004,-22.513299325125725
1769162421044,86,-42,-40.88566397872267,-42.04252564715961,-40.65533135950694
1769162421048,78,-50,-51.044410083107515,-50.51675433435696,-50.81387882166305
1769162421052,76,-52,-53.7848613035783,-52.27467143875954,-53.569411497409064
1769162421056,78,-50,-51.25342982947289,-50.567081703005464,-51.05218932356949
1769162421060,82,-46,-45.55899583217841,-46.3256199648109,-45.35598273533338
1769162421064,89,-39,-38.103534202408426,-39.3559479931005,-37.87859504756403
1769162421068,98,-30,-29.84915393326589,-30.271703124679483,-29.591689162412585
1769162421072,107,-21,-21.7792003953108,-21.472185944292267,-21.493949585979017
1769162421076,114,-14,-14.923908480248748,-14.454244831204338,-14.624523182930613
1769162421080,119,-9,-9.97266068542226,-9.457715798809268,-9.669438182775227
1769162421084,121,-7,-6.952486459847744,-7.3215943743067395,-6.644972421206324
1769162421088,122,-6,-5.334473182374298,-6.297990360778872,-5.01437018634471
1769162421092,124,-4,-4.466603927027207,-4.45909262092892,-4.127001012268224
1769162421096,125,-3,-3.936412153269392,-3.4540227304099034,-3.5781310974536327
1769162421100,125,-3,-3.605939910047444,-3.5142167794453365,-3.2355512220229734
1769162421104,125,-3,-3.418794629228436,-3.296736981393575,-3.0415808263347897
1769162421108,125,-3,-3.253882164295855,-3.361882513316096,-2.8693078253308553
1769162421112,125,-3,-2.964823205797976,-3.4027151512450153,-2.5683048979000764
1769162421116,126,-2,-2.5085178965598613,-2.4943477736764823,-2.096731114833359
1769162421120,127,-1,-1.9854342215174148,-1.542153713122678,-1.5594486713155788
1769162421124,127,-1,-1.5399190336657131,-1.2750688589981454,-1.103213945633923
1769162421128,127,-1,-1.2355709913513817,-1.4564180233434765,-0.7896865990783664
1769162421132,127,-1,-1.033960802092624,-1.2884179998308982,-0.5770766955894124
1769162421136,128,0,-0.8682412603138854,-0.6373873253276339,-0.3980789633561843
1769162421140,128,0,-0.704669979027345,-0.4261742382948442,-0.2216472749440292
1769162421144,128,0,-0.5368329702118069,-0.4152498221335791,-0.0434871634061219
1769162421148,128,0,-0.3578240244209605,-0.3812757419241783,0.1443552656243814
1769162421152,128,0,-0.1623589289078182,-0.3309869570218843,0.3497596816221737
1769162421156,129,1,0.0393971853760859,0.3286058387269923,0.5634564047611189
1769162421160,129,1,0.239278162088083,0.6563819330260632,0.7757433240740481
1769162421164,129,1,0.4657529948555139,0.3902229742929962,1.013227721115357
1769162421168,129,1,0.7773874347339922,0.8454865875450851,1.3342009735367548
1769162421172,130,2,1.2005970246512887,1.3757439051234963,1.766217618837087
1769162421176,130,2,1.6735142738131548,1.6283922931964856,2.248565951848801
1769162421180,131,3,2.0673571201045458,2.34207948786308,2.652607187120098
1769162421184,131,3,2.285804225809016,2.644091529955306,2.881313760035558
1769162421188,131,3,2.360843502072362,2.589580097125758,2.96624828497701
1769162421192,131,3,2.4495035824805313,2.5698038749308982,3.0649734672320013
1769162421196,131,3,2.7179426279084256,2.4620926816556996,3.344145385017217
1769162421200,132,4,3.2115562299355025,3.4416890971379743,3.8481868516914273
1769162421204,133,5,3.829669127840728,4.571322962491221,4.474708099407256
1769162421208,133,5,4.414113438379875,4.562571565609665,5.0656261756417065
1769162421212,133,5,4.848244590515743,4.648565832099356,5.506761862129511
1769162421216,134,6,5.084855416238263,5.279149560105326,5.752939353484906
1769162421220,134,6,5.1282362454726735,5.683550742922971,5.807572397956586
1769162421224,134,6,5.027680818984924,5.223739721096216,5.717363932542453
1769162421228,133,5,4.877008768493703,4.9564032244061975,5.57479210970929
1769162421232,134,6,4.781322188398479,5.167099524604617,5.485895618555251
1769162421236,133,5,4.799037789750284,4.781747969407733,5.510835049857503
1769162421240,134,6,4.9150645628090714,5.131014952079104,5.635240004200782
1769162421244,134,6,5.079704554510862,5.768166649064754,5.80877778696381
1769162421248,134,6,5.278059534606154,5.38951222053401,6.0156553995096385
1769162421252,134,6,5.554174503229814,5.680151755185886,6.299673572241494
1769162421256,135,7,5.957203796906,6.28524601004768,6.710137064840503
1769162421260,135,7,6.462262554335711,6.548191703650216,7.222164593805749
1769162421264,136,8,6.948751911177753,7.392532902673641,7.71521547844851
1769162421268,136,8,7.26294502364417,7.691978240652579,8.036112375490532
1769162421272,136,8,7.314367103661137,7.376781437026885,8.095051846594718
1769162421276,136,8,7.130907093027402,7.542327948735993,7.919828642113346
1769162421280,136,8,6.834554888995975,7.275898219178005,7.631534561028942
1769162421284,135,7,6.554621640553798,6.635792889770033,7.358763854034171
1769162421288,135,7,6.335158213784182,6.453317686382035,7.145553245449257
1769162421292,135,7,6.105763353790497,6.546348187350023,6.921726755850427
1769162421296,135,7,5.74676762862765,6.392689665039904,6.567900887760949
1769162421300,134,6,5.198081554411145,5.348187711080144,6.024740750452348
1769162421304,133,5,4.517710526698535,4.598528674753581,5.351146664177241
1769162421308,133,5,3.8487029560334065,4.4170708342516285,4.6901068502451935
1769162421312,132,4,3.336773638680392,3.5935799721515505,4.186120044395351
1769162421316,132,4,3.062031126783581,3.2860236514611723,3.9179854582612728
1769162421320,132,4,3.013872671948752,3.4681013023384546,3.874667198495947
1769162421324,132,4,3.105822359714658,3.4307206540883493,3.9702929715683073
1769162421328,132,4,3.213676633559405,3.578076950032033,4.081928392564098
1769162421332,132,4,3.219483959133723,3.3946170910801765,4.092769748089458
1769162421336,132,4,3.053621412131802,3.448551689526651,3.9333341522387792
1769162421340,132,4,2.7307113509944174,3.311157327671415,3.617302642835662
1769162421344,131,3,2.3596726661703187,2.529518066360386,3.2525376336379943
1769162421348,131,3,2.101669681081214,2.4968031001337208,2.999939265643798
1769162421352,131,3,2.082773020267255,2.4072060155629944,2.9859695745631742
1769162421356,131,3,2.3153947776650092,2.4396305992412772,3.2232589250451453
1769162421360,132,4,2.688581585256596,3.28671572092457,3.6005330515873974
1769162421364,132,4,3.035993306362241,3.5424829392906982,3.9512567175603337
1769162421368,132,4,3.2262455223494415,3.455220839936622,4.144749182941986
1769162421372,132,4,3.2093152901200233,3.411058365541893,4.132118242632608
1769162421376,132,4,3.007224181973081,3.414843455913471,3.935655435747805
1769162421380,132,4,2.6875131206823344,3.280458734929301,3.6219981182721392
1769162421384,131,3,2.345335057867911,2.5565474782164124,3.2851851363442055
1769162421388,131,3,2.081740796973308,2.387501954123299,3.0257285575211736
1769162421392,131,3,1.965705624089252,2.4768059120561103,2.912662120430966
1769162421396,131,3,1.9960332317870315,2.288294464952963,2.9453996991790703
1769162421400,131,3,2.0908608876952997,2.419579497717605,3.0430945918204255
1769162421404,131,3,2.121307865757128,2.389412349585069,3.0774465050727495
1769162421408,131,3,1.98459129902142,2.524930343852897,2.945061484585949
1769162421412,131,3,1.6790072166034298,2.319286412847724,2.6431464124108346
1769162421416,130,2,1.3195892080034792,1.3902240371080556,2.286696653634915
1769162421420,130,2,1.0667333020214729,1.3329706233005636,2.037259545445381
1769162421424,130,2,1.0221779874899162,1.4355173381867197,1.9972490618988337
1769162421428,130,2,1.1863739684282568,1.4757091912743707,2.1660644337737636
1769162421432,131,3,1.5079585339969843,2.3187911584000966,2.4905909947892875
1769162421436,131,3,1.953968077080367,2.384569664051882,2.9376203607325753
1769162421440,131,3,2.5100623146998915,2.291193186007905,3.494559692121489
1769162421444,132,4,3.115985881679883,3.4898811383128145,4.102860229917489
1769162421448,133,5,3.638348425720038,4.371705325825841,4.629006600013186
1769162421452,133,5,3.94630440693815,4.403834325817119,4.940909860745459
1769162421456,133,5,4.0233558338003625,4.288340624387826,5.021338699627063
1769162421460,133,5,3.9925569194852226,4.3261174724123865,4.9933485125214565
1769162421464,133,5,4.017998739240143,4.4847912356296575,5.021119317755388
1769162421468,133,5,4.162957976693393,4.295050218921808,5.167942425827179
1769162421472,133,5,4.322399463689502,4.5214890842590165,5.328796501181817
1769162421476,134,6,4.291120013877599,5.0936072391327345,5.29851968801924
1769162421480,133,5,3.919987945361884,4.534152907696495,4.928476120436962
1769162421484,132,4,3.230085498002764,3.228224807608695,4.240812912475538
1769162421488,131,3,2.3885549423483705,2.5295042635309803,3.403101508969883
1769162421492,131,3,1.5811607065884263,2.2815219832303555,2.59983410690572
1769162421496,130,2,0.8986634270860088,1.279445046040785,1.919850718487596
1769162421500,129,1,0.3094050802850863,0.3786278089871566,1.330856591137859
1769162421504,129,1,-0.2939574414486887,0.3051570467638,0.7265367994592458
1769162421508,128,0,-1.019968856711206,-0.5232163402174601,8.097251211114376e-05
1769162421512,127,-1,-1.9195191917801135,-1.7421649427445236,-0.8979137854271966
1769162421516,126,-2,-2.9691282261190564,-2.6696194051388664,-1.9437272110674144
1769162421520,125,-3,-4.088517358123904,-3.728702330499905,-3.0589082432748187
1769162421524,124,-4,-5.163356670078634,-4.590197607113395,-4.132040445607903
1769162421528,123,-5,-6.067130084482457,-5.659994048958248,-5.037677343504387
1769162421532,122,-6,-6.701452243763912,-6.636216464764209,-5.674729452897979
1769162421536,122,-6,-7.046963784368699,-6.775478433121874,-6.0192024990473145
1769162421540,122,-6,-7.172875746941571,-6.6681364216625125,-6.138251734039741
1769162421544,122,-6,-7.176041774230925,-6.647663267309367,-6.132328966791407
1769162421548,122,-6,-7.104497180011155,-6.651949864672306,-6.057156761023013
1769162421552,122,-6,-6.955455055667908,-6.647971271624743,-5.915835402682622
1769162421556,122,-6,-6.751258905036758,-6.808242361172018,-5.7285671596606305
1769162421560,122,-6,-6.561245540955293,-6.640018317003452,-5.553446643163408
1769162421564,123,-5,-6.31633174579952,-5.708787856466861,-5.307778607014244
1769162421568,124,-4,-5.452209572747193,-4.599249263767107,-4.422074753405234
1769162421572,127,-1,-2.7071714264326583,-1.7337090692104589,-1.644228700909729
1769162421576,133,5,3.496341827279581,4.267993209608159,4.583548141868948
1769162421580,142,14,13.970630863739418,13.261727712780646,15.057004442584493
1769162421584,155,27,27.49378179371905,26.379156329805816,28.552761765171063
1769162421588,169,41,40.33080913047873,40.310801218669475,41.35049412404814
1769162421592,177,49,47.295899936010585,48.30593035411142,48.28541377893718
1769162421596,175,47,44.126728007860834,46.179309707898184,45.11008735729433
1769162421600,160,32,29.863941228074715,31.272169901148644,30.86681228715181
1769162421604,136,8,7.67337622965879,7.267413530911592,8.71072876778675
1769162421608,111,-17,-16.532101602006176,-17.55282522709792,-15.461923439765371
1769162421612,91,-37,-36.84203153257788,-37.850534336794915,-35.755348392080016
1769162421616,79,-49,-49.74913573463407,-49.5384444612421,-48.66866728675462
1769162421620,76,-52,-54.861352910307886,-53.01506311176079,-53.80509125745735
1769162421624,76,-52,-53.888010646362126,-52.437713906885165,-52.8601269808761
1769162421628,80,-48,-49.010765890428786,-48.92978267400534,-47.9999675988441
1769162421632,86,-42,-41.86774360701928,-42.526715341980776,-40.85535380204577
1769162421636,95,-33,-33.54152975110911,-33.87531184778213,-32.51435205813152
1769162421640,104,-24,-25.02566324021863,-24.70082450880307,-23.983836426131163
1769162421644,112,-16,-17.433095403114372,-16.739473819127365,-16.387110718683896
1769162421648,118,-10,-11.7035585217277,-10.727411197277211,-10.66404288451652
1769162421652,121,-7,-8.156273813527772,-7.742346417994509,-7.125585195728276
1769162421656,122,-6,-6.374413651792382,-6.7331706468786585,-5.346428130860072
1769162421660,123,-5,-5.55773663227691,-5.797032548057725,-4.52494488768122
1769162421664,124,-4,-5.03912686754444,-4.673463651595229,-4.0001745568565905
1769162421668,125,-3,-4.555939931155525,-3.7980118813811137,-3.51668058392298
1769162421672,125,-3,-4.149730910325812,-3.722438343820486,-3.117200405109572
1769162421676,125,-3,-3.903535736559909,-3.7716172726431982,-2.879204047792523
1769162421680,125,-3,-3.7873965526341897,-3.7748446922088177,-2.766385479476241
1769162421684,125,-3,-3.685505247222601,-3.692519451129041,-2.6619267266060938
1769162421688,126,-2,-3.4889754830699884,-2.8275964807791105,-2.461381024936344
1769162421692,126,-2,-3.1387283730998523,-2.689488272577642,-2.1103781739657914
1769162421696,126,-2,-2.6203577750515215,-2.8767423842425828,-1.5952074690331728
1769162421700,127,-1,-1.9664146483881737,-1.6347699541653262,-0.945778321052068
1769162421704,128,0,-1.26871131503091,-0.8829936935872102,-0.2513127025158545
1769162421708,128,0,-0.6581352260355526,-0.6474488987778941,0.3579354201432329
1769162421712,129,1,-0.2413481407279198,0.1142258735356477,0.7743968932142264
1769162421716,129,1,-0.0361122350401665,0.2563166658702411,0.979070911295372
1769162421720,129,1,0.0425736335869895,0.2575610428788178,1.0563514049576228
1769162421724,129,1,0.1274343665227473,0.1731120209070078,1.1391956398212717
1769162421728,129,1,0.3125967139916308,0.3002472706164986,1.3221677325207617
1769162421732,130,2,0.6069553473315636,1.1319215160626324,1.6142689926645908
1769162421736,130,2,0.9638463479279468,1.2033140173923922,1.968923835603539
1769162421740,130,2,1.347804313860851,1.320152962224068,2.351031741092218
1769162421744,131,3,1.768668127458636,2.0564286304062067,2.7704865892650457
1769162421748,131,3,2.257252187079425,2.439869391552877,3.2573650598324932
1769162421752,132,4,2.8129904879848433,2.9117492769808946,3.8102914908160255
1769162421756,132,4,3.370436486586041,3.4529954991329466,4.364004905831237
1769162421760,133,5,3.8159102755508743,4.0153363452732265,4.806002423753255
1769162421764,133,5,4.053274304944366,4.3586869210838595,5.04126292340161
1769162421768,133,5,4.077813125837781,4.129513312303567,5.065051088605324
1769162421772,133,5,3.999533665221076,4.14311849079176,4.986043351383677
1769162421776,133,5,3.986258537572521,4.277852256840078,4.970521333601619
1769162421780,133,5,4.153364971346656,4.081663786500424,5.1336256051977704
1769162421784,133,5,4.472630809321507,4.371790177963158,5.448358993214456
1769162421788,134,6,4.778151490150521,5.016334179174894,5.7500351610453135
1769162421792,134,6,4.888670578448687,5.280142602610082,5.85757632342724
1769162421796,134,6,4.7611646794475115,5.091360257533081,5.7277330312449255
1769162421800,133,5,4.539079384198831,4.255432774604397,5.503966427273189
1769162421804,133,5,4.444205471163949,4.186515118398308,5.407578012353709
1769162421808,134,6,4.61081020085799,5.16539841992664,5.5714316363197165
1769162421812,134,6,5.005053443028182,5.127615930850572,5.960940643001116
1769162421816,134,6,5.472727679390599,5.208044306187663,6.423206184880567
1769162421820,135,7,5.850365030264523,6.140863972384915,6.7967784094517505
1769162421824,135,7,6.058681305018534,6.252157457644642,7.002720765051133
1769162421828,135,7,6.1306555422857345,6.091256642323465,7.072555975123023
1769162421832,135,7,6.1602629011736845,6.174492922460696,7.098925853571445
1769162421836,135,7,6.204906070951813,6.148941048396934,7.139306347778448
1769162421840,135,7,6.2196289740319,6.1745900607139435,7.14962281685208
1769162421844,135,7,6.08736270172519,6.206726830059908,7.013252105843573
1769162421848,135,7,5.727397061011293,6.093780781074345,6.649303965269995
1769162421852,134,6,5.183470185943662,5.17927846642303,6.101477455270132
1769162421856,133,5,4.601880463924532,4.096029702441941,5.516289820699846
1769162421860,133,5,4.117619088118266,4.227711639828442,5.028440446172864
1769162421864,133,5,3.7603964459708097,4.122795748074111,4.666895686012381
1769162421868,132,4,3.4626476485294613,3.1568235382266936,4.3640379578809245
1769162421872,132,4,3.1440311843994473,3.117516461476713,4.040394521367441
1769162421876,132,4,2.789835291858827,3.106783705031701,3.681896665283959
1769162421880,131,3,2.4646238609521927,2.2197037752713245,3.352870224576121
1769162421884,131,3,2.2547857148265917,2.079003384009632,3.13909428488139
1769162421888,131,3,2.1850392892957267,2.223983940385922,3.064806749103586
1769162421892,131,3,2.1811050394651,1.992318095409947,3.05541746521139
1769162421896,131,3,2.1176216448272767,2.246513026943709,2.9856424663748253
1769162421900,131,3,1.9138819326389356,2.0300754112734287,2.7756589399380007
1769162421904,130,2,1.5949998695032672,1.2494133929687847,2.451923367280197
1769162421908,130,2,1.2713697055928077,1.0564568703146158,2.1251770141344783
1769162421912,130,2,1.067414283457988,1.1040753834114907,1.9182609149834329
1769162421916,130,2,1.0631202744906352,1.1630422484555216,1.9090014039347076
1769162421920,130,2,1.2704237158225389,1.0461660695301125,2.1090177200473876
1769162421924,130,2,1.6252956000631305,1.2501727561537348,2.4561951815348775
1769162421928,131,3,1.9945954619708577,2.010495009388455,2.8193272736853565
1769162421932,131,3,2.223827419835537,2.1385552878784573,3.0438695824745112
1769162421936,131,3,2.220188868761273,2.119587731208465,3.035459503036817
1769162421940,131,3,2.008524494394293,2.0443285095966797,2.8178992760344395
1769162421944,130,2,1.701326883323412,1.2625574986223478,2.5042090776973063
1769162421948,130,2,1.4022935790646789,0.9322414035962168,2.199149956623656
1769162421952,130,2,1.135675718635139,1.2465720391869453,1.927038958473355
1769162421956,130,2,0.8701377082859869,0.9605186921247478,1.6557298889717038
1769162421960,129,1,0.5996168136851365,0.2097124464488899,1.378779160896458
1769162421964,129,1,0.3804014067412777,0.0616936734411049,1.1528200077450488
1769162421968,129,1,0.2819486241248383,0.1018549607175608,1.0475234086075431
1769162421972,129,1,0.3089712646031594,0.0682886055915497,1.067458210122901
1769162421976,129,1,0.3767942702406344,0.1292569077671722,1.128065053741242
1769162421980,129,1,0.366986932142854,0.0175509119860415,1.1113177000929615
1769162421984,129,1,0.224591118399799,0.2376961599030358,0.9623144748858314
1769162421988,129,1,0.0232412607854988,-0.1216253351926867,0.7543954324242965
1769162421992,128,0,-0.0633866881865138,-0.7086642717340159,0.6612168081702774
1769162421996,129,1,0.1230522795576107,-0.1115355344863892,0.8413232561755334
1769162422000,129,1,0.6116500595912595,0.2510550947963064,1.323424531749775
1769162422004,130,2,1.285762610464768,0.9701417974807248,1.989838524418605
1769162422008,131,3,1.9714032617479216,2.128064625597797,2.666160796974943
1769162422012,131,3,2.5412005539200964,2.015782225739872,3.2262872413501897
1769162422016,131,3,2.944676128597065,2.1549663040689846,3.6216325631264903
1769162422020,132,4,3.17224411828995,2.964202614089429,3.8428658764786774
1769162422024,132,4,3.2325843073174996,3.232714269965112,3.897018828300336
1769162422028,132,4,3.176200399899957,2.8360846710925087,3.833294646807029
1769162422032,131,3,3.108748132722498,2.3127109403949326,3.7577409495804273
1769162422036,132,4,3.144108710585982,2.8115802916058974,3.785012200959433
1769162422040,132,4,3.3298791313640943,3.318249464403301,3.9625087043434366
1769162422044,132,4,3.6090784493343784,2.838279684612711,4.232675217794359
1769162422048,132,4,3.8407150590245056,3.2116380757876906,4.454521461350736
1769162422052,133,5,3.8649965739616183,3.950413417807607,4.468833298940205
1769162422056,132,4,3.58241693378546,3.089367005937232,4.177044193445674
1769162422060,131,3,3.000561278846208,2.1042893396691857,3.5875829120123783
1769162422064,131,3,2.219862990033406,1.9392751714207357,2.800509910750832
1769162422068,130,2,1.379079954352101,1.180887319228979,1.9527345641823208
1769162422072,129,1,0.5958451388362773,-0.1123253302026403,1.160211851822484
1769162422076,128,0,-0.0849036498680555,-0.8013753406706507,0.467989366234559
1769162422080,128,0,-0.7185427243771141,-1.067496502339479,-0.1776250768617633
1769162422084,127,-1,-1.4319867529282453,-1.8916367473521032,-0.9015867860761166
1769162422088,126,-2,-2.335883049496335,-3.004792212371945,-1.8136428750991704
1769162422092,125,-3,-3.4288816992226883,-3.958101125835653,-2.9136032203156015
1769162422096,124,-4,-4.559632389135567,-4.951951819780262,-4.05280695813846
1769162422100,123,-5,-5.48281609592572,-5.965998837114943,-4.987452306464749
1769162422104,122,-6,-5.993763013551187,-6.98481169638109,-5.510941150684427
1769162422108,122,-6,-6.060291658262483,-6.948388903539943,-5.587222916437685
1769162422112,123,-5,-5.840354966721049,-6.012819953117464,-5.37273458933799
1769162422116,123,-5,-5.554153803799725,-5.919843433035223,-5.090963939226013
1769162422120,123,-5,-5.32584259607088,-6.02962078428881,-4.872101106243024
1769162422124,123,-5,-5.15075562934836,-5.920073529641198,-4.715340370084042
1769162422128,123,-5,-4.998088049091852,-6.076581605323731,-4.587388899322262
1769162422132,123,-5,-4.872849627687636,-5.850817725683013,-4.484318608585469
1769162422136,124,-4,-4.654689760882306,-5.139785765068226,-4.275617645382233
1769162422140,125,-3,-3.7630604922743345,-3.783512509077593,-3.377160434207782
1769162422144,128,0,-0.9900471972162784,-1.2176859748664943,-0.588544867711118
1769162422148,133,5,5.103014772954516,4.2166703395506575,5.513503415318778
1769162422152,143,15,15.176133496117108,13.845355552009844,15.575440234744647
1769162422156,155,27,28.00875621846431,26.157384246837815,28.374514528423433
1769162422160,168,40,40.15995566224995,38.9225477327023,40.48099566859462
1769162422164,176,48,46.96373720919751,47.03333043644312,47.246433487132315
1769162422168,174,46,44.59190364993961,44.90635898674308,44.855904822566806
1769162422172,161,33,32.073711160444326,32.08504236085511,32.3409347440882
1769162422176,140,12,12.004106170212724,10.86165932075669,12.288132871024104
1769162422180,116,-12,-10.565292744918864,-12.793706581534876,-10.264438928449112
1769162422184,97,-31,-30.37953334907172,-32.221988382792055,-30.07427235662146
1769162422188,84,-44,-43.99744380383772,-44.7887312997193,-43.70651793801017
1769162422192,79,-49,-50.49670856051454,-50.182419686515445,-50.23609490993616
1769162422196,78,-50,-50.82390980490497,-50.87860649808949,-50.59853709678212
1769162422200,81,-47,-46.63110369329553,-48.081884954620776,-46.43286281554818
1769162422204,88,-40,-39.5010192437914,-41.0100926825601,-39.315536895216496
1769162422208,97,-31,-30.824319460896888,-31.98008486168476,-30.64145853644584
1769162422212,106,-22,-21.96128136541647,-23.057745670787845,-21.780670052304515
1769162422216,114,-14,-14.222398152197382,-14.947134074587046,-14.050559819277607
1769162422220,120,-8,-8.556689593966713,-9.127580402454504,-8.400086192946755
1769162422224,123,-5,-5.212620988629875,-5.973709659494862,-5.072744143048909
1769162422228,124,-4,-3.708251128955336,-5.0654133120508185,-3.5815139171097923
1769162422232,124,-4,-3.1920478116881004,-4.964832261080014,-3.073750528643232
1769162422236,125,-3,-2.937678092360772,-4.01269533696788,-2.826979074018413
1769162422240,126,-2,-2.613862560785407,-3.1099962349693393,-2.5153669933396956
1769162422244,126,-2,-2.2039693549476587,-2.997321441105494,-2.1237588838600594
1769162422248,126,-2,-1.7692608865132518,-3.082184677552695,-1.7089367294626745
1769162422252,126,-2,-1.3194965142101154,-2.9423808473948303,-1.274724172167638
1769162422256,127,-1,-0.8472872365481965,-2.040808560744534,-0.8125857701598994
1769162422260,128,0,-0.3863014293651463,-1.1150085264303995,-0.3605420377590758
1769162422264,128,0,0.0135117487059543,-0.9980931449029524,0.0269779423401776
1769162422268,128,0,0.3433935367412817,-1.1321983309885204,0.3412202430396525
1769162422272,128,0,0.6314960841130537,-0.8689493522440511,0.6135457140131864
1769162422276,129,1,0.8870054662372033,-0.1637044604318619,0.8551545400517049
1769162422280,129,1,1.0801155975458032,0.0258832011753951,1.0353963117486784
1769162422284,129,1,1.1886318008441856,-0.1847852396097272,1.1304709698469404
1769162422288,129,1,1.2485777198528236,0.0454716795191915,1.1761926470345088
1769162422292,129,1,1.3438990407115383,-0.0608416392794779,1.2573874615291765
1769162422296,129,1,1.545817155914913,-0.0040009667469909,1.445669181400397
1769162422300,130,2,1.8648995765247065,0.8831728664919521,1.750979856036327
1769162422304,130,2,2.2563239433382156,0.91176212981543,2.12780935936056
1769162422308,130,2,2.660462211265561,0.9494708575969868,2.516675590122127
1769162422312,131,3,3.037144134160678,2.001123682059442,2.878143934879946
1769162422316,131,3,3.375307997307802,1.9298598783098035,3.201762355528432
1769162422320,131,3,3.685958373648192,1.9179865239217428,3.4986271811852654
1769162422324,132,4,3.992770820420934,2.8962508817229384,3.791924266225309
1769162422328,132,4,4.328136579723729,2.8965160314626854,4.113336693010468
1769162422332,132,4,4.72638538225173,3.0836518738369727,4.496913034559463
1769162422336,133,5,5.200356794565469,3.790893733130813,4.955737824793065
1769162422340,133,5,5.71196818242039,4.074904167687967,5.451936740210795
1769162422344,134,6,6.170811823094867,4.706465941992691,5.895036416202231
1769162422348,134,6,6.477077849275797,5.071326324553114,6.185388962888296
1769162422352,134,6,6.583317807089635,4.896496824020095,6.276303390847957
1769162422356,134,6,6.5315720603397995,4.9369558133557225,6.210587416996385
1769162422360,134,6,6.443190861458181,4.957610369911285,6.109339095492
1769162422364,134,6,6.470122966294996,4.753057945698614,6.123024677981912
1769162422368,134,6,6.7311942664683135,5.070906700687227,6.36886324402708
1769162422372,135,7,7.257026296871313,5.820433055458139,6.877331226258707
1769162422376,135,7,7.964937701657524,6.044213462985728,7.567520599933505
1769162422380,136,8,8.683651323594358,6.805343069517926,8.27027816040015
1769162422384,137,9,9.236081804288297,7.904702165969903,8.808837841238304
1769162422388,137,9,9.547515582401203,7.901046605600219,9.106854971277189
1769162422392,137,9,9.69656645171075,7.953176603999209,9.241388195203315
1769162422396,137,9,9.84315892894625,7.92824279011356,9.372369263307531
1769162422400,137,9,10.075999983406277,7.861481428477315,9.589332327806412
1769162422404,138,10,10.316729382511223,8.880358926639278,9.81417278646716
1769162422408,138,10,10.376978699593362,8.880721094507969,9.858295977581705
1769162422412,137,9,10.115767003329069,7.971836457908754,9.581000068968246
1769162422416,137,9,9.549896085234376,7.886373353202264,8.999803038338513
1769162422420,136,8,8.827287361942842,6.877463414540285,8.262718346963183
1769162422424,135,7,8.105164144410104,5.848203968014695,7.526087352103158
1769162422428,135,7,7.4467132546495485,5.920423293566042,6.8521580980751375
1769162422432,134,6,6.814456314405452,4.905227510694726,6.203486891304371
1769162422436,133,5,6.147103131113337,3.937562056751593,5.519674802487767
1769162422440,133,5,5.443743316662214,3.8130374376526666,4.800543239684929
1769162422444,132,4,4.7859480055751495,2.8680754174733987,4.12775034425545
1769162422448,131,3,4.280481655374464,1.934337739135498,3.607800420452663
1769162422452,131,3,3.967698457670417,1.8383351329204507,3.2804252881118905
1769162422456,131,3,3.7774886330295554,2.024482203130185,3.074433403704715
1769162422460,131,3,3.5777373301973294,1.666882444836736,2.8572032342755356
1769162422464,130,2,3.2684847613583146,1.0300692530917102,2.530083456355393
1769162422468,130,2,2.8349248190939997,0.741053031625373,2.0805706939678945
1769162422472,129,1,2.332531957684872,0.0290329883399084,1.564874973214908
1769162422476,129,1,1.8510141628491672,-0.1917754261953084,1.0707117164377324
1769162422480,129,1,1.495827865236663,-0.1369406286797665,0.7008702854361383
1769162422484,128,0,1.3645774002365822,-1.163668806309048,0.552556935414918
1769162422488,128,0,1.4868628618667992,-1.1020644441743197,0.6573458475088494
1769162422492,129,1,1.767529944980109,-0.103948438449247,0.9217680838287372
1769162422496,129,1,2.0150290184218624,-0.131796450203822,1.1540026781338049
1769162422500,129,1,2.0613208842814728,-0.1522910164400934,1.1849264156762809
1769162422504,129,1,1.8728245344441496,-0.2178046735160841,0.9808025194865566
1769162422508,128,0,1.5525393031969124,-1.0115036229770369,0.6453676109654367
1769162422512,128,0,1.240907587726373,-1.2707295107060863,0.3193550502024577
1769162422516,128,0,1.0145120913016346,-0.9194803529755642,0.0786043012725346
1769162422520,128,0,0.8651746352133038,-1.434619631746486,-0.0859398427802455
1769162422524,127,-1,0.749591933251359,-1.884481417157997,-0.2176361896447906
1769162422528,128,0,0.6405237189328064,-1.4164544124351912,-0.3431326021977656
1769162422532,127,-1,0.5331412602146139,-1.850635664606127,-0.4665917584508389
1769162422536,127,-1,0.4146868063839204,-2.38189373684171,-0.6002800270361892
1769162422540,127,-1,0.2398894946882745,-1.9627461127347583,-0.7894564607693753
1769162422544,127,-1,-0.0489194257745473,-2.3643340336043592,-1.0924802518917205
1769162422548,126,-2,-0.4642943729958912,-2.9798951281978066,-1.5227579637714728
1769162422552,126,-2,-0.9369900757385023,-3.2667046523166388,-2.0111571706443843
1769162422556,125,-3,-1.3485841838000594,-4.039233428496675,-2.4384687333469866
1769162422560,125,-3,-1.611955940296171,-4.253528585189992,-2.7167247309021314
1769162422564,125,-3,-1.7240163331357017,-4.127003593126075,-2.8428908453370973
1769162422568,125,-3,-1.7384382943961387,-4.204746742184612,-2.8715784173263086
1769162422572,125,-3,-1.688021396243126,-4.075907020482719,-2.8363302160778776
1769162422576,125,-3,-1.5416926367111057,-4.249213106143404,-2.705706150473133
1769162422580,125,-3,-1.24538047670394,-4.045619119996033,-2.424542085709712
1769162422584,126,-2,-0.8031721927398465,-3.353582973765748,-1.9963995250968032
1769162422588,126,-2,-0.3071724041157702,-2.9792806427768115,-1.5141206440991757
1769162422592,127,-1,0.1235566088774424,-2.335987429651043,-1.0979654646131944
1769162422596,127,-1,0.4367453785145145,-1.990960911519621,-0.800332109677662
1769162422600,127,-1,0.6763578790092408,-2.3322702582185943,-0.5759337934080915
1769162422604,127,-1,0.91781852361811,-2.0697684581000524,-0.3481551782447402
1769162422608,128,0,1.183358188294152,-1.2730954626203757,-0.0953799254504446
1769162422612,128,0,1.4296602211218803,-1.073236979031926,0.1373488932530485
1769162422616,128,0,1.6060369525356226,-1.2400621192782646,0.298771329850613
1769162422620,128,0,1.69843750171741,-1.134184082454703,0.3760498301730711
1769162422624,128,0,1.7080868171586352,-1.2392628683306348,0.3716022721526094
1769162422628,128,0,1.6054696069279346,-1.1732704619103491,0.2555718500356798
1769162422632,128,0,1.3252206785346328,-1.1196968828907077,-0.0384366419178799
1769162422636,127,-1,0.8072751345208986,-2.2725729300447517,-0.570553303909703
1769162422640,126,-2,0.0375966409516286,-3.0541466352227866,-1.354022136388124
1769162422644,126,-2,-0.9419887292986924,-3.393168163195451,-2.346763732757306
1769162422648,124,-4,-2.0482851270400646,-4.994282793066337,-3.4661301521299803
1769162422652,123,-5,-3.185704475244254,-6.329356570192981,-4.6168662728457335
1769162422656,122,-6,-4.2836677610978064,-7.062276351340669,-5.728134482325183
1769162422660,121,-7,-5.32003371220712,-8.274305806653585,-6.777587931572153
1769162422664,120,-8,-6.308336678611177,-9.223890686499708,-7.779004570550866
1769162422668,119,-9,-7.260488000670695,-10.115840742615852,-8.744692439730848
1769162422672,118,-10,-8.159595550359017,-11.297940209727306,-9.657915285072168
1769162422676,117,-11,-8.959842276772031,-12.011050861206716,-10.472510694058029
1769162422680,117,-11,-9.600107854077432,-12.435715987267477,-11.12619132796735
1769162422684,116,-12,-10.015337474680445,-13.004587578243829,-11.552091580866623
1769162422688,116,-12,-10.150117935865133,-13.391821329139098,-11.694101752473888
1769162422692,116,-12,-9.984189911144725,-13.016625937910169,-11.534798530208548
1769162422696,117,-11,-9.56305934013606,-12.283654268027094,-11.125638760397878
1769162422700,117,-11,-9.016602624281957,-12.233303242974168,-10.60069772088402
1769162422704,117,-11,-8.539184654506496,-12.146883406565932,-10.15134558713818
1769162422708,118,-10,-8.278557299834446,-11.352715893011318,-9.914940378455563
1769162422712,118,-10,-8.097494912516234,-10.978408440855642,-9.74308202148398
1769162422716,119,-9,-7.304295867077084,-10.40458925561098,-8.941321526928677
1769162422720,122,-6,-4.61830555392735,-7.082223641196755,-6.239101776487285
1769162422724,128,0,1.3553160472035284,-1.3067458685533948,-0.2589928649908326
1769162422728,136,8,11.146400499992753,6.755758712740743,9.516400122018725
1769162422732,148,20,23.413500977642983,18.998640373583093,21.746915869062956
1769162422736,161,33,34.70500140992996,31.50764040642941,32.99435871844947
1769162422740,167,39,40.52519042268689,38.07613112290794,38.77966093620384
1769162422744,165,37,37.39062594136985,35.41021415457486,35.63027407294044
1769162422748,151,23,24.723239124484188,22.02169239415788,22.9687086809139
1769162422752,131,3,5.353781164904012,1.6658014076188763,3.616777996625332
1769162422756,109,-19,-15.740431784334298,-20.190292138977476,-17.46170869862421
1769162422760,91,-37,-33.68008820515241,-38.13130645996388,-35.39913198087151
1769162422764,81,-47,-45.53463148012896,-48.398148981856174,-47.26968513997539
1769162422768,76,-52,-50.81060815193189,-53.0352192856766,-52.57551016575567
1769162422772,76,-52,-50.653874408080526,-53.40297225156845,-52.450979204438994
1769162422776,79,-49,-46.6606885651296,-50.060180569638256,-48.48041526141761
1769162422780,85,-43,-40.179238183077416,-44.38193423578144,-42.00726891303651
1769162422784,93,-35,-32.3083753355084,-36.1006277718823,-34.13543426402549
1769162422788,102,-26,-24.16459291361771,-27.345445935971412,-25.991273827753588
1769162422792,109,-19,-16.910183181164115,-20.134028757034702,-18.743788647154283
1769162422796,115,-13,-11.436274845845784,-14.331577021242438,-13.283502259516633
1769162422800,118,-10,-8.00598270898282,-11.20482962622821,-9.867749334137953
1769162422804,119,-9,-6.216976764248575,-10.23397553137203,-8.088765219674563
1769162422808,120,-8,-5.346364280501181,-9.253539543788632,-7.222999797947877
1769162422812,121,-7,-4.8007808901354645,-8.172338003648203,-6.681407046655269
1769162422816,122,-6,-4.332085996371898,-7.369841003501599,-6.220898912463791
1769162422820,122,-6,-3.9329094460940786,-7.125041976168254,-5.834958037366158
1769162422824,122,-6,-3.6153321673859047,-7.383039628701989,-5.531653243748744
1769162422828,122,-6,-3.312418507064449,-7.051379568637537,-5.239417850426733
1769162422832,123,-5,-2.9441712538284333,-6.425941875838438,-4.877445407162689
1769162422836,123,-5,-2.5113567342712577,-6.1061435347872335,-4.449641630942531
1769162422840,124,-4,-2.0930882269124167,-5.421922460493513,-4.03855862039865
1769162422844,124,-4,-1.7607875779519508,-5.08278217034027,-3.716053056952734
1769162422848,124,-4,-1.5124537236643416,-5.36877268002773,-3.47773636523076
1769162422852,124,-4,-1.292486520191929,-5.1138826654462015,-3.265878883440977
1769162422856,125,-3,-1.05689348918947,-4.439287344536434,-3.0369467598357436
1769162422860,125,-3,-0.8026907742441165,-4.108328675748396,-2.7898915259091623
1769162422864,125,-3,-0.5438567881515599,-4.376937537526908,-2.539381379320201
1769162422868,125,-3,-0.2822297771472257,-4.124622488272626,-2.2861626897600225
1769162422872,126,-2,-0.0044898391784418,-3.314263410987731,-2.0158767712928523
1769162422876,126,-2,0.3099336277109428,-3.3356782035831287,-1.7081306816995514
1769162422880,126,-2,0.6837438255770949,-3.132588089688299,-1.3409685773889437
1769162422884,127,-1,1.1315044100442946,-2.4407717323818825,-0.9002769850733966
1769162422888,127,-1,1.6438231405038437,-1.997207556016433,-0.3954538096216706
1769162422892,128,0,2.1813892778609913,-1.5170744748535716,0.1345055097965402
1769162422896,128,0,2.688502406269273,-1.1116471522472084,0.6343591030875557
1769162422900,129,1,3.1207915680943583,-0.3821525036496683,1.0600589986974058
1769162422904,129,1,3.471369585124842,-0.1963645572169267,1.4047275880653134
1769162422908,129,1,3.776043361292661,-0.2366681847525701,1.70383664401818
1769162422912,130,2,4.089980776918867,0.6767311352795671,2.011989559440938
1769162422916,130,2,4.44938055552692,0.7165548226023231,2.3650022724957283
1769162422920,130,2,4.841268066084821,0.7388898373737656,2.7500397307650837
1769162422924,131,3,5.201661898770171,1.7241211235140577,3.103571422212444
1769162422928,131,3,5.450942194679974,1.7964528837025946,3.3464194891353527
1769162422932,131,3,5.547698629440898,1.641660818294362,3.437564548889759
1769162422936,131,3,5.520590920281399,1.741612461953244,3.405743757478267
1769162422940,131,3,5.455759009109506,1.6816175408133531,3.336488643217541
1769162422944,131,3,5.453320421839687,1.8106120100695031,3.329064153378708
1769162422948,131,3,5.578434300266828,1.6704559940581882,3.448456101486453
1769162422952,131,3,5.828769728245118,1.778270691654508,3.6928448257083466
1769162422956,132,4,6.140666436985547,2.567526364676578,3.998982226617083
1769162422960,132,4,6.438570547839161,2.865378075307232,4.2915100882380575
1769162422964,132,4,6.689644520693403,2.607140459947431,4.537975520833666
1769162422968,132,4,6.914301720430965,2.8798612159950534,4.758892803495513
1769162422972,133,5,7.152839790522954,3.5395989892147814,4.993665576497184
1769162422976,133,5,7.429478080710602,3.7903848042334225,5.265536240714282
1769162422980,133,5,7.733904228085223,3.6498328793854498,5.564656267874004
1769162422984,133,5,8.013553257403633,3.802724566123194,5.83976334520164
1769162422988,134,6,8.187005348251724,4.691513546306879,6.0095738862249855
1769162422992,134,6,8.191207288957301,4.6909127719371195,6.009933007547583
1769162422996,133,5,8.024883952594234,3.639207768515232,5.8391061074561685
1769162423000,133,5,7.733288925202971,3.7857004585790506,5.543141118623387
1769162423004,133,5,7.349398594851434,3.675978318550394,5.15570934214461
1769162423008,132,4,6.865715593760088,2.781118004275339,4.66903874468313
1769162423012,132,4,6.269612386985464,2.6223583357734253,4.069887797465875
1769162423016,131,3,5.595558320247305,1.662466365042765,3.392516227009534
1769162423020,130,2,4.930980998653018,0.7787440353935794,2.7244645285078857
1769162423024,130,2,4.365282174037934,0.6637959474956225,2.155209324521703
1769162423028,129,1,3.9291367055014854,-0.2145746452134379,1.715480225503085
1769162423032,129,1,3.580491029954823,-0.3889358497364774,1.363468620922618
1769162423036,129,1,3.252655925497563,-0.34020277290396,1.0328515373924725
1769162423040,128,0,2.925486264665359,-1.2226682661187245,0.7035936479538986
1769162423044,128,0,2.6580812242617977,-1.3587599355880784,0.4343390372015162
1769162423048,128,0,2.5522040011591933,-1.1740934481034464,0.3261179717833298
1769162423052,128,0,2.671925489074373,-1.479846711175068,0.4428224319815967
1769162423056,128,0,2.9794664859878255,-1.212675657896518,0.7473320461168607
1769162423060,129,1,3.341002219491352,-0.3953953162906476,1.1064994125450986
1769162423064,129,1,3.609092648586644,-0.1742747378505219,1.372819816975273
1769162423068,129,1,3.720281610583843,-0.3733872602715775,1.4822911538837065
1769162423072,129,1,3.722255247227475,-0.3072617563930252,1.482208375869816
1769162423076,129,1,3.707577992794689,-0.3644229279343056,1.4651877008692331
1769162423080,129,1,3.7203493291071585,-0.3001596221062611,1.475854851133333
1769162423084,129,1,3.723473387124923,-0.2108395433054301,1.477801597752674
1769162423088,129,1,3.653575779416951,-0.4163203005965232,1.407700662614887
1769162423092,129,1,3.5097868991533208,-0.2066593849716069,1.2636661439607804
1769162423096,129,1,3.3863383773004347,-0.5374394772731839,1.1387527548146683
1769162423100,128,0,3.3994879506620537,-1.0954573276354422,1.1492481075423613
1769162423104,129,1,3.5596997116007563,-0.4388865771010273,1.3069087998817184
1769162423108,129,1,3.715007914401271,-0.1944819541461891,1.4609676259046012
1769162423112,129,1,3.6471712122141207,-0.4236568184057248,1.3931294349224437
1769162423116,129,1,3.2589367083595633,-0.359946008410597,1.0051044453166895
1769162423120,128,0,2.686503721364196,-1.2457977695835087,0.4324080418382221
1769162423124,127,-1,2.2183781215425733,-2.3513418189533803,-0.0360616658450548
1769162423128,127,-1,2.074634537598507,-2.226215166181192,-0.1797159234557014
1769162423132,128,0,2.24258349384088,-1.4586836554450362,-0.0117703820227555
1769162423136,128,0,2.519281117560516,-1.2729416945546823,0.2639283304618405
1769162423140,128,0,2.709085008271162,-1.3846778474281527,0.4520594105643895
1769162423144,128,0,2.7811697589450177,-1.2006882365985718,0.5233707980503625
1769162423148,128,0,2.852677640926141,-1.4064562482521188,0.5960746658169369
1769162423152,128,0,3.0415903786555063,-1.285931585918923,0.787346709853771
1769162423156,129,1,3.3433900454974093,-0.4310972248147774,1.0906234284357244
1769162423160,129,1,3.638934507248155,-0.2456557403765449,1.3855614469698674
1769162423164,129,1,3.804256576022341,-0.340896353541683,1.5491648175241777
1769162423168,129,1,3.8083401672353743,-0.2926951521077433,1.5525770495480222
1769162423172,129,1,3.7234692158083633,-0.4120647770190187,1.4692530537944386
1769162423176,129,1,3.666198088592022,-0.2984702389367677,1.4150073467436748
1769162423180,129,1,3.731230382790921,-0.3783946220912654,1.4828565249891037
1769162423184,129,1,3.958110581649073,-0.2240553221493775,1.711156027050905
1769162423188,130,2,4.330271542434445,0.5836415689397019,2.083427436727397
1769162423192,130,2,4.783319532890403,0.6790887727575996,2.5364823259630604
1769162423196,130,2,5.206621561663242,0.6418050048664168,2.9608106991628835
1769162423200,131,3,5.453963541346818,1.641070272126065,3.2099704492500796
1769162423204,131,3,5.389366231931104,1.7965195421323394,3.1469400562861396
1769162423208,130,2,4.9490412645709885,0.4784343776845875,2.7079126983843755
1769162423212,129,1,4.16372422417958,-0.1578262286931975,1.9247940243164616
1769162423216,129,1,3.1276402174001863,-0.5836767492655386,0.892269821087009
1769162423220,127,-1,1.9579197506601824,-2.095738382441641,-0.2736879056325513
1769162423224,126,-2,0.772400149343401,-3.476674982266112,-1.4566850258697888
1769162423228,125,-3,-0.3313062732935474,-4.295268856976999,-2.559276854994519
1769162423232,124,-4,-1.3075774467353471,-5.331529800465065,-3.534588810997513
1769162423236,123,-5,-2.182865797300222,-6.509057076794235,-4.407535841113243
1769162423240,122,-6,-3.0330818734274683,-7.048610483858469,-5.2537488793040605
1769162423244,122,-6,-3.915900629812061,-7.6566309027884225,-6.13243318992899
1769162423248,120,-8,-4.801665653508026,-9.013060218508196,-7.015864154580799
1769162423252,120,-8,-5.566450101818026,-9.729377407410528,-7.78013095784425
1769162423256,119,-9,-6.065786281445839,-10.043307160505083,-8.27796845118304
1769162423260,119,-9,-6.231530393996162,-10.545870511811977,-8.437594175885465
1769162423264,119,-9,-6.109040949699131,-10.16575858467179,-8.303893705889902
1769162423268,120,-8,-5.808144793905461,-9.474570775396376,-7.991920412814492
1769162423272,120,-8,-5.429667015063586,-9.36036290949622,-7.610691447558181
1769162423276,120,-8,-5.057022494446422,-9.322771464180454,-7.24747297283234
1769162423280,120,-8,-4.807665249945589,-9.36791847721242,-7.013610847835768
1769162423284,120,-8,-4.795006946884816,-9.255508471264656,-7.00871985153759
1769162423288,121,-7,-4.854418501492758,-8.477839949871628,-7.05642987407729
1769162423292,122,-6,-4.1430722579822525,-7.298370130903543,-6.314024743751764
1769162423296,125,-3,-1.04626136561785,-4.441878699669081,-3.1805137318530132
1769162423300,131,3,6.170071331947034,1.8029076903939387,4.058905676271338
1769162423304,142,14,18.02574555343384,12.54108010519868,15.911474118299196
1769162423308,157,29,32.59265674481056,27.74246406993865,30.451399034579797
1769162423312,171,43,45.42104093195532,41.490382555148805,43.24524455746626
1769162423316,177,49,51.115759482801906,47.71797161128507,48.918703460119474
1769162423320,173,45,45.922931142891535,43.64080911920825,43.73104012930127
1769162423324,156,28,29.829174869587646,26.57400201885135,27.66756891272326
1769162423328,131,3,6.80675071753195,1.6898706336142784,4.687158805921168
1769162423332,107,-21,-17.024491092131015,-22.450427791973397,-19.107743150822845
1769162423336,88,-40,-36.17872567268309,-41.285404251146765,-38.24453295162736
1769162423340,78,-50,-47.828206665085425,-51.240285176880995,-49.899019547357454
1769162423344,75,-53,-52.05091434851038,-54.5538905396293,-54.141475030356204
1769162423348,75,-53,-50.61686345849837,-54.16138097506477,-52.72678667269672
1769162423352,80,-48,-45.51125294943927,-49.6886292038559,-47.626452179502266
1769162423356,86,-42,-38.20759291333713,-43.02297850296374,-40.31032253728424
1769162423360,95,-33,-29.806895538095706,-34.546393064656584,-31.887429263411587
1769162423364,104,-24,-21.429476558481547,-25.20519581014937,-23.49087048746294
1769162423368,112,-16,-14.243284281889784,-17.55160092317791,-16.296137355733713
1769162423372,117,-11,-9.068938440606043,-12.35035173579096,-11.12101907203142
1769162423376,119,-9,-5.99877107918158,-10.34238414468764,-8.04860612797043
1769162423380,120,-8,-4.4451308527681554,-9.304207033409568,-6.485151635622737
1769162423384,122,-6,-3.593890869043316,-7.34045629445563,-5.619370224440302
1769162423388,123,-5,-2.882206688737293,-6.504819779130702,-4.89618762603698
1769162423392,123,-5,-2.1740398695415895,-6.322687993072506,-4.183356478594224
1769162423396,124,-4,-1.6156645828240737,-5.443227304339108,-3.6234341678935458
1769162423400,124,-4,-1.3683391090270611,-5.174330409688362,-3.3712941237596272
1769162423404,124,-4,-1.4174124467172584,-5.487771518567744,-3.4098031629839385
1769162423408,124,-4,-1.5518298009645994,-5.354752657905563,-3.5307615057549087
1769162423412,124,-4,-1.4967624761561662,-5.459159721027584,-3.463777971942719
1769162423416,124,-4,-1.0992060262648804,-5.366448661601935,-3.0577163056337593
1769162423420,125,-3,-0.4356316281695975,-4.191614020695813,-2.387597877100136
1769162423424,126,-2,0.2420018650438451,-3.5412662188280706,-1.7028832071196969
1769162423428,126,-2,0.6908241637369277,-3.227418097014455,-1.2451866516055667
1769162423432,127,-1,0.854640310188534,-2.6528250307995744,-1.070948069533395
1769162423436,126,-2,0.8927838858849704,-3.1611027257943034,-1.0214512790639243
1769162423440,126,-2,1.036833007622106,-3.417616777160724,-0.8656266041005803
1769162423444,127,-1,1.4025061784734372,-2.316648421112327,-0.4886715818918681
1769162423448,128,0,1.9232148487621883,-1.4173719754847964,0.0418103732103214
1769162423452,128,0,2.4451583013552387,-1.503175237066997,0.5723209431579748
1769162423456,128,0,2.8668381334614343,-1.29148589694706,1.003095663062727
1769162423460,129,1,3.193036654148747,-0.3423949952260955,1.3402410452039335
1769162423464,129,1,3.4862079553421763,-0.3618061341330726,1.645885355243962
1769162423468,129,1,3.786389491436087,-0.3789338998852103,1.9587421305447896
1769162423472,130,2,4.0730864637483695,0.4752765191637658,2.257118713003406
1769162423476,130,2,4.2959415909649525,0.6932472790815818,2.4903343469022476
1769162423480,130,2,4.438628448752522,0.6698890555050829,2.6431170587322197
1769162423484,130,2,4.546316381281386,0.6113645075759029,2.762486080008232
1769162423488,130,2,4.68880409791829,0.6799675151623494,2.9188845215360617
1769162423492,131,3,4.907096188499671,1.3920462164117435,3.151596399291841
1769162423496,131,3,5.198905237193698,1.7831856281876677,3.4560133087848
1769162423500,131,3,5.531670783278993,1.5468842581186113,3.799408066722507
1769162423504,131,3,5.839544919348615,1.7395692249976338,4.11795627067451
1769162423508,132,4,6.014805086291465,2.573915188116224,4.305597812829193
1769162423512,132,4,5.946419854744161,2.46170777924616,4.251128386194765
1769162423516,131,3,5.603657704094854,1.749925295304432,3.922833025956053
1769162423520,131,3,5.086609820609801,1.5094952042373762,3.420288091401135
1769162423524,130,2,4.582229010127371,0.827007617886921,2.930307823024909
1769162423528,130,2,4.2535091995627505,0.4465820664093596,2.6155798387009326
1769162423532,130,2,4.147806754815278,0.6295725678496907,2.5231370391956935
1769162423536,130,2,4.189567325188602,0.5560874674242888,2.57768457350467
1769162423540,130,2,4.2532874271163035,0.6845163673165913,2.654683548449745
1769162423544,130,2,4.255235436541332,0.6720279383546415,2.6713365252211436
1769162423548,130,2,4.19851337366703,0.5593563795941771,2.6307169594264734
1769162423552,130,2,4.148292522407283,0.5758273043345133,2.5969032564296257
1769162423556,130,2,4.163294345659622,0.5473260416710425,2.6274075379815107
1769162423560,130,2,4.2336286094683135,0.7231025728315708,2.712088222542847
1769162423564,130,2,4.267114668339363,0.6077690271223256,2.759569186657414
1769162423568,130,2,4.136512417074133,0.6211576427795588,2.6436137410303857
1769162423572,130,2,3.761234235557815,0.5504502877396484,2.284129747591459
1769162423576,129,1,3.1665573478999014,-0.4923431354721195,1.7063905814804614
1769162423580,128,0,2.471378277815754,-1.18322656345955,1.0288899427426612
1769162423584,128,0,1.8114040205975872,-1.5579266227939987,0.3864601827963606
1769162423588,127,-1,1.258091909867812,-2.153396958891493,-0.1503519518331544
1769162423592,127,-1,0.7883778429744512,-2.7001176863212706,-0.6046992921798788
1769162423596,126,-2,0.3138651361292638,-3.2402951358325325,-1.0640967931089869
1769162423600,126,-2,-0.2554948116781592,-3.4355741842989063,-1.6174876933226885
1769162423604,125,-3,-0.9485612813103116,-4.348077161963234,-2.2930836481163746
1769162423608,124,-4,-1.705500644560824,-5.312302918524204,-3.031122583087876
1769162423612,124,-4,-2.4006835774211153,-5.582447623007115,-3.7068454827900528
1769162423616,123,-5,-2.8986743797463124,-6.319111128884452,-4.1860758824339435
1769162423620,123,-5,-3.1122000640031513,-6.410319578558874,-4.382160862874704
1769162423624,123,-5,-3.040889919392237,-6.342707192740867,-4.294103521058506
1769162423628,123,-5,-2.776906412822758,-6.3400068599110195,-4.012922882369302
1769162423632,124,-4,-2.4652373422584795,-5.5304664331395585,-3.6831743196018
1769162423636,124,-4,-2.2273993999334363,-5.384604376386733,-3.426741725725414
1769162423640,124,-4,-2.095474696684062,-5.368189380743293,-3.2758424780915267
1769162423644,124,-4,-2.0099216560206044,-5.3689205146596555,-3.1704886623545794
1769162423648,124,-4,-1.8806684264413656,-5.341501605380886,-3.0206140210027983
1769162423652,125,-3,-1.6508420040976095,-4.489091329089064,-2.7704634010808844
1769162423656,125,-3,-1.312500983348713,-4.456106821111456,-2.4131848254747243
1769162423660,125,-3,-0.888071999374808,-4.288516079235583,-1.970761599769052
1769162423664,126,-2,-0.4193691281204171,-3.467552204017858,-1.4833654652634525
1769162423668,126,-2,0.0309147750107901,-3.234963241532448,-1.0126424709937356
1769162423672,127,-1,0.3934068994924748,-2.600441321044243,-0.6285304332425856
1769162423676,127,-1,0.6276789150943426,-2.323639169281946,-0.3728591643743137
1769162423680,127,-1,0.7442200855982462,-2.462263907754427,-0.2359070779622019
1769162423684,127,-1,0.7800310217845057,-2.2717614358473703,-0.1802324663428444
1769162423688,127,-1,0.7448639897959222,-2.4580176156773312,-0.1951483113997776
1769162423692,127,-1,0.5958921068871026,-2.3536599594477874,-0.3230878596895981
1769162423696,127,-1,0.2784157945794806,-2.566485392551596,-0.6191211815525126
1769162423700,126,-2,-0.1967526871823557,-3.2445586013051027,-1.0728565628139852
1769162423704,126,-2,-0.7139385473832003,-3.478685069628616,-1.5683726929794093
1769162423708,125,-3,-1.098862813277315,-4.277864954567814,-1.9307975327525304
1769162423712,125,-3,-1.218237437015422,-4.49900304610531,-2.027071995705489
1769162423716,126,-2,-1.0459591881293084,-3.441716257443934,-1.832412243686783
1769162423720,126,-2,-0.6449296747295753,-3.3410387389710214,-1.4105047206379266
1769162423724,126,-2,-0.1042630652705706,-3.4388250823078206,-0.8492705665485414
1769162423728,127,-1,0.4972527146760546,-2.268431489741035,-0.2255295562781337
1769162423732,128,0,1.091397572627656,-1.5579043443694909,0.3927857278850191
1769162423736,128,0,1.6240328516143827,-1.3372762471857111,0.9497867155240232
1769162423740,129,1,2.073112106390119,-0.4660950805997197,1.4217464726242772
1769162423744,129,1,2.450246317538332,-0.3270078953372006,1.820548705822861
1769162423748,129,1,2.769523806578442,-0.3711365392775161,2.162075808454772
1769162423752,130,2,3.0166380747762367,0.5194598810381906,2.433247577741084
1769162423756,130,2,3.163941432842012,0.637598989004184,2.6058022147465008
1769162423760,130,2,3.223035602875897,0.5014509792427141,2.689771449637999
1769162423764,130,2,3.2669670080451163,0.7656216744655948,2.757396131740048
1769162423768,130,2,3.3738761385284675,0.449520605535705,2.8873166403364285
1769162423772,130,2,3.533076551075285,0.7711051517088185,3.0697688791577056
1769162423776,131,3,3.6115515208138183,1.3455445552258825,3.172136639223286
1769162423780,130,2,3.43212781477753,0.8308899712047882,3.0171317727427978
1769162423784,130,2,2.90653613045313,0.4067558742725778,2.5164026364506222
1769162423788,129,1,2.108374495971461,-0.2003852417908893,1.7437065940699332
1769162423792,128,0,1.2202154158635918,-1.57642628477924,0.8816458737870086
1769162423796,127,-1,0.3979599360054436,-2.3072124416238644,0.0854809643273482
1769162423800,127,-1,-0.3327504897557387,-2.480609422052588,-0.6202753136362824
1769162423804,126,-2,-1.0658802618675174,-3.326258800584887,-1.329884788398456
1769162423808,125,-3,-1.916607717567132,-4.437215260249606,-2.157047566193797
1769162423812,124,-4,-2.930881979691952,-5.384317182614394,-3.1457823788421337
1769162423816,123,-5,-4.06112360275034,-6.455588482257742,-4.248590157920024
1769162423820,122,-6,-5.191216262555116,-7.3566889370169,-5.351708535804608
1769162423824,121,-7,-6.175137416882969,-8.421037345409685,-6.310936237229304
1769162423828,120,-8,-6.88047067242585,-9.385048831494691,-6.99243352392662
1769162423832,120,-8,-7.234595977561245,-9.405248336124869,-7.319741753655757
1769162423836,120,-8,-7.251025398652185,-9.460043802259824,-7.30429832580691
1769162423840,120,-8,-7.014228102955253,-9.313859825877646,-7.033985081224566
1769162423844,121,-7,-6.6371597343231254,-8.487883152748632,-6.629562369769701
1769162423848,121,-7,-6.232626026844135,-8.312032230797609,-6.209291242429051
1769162423852,121,-7,-5.909281080830609,-8.502100193398253,-5.877818861521651
1769162423856,121,-7,-5.72146736225516,-8.343171860092285,-5.676354697411287
1769162423860,122,-6,-5.469156021215454,-7.432857229325778,-5.392112563016375
1769162423864,124,-4,-4.390695570637131,-5.364031170224237,-4.262002100834997
1769162423868,127,-1,-1.0678841840652245,-2.4257131120503717,-0.8804801985542008
1769162423872,133,5,6.048880962769518,3.585076102662544,6.2828969085190955
1769162423876,144,16,17.468553439437205,14.618309707353532,17.723687167288563
1769162423880,158,30,31.479806046154913,28.580323460385344,31.731868935215424
1769162423884,171,43,43.952599202363466,41.66829595347253,44.19323332742456
1769162423888,178,50,49.68845267260999,48.5075867532882,49.92991357871584
1769162423892,174,46,44.86216096864653,44.59882089797659,45.129524809413354
1769162423896,158,30,29.18311730518539,28.56164087219981,29.50037814408422
1769162423900,133,5,6.353817147749172,3.566780181015832,6.733118599490425
1769162423904,108,-20,-17.58529566335566,-21.26239585929044,-17.147312025011182
1769162423908,90,-38,-37.01790311367277,-39.53226667713349,-36.53769446886411
1769162423912,79,-49,-48.900945178234856,-50.25472957626382,-48.40080027593916
1769162423916,76,-52,-53.16460336782633,-53.549490158137715,-52.661768969923905
1769162423920,77,-51,-51.57652065479984,-52.308639352886225,-51.07358866273029
1769162423924,81,-47,-46.24241218571309,-48.43020763490684,-45.72614740266705
1769162423928,88,-40,-38.791604055901686,-41.40331653394928,-38.242632945091216
1769162423932,97,-31,-30.41725280941298,-32.3678423616777,-29.823734362808924
1769162423936,106,-22,-22.20958280145749,-23.44075550961199,-21.57372839067615
1769162423940,113,-15,-15.210253190623932,-16.384937122965713,-14.543061358637168
1769162423944,118,-10,-10.12207934543198,-11.416781598089411,-9.432497801993016
1769162423948,121,-7,-7.024077199367312,-8.438241801840071,-6.3125320470453055
1769162423952,122,-6,-5.417152751864496,-7.335992461685022,-4.677572176275818
1769162423956,123,-5,-4.592436891701809,-6.450061285898215,-3.819172249191188
1769162423960,124,-4,-4.030215792729667,-5.316183485320256,-3.223320559398535
1769162423964,125,-3,-3.546222821913651,-4.540088188734098,-2.7109168408265214
1769162423968,125,-3,-3.1583086283311164,-4.290940168614199,-2.2996279986787345
1769162423972,125,-3,-2.880873153413732,-4.529587387997779,-1.9987879917978697
1769162423976,125,-3,-2.647774516481465,-4.196019436611021,-1.7375157232648335
1769162423980,126,-2,-2.373344378768588,-3.569826987020465,-1.4303582260466865
1769162423984,126,-2,-2.023423350144359,-3.291923529432418,-1.0477210885108643
1769162423988,127,-1,-1.6107351440621145,-2.551811401468113,-0.606310113317404
1769162423992,127,-1,-1.1518737762041875,-2.2844075604255867,-0.122113958895353
1769162423996,127,-1,-0.6621010599504946,-2.403505080096627,0.393733027725955
1769162424000,128,0,-0.1860769115645348,-1.3665787826590627,0.8993844565956219
1769162424004,129,1,0.2101872622796148,-0.4773299639211239,1.3273467955302902
1769162424008,129,1,0.5107858481862273,-0.4146645486613503,1.6582135949299055
1769162424012,129,1,0.796752670660466,-0.3866853045048937,1.971788350531595
1769162424016,129,1,1.1793076229820785,-0.315123286165571,2.381166336860177
1769162424020,130,2,1.6708649094612618,0.5757369603651468,2.9007830538261814
1769162424024,131,3,2.144467607614914,1.56998956464049,3.403572133883678
1769162424028,131,3,2.4467887433748596,1.530718560778692,3.7349682012023497
1769162424032,131,3,2.556296442492283,1.6632260467076372,3.873138729123112
1769162424036,131,3,2.6238607910149234,1.6628376925180055,3.9697148210765185
1769162424040,131,3,2.85416239416585,1.5658207794199202,4.229624199658608
1769162424044,132,4,3.342161898857684,2.6328308561959815,4.746782948114488
1769162424048,133,5,4.010925736302721,3.412919585075003,5.443181484744461
1769162424052,133,5,4.68911411033423,3.8314879834484312,6.148037733599051
1769162424056,134,6,5.24159531085506,4.472293014799376,6.72804758346159
1769162424060,134,6,5.644799715737232,4.7654715366222655,7.16059242033525
1769162424064,135,7,5.969725994278607,5.434900092550594,7.515649530859886
1769162424068,135,7,6.305489262286949,5.599362376187179,7.8806682246287885
1769162424072,135,7,6.678930349777424,5.671487993929609,8.281961877543274
1769162424076,136,8,7.021424091805398,6.618851823670789,8.651586993763642
1769162424080,136,8,7.21034890759143,6.64294847373161,8.867713041858027
1769162424084,136,8,7.160316320116496,6.526996735606946,8.845284059428964
1769162424088,136,8,6.892541576976105,6.537998359539763,8.605636212824226
1769162424092,135,7,6.5248764217572806,5.716412309780549,8.266697232629804
1769162424096,135,7,6.194862307057095,5.586146439055617,7.965711889463838
1769162424100,135,7,5.985761548687899,5.692662778123223,7.7851146153872275
1769162424104,135,7,5.913027296795627,5.449185793603718,7.739706800133168
1769162424108,135,7,5.960867695890726,5.656627608820561,7.814129354198761
1769162424112,135,7,6.11270821926131,5.573320959510812,7.993002332346293
1769162424116,135,7,6.345139925319581,5.744950719960526,8.253372672230771
1769162424120,136,8,6.610758589182217,6.538563286454757,8.546862588411093
1769162424124,136,8,6.845304249268624,6.59557409048821,8.808161663736497
1769162424128,136,8,6.993132886618084,6.525948722917523,8.982166564142789
1769162424132,136,8,7.021143295418887,6.706149556398062,9.03734839127628
1769162424136,136,8,6.918657799812407,6.601511978840534,8.963386055173997
1769162424140,136,8,6.704667864146384,6.700837137887784,8.777653618564951
1769162424144,136,8,6.4367752695512825,6.426499234676788,8.536164315703171
1769162424148,135,7,6.184422555241544,5.708746714124469,8.308896336807225
1769162424152,135,7,5.963291773241005,5.5300123080848245,8.113433001902084
1769162424156,135,7,5.698805370353316,5.757089717101285,7.875956185154904
1769162424160,135,7,5.283205653088988,5.584468898479759,7.487619356682483
1769162424164,134,6,4.686399848854348,4.508411914581766,6.917141412087711
1769162424168,133,5,4.004185907770383,3.686356290310581,6.260432096391388
1769162424172,133,5,3.388484684155904,3.4882410745333843,5.670296480022812
1769162424176,132,4,2.9299551049921835,2.8550125725711633,5.237921872462637
1769162424180,132,4,2.60634309432367,2.450973484790357,4.940787277739072
1769162424184,132,4,2.339057386179449,2.6925496203951083,4.6995138106106635
1769162424188,132,4,2.0968047001285663,2.4897653324916904,4.482328429034683
1769162424192,131,3,1.9381538569364345,1.6695666298093397,4.348266928300213
1769162424196,131,3,1.94376710309611,1.6983598969039364,4.378756582991301
1769162424200,132,4,2.1103064401649543,2.576391933832201,4.570409893143503
1769162424204,132,4,2.325370680139368,2.6378376094240505,4.810285596677766
1769162424208,132,4,2.4521988042528373,2.498203552183625,4.961716174910857
1769162424212,132,4,2.4383928723974813,2.702826995460334,4.972794914476851
1769162424216,132,4,2.352899882533092,2.6138921830423207,4.91226836896064
1769162424220,132,4,2.3277813530237603,2.6948146520873943,4.911557620818776
1769162424224,132,4,2.4489895172153653,2.541148915099643,5.056677039689994
1769162424228,132,4,2.675308853445471,2.5883730128861973,5.3069231403428345
1769162424232,133,5,2.8588165276034667,3.633819647297119,5.514104483604543
1769162424236,133,5,2.865217055082075,3.642654583607869,5.543259386603731
1769162424240,132,4,2.6862633767363757,2.698516181690524,5.386728078304137
1769162424244,132,4,2.428697283227501,2.5507739736759496,5.152796755178459
1769162424248,132,4,2.1971409077800725,2.576906331726749,4.946175007653371
1769162424252,132,4,2.0059501746351964,2.6567458220072275,4.7791623566017485
1769162424256,132,4,1.804544478961036,2.5943324560323515,4.599585783724503
1769162424260,131,3,1.557398098255375,1.7946236263068718,4.3730598065856885
1769162424264,131,3,1.2746997909210973,1.4289359922586802,4.1121504846399795
1769162424268,131,3,0.9804170990728704,1.7399569097920538,3.841250296567481
1769162424272,131,3,0.6850329680276404,1.4559252215684246,3.568949217276293
1769162424276,130,2,0.3977398251098558,0.8179364894215767,3.3029388868557334
1769162424280,130,2,0.144233432640314,0.5954433354249263,3.069615753477358
1769162424284,130,2,-0.0397870069329475,0.6010643372567712,2.906439605330557
1769162424288,130,2,-0.1211571226638037,0.623946998590978,2.8473584578679585
1769162424292,130,2,-0.064876598219949,0.5055766340792485,2.926552589573891
1769162424296,130,2,0.1733761965650953,0.8430095254529391,3.186757097425376
1769162424300,131,3,0.6283823594019788,1.529050151636064,3.661750217779224
1769162424304,131,3,1.276602573732903,1.7121417293593826,4.328447069035927
1769162424308,132,4,1.9954822307779505,2.4957691030157556,5.06574483252804
1769162424312,133,5,2.5880631518333193,3.6339603240158183,5.6777470320287104
1769162424316,133,5,2.8902675056586,3.738901919932511,6.000327384865407
1769162424320,133,5,2.8939012752852027,3.616682103807813,6.024667710861201
1769162424324,133,5,2.777754145083753,3.6668808638671138,5.929141198061677
1769162424328,133,5,2.80202564337326,3.501330387486276,5.973857633317757
1769162424332,133,5,3.134616387352013,3.662800038578363,6.326442726660622
1769162424336,134,6,3.738079888829728,4.7069675827097806,6.948631049184466
1769162424340,135,7,4.398204121039941,5.671969077060347,7.6255362390228045
1769162424344,135,7,4.8563239369815685,5.620175941397613,8.099154342392758
1769162424348,135,7,4.931297354025177,5.535991973887493,8.190173183452607
1769162424352,135,7,4.560511243244687,5.624641897887642,7.837282003016735
1769162424356,134,6,3.784728718393068,4.765716576449346,7.080988710810303
1769162424360,133,5,2.72870756999873,3.6127625719074032,6.044941480125059
1769162424364,132,4,1.5832571959702195,2.722900897696736,4.918934922079227
1769162424368,131,3,0.5611956086255205,1.3942319837477126,3.914893412627971
1769162424372,130,2,-0.1806796071463643,0.7838550714171235,3.188807865005653
1769162424376,130,2,-0.6223758427968922,0.6274033096397891,2.760770553486651
1769162424380,129,1,-0.9139407859501398,-0.2585419719869545,2.4823916241638124
1769162424384,129,1,-1.3213130043727617,-0.3373352759739534,2.0898808215216884
1769162424388,129,1,-2.084031009855563,-0.6270730214840792,1.344322261264839
1769162424392,127,-1,-3.2513138149542256,-2.1269404962451706,0.1950633780772952
1769162424396,126,-2,-4.61530429279128,-3.5190827709082564,-1.1520540791859768
1769162424400,124,-4,-5.8164789878235315,-5.025017189064287,-2.338473297591114
1769162424404,124,-4,-6.5580979561443655,-5.615642173205487,-3.06680146004306
1769162424408,124,-4,-6.7664604725291495,-5.307381593810344,-3.2613100412077256
1769162424412,124,-4,-6.583853090711221,-5.470053705630892,-3.0621285402978287
1769162424416,124,-4,-6.228816704239021,-5.1516779669232315,-2.688054420709597
1769162424420,125,-3,-5.855837610895553,-4.36822797858124,-2.297910234392225
1769162424424,125,-3,-5.521228936671096,-4.286957022095986,-1.953860560420025
1769162424428,125,-3,-5.251748894098338,-4.624263014457512,-1.6840207686557327
1769162424432,125,-3,-5.092748276238268,-4.1600404590643425,-1.5268576545276722
1769162424436,126,-2,-4.982365908521377,-3.4420315071523637,-1.4085378045049786
1769162424440,126,-2,-4.44639051727893,-3.0556633221732863,-0.8466208226328638
1769162424444,129,1,-2.36998298741799,-0.5913814058516262,1.270095472091978
1769162424448,134,6,2.766729630615037,4.674969554167486,6.445850423098878
1769162424452,142,14,12.011354802054411,12.569811142118162,15.710359705194634
1769162424456,154,26,24.75009779017931,24.81450526914962,28.442391606509528
1769162424460,168,40,38.0100549975014,38.78752779172287,41.677632646545526
1769162424464,178,50,47.03721478380798,48.46882283047265,50.68113409076526
1769162424468,179,51,47.22951802368551,49.69380759666035,50.8685894881866
1769162424472,169,41,36.503149707845765,39.389218059740806,40.16321222473022
1769162424476,147,19,16.648062043762017,18.054055003190363,20.34920869808253
1769162424480,122,-6,-7.285881626931644,-7.513469249286496,-3.5382131766412925
1769162424484,100,-28,-29.27317634862314,-29.16229129295097,-25.490817031796272
1769162424488,86,-42,-44.86573619400813,-43.5711843030638,-41.0726483395954
1769162424492,79,-49,-52.54407213062016,-50.34937221977005,-48.76366109852253
1769162424496,78,-50,-53.37018625167729,-51.03611795884914,-49.61141814773439
1769162424500,81,-47,-49.594360588554025,-48.58584754776193,-45.84740864927119
1769162424504,87,-41,-43.30978726070636,-41.97679899139531,-39.55538706471096
1769162424508,96,-32,-35.86023695057165,-33.89212520603745,-32.084137834328885
1769162424512,101,-27,-28.00968103970692,-27.928075451549383,-24.209983634997823
1769162424516,110,-18,-20.405513506347894,-19.471103137856748,-16.589934719625052
1769162424520,118,-10,-13.8115451616373,-11.15666363812587,-9.990230816716602
1769162424524,122,-6,-8.91340521515998,-7.4098480468932095,-5.09255550607314
1769162424528,125,-3,-5.945132437049219,-4.510580073174424,-2.123864292131792
1769162424532,126,-2,-4.549484577816868,-3.197292762270024,-0.7214783708310241
1769162424536,126,-2,-4.025632667030416,-3.296314581556288,-0.1848725588839822
1769162424540,127,-1,-3.744086042661055,-2.201539988784184,0.1096537785713593
1769162424544,128,0,-3.399190720917504,-1.4736883807287509,0.4616164164413689
1769162424548,128,0,-2.9758674304053123,-1.3535389644832436,0.885273312110122
1769162424552,128,0,-2.56990310528487,-1.3603911139794491,1.2899012707759494
1769162424556,128,0,-2.2572059216533686,-1.1228468447935187,1.605261312848434
1769162424560,129,1,-2.0638710395309015,-0.3623778908824731,1.8061561267779935
1769162424564,129,1,-1.967935200067888,-0.3357625769442192,1.910888470374396
1769162424568,129,1,-1.892012194372029,-0.450438942508657,1.9932378973835587
1769162424572,129,1,-1.7215187771761356,-0.2515775163761271,2.1674046017657465
1769162424576,129,1,-1.3717356245689811,-0.2120030514133837,2.519794732181608
1769162424580,130,2,-0.853413647422288,0.699520316458065,3.0406921167968957
1769162424584,131,3,-0.2688252601614747,1.6433837056626064,3.627686379172552
1769162424588,131,3,0.2590362225818898,1.5471284588684289,4.157888318080017
1769162424592,131,3,0.6560640443427745,1.8287240740736064,4.557846728120587
1769162424596,132,4,0.9189595024559588,2.6549857364253,4.824214141768492
1769162424600,132,4,1.1006668624395823,2.8660769458949114,5.008974091405873
1769162424604,132,4,1.2790983960304765,2.464371724205612,5.189523164233121
1769162424608,132,4,1.5142244620995395,2.7550336903388724,5.426185918213972
1769162424612,133,5,1.8171791765628167,3.665814898379636,5.730293803239596
1769162424616,133,5,2.1635554704812803,3.769153196391717,6.07724451367113
1769162424620,133,5,2.5358523197104104,3.820565166947144,6.44984669738872
1769162424624,134,6,2.943527945626198,4.4336869191077835,6.85834182424007
1769162424628,134,6,3.404236851575549,4.902685674834807,7.320419332147188
1769162424632,135,7,3.9192865863984423,5.445982995370325,7.836313856285969
1769162424636,135,7,4.469780126959111,6.075972674425048,8.3862221204304
1769162424640,136,8,5.022866337343116,6.4505574801321135,8.937755009518723
1769162424644,136,8,5.531087987370306,6.844770056379153,9.444758236946804
1769162424648,137,9,5.934463676564394,7.511442196599031,9.847782453748732
1769162424652,137,9,6.185089396883173,7.8325974953989,10.098068904072328
1769162424656,137,9,6.283132144727259,7.742218598816059,10.194672319864251
1769162424660,137,9,6.283551508120328,7.725232428309568,10.192551755735682
1769162424664,137,9,6.2557051030269735,7.637456655816901,10.162127333637583
1769162424668,137,9,6.232759963512839,7.680131070934858,10.137394797241376
1769162424672,137,9,6.2056749675926905,7.7486178505618435,10.108885991643485
1769162424676,137,9,6.170473987232459,7.77529946800596,10.07136087168209
1769162424680,137,9,6.174900048179037,7.7539694874374305,10.071953768974437
1769162424684,137,9,6.3020387869118695,7.544396628658484,10.194653724199506
1769162424688,137,9,6.594213896568728,7.868101125114874,10.48319579656656
1769162424692,138,10,6.996327890487992,8.509412626284822,10.8826085552915
1769162424696,138,10,7.390519829468567,9.10207490734647,11.273645693369916
1769162424700,139,11,7.695008718132324,9.360127896969624,11.5733832119289
1769162424704,138,10,7.920568887775416,8.993891577033901,11.79309668030385
1769162424708,139,11,8.122281194632151,9.400448472662486,11.989287372901682
1769162424712,139,11,8.3045707335292,10.008384389447082,12.167086185164283
1769162424716,139,11,8.387628441809802,9.646296744475316,12.246133167590244
1769162424720,139,11,8.270375773226665,9.757790389768957,12.124182506659626
1769162424724,139,11,7.922862445438598,9.698230619536323,11.770459910997364
1769162424728,138,10,7.412728060925185,8.578281961765867,11.252889628358972
1769162424732,137,9,6.834053717213229,7.992204959693777,10.666788549814257
1769162424736,137,9,6.208888060164298,7.55554448640911,10.035069842550197
1769162424740,136,8,5.474168974637921,6.953362309363791,9.294222548596236
1769162424744,136,8,4.584491433471015,6.447440739400262,8.397959171268166
1769162424748,134,6,3.6263141825629015,4.868564704320645,7.432819201466003
1769162424752,133,5,2.810346734272178,3.7190395697162426,6.610144934535802
1769162424756,133,5,2.3329178617730033,3.8299422275576704,6.125849161438546
1769162424760,133,5,2.232487717955547,3.7150473092809446,6.0170142833580265
1769162424764,133,5,2.3625998018042846,3.6671516579451833,6.136843696655154
1769162424768,133,5,2.488244014979987,3.701388290527086,6.251849588296794
1769162424772,133,5,2.4266927127611817,3.8605688522445942,6.181044580069505
1769162424776,133,5,2.146519164879519,3.729746475918014,5.893256288745987
1769162424780,132,4,1.7698014829859492,2.8040900185797732,5.509477370420605
1769162424784,132,4,1.4759817196792853,2.5999163113920676,5.207741314439627
1769162424788,132,4,1.3747850454924648,2.793827192944212,5.096761731884997
1769162424792,132,4,1.4415996700199527,2.7629015621506725,5.151950568007387
1769162424796,132,4,1.5520170625879135,2.8686193603439767,5.250233462691001
1769162424800,132,4,1.5722761490240809,2.654295292910487,5.259440454009638
1769162424804,132,4,1.4385351958480772,2.769019447140102,5.115931221418053
1769162424808,132,4,1.184717160296287,2.6452734177386468,4.852363670685353
1769162424812,131,3,0.9085922290198264,1.904180238678057,4.565467869432257
1769162424816,131,3,0.6946930874307469,1.779576368703352,4.340030018442016
1769162424820,131,3,0.5497173811450853,1.7158041891652993,4.183415568152003
1769162424824,131,3,0.4103949476253536,1.7540969216719149,4.032294797022049
1769162424828,131,3,0.2193873219707061,1.651208155681911,3.8289327733781984
1769162424832,130,2,-0.0111065322257053,0.9304419973017308,3.5857985769227825
1769162424836,130,2,-0.2185359859631659,0.7605067155668832,3.3660846472519617
1769162424840,130,2,-0.3675353093606885,0.7418040981098492,3.204950824113207
1769162424844,130,2,-0.4944815537545255,0.749158941514602,3.0649752928883283
1769162424848,130,2,-0.6701342392425347,0.6673498656948853,2.8751035072042788
1769162424852,129,1,-0.925266447219159,-0.0535542651988099,2.605813925254009
1769162424856,129,1,-1.2137610094782292,-0.2637113893684863,2.304485504305058
1769162424860,129,1,-1.4332423219747126,-0.2105994826245854,2.0729092984553614
1769162424864,129,1,-1.472054868628918,-0.2971632336845285,2.020956150891738
1769162424868,129,1,-1.2585158831159804,-0.2488465933049267,2.21966112960858
1769162424872,129,1,-0.8056105351439338,-0.1212456934506771,2.657125261531898
1769162424876,130,2,-0.2243776991950327,0.8072853717707333,3.223264588715233
1769162424880,131,3,0.3291330801249013,1.7290506772726877,3.7616471626234618
1769162424884,131,3,0.7499244619991463,1.7799439458824788,4.166816413599557
1769162424888,131,3,1.0372892369616222,1.692886768627508,4.438767396468653
1769162424892,131,3,1.2571983504948094,1.9706861322231473,4.6441745945302655
1769162424896,132,4,1.4694347341045249,2.686422086792432,4.841996339242497
1769162424900,132,4,1.701279604318279,2.9028379071805936,5.0581746936309795
1769162424904,132,4,1.9676435834947992,2.588664967876066,5.3078165850038985
1769162424908,132,4,2.2782291631920444,2.945985309143634,5.601974970856275
1769162424912,133,5,2.614663715607734,3.703962565914425,5.922568483674618
1769162424916,133,5,2.9163921517384472,3.959051159149422,6.2078180351589705
1769162424920,133,5,3.0960201692658025,3.67054740303666,6.369434374438524
1769162424924,133,5,3.064489118753361,3.7955361783013863,6.319065026342611
1769162424928,133,5,2.753948435676859,3.834467391050522,5.990446208276406
1769162424932,132,4,2.1473734774045083,2.7278522182647347,5.367559923672779
1769162424936,131,3,1.3096682145279157,2.048740307470372,4.51484418594428
1769162424940,131,3,0.389837687240022,1.4933213229270743,3.579572114666731
1769162424944,129,1,-0.4333975819057363,0.0938263834491267,2.7387832625354704
1769162424948,129,1,-1.0544421236788095,-0.5242314660166214,2.097772691140408
1769162424952,128,0,-1.5304413535549537,-0.834958226816187,1.6005323711702863
1769162424956,128,0,-2.072231390909786,-1.4294204819038592,1.0378771450747215
1769162424960,127,-1,-2.9096898910207916,-1.9838399080425484,0.1812978454725974
1769162424964,126,-2,-4.114280392100467,-3.4024104360222465,-1.0401091562652849
1769162424968,124,-4,-5.515134600989207,-5.046293883285964,-2.4563924504808003
1769162424972,123,-5,-6.7799408149883975,-6.2425302552428255,-3.73782283825108
1769162424976,122,-6,-7.604337941876124,-7.093568147444187,-4.582664411829203
1769162424980,122,-6,-7.877802762051111,-7.202389605465685,-4.880098813809931
1769162424984,122,-6,-7.723330525930911,-7.241226653792921,-4.7488891687406785
1769162424988,122,-6,-7.396220264825834,-7.10824642791119,-4.439680018452737
1769162424992,123,-5,-7.106636244048949,-6.2522359123892475,-4.162989594554803
1769162424996,123,-5,-6.879764735706743,-6.009513109949945,-3.950521737289383
1769162425000,123,-5,-6.56774309961378,-6.328031324870191,-3.661616649233222
1769162425004,123,-5,-6.027285336195629,-6.025867297542274,-3.153770552264832
1769162425008,124,-4,-5.296324133818988,-5.356391316765792,-2.4574193595738874
1769162425012,125,-3,-4.521584631646827,-3.9641966679021214,-1.7084970621293447
1769162425016,127,-1,-3.5798410890243706,-2.2995772832341643,-0.7774055822338044
1769162425020,128,0,-1.6988244897455838,-1.005514502482865,1.1048790479885866
1769162425024,132,4,2.4387582176058764,2.677171446643552,5.243351040048005
1769162425028,139,11,9.895545771532518,9.959910084582472,12.686232310933356
1769162425032,149,21,20.348531498812587,19.725507279708975,23.103908235424036
1769162425036,160,32,31.41977645201381,31.05233163040463,34.12514884194251
1769162425040,169,41,39.15551628359999,39.66827534701478,41.81187936701793
1769162425044,170,42,39.6718191068313,40.99032594850152,42.29403630458701
1769162425048,162,34,31.142527519902625,32.63042687290624,33.74962394843769
1769162425052,144,16,14.908145586006595,14.987345737979227,17.51382010488595
1769162425056,123,-5,-5.055567818284139,-6.1725786886344,-2.447467749870419
1769162425060,104,-24,-23.987602576351808,-25.064868882996457,-21.38341145084888
1769162425064,91,-37,-38.30686418732002,-38.18419225647636,-35.72061860090117
1769162425068,84,-44,-46.540437983747864,-45.11832546336373,-43.98789473011032
1769162425072,81,-47,-48.97326182053587,-48.25675697455861,-46.46346186848553
1769162425076,82,-46,-46.70711374322799,-46.89952090595678,-44.23710989386973
1769162425080,88,-40,-40.98854984110043,-41.36997585019705,-38.54653445615352
1769162425084,95,-33,-33.09930180245785,-33.82743988349803,-30.67415517183528
1769162425088,105,-23,-24.473420496753334,-24.47584299333864,-22.062529625004316
1769162425092,113,-15,-16.58872334001066,-15.86011815258546,-14.197669787561765
1769162425096,119,-9,-10.556289041940024,-10.319596215319011,-8.191646195110115
1769162425100,122,-6,-6.734608816608653,-6.976953119263259,-4.397212623261342
1769162425104,124,-4,-4.718104319073021,-5.166178242177289,-2.4030991156328403
1769162425108,125,-3,-3.718985643188096,-4.1752439193859985,-1.4218324737999628
1769162425112,126,-2,-3.0446600054032023,-3.0223165457146006,-0.7664685462743064
1769162425116,127,-1,-2.3594317739347628,-2.239310952149889,-0.1063108060439024
1769162425120,127,-1,-1.6542570011213606,-1.954833458860037,0.5681594803656136
1769162425124,128,0,-1.0666594463629222,-1.2584452074085315,1.1245665433387757
1769162425128,128,0,-0.7235305432830619,-0.9890622519974884,1.4409564152432002
1769162425132,128,0,-0.6726860889410418,-1.2245367483522105,1.4701576197444153
1769162425136,128,0,-0.8720386041785764,-0.9833181272922636,1.2506525030933355
1769162425140,128,0,-1.1971182786820247,-1.2278352409901634,0.9027902097323088
1769162425144,127,-1,-1.4746707143700233,-1.966749432213191,0.5990025201741954
1769162425148,127,-1,-1.561428682473808,-2.2471956011902865,0.485071226157323
1769162425152,127,-1,-1.426986302956033,-1.943246359346502,0.593708157001771
1769162425156,128,0,-1.1548758129974837,-1.2305279196997023,0.8409224590280753
1769162425160,128,0,-0.8438465757650961,-0.9844471310237612,1.1262920824390996
1769162425164,128,0,-0.5104447176460756,-1.1858939139900428,1.433319540166529
1769162425168,128,0,-0.1007803587111952,-1.0191511019310395,1.8174745908552017
1769162425172,129,1,0.4129690629535254,-0.1256583119819742,2.306889836690735
1769162425176,130,2,0.9763334701743348,0.9511832512144378,2.845321124083727
1769162425180,130,2,1.4978911384237017,0.8837317224210197,3.339989595285039
1769162425184,130,2,1.9273640295260384,0.9194476267930912,3.741624168846856
1769162425188,131,3,2.277624029349327,1.9326386151458388,4.065161089394824
1769162425192,131,3,2.5898450708777254,1.9122998144948564,4.352490839756178
1769162425196,131,3,2.8986586921677073,1.9589099795168887,4.637017733644795
1769162425200,132,4,3.2286209542729627,2.904262267824874,4.941428799442747
1769162425204,132,4,3.6050916564730793,2.885304846478599,5.290329937900816
1769162425208,132,4,4.046846918012823,3.0193964232764907,5.7036110061255325
1769162425212,133,5,4.536494805983255,3.8081077068398006,6.165777136746076
1769162425216,133,5,5.00862225964618,4.133674947184524,6.612155824287461
1769162425220,134,6,5.392423394449452,4.712400973517024,6.970901745783571
1769162425224,134,6,5.680458023427287,5.1273902637923054,7.233101538652826
1769162425228,134,6,5.944804890900567,4.765552432324101,7.470457506850586
1769162425232,134,6,6.263488224386414,5.088430570668318,7.761594089505997
1769162425236,135,7,6.621364564425166,5.903606585580022,8.091781720102036
1769162425240,135,7,6.891631601051475,5.923563195326186,8.334158749335984
1769162425244,135,7,6.9289014964477005,5.994197374894943,8.343564088673219
1769162425248,135,7,6.695502027918891,5.853153938269283,8.083094014290477
1769162425252,134,6,6.314122009572926,5.06032612649994,7.675899014411464
1769162425256,134,6,6.006697763973807,4.935752046865464,7.3432372745110435
1769162425260,134,6,5.968539790340008,4.92345655302548,7.278955910146417
1769162425264,134,6,6.265118849066217,5.036076030390528,7.547591114738896
1769162425268,135,7,6.8100604018821915,5.793133565998186,8.063261796883975
1769162425272,135,7,7.424110534102134,6.1859814925131005,8.64818031380099
1769162425276,136,8,7.93049074439972,6.775315794681584,9.12673211025838
1769162425280,136,8,8.229972316444716,7.169072904114494,9.399695609576042
1769162425284,136,8,8.31783444062445,6.768676758613886,9.461366556559264
1769162425288,136,8,8.244082082662782,7.0864506380661005,9.360682330652343
1769162425292,136,8,8.0535086960757,6.943262969064119,9.142209462461375
1769162425296,135,7,7.748823206960689,5.9667022740371065,8.809323350922371
1769162425300,135,7,7.300515705201648,6.119572769530008,8.333125652637381
1769162425304,135,7,6.695925974153055,5.714008227553114,7.700870533547714
1769162425308,133,5,5.984758160114168,4.275995234804926,6.961982806759144
1769162425312,133,5,5.271055428892987,3.674073337050618,6.220562463070072
1769162425316,132,4,4.652637070874578,3.3302036889467765,5.574554180953577
1769162425320,132,4,4.1663547031439805,2.7500928406751037,5.060778460013549
1769162425324,131,3,3.7866235848547167,2.111186849873132,4.6536020939489
1769162425328,131,3,3.4680333570638813,1.9317727586639215,4.3074216669113135
1769162425332,131,3,3.189311880942599,1.9628742357218576,4.000585264460781
1769162425336,130,2,2.9598985459599274,1.1645182421436753,3.7425621946120065
1769162425340,130,2,2.7813703172702944,0.8280967657866781,3.535621658503558
1769162425344,130,2,2.605318735588377,1.1829348887059503,3.3318920476040397
1769162425348,130,2,2.347231211527852,0.7647222273859922,3.046573840834429
1769162425352,129,1,1.9593056006764384,0.2338363431960859,2.6312348276173396
1769162425356,129,1,1.4912913309509732,-0.1319806914799612,2.135417863392652
1769162425360,128,0,1.071278050512135,-0.8354851324206467,1.6874672184742698
1769162425364,128,0,0.8164301158258565,-1.109999590230316,1.4047949774640398
1769162425368,128,0,0.7514191888514214,-0.9595605503715052,1.3120483519618826
1769162425372,128,0,0.8041334990531253,-0.9706004512751834,1.3369793588519838
1769162425376,128,0,0.875907655589951,-0.9537945726752136,1.3808901108515932
1769162425380,128,0,0.9182810284051706,-0.9390988740021158,1.3953261134822543
1769162425384,128,0,0.9498812157116614,-1.0256877980070989,1.398863811260521
1769162425388,128,0,1.006514385243102,-0.9959520187918568,1.427395553260006
1769162425392,128,0,1.0772192818446766,-0.9234864855627748,1.470318579443335
1769162425396,128,0,1.0907284176581444,-0.9748308024515112,1.4565970951832017
1769162425400,128,0,0.9724430831739044,-0.8776571320561177,1.3112588178860487
1769162425404,128,0,0.7238732832276387,-1.0860354010543702,1.0351615683112474
1769162425408,127,-1,0.4433373766272805,-1.892656038658717,0.7265497954996695
1769162425412,127,-1,0.2532367753711466,-2.0301373759724872,0.5084635177777236
1769162425416,127,-1,0.1942738766439844,-1.8132914064718344,0.4221328899861829
1769162425420,127,-1,0.1897248341051458,-2.033256826901044,0.3906052936537294
1769162425424,127,-1,0.1178167709776898,-1.886542930467519,0.2914106948451137
1769162425428,127,-1,-0.0763820469979055,-2.0792569971092636,0.0692505416532627
1769162425432,126,-2,-0.3360302785548248,-2.834727709289344,-0.2186358314073997
1769162425436,126,-2,-0.553451209017692,-2.9620088245855656,-0.4638032505145333
1769162425440,126,-2,-0.6698344178707101,-2.8813044851494976,-0.607070769340393
1769162425444,126,-2,-0.7101684755090132,-2.978886002099485,-0.6737346487477629
1769162425448,126,-2,-0.7215460430685854,-2.990364617823182,-0.7115106213061835
1769162425452,126,-2,-0.6855917367153816,-2.883887961729026,-0.7024364262911877
1769162425456,126,-2,-0.5048013767870092,-2.9076491756632765,-0.548931865211403
1769162425460,126,-2,-0.0915316011518931,-2.8938087233555003,-0.1630364824993002
1769162425464,127,-1,0.5186591432286591,-1.9439521452455055,0.4196883360771323
1769162425468,128,0,1.1468585585063371,-0.9902953658245716,1.0200789768023264
1769162425472,128,0,1.5802148357736223,-0.875583613760086,1.425619865801582
1769162425476,128,0,1.7216918074265617,-0.8791457240122887,1.5403253356034046
1769162425480,128,0,1.6552173666043246,-0.9165512652837297,1.4486639966616646
1769162425484,128,0,1.5820388604379796,-0.8774978307807807,1.3510161062307369
1769162425488,128,0,1.6837916878254795,-1.0375397151848809,1.4274978904413005
1769162425492,128,0,2.006421571649206,-0.799470019172018,1.7232182434714696
1769162425496,129,1,2.4359676724858277,0.0785560043892339,2.1245386500018064
1769162425500,129,1,2.7753796828042536,0.1319838645333548,2.4355872199519055
1769162425504,129,1,2.8622711676173,0.1217601987250786,2.495372464640681
1769162425508,129,1,2.644800786655991,-0.0302345039176981,2.2527062356442946
1769162425512,128,0,2.178952593251266,-0.769324084965772,1.7628141251231768
1769162425516,128,0,1.5733679090989838,-0.9374476625866184,1.132797593511567
1769162425520,127,-1,0.9269458857180785,-1.8167403463523772,0.4607630319194871
1769162425524,126,-2,0.2856224407066061,-2.903127140486853,-0.2068365755075365
1769162425528,126,-2,-0.3689035813378387,-2.9802385821232114,-0.8875359731221515
1769162425532,125,-3,-1.0914081868655097,-3.7833121132961383,-1.6360369300793165
1769162425536,124,-4,-1.924123104347626,-4.923297323966262,-2.494687435202951
1769162425540,123,-5,-2.868249253353156,-5.769885374395291,-3.4642752021583245
1769162425544,122,-6,-3.894664871093817,-6.95060228639113,-4.515262636381582
1769162425548,121,-7,-4.963448893103879,-7.897835393133814,-5.608280607608541
1769162425552,120,-8,-6.015246376170747,-8.82078521883511,-6.685156890755931
1769162425556,119,-9,-6.94453967583008,-9.90511029817519,-7.640524320848339
1769162425560,118,-10,-7.603300690821192,-10.68958177854563,-8.324519113343985
1769162425564,118,-10,-7.860005390076528,-11.082033086355375,-8.603278626717803
1769162425568,118,-10,-7.677446454514755,-10.669505941208635,-8.439730354108722
1769162425572,119,-9,-7.14754662741729,-10.068980264828538,-7.929799262839728
1769162425576,119,-9,-6.4616498026965985,-9.608185875090433,-7.2703611661296526
1769162425580,120,-8,-5.843749574949904,-8.942797118978655,-6.687490787361756
1769162425584,120,-8,-5.466886055219917,-8.858276772880194,-6.349154688943693
1769162425588,120,-8,-5.328450423009356,-8.793913565027863,-6.24210880624616
1769162425592,121,-7,-5.066011535970586,-8.010495474021031,-5.995022613064144
1769162425596,122,-6,-3.804481757820811,-6.527547247764382,-4.7336984486327225
1769162425600,126,-2,-0.2627591597809431,-3.090153910955316,-1.1894472804325336
1769162425604,132,4,6.672683963620868,3.408814660803015,5.734733714004625
1769162425608,142,14,17.0003510141203,12.903944393659772,16.02835159746277
1769162425612,153,25,28.81459780275601,24.36694263427122,27.791007576846653
1769162425616,164,36,38.39750130282867,35.114093480793855,37.32071885705712
1769162425620,168,40,41.53094585395121,39.27657733333278,40.41539765523265
1769162425624,162,34,35.52891159619826,33.044032504336194,34.39574748954983
1769162425628,147,19,20.807958965801344,18.225660700847577,19.673703152870974
1769162425632,126,-2,0.9229507586275094,-2.9390680586814946,-0.2068687066540544
1769162425636,104,-24,-19.0550727621432,-24.54490137339325,-20.18587101996692
1769162425640,90,-38,-34.81344823902522,-38.96754430396904,-35.958181768342314
1769162425644,82,-46,-44.3042566973808,-46.603964588948045,-45.47849259709344
1769162425648,79,-49,-47.73156078090998,-50.09208018893776,-48.9464691832513
1769162425652,79,-49,-46.45277964298989,-49.5665616397427,-47.70846822912424
1769162425656,83,-45,-41.88196486866603,-45.95653123622861,-43.167254199289275
1769162425660,89,-39,-35.12640247326713,-39.53178302514017,-36.42710131775206
1769162425664,98,-30,-27.232327566361224,-30.99359311390613,-28.541479963169117
1769162425668,106,-22,-19.420374048016285,-22.67715177165332,-20.74158158343021
1769162425672,113,-15,-12.899011446903245,-15.92849599747339,-14.240741977829678
1769162425676,117,-11,-8.395463000540927,-11.6477347896493,-9.76249510939962
1769162425680,119,-9,-5.859661836389083,-9.801098443475327,-7.249407228079847
1769162425684,120,-8,-4.629652733245161,-8.732581487717237,-6.035736679592039
1769162425688,121,-7,-3.9244666628090736,-7.822743665614807,-5.34337139008166
1769162425692,122,-6,-3.27205758082678,-6.7895096245914965,-4.706425873881836
1769162425696,123,-5,-2.59534925948349,-5.71915160363893,-4.051118413289936
1769162425700,123,-5,-2.0079955975409214,-5.764353743132656,-3.4885517240273556
1769162425704,123,-5,-1.580269939832902,-5.709815752186884,-3.083519051586573
1769162425708,124,-4,-1.2656753105629996,-4.8028622946016615,-2.7864493205961485
1769162425712,124,-4,-0.9732462035859472,-4.774772402789978,-2.507883831376411
1769162425716,124,-4,-0.6573326129655399,-4.6995327023271285,-2.2060128009705187
1769162425720,125,-3,-0.3349065568384834,-3.79419962643826,-1.900481415079324
1769162425724,125,-3,-0.0378060028115436,-3.622730108225863,-1.622788259113167
1769162425728,125,-3,0.2310041987812257,-3.8752730772163377,-1.3732583833666754
1769162425732,125,-3,0.4885859980290465,-3.6169231901886705,-1.132611249139285
1769162425736,126,-2,0.7390516744483548,-2.891648948833745,-0.8971436846691612
1769162425740,126,-2,0.976045036946014,-2.5385736378950425,-0.6752815615152227
1769162425744,126,-2,1.217720882154538,-2.8855315539175277,-0.4497264999728374
1769162425748,126,-2,1.5134869558302442,-2.537733747910817,-0.169941687091172
1769162425752,127,-1,1.901641183286117,-1.9206864627215532,0.2033372821527375
1769162425756,127,-1,2.369508741634241,-1.592073151659558,0.6566200860721663
1769162425760,128,0,2.862364764090227,-0.7798544164429169,1.1338542675164782
1769162425764,128,0,3.320726915383743,-0.6573529084148113,1.5758849267824804
1769162425768,128,0,3.699236379885408,-0.6683181735883237,1.9391584836550653
1769162425772,129,1,3.9656223678410214,0.1941865796148643,2.1923239341080496
1769162425776,129,1,4.11692008078752,0.3549404941746645,2.331266940282879
1769162425780,129,1,4.21401004120139,0.2551615948591155,2.4153175699310996
1769162425784,129,1,4.3783529686365235,0.3803068683926347,2.565993726402241
1769162425788,129,1,4.718206530922629,0.3163496230875342,2.892676429779947
1769162425792,130,2,5.2419490357513645,1.243706751452125,3.403904654621699
1769162425796,131,3,5.849289158544581,2.346908433030586,3.998367611944148
1769162425800,131,3,6.409751646726684,2.2551322593328176,4.545307144891648
1769162425804,131,3,6.843975221573387,2.45696214532479,4.966650136832073
1769162425808,132,4,7.1389124367023715,3.243956558152152,5.2505054635680155
1769162425812,132,4,7.316232008050018,3.362602141172032,5.417980100522587
1769162425816,132,4,7.406657885093208,3.251988926914992,5.498279085774948
1769162425820,132,4,7.442906020415818,3.3738599277619308,5.523359166979479
1769162425824,132,4,7.453833251182658,3.388352823196945,5.522617381065848
1769162425828,132,4,7.454612148135048,3.330946860139814,5.512352437497647
1769162425832,132,4,7.444388611862333,3.322726563530595,5.4924170331073485
1769162425836,132,4,7.42008284569023,3.310054389341364,5.4594067508889825
1769162425840,132,4,7.399599791427244,3.349515243764736,5.430166521427108
1769162425844,132,4,7.431661585663405,3.4552580961487864,5.4528006163503235
1769162425848,132,4,7.570311652061981,3.284997571610834,5.581991905091818
1769162425852,132,4,7.824671394136047,3.4190242652598606,5.827956305390814
1769162425856,133,5,8.133885661909837,4.223429632985924,6.129849104752028
1769162425860,133,5,8.40488023083019,4.48603893660694,6.393471430781425
1769162425864,133,5,8.580000887724305,4.343446735132685,6.56052267375732
1769162425868,133,5,8.658678711249937,4.436712554847721,6.631181001537023
1769162425872,133,5,8.649628353326868,4.2984517767800465,6.615200342447846
1769162425876,133,5,8.517250192398386,4.355986371599875,6.476876586564718
1769162425880,133,5,8.194426402117852,4.4193935131491475,6.148149478695014
1769162425884,132,4,7.651749709859646,3.41522569859032,5.599275718373619
1769162425888,131,3,6.945374681401235,2.434710666517513,4.887032250982338
1769162425892,131,3,6.1938509770663455,2.289189395682599,4.130509199277243
1769162425896,130,2,5.511048976834187,1.4261162899465218,3.443407140770558
1769162425900,129,1,4.953091440411803,0.3631212882912238,2.8813407449853163
1769162425904,129,1,4.512650800347524,0.5415162414933195,2.436510975084495
1769162425908,129,1,4.157053013116682,0.3226072385714307,2.0761038652208974
1769162425912,128,0,3.872975293564664,-0.5720311922305124,1.7874499047507288
1769162425916,128,0,3.673229992849107,-0.6731310026637907,1.5844358803846217
1769162425920,128,0,3.566322567434162,-0.5155635977375708,1.475719320184708
1769162425924,128,0,3.536014716555385,-0.5176069666939651,1.4439059655802475
1769162425928,128,0,3.555729770631177,-0.5950529012797392,1.4613599061607647
1769162425932,128,0,3.606938249100515,-0.6292889828037469,1.5098695540899656
1769162425936,128,0,3.667748917229404,-0.5771309223365428,1.568658256635911
1769162425940,128,0,3.687828274329595,-0.5960360498073873,1.587755993950146
1769162425944,128,0,3.59319268194662,-0.3625650426838247,1.492395208940399
1769162425948,128,0,3.330421885285993,-0.739653940209084,1.228488476952621
1769162425952,127,-1,2.9088158953129315,-1.443807991327397,0.8059411399226031
1769162425956,127,-1,2.398458398731792,-1.7383587852414957,0.2960548274108052
1769162425960,126,-2,1.8931730782216287,-2.4144711817693345,-0.2072032703700872
1769162425964,126,-2,1.4806065469762673,-2.4625933487281673,-0.617489394105668
1769162425968,126,-2,1.2336979658851912,-2.6418860975128915,-0.8630696457637315
1769162425972,125,-3,1.1953631268662508,-3.461205814054976,-0.9007976863204792
1769162425976,126,-2,1.3418025579718216,-2.7630469564542244,-0.753421555009995
1769162425980,126,-2,1.5624904572143317,-2.277614475534916,-0.5309399159954324
1769162425984,126,-2,1.6997548422176012,-2.631338459149792,-0.3911468839962717
1769162425988,126,-2,1.6303694620853442,-2.352552173825887,-0.4573618821375593
1769162425992,126,-2,1.327154189649861,-2.785235726892574,-0.7567511221177909
1769162425996,125,-3,0.8603276248754814,-3.3952058658456195,-1.219335134920517
1769162426000,125,-3,0.3485372089099758,-3.5994149760641547,-1.726821864482751
1769162426004,124,-4,-0.1010963201378756,-4.289747347638594,-2.1720597458400697
1769162426008,124,-4,-0.4265592244544067,-4.599068494814234,-2.492642143359448
1769162426012,124,-4,-0.6030963191001839,-4.564345711651223,-2.6636663871232686
1769162426016,124,-4,-0.6104076873157231,-4.551521580900118,-2.665120427292854
1769162426020,124,-4,-0.4164551492068016,-4.443421212873007,-2.4651447917958973
1769162426024,124,-4,-0.0082785492639845,-4.3583320626198425,-2.0506357997886067
1769162426028,125,-3,0.5543632194216974,-3.515774901831458,-1.481452022321273
1769162426032,126,-2,1.127478706381383,-2.5966460767144084,-0.9020415485730828
1769162426036,126,-2,1.5441123325935322,-2.5193743929974666,-0.4792604949131439
1769162426040,126,-2,1.70443805682901,-2.424224868229431,-0.3118753683818309
1769162426044,126,-2,1.6276439033191623,-2.3306894818311306,-0.3798098227669155
1769162426048,126,-2,1.4417794611193098,-2.5085397187244975,-0.5554223525992241
1769162426052,126,-2,1.3286768049346225,-2.5632072156981915,-0.6580444296296509
1769162426056,126,-2,1.4461620684246992,-2.5404500797894993,-0.5304938119185221
1769162426060,126,-2,1.8518007949573687,-2.3489309217124603,-0.1152123710356503
1769162426064,127,-1,2.466528848590391,-1.3662287053653388,0.5086062918432193
1769162426068,128,0,3.1059282036363247,-0.4230904036526077,1.1564684865734385
1769162426072,128,0,3.5569471075552137,-0.6190217284392525,1.616268413003158
1769162426076,128,0,3.646511629714098,-0.4770590295015999,1.71650765205601
1769162426080,128,0,3.2807669119368557,-0.3424340574553,1.3636789651692207
1769162426084,127,-1,2.4729657197240833,-1.3787672878116848,0.5695861203118782
1769162426088,126,-2,1.3564923093939862,-2.299322797438206,-0.5337856305404121
1769162426092,125,-3,0.1429404224906998,-3.7694728005414193,-1.7345600550340303
1769162426096,123,-5,-0.9813063386108064,-5.265001743330246,-2.8454156763256013
1769162426100,123,-5,-1.9478132250363989,-5.52609598959306,-3.798350367416803
1769162426104,122,-6,-2.8056572510672577,-6.164674237121889,-4.643758033759469
1769162426108,121,-7,-3.640057413220525,-7.40796456940049,-5.466414161583574
1769162426112,120,-8,-4.5047790735910285,-8.70658652673274,-6.3175178911623755
1769162426116,119,-9,-5.417524358748457,-9.224669542244929,-7.213504165901226
1769162426120,119,-9,-6.36700873279713,-9.622209965172456,-8.145550931468394
1769162426124,117,-11,-7.284087334595549,-10.930586654664904,-9.047900779382276
1769162426128,117,-11,-8.025578388187489,-11.643522182138122,-9.776737169930149
1769162426132,116,-12,-8.441832812154702,-12.40828574058302,-10.177409296984765
1769162426136,116,-12,-8.492292104541942,-12.523765359375687,-10.205728849679502
1769162426140,117,-11,-8.284770622843112,-11.295783189928803,-9.972852613954872
1769162426144,117,-11,-7.985835906603795,-11.159059895796,-9.654112040974653
1769162426148,117,-11,-7.706661173389699,-11.406570584834482,-9.366697473834654
1769162426152,117,-11,-7.49078798177143,-11.563149633986,-9.15055648415831
1769162426156,117,-11,-7.351819575493355,-11.433662425361398,-9.00730104084553
1769162426160,118,-10,-7.1615604950894785,-10.287077902657147,-8.796770321360544
1769162426164,119,-9,-6.332992673892779,-9.135527318633711,-7.92900213002839
1769162426168,122,-6,-3.599736817533859,-6.333496547140178,-5.146839227268675
1769162426172,128,0,2.635207389842341,-0.6280729312976612,1.130157509556867
1769162426176,137,9,13.233183820671425,8.64381091565215,11.749276382503933
1769162426180,151,23,27.057680538592177,22.674476899283498,25.571259773988263
1769162426184,165,37,40.491162169417855,37.00973257320373,38.98940390772124
1769162426188,174,46,48.435257135052034,45.55642438852246,46.92374389055378
1769162426192,173,45,46.55501225895893,44.484589861663075,45.054561117638954
1769162426196,160,32,33.56681272822665,31.452860579548137,32.102184181112705
1769162426200,137,9,12.14750578640854,8.843500940972525,10.735890033844813
1769162426204,111,-17,-12.181423130520797,-17.051202560642317,-13.53645596476818
1769162426208,90,-38,-33.54244500366106,-38.294791375181894,-34.851597504907375
1769162426212,78,-50,-48.03614620092319,-50.530009785053515,-49.32069637429615
1769162426216,72,-56,-54.64442535701058,-56.497650849449,-55.926920559766025
1769162426220,71,-57,-54.57679131149717,-57.16006208309707,-55.86794786547084
1769162426224,75,-53,-49.96117717018302,-52.97136413193722,-51.25209354917817
1769162426228,81,-47,-42.86566233189298,-47.368779368643075,-44.13414000991206
1769162426232,90,-38,-34.949017014582516,-38.43097288863835,-36.17650550893479
1769162426236,100,-28,-27.420726931228224,-28.573590119758663,-28.604588124815866
1769162426240,104,-24,-20.993537022880297,-24.079187277356404,-22.14370196327362
1769162426244,108,-20,-15.865350511573247,-19.965713657572955,-16.99179019481391
1769162426248,114,-14,-11.880486135516165,-14.369936350647134,-12.986113857964243
1769162426252,117,-11,-8.80633185232196,-11.408896929416564,-9.889350615123874
1769162426256,119,-9,-6.521330166220909,-9.541529238468735,-7.579447618645931
1769162426260,120,-8,-5.020487122481026,-8.053137829273236,-6.051911761230343
1769162426264,121,-7,-4.295371734871172,-6.930318532002488,-5.2986435523548145
1769162426268,122,-6,-4.197073095063836,-6.3969798928679635,-5.171576315974122
1769162426272,121,-7,-4.393433264015798,-7.335792695261634,-5.339316830607732
1769162426276,121,-7,-4.485548373955625,-7.60397795328583,-5.402814113187127
1769162426280,121,-7,-4.216958427480846,-6.873923017303002,-5.1054269213360985
1769162426284,122,-6,-3.5995624684974135,-6.104746140730294,-4.45981483036372
1769162426288,123,-5,-2.842480067971241,-5.157703091816467,-3.675738195285674
1769162426292,124,-4,-2.1568347592188166,-4.561719380103304,-2.963157070436319
1769162426296,124,-4,-1.6155332837203429,-4.355768088056561,-2.392672110295049
1769162426300,124,-4,-1.1657565201715112,-4.022938430349729,-1.9108893116923475
1769162426304,125,-3,-0.7310767000377103,-2.9652704489500152,-1.4438245280192217
1769162426308,126,-2,-0.2823387981452345,-2.1915944617345704,-0.9650263107240112
1769162426312,126,-2,0.1602146869560439,-2.566633640931922,-0.4941803751095432
1769162426316,126,-2,0.5488201740139598,-2.2501407944663208,-0.076097932201652
1769162426320,127,-1,0.8325520698349114,-1.1224198107316077,0.2394673257939552
1769162426324,127,-1,1.0018992386433352,-0.7887929099529554,0.4411243830924765
1769162426328,127,-1,1.125572068422385,-1.3330664815827231,0.595839838614191
1769162426332,127,-1,1.3123980672924151,-1.4010764715039483,0.8131972901925442
1769162426336,128,0,1.611759010871511,-0.3653460235015702,1.1441833978048852
1769162426340,128,0,1.964807101125103,0.0256497048221739,1.5299976065474743
1769162426344,128,0,2.273542880061877,0.1366675648103192,1.871444198112258
1769162426348,129,1,2.514302003305779,0.782507283576025,2.144306356603466
1769162426352,129,1,2.7680742677026076,0.5040216405081159,2.4302670114727567
1769162426356,129,1,3.1324996291156797,0.7668556489190994,2.8276586011915796
1769162426360,130,2,3.609200253258624,1.937211335135352,3.337626974605257
1769162426364,130,2,4.085637925890968,2.303253752670074,3.846709024784923
1769162426368,131,3,4.427687713969344,2.647036831617888,4.221078397603337
1769162426372,131,3,4.586366288562285,2.687050666124763,4.413221154464434
1769162426376,131,3,4.623306693020284,2.5797437285305858,4.485329842156823
1769162426380,131,3,4.651486972864539,3.195010080017067,4.548905594276632
1769162426384,131,3,4.752266255432503,3.115280172575027,4.68350700247229
1769162426388,131,3,4.920869326232204,2.865354757967328,4.884514863120234
1769162426392,132,4,5.064368985586459,3.5393826507674775,5.060847976126467
1769162426396,132,4,5.061315929710569,3.687099790525017,5.092335605886964
1769162426400,131,3,4.8593367773401726,3.2030047991770942,4.926044562823171
1769162426404,131,3,4.540760309816084,3.121045948658537,4.642881375295446
1769162426408,131,3,4.29008424300692,2.9588705989726285,4.426890485566883
1769162426412,131,3,4.271537305814059,2.43422709804796,4.443266675330333
1769162426416,131,3,4.511039952323967,2.835646277590259,4.718662588311374
1769162426420,132,4,4.890797444092399,4.109137761524787,5.134288803141156
1769162426424,132,4,5.266035799093243,4.272858387735887,5.543897910518994
1769162426428,132,4,5.581637692324843,3.8918982059840914,5.892862108263241
