timestamp_ms,ecg_u8_raw,ecg_counts_raw_int,ecg_counts_filt_monitor,ecg_counts_filt_diagnostic,ecg_counts_filt_st
1769247417304,125,-3,-2.6763255667056605,10.485384248068144,10.77972412909224
1769247417308,125,-3,-2.712051707284761,10.14208633287308,10.753735681834186
1769247417312,124,-4,-2.7975761419438383,9.646536016094911,10.676281740406983
1769247417316,125,-3,-2.821615653118922,10.073543077071449,10.659237597383608
1769247417320,125,-3,-2.8474886591433446,10.541483219277882,10.639649778428025
1769247417324,125,-3,-2.995549004522542,10.141365167687614,10.497531907381484
1769247417328,124,-4,-3.2762579741033706,9.510086019383728,10.223534609835376
1769247417332,124,-4,-3.544580798075615,9.36671512533557,9.963721643966151
1769247417336,124,-4,-3.611114475207283,9.337573185969411,9.90694098560883
1769247417340,124,-4,-3.3963532632669,9.427961252262593,10.130659187807638
1769247417344,125,-3,-2.995075141264462,10.22413961436044,10.538437787677935
1769247417348,125,-3,-2.613537989754861,10.565310315268452,10.92440450028265
1769247417352,125,-3,-2.4445303117967976,10.267373460604896,11.097947110665109
1769247417356,125,-3,-2.570040613830495,10.540009216178149,10.979139080299392
1769247417360,125,-3,-2.9335423956870654,10.259616673341943,10.62488454811345
1769247417364,124,-4,-3.3728860870568536,9.4416781913489,10.19608959069538
1769247417368,124,-4,-3.689107408287061,9.439251252444109,9.889835270453869
1769247417372,124,-4,-3.7258178860721967,9.366655935914393,9.860889037276484
1769247417376,124,-4,-3.4327332223525553,9.555676081370018,10.159009243716389
1769247417380,125,-3,-2.891796301302314,10.241099981922051,10.70343726798854
1769247417384,125,-3,-2.2919521369621862,10.57317204139134,11.307655642581398
1769247417388,126,-2,-1.8473690579750972,11.30340310973141,11.759441724342578
1769247417392,126,-2,-1.6796032209882634,11.578655204565568,11.937087348814536
1769247417396,126,-2,-1.7267021182455746,11.339198118125282,11.900436375267017
1769247417400,126,-2,-1.7594114441957829,11.560403435947244,11.876559633721136
1769247417404,126,-2,-1.5300000690141742,11.269283615672071,12.11261138023194
1769247417408,126,-2,-0.9685123385971376,11.683115802562714,12.679358944106696
1769247417412,128,0,-0.2695781219910174,13.212781743969378,13.383100327165582
1769247417416,128,0,0.2215691935130019,13.756972920927314,13.879390121753463
1769247417420,128,0,0.2420344070702655,13.201897930153391,13.906422459959284
1769247417424,127,-1,-0.2255434584452527,12.657011614450049,13.447407232131283
1769247417428,127,-1,-0.9723024980312012,12.360917829819323,12.709982144142698
1769247417432,126,-2,-1.718625509407594,11.513835773119473,11.97169478156698
1769247417436,125,-3,-2.2806838143763595,10.573483428888306,11.415840484187465
1769247417440,125,-3,-2.645263709981385,10.3766905599436,11.056914603167211
1769247417444,125,-3,-2.9127673314601967,10.589936700142962,10.795605562304196
1769247417448,125,-3,-3.156198698167711,10.411845420876515,10.558824476656987
1769247417452,124,-4,-3.323545306075232,9.514600712355072,10.398310721223996
1769247417456,124,-4,-3.283859079917429,9.616837592125068,10.445142554050015
1769247417460,125,-3,-2.9726891731066845,10.372684890607374,10.763607190686027
1769247417464,125,-3,-2.4850407474730796,10.660261818318162,11.25797767054342
1769247417468,126,-2,-2.0204242869063895,11.354733387599127,11.72834507839378
1769247417472,126,-2,-1.7337280828429436,11.61646648811788,12.02043771446122
1769247417476,126,-2,-1.6276974637006336,11.539358991161984,12.13266365684943
1769247417480,126,-2,-1.5735973950471829,11.50087609416146,12.194279183922962
1769247417484,126,-2,-1.4277534245215802,11.5793698962087,12.348170095033456
1769247417488,127,-1,-1.134900415668435,12.459907276826868,12.648208283068724
1769247417492,127,-1,-0.7414312941742556,12.56241854962083,13.047508608361468
1769247417496,127,-1,-0.3368555569107403,12.603423118954716,13.457386826363948
1769247417500,128,0,0.0071314174414101,13.505559471177587,13.807073411940417
1769247417504,128,0,0.2568790140918835,13.589022389179984,14.062964617407404
1769247417508,128,0,0.3985468402364047,13.497032167731753,14.21084374388114
1769247417512,128,0,0.4091902888261227,13.554306794460992,14.227611241235437
1769247417516,128,0,0.255244456660358,13.637715829078456,14.079643750849757
1769247417520,128,0,-0.0636815481431518,13.51746621766326,13.766542992636465
1769247417524,127,-1,-0.4620543085089394,12.614497658365972,13.37425779472953
1769247417528,127,-1,-0.7703051613573393,12.490728778881358,13.072968599919722
1769247417532,127,-1,-0.809102382867517,12.615841980021296,13.041844984631645
1769247417536,127,-1,-0.4852377493680149,12.567021479673148,13.372777237434988
1769247417540,128,0,0.1571531919208855,13.676742466599414,14.020193660187507
1769247417544,129,1,0.9542420754661696,14.449854192884402,14.820313797882754
1769247417548,129,1,1.685201715573501,14.713178698877192,15.554204429309303
1769247417552,130,2,2.146592866052096,15.39782728662778,16.020500473161643
1769247417556,130,2,2.225948011530578,15.811539239462018,16.107018257046256
1769247417560,130,2,1.9614007128526336,15.480676833232566,15.850441963170036
1769247417564,129,1,1.5444118214524123,14.663334298532943,15.440722017126715
1769247417568,129,1,1.2314129942939174,14.550080850876537,15.133690433593737
1769247417572,129,1,1.2037853366636346,14.55502407622411,15.1107128033022
1769247417576,129,1,1.4736258967438127,14.70157709393808,15.38416380615423
1769247417580,130,2,1.9009067693677024,15.62383544813568,15.814861070761271
1769247417584,130,2,2.2982056027431734,15.554861764314705,16.216626261991703
1769247417588,130,2,2.5405180456698915,15.682871283858208,16.46496420992583
1769247417592,131,3,2.6115603057159884,16.422963803422405,16.542621214190266
1769247417596,130,2,2.570202557911076,15.8697528830416,16.507001287448396
1769247417600,130,2,2.466206516212276,15.482203790891068,16.40741326384203
1769247417604,130,2,2.2679972980930883,15.747108737046585,16.212867054766726
1769247417608,130,2,1.8706560273876005,15.49406164399594,15.81910829328942
1769247417612,129,1,1.1918170294325208,14.626472883802764,15.14427179238552
1769247417616,128,0,0.2737442421605773,13.695474935714104,14.23117994302164
1769247417620,127,-1,-0.7049142224659083,12.679661252549732,13.25858326179904
1769247417624,126,-2,-1.520301431368555,11.592251073075133,12.4492399137179
1769247417628,126,-2,-2.020571752955523,11.655951112084914,11.953361842190349
1769247417632,126,-2,-2.186620435834475,11.486966135308352,11.789865667858102
1769247417636,125,-3,-2.117909531613918,10.853238528381413,11.86121475623152
1769247417640,126,-2,-1.9734421129270163,11.556721983282758,12.01014529952514
1769247417644,126,-2,-1.895177645113669,11.736733549428564,12.093673329089738
1769247417648,126,-2,-1.939351624027685,11.520145840754292,12.052892167255663
1769247417652,126,-2,-2.062960596510209,11.639330721410936,11.930415627226502
1769247417656,125,-3,-2.192568860176948,10.727365669655768,11.802871477645205
1769247417660,125,-3,-2.312577672051221,10.68236633908021,11.688707264786997
1769247417664,126,-2,-2.4561191971948064,11.68144805727624,11.553005718736564
1769247417668,126,-2,-2.583136803493062,11.527076971046474,11.431183153644607
1769247417672,125,-3,-2.508152871886197,10.718141161216478,11.507304270161434
1769247417676,125,-3,-2.041518647885999,10.597171393632912,11.97464266165092
1769247417680,126,-2,-1.253311156364726,11.878188953144496,12.766385717282995
1769247417684,128,0,-0.5534509952206667,13.47462946341524,13.470503247825672
1769247417688,128,0,-0.4226138371094186,13.77618652551339,13.601587482089986
1769247417692,127,-1,-1.0035151035720284,12.48498758737145,13.016686082131256
1769247417696,125,-3,-1.9270069969823485,10.806542182381204,12.09117984829749
1769247417700,125,-3,-2.5042009360059025,10.696433072849793,11.520511213812604
1769247417704,126,-2,-2.062480183478279,11.647537244639857,11.976827378384115
1769247417708,128,0,-0.1466160069171145,13.6871505836776,13.90733691684104
1769247417712,132,4,3.4343007816816025,17.5747852834132,17.49413746733805
1769247417716,136,8,8.513166125981671,21.728293550939,22.567916303173792
1769247417720,141,13,14.330769347205882,26.746273057666784,28.37494578191837
1769247417724,147,19,19.392891456273084,32.6071413935492,33.42845845429068
1769247417728,150,22,21.78766214447684,35.785888444830086,35.81998669020321
1769247417732,149,21,20.02017409143062,34.453583149836945,34.0538019401944
1769247417736,142,14,13.895847188166169,27.875354961923794,27.934412571153633
1769247417740,132,4,4.794086258568631,17.499343055721525,18.842049391552123
1769247417744,122,-6,-4.920535204681585,7.89736745814667,9.140810839210712
1769247417748,115,-13,-12.952294747978694,0.5548946071459948,1.1214858331630513
1769247417752,110,-18,-17.903866422099878,-4.274696489947242,-3.8258869011157746
1769247417756,109,-19,-19.4792375923247,-5.312232022794227,-5.408668093936372
1769247417760,110,-18,-18.18464497262672,-4.431303432886983,-4.12840078289728
1769247417764,112,-16,-14.924291557208026,-2.1038368528712414,-0.8791845804497687
1769247417768,117,-11,-10.742610364096484,2.500313465735191,3.302136745727889
1769247417772,121,-7,-6.66143118246119,6.89356894816182,7.392476873683941
1769247417776,125,-3,-3.462549477488422,10.460407290825696,10.60135491898669
1769247417780,127,-1,-1.4493563879818514,12.788880866483378,12.61753189888912
1769247417784,127,-1,-0.407210475119387,12.640480350154292,13.655787241813238
1769247417788,127,-1,0.1177665513733389,12.737537857273768,14.176774839326166
1769247417792,128,0,0.4233826094303919,13.788150911656906,14.483440817386938
1769247417796,129,1,0.5058873577479546,14.464723693398096,14.569940191611495
1769247417800,129,1,0.2878750703270016,14.892052534535964,14.353109503711936
1769247417804,128,0,-0.0739901697279442,13.396442462349835,13.987951162588876
1769247417808,126,-2,-0.1950387333793461,12.05987706748986,13.863296816286535
1769247417812,128,0,0.1903002642308446,13.471431355135495,14.2485238770954
1769247417816,129,1,0.9264776484418856,14.77949724608907,14.986335130783257
1769247417820,130,2,1.5315348293005544,15.624425142161254,15.590311952883509
1769247417824,130,2,1.6042625880784152,15.569618165907784,15.65857742270394
1769247417828,128,0,1.1385351577263316,13.948996467478665,15.189202382220056
1769247417832,128,0,0.4733521702057941,13.512473841997176,14.524666403382556
1769247417836,128,0,-0.0081379081999982,13.81466756177532,14.04640365750412
1769247417840,128,0,-0.1218204153721326,13.56236077039238,13.934021952661949
1769247417844,128,0,0.095898164602302,13.61727729151822,14.14929739329629
1769247417848,128,0,0.5086473534970837,13.93996050955818,14.55795314494255
1769247417852,129,1,0.986853053285682,14.41249660980511,15.032725679598943
1769247417856,129,1,1.4335794996497129,15.051202124070196,15.476375545305892
1769247417860,130,2,1.7603478108462705,15.196614674243897,15.799017549437789
1769247417864,129,1,1.873498154420964,15.090046438048397,15.907523204952463
1769247417868,130,2,1.713736877226692,15.361685681997177,15.745318899521564
1769247417872,129,1,1.345167040563033,15.02115215726771,15.37848134000911
1769247417876,129,1,1.0249211496673936,14.444865377445309,15.0624570096082
1769247417880,129,1,1.1528264226548943,14.78093100336043,15.192084159328653
1769247417884,130,2,2.060462330898591,15.547872567656832,16.094710511908158
1769247417888,131,3,3.731554054210357,16.81238840513656,17.754876790623115
1769247417892,133,5,5.658287967254369,18.63933898289494,19.670416666928222
1769247417896,135,7,7.021227673423798,20.749798195542883,21.02738734006953
1769247417900,136,8,7.174589130254355,21.54795521137592,21.180924405665863
1769247417904,134,6,6.12819554182488,19.69664502161745,20.137618563830948
1769247417908,132,4,4.620866570996263,17.672736351969814,18.63238496747531
1769247417912,131,3,3.656770264758459,16.731634459055158,17.66715142812604
1769247417916,131,3,3.828395511224021,16.680509985000015,17.83384988890541
1769247417920,133,5,4.953327201847939,18.633411904926785,18.9505846939176
1769247417924,135,7,6.299689534265928,20.611966402476625,20.287160477624916
1769247417928,135,7,7.186499359942952,20.71077136464377,21.165532330692297
1769247417932,135,7,7.455546653928217,20.65258574510547,21.43036220022425
1769247417936,135,7,7.467337278973761,20.74620373466597,21.442598157589963
1769247417940,135,7,7.704305460245563,20.566232354331255,21.68160276802793
1769247417944,136,8,8.368180555422814,21.70292306834388,22.34427959792345
1769247417948,138,10,9.294666436554676,23.577519318956934,23.263528373403
1769247417952,138,10,10.18155246259457,23.763256820050973,24.1391507009247
1769247417956,138,10,10.859590661295965,23.59494338070954,24.80725289967814
1769247417960,139,11,11.370451188054751,24.729612302366856,25.31315534184263
1769247417964,140,12,11.861369487335892,25.51952292780709,25.80293571676117
1769247417968,140,12,12.459309033656629,25.74652624243784,26.39977180442001
1769247417972,141,13,13.2262951022357,26.57170811275113,27.16324166261044
1769247417976,142,14,14.173114365230472,27.73172083469014,28.104112007823524
1769247417980,143,15,15.267456151759417,28.62901433345703,29.19098336607549
1769247417984,144,16,16.40863555569419,29.54400979889017,30.32387081058839
1769247417988,145,17,17.39585549622552,30.787451800237925,31.302718358704823
1769247417992,146,18,17.946461565349757,31.39368244917313,31.84613678769729
1769247417996,145,17,17.79408456332582,30.98141776733032,31.68891513327993
1769247418000,145,17,16.828094169584716,30.268067596040467,30.720028291141528
1769247418004,143,15,15.180734260165798,28.961443759170866,29.069535119322538
1769247418008,141,13,13.17320211943941,26.31362941613972,27.05649342473692
1769247418012,138,10,11.118412895727005,23.81460230480669,24.993507453871956
1769247418016,137,9,9.111417097721574,22.596861451202173,22.976936840916395
1769247418020,135,7,6.990798624977939,20.53159251392121,20.84711975761716
1769247418024,132,4,4.527657944784345,17.819478229988533,18.376644394832145
1769247418028,130,2,1.693306149764779,15.291767222864468,15.537402798017968
1769247418032,126,-2,-1.220434819516398,11.91145285885082,12.620176593472689
1769247418036,124,-4,-3.7344549168567625,9.358125866635111,10.10180435171488
1769247418040,122,-6,-5.474768512572022,7.8281397214025565,8.354501114858593
1769247418044,121,-7,-6.407973741125473,6.490083858542181,7.411764569954956
1769247418048,121,-7,-6.842591831535583,6.58139264833614,6.9666808057516505
1769247418052,121,-7,-7.191624370036038,6.6303783350322085,6.608140388459
1769247418056,120,-8,-7.678711998080384,5.497316611491995,6.1138944306373775
1769247418060,119,-9,-8.219183659281153,4.76645604073651,5.56883352576065
1769247418064,119,-9,-8.55571219453995,4.448197374534396,5.228487185292241
1769247418068,119,-9,-8.507233728029114,4.652818675686415,5.270726764434324
1769247418072,120,-8,-8.114915463292956,5.496469164980923,5.652755013347984
1769247418076,120,-8,-7.594930778685805,5.575070426764656,6.1606950949372825
1769247418080,120,-8,-7.1763177786006045,5.693318515794405,6.5698442294379085
1769247418084,121,-7,-6.954203013702442,6.456155894680689,6.786729188367019
1769247418088,121,-7,-6.83835968821278,6.644001664966801,6.898701613984818
1769247418092,121,-7,-6.622402544647961,6.436291349517283,7.108104848723523
1769247418096,121,-7,-6.1498931538217505,6.6056287197203405,7.570426383370766
1769247418100,122,-6,-5.475248688694129,7.630289120967655,8.233733029118488
1769247418104,123,-5,-4.8760640296661055,8.485834702762947,8.823320592276213
1769247418108,123,-5,-4.669297231152814,8.587816737034283,9.02289753724568
1769247418112,123,-5,-4.963028883401789,8.442988745285238,8.722792150260833
1769247418116,122,-6,-5.557793964948558,7.538012336247099,8.12059908788633
1769247418120,121,-7,-6.098772843290603,6.673946356569558,7.570823928583606
1769247418124,121,-7,-6.3602171692308165,6.391173773784058,7.300242912282407
1769247418128,121,-7,-6.410110372942117,6.679566281167567,7.241488254280372
1769247418132,122,-6,-6.496694103516533,7.289683603335512,7.145900442695135
1769247418136,121,-7,-6.7617402062260705,6.647931198647442,6.871698407684356
1769247418140,120,-8,-7.066237910927317,5.516484824253816,6.559067905504416
1769247418144,120,-8,-7.105810248201619,5.490733778703014,6.512869366660308
1769247418148,121,-7,-6.697326128132787,6.569982079217638,6.914290659955615
1769247418152,122,-6,-5.9575713502059875,7.339524837130668,7.643977166886902
1769247418156,122,-6,-5.223653635046493,7.571755399726799,8.365006900560601
1769247418160,123,-5,-4.805429928081199,8.533202781586011,8.77085886128608
1769247418164,123,-5,-4.772545494716146,8.405970648176172,8.795262092551425
1769247418168,122,-6,-4.91780830745301,7.630075870046579,8.645615942587082
1769247418172,123,-5,-4.899716532883188,8.218057291974873,8.660013860669464
1769247418176,123,-5,-4.453901484227535,8.678305322817174,9.098520179503588
1769247418180,124,-4,-3.5443864611565754,9.350705323673065,9.99572821492454
1769247418184,125,-3,-2.388913639296969,10.550565433081095,11.136721665020504
1769247418188,126,-2,-1.3600165603911565,11.434732738956626,12.153205045756858
1769247418192,127,-1,-0.8022072299284619,12.352172601908014,12.702434313775932
1769247418196,127,-1,-0.8479066097126413,12.52443513656011,12.650491722264594
1769247418200,126,-2,-1.349533070351825,11.41333947816787,12.14256143615312
1769247418204,125,-3,-1.994951516115652,10.44991084231062,11.4894507398331
1769247418208,125,-3,-2.529327445779837,10.482005757962105,10.945600377940012
1769247418212,125,-3,-2.9051253675768636,10.242390485248915,10.558682366832317
1769247418216,124,-4,-3.249225075802423,9.630994548084155,10.202911144480929
1769247418220,124,-4,-3.702232772004905,9.205843473032807,9.739427195010354
1769247418224,123,-5,-4.2752613840353755,8.625496421404648,9.1579235449103
1769247418228,123,-5,-4.82648398517607,8.215612978769474,8.59926142188386
1769247418232,122,-6,-5.159978282812635,7.4796233144272115,8.257691604984114
1769247418236,122,-6,-5.166674857969197,7.352492428490325,8.241367306163431
1769247418240,123,-5,-4.897739125642538,8.411764535517198,8.499435928287538
1769247418244,123,-5,-4.5127814452719885,8.377052690597438,8.873492321821363
1769247418248,123,-5,-4.151339460289828,8.356748227396416,9.22521027646659
1769247418252,124,-4,-3.836745827687289,9.33867557437549,9.531423200719958
1769247418256,124,-4,-3.4843193428420185,9.394354188473413,9.875866575677986
1769247418260,124,-4,-3.001890111066041,9.343943820024675,10.349621906736688
1769247418264,125,-3,-2.401697864033056,10.357425116846311,10.939812695268891
1769247418268,126,-2,-1.825103023011134,11.307070611975345,11.50496208274408
1769247418272,126,-2,-1.4477015509554587,11.354697961766473,11.870336829620635
1769247418276,126,-2,-1.342410446208282,11.296409340411904,11.96498844932014
1769247418280,126,-2,-1.4158684495511558,11.410269769303287,11.883898092283369
1769247418284,126,-2,-1.461113380076235,11.1696115651632,11.83336444149262
1769247418288,126,-2,-1.278194451558598,11.469534036093014,12.010332458442594
1769247418292,127,-1,-0.787977488306298,12.111272891435751,12.490906528309411
1769247418296,127,-1,-0.0922672995545728,12.506892007376338,13.17290181958713
1769247418300,128,0,0.5381502189952219,13.12376592626632,13.78826060049095
1769247418304,128,0,0.7583693269874314,13.359648008935036,13.99566900202193
1769247418308,128,0,0.3192687254803794,13.22589105775544,13.547784501565408
1769247418312,127,-1,-0.756184881709655,12.275814845599896,12.466822753005934
1769247418316,125,-3,-2.114883177331454,10.309464607703092,11.103635243169826
1769247418320,124,-4,-3.216387819465705,9.22523278630068,9.996036938961076
1769247418324,124,-4,-3.6165177697521047,9.182330331024453,9.58624256046472
1769247418328,124,-4,-3.215133434653805,9.340374112722536,9.974392564316606
1769247418332,125,-3,-2.3092894948049274,10.095736055472363,10.865772094331104
1769247418336,126,-2,-1.417051648603101,11.461698137280113,11.745261848775016
1769247418340,127,-1,-0.975509391896981,11.948169817729884,12.177089729704104
1769247418344,126,-2,-1.0992553568740393,11.388808085467494,12.045983689179906
1769247418348,126,-2,-1.5569589481443704,11.041985317279838,11.581860313590417
1769247418352,125,-3,-1.9735937515997044,10.336726540847172,11.158497666466612
1769247418356,125,-3,-2.096095116805591,10.182207598769162,11.027735089378517
1769247418360,126,-2,-1.9200691285686624,11.114523063544006,11.192886148353235
1769247418364,126,-2,-1.6087983180638412,11.172758241612922,11.491038923354116
1769247418368,126,-2,-1.3206068548040055,11.1266114888848,11.766505843615654
1769247418372,126,-2,-1.114281843993894,11.24179350853571,11.963390963947662
1769247418376,126,-2,-0.9800221747981372,11.16064012835488,12.091171285156104
1769247418380,127,-1,-0.9023695001798944,12.075679157850482,12.161527556469371
1769247418384,127,-1,-0.8687993786490047,12.12737763784723,12.184222299476808
1769247418388,126,-2,-0.8517265028466685,11.056029320643535,12.188874844943616
1769247418392,126,-2,-0.8270400410649781,11.298305215837528,12.203859597542984
1769247418396,127,-1,-0.8019807789713038,11.965810344717768,12.222501791860749
1769247418400,127,-1,-0.7814352388867276,12.229741196688895,12.235829173673508
1769247418404,127,-1,-0.7065396203984577,11.869944436363747,12.299461951283208
1769247418408,126,-2,-0.48459552524531,11.222054754876982,12.507910528600677
1769247418412,127,-1,-0.1194591996108738,12.077201463649397,12.861569122130769
1769247418416,128,0,0.2215457944828902,13.062628172424,13.194527473324232
1769247418420,128,0,0.3357985275867574,13.096400311921524,13.301830773092716
1769247418424,128,0,0.2049428253781193,12.881524117499838,13.162671715729468
1769247418428,127,-1,0.0590053033399402,12.148724312152996,13.00713895262318
1769247418432,127,-1,0.182141298774729,12.027841860597723,13.120595194231823
1769247418436,128,0,0.6338227637446521,13.041123010130564,13.562391827169996
1769247418440,129,1,1.158478006968409,14.04397915463865,14.075851492653628
1769247418444,129,1,1.3727155407693457,13.851763896456356,14.27784697712653
1769247418448,128,0,1.0607350888936729,13.08600032990376,13.95458609906072
1769247418452,128,0,0.3383340217400765,12.965644977838512,13.223354188283402
1769247418456,127,-1,-0.4149972369762369,12.0125356786935,12.463178427255295
1769247418460,126,-2,-0.7818711415812329,11.00321680708561,12.089940003407063
1769247418464,127,-1,-0.5302795037709955,11.82181273083926,12.334160542363035
1769247418468,128,0,0.3045301885118245,13.018520062980386,13.159324900398056
1769247418472,129,1,1.501257551305788,13.917348652668318,14.343719519969882
1769247418476,130,2,2.786780737036146,14.954798209498058,15.61555263881174
1769247418480,131,3,3.9019631980364617,16.001100841264766,16.71811879333077
1769247418484,132,4,4.5988961302334275,16.704957702421453,17.4050147772159
1769247418488,132,4,4.668094306682205,17.076274419335384,17.466237919053643
1769247418492,132,4,4.046023138152983,16.693138905481554,16.836759331206213
1769247418496,130,2,2.920299451132275,15.12349456328274,15.703381348090604
1769247418500,129,1,1.698687931235176,13.711987913976383,14.473837622691669
1769247418504,128,0,0.8124971306194798,12.931824710890028,13.579011605732044
1769247418508,128,0,0.47850079340548,12.733260377344138,13.234664033067505
1769247418512,128,0,0.5857519598710441,12.934717850558396,13.32961127675398
1769247418516,128,0,0.776352348082649,12.781597682075974,13.50723495086075
1769247418520,128,0,0.6596813205332943,12.956065602378128,13.37853517743238
1769247418524,128,0,0.0312130408646876,12.59602035877937,12.739662731075782
1769247418528,126,-2,-1.0269001897327623,10.942883249012803,11.67277602547439
1769247418532,125,-3,-2.214184291632463,9.628514000960273,10.478244379327244
1769247418536,124,-4,-3.185235687176024,8.963146180042626,9.500719205919182
1769247418540,124,-4,-3.696639499507599,8.713458716284919,8.98192424332448
1769247418544,124,-4,-3.654190196323091,8.703318094789566,9.014678745900886
1769247418548,124,-4,-3.102710304837762,8.783432069911546,9.554215099250166
1769247418552,125,-3,-2.225434116361534,9.593287761688476,10.41810517854948
1769247418556,126,-2,-1.3378586905831402,10.968601228675936,11.291463390246536
1769247418560,127,-1,-0.8093349988422577,11.525602024852471,11.806187568016068
1769247418564,126,-2,-0.9053471321644742,10.873510029883205,11.69954213001907
1769247418568,126,-2,-1.631634393165036,10.425685091571848,10.968079120318432
1769247418572,125,-3,-2.680397994567989,9.874034152117527,9.918217866808284
1769247418576,124,-4,-3.540239654827216,8.533518579876072,9.05601469484753
1769247418580,123,-5,-3.762624914682432,7.892331194413189,8.823972312098652
1769247418584,124,-4,-3.262513902226136,8.412997541251269,9.304415870871493
1769247418588,125,-3,-2.430886685396348,9.74373321343774,10.10973505791093
1769247418592,126,-2,-1.8993260078722831,10.47089785822595,10.617967782469348
1769247418596,125,-3,-2.0382086444771277,9.75294010361933,10.469691234468064
1769247418600,125,-3,-2.49834571211145,9.638894539001104,10.017187013172084
1769247418604,126,-2,-2.139966942471892,10.484918497407756,10.390105914543094
1769247418608,128,0,0.4730688356964228,12.614319850415871,13.00757686549204
1769247418612,133,5,6.134091721735339,17.436876996579596,18.652796627601923
1769247418616,140,12,14.087162938597396,24.7138726073446,26.57417172254141
1769247418620,149,21,21.834509149274215,33.55471530052502,34.28729811946789
1769247418624,155,27,26.065281151919024,39.45343159691683,38.49285839840017
1769247418628,153,25,24.344461715426736,37.504033749746725,36.76032369935155
1769247418632,144,16,16.50457750421157,28.363499149762767,28.921179133689307
1769247418636,131,3,4.7676935392445134,15.65504133485445,17.19281028832376
1769247418640,119,-9,-7.465755414355963,3.4717065211698976,4.967441797674515
1769247418644,110,-18,-17.26776064793501,-5.512107221253759,-4.836382378491244
1769247418648,105,-23,-23.19779343395331,-10.60181538032958,-10.782856612874502
1769247418652,103,-25,-25.263167028246055,-12.63758030194368,-12.874786920092449
1769247418656,103,-25,-24.229779091246144,-12.488985424104474,-11.867200864883742
1769247418660,106,-22,-20.988486296893328,-9.551564228156206,-8.642347368022014
1769247418664,111,-17,-16.35615601865544,-4.605065232078468,-4.016940022494634
1769247418668,116,-12,-11.182914109574602,0.4018061655822063,1.152316871841558
1769247418672,121,-7,-6.412740110240938,5.216337055570996,5.914780142714552
1769247418676,125,-3,-2.895364547466041,9.522735172312467,9.41901391242842
1769247418680,127,-1,-1.0542543200140215,11.231381762875811,11.245170246092364
1769247418684,126,-2,-0.6976286523498612,10.51440524574575,11.590279947984952
1769247418688,126,-2,-1.160366234534769,10.163391668167792,11.1211492508941
1769247418692,126,-2,-1.6820204650083848,10.350079038783,10.594220340229697
1769247418696,126,-2,-1.7517690502861647,10.23604305089217,10.514540895329008
1769247418700,126,-2,-1.2413913331150377,10.373866292655835,11.008900903135128
1769247418704,127,-1,-0.3421664162262696,11.239642708334896,11.890138454272575
1769247418708,128,0,0.5959763685200183,12.343490540419635,12.813198580779746
1769247418712,129,1,1.2510947499428722,13.015973157399705,13.45706800872828
1769247418716,129,1,1.484273523335712,13.442207863042954,13.68026251926104
1769247418720,129,1,1.3926229876420793,12.985915021584123,13.5777780538733
1769247418724,128,0,1.2261491697329112,12.50262098781074,13.400168132875397
1769247418728,129,1,1.2320028501812414,12.979321593158083,13.396027817081494
1769247418732,129,1,1.5487990617184386,13.21666246343318,13.703484280087425
1769247418736,130,2,2.210115576662913,14.145388233251024,14.353682403033371
1769247418740,131,3,3.190055043835229,15.063354399342067,15.319154113231717
1769247418744,131,3,4.386752754421213,15.34598039771046,16.499318629281145
1769247418748,133,5,5.549533499016001,16.95301591856537,17.646337158092862
1769247418752,134,6,6.2824765371156746,18.159050459340733,18.365954937880275
1769247418756,134,6,6.222035136702525,18.0115411005925,18.294298171058777
1769247418760,133,5,5.2968536274782805,17.057800732027427,17.358906590359474
1769247418764,131,3,3.8481104747417376,15.200675708229912,15.9000621339876
1769247418768,130,2,2.476911713799838,13.937359312466691,14.51814992987807
1769247418772,129,1,1.7078432099467709,13.08862050095155,13.737078765998998
1769247418776,129,1,1.707692884795478,12.885578239852126,13.72311787627349
1769247418780,130,2,2.256519203551745,14.080273443238974,14.256211724619291
1769247418784,131,3,2.972108793271685,14.994931564066492,14.955138786226522
1769247418788,131,3,3.589787033444485,14.998846795340365,15.557703302692282
1769247418792,131,3,4.073251677987834,14.907519777483571,16.029725428239317
1769247418796,132,4,4.5150505831042045,15.856713991965515,16.4625066478339
1769247418800,133,5,4.983316138217412,17.018087606951493,16.919895089139537
1769247418804,133,5,5.467446140865986,16.84213379037272,17.38864550574946
1769247418808,133,5,5.918888966799752,17.064333081300667,17.82251799076747
1769247418812,134,6,6.301350920400025,17.657011960875224,18.189770869897753
1769247418816,134,6,6.620806225959854,17.93742885943172,18.497859576594564
1769247418820,135,7,6.952748562026174,18.810192667269675,18.81947957496194
1769247418824,135,7,7.441437305138084,18.855450942174112,19.295586697153936
1769247418828,135,7,8.217594228716319,18.96144675812288,20.05649784806232
1769247418832,137,9,9.26319038027403,20.541802495934487,21.085923691934457
1769247418836,138,10,10.355032464142978,21.925698570012266,22.161945385834052
1769247418840,139,11,11.180627171697644,22.636692082155697,22.9722509115095
1769247418844,139,11,11.553249040556416,22.88929442620954,23.33032576349402
1769247418848,139,11,11.54830888767373,22.78570818696403,23.31209941605823
1769247418852,139,11,11.45413080263848,22.500810542770488,23.20577617191455
1769247418856,139,11,11.58821424146425,22.848227172386267,23.327696290987035
1769247418860,140,12,12.12010890799669,23.506676394824822,23.846049482605338
1769247418864,140,12,13.009135933443163,23.92357717213158,24.71949034144735
1769247418868,142,14,14.067978103054324,25.55858220422046,25.76089480650535
1769247418872,143,15,15.082260005997664,26.562116594827465,26.757029559999253
1769247418876,143,15,15.894636690348792,26.5976980282597,27.552680572645357
1769247418880,144,16,16.411122756700276,27.595622469933975,28.05573028814663
1769247418884,144,16,16.570710506206964,27.696109533595695,28.204592382104096
1769247418888,144,16,16.3454143915409,27.596817193280245,27.967900578809335
1769247418892,144,16,15.767920345449962,27.374538625959467,27.37497681099929
1769247418896,142,14,14.913358877772122,25.56598426339072,26.50092800561279
1769247418900,141,13,13.805885870953494,24.48897118591419,25.373302562934125
1769247418904,140,12,12.344175940023714,23.630457411918684,23.894340722017624
1769247418908,138,10,10.373603715837948,21.508066655313115,21.910220275741615
1769247418912,136,8,7.892309673414971,19.26752926527574,19.417189546095507
1769247418916,133,5,5.2019445637222,16.50936798845963,16.714481183402576
1769247418920,130,2,2.812082406660132,13.33063507384217,14.310377032341703
1769247418924,128,0,1.116050266335285,11.67113786309701,12.597895424094762
1769247418928,128,0,0.0872072803826728,11.27058896296263,11.550313789483292
1769247418932,127,-1,-0.735525384104021,10.351015651647971,10.707007834004989
1769247418936,126,-2,-1.9347784319560084,9.22899251699779,9.48721416996634
1769247418940,124,-4,-3.805772565429972,7.418605704263778,7.5985302133191635
1769247418944,121,-7,-6.149137156166095,4.408178580922211,5.241993981959121
1769247418948,119,-9,-8.39161183948625,2.3501727953607734,2.9895608449450375
1769247418952,118,-10,-9.918694367698311,1.108519326984668,1.4518911832923624
1769247418956,117,-11,-10.386318906515427,0.2804630156275465,0.969284283567884
1769247418960,118,-10,-9.845532779593292,1.1938823344233018,1.4897056605780588
1769247418964,119,-9,-8.668289851485786,2.454944074237666,2.6437056596536337
1769247418968,120,-8,-7.370881564720312,3.104756490534363,3.919131178073364
1769247418972,121,-7,-6.434691249423195,4.187987500272416,4.837194987556825
1769247418976,122,-6,-6.163742369868728,4.981048901651125,5.093212733996329
1769247418980,121,-7,-6.589284744094192,4.326223770987079,4.653569279877751
1769247418984,120,-8,-7.458841903103616,3.1156801509123486,3.7694344232303454
1769247418988,119,-9,-8.346110784975634,2.2804635299939733,2.867257978439337
1769247418992,119,-9,-8.841261999820372,1.7989321530295277,2.356606770969597
1769247418996,119,-9,-8.715267828724311,2.2043606846535706,2.4651448826443456
1769247419000,120,-8,-7.984076347413885,2.9012604712538543,3.1761968558979223
1769247419004,120,-8,-6.880071918318867,3.368840409442077,4.258707132958357
1769247419008,122,-6,-5.76698153549217,4.820164301998325,5.351195559513547
1769247419012,123,-5,-5.011312471065624,6.066847694002053,6.088342268860219
1769247419016,123,-5,-4.8327966961987485,5.727235988604898,6.2502545364156985
1769247419020,122,-6,-5.204458248401125,5.20019228520651,5.863199869459853
1769247419024,122,-6,-5.870977556977245,4.86732933604206,5.181448504087854
1769247419028,121,-7,-6.478554022848056,4.122594060941792,4.557435819162851
1769247419032,121,-7,-6.7403618698053664,3.56974493977758,4.277047319460207
1769247419036,121,-7,-6.551477176571752,4.02074178611875,4.445494426947498
1769247419040,122,-6,-6.001614740657918,4.741297437802256,4.974527590762451
1769247419044,122,-6,-5.292261847328882,5.085873629201225,5.6643245549850665
1769247419048,123,-5,-4.6180780051612915,5.75838957708811,6.3207026454457695
1769247419052,124,-4,-4.082742901604055,6.641227013437908,6.838766642872249
1769247419056,124,-4,-3.6894550070807823,6.847666121838555,7.213758932723254
1769247419060,124,-4,-3.4035204351054253,6.613396544730623,7.480224789471132
1769247419064,124,-4,-3.2349739613410917,7.110904701417905,7.629226735171962
1769247419068,125,-3,-3.2595513870134925,7.443755411672333,7.585733298147618
1769247419072,124,-4,-3.543567081562532,6.789903241333738,7.283056159884128
1769247419076,124,-4,-4.041681950100796,6.491081963768081,6.765952406839827
1769247419080,123,-5,-4.579729089997034,5.738497060906531,6.208593649954369
1769247419084,122,-6,-4.955483203161628,4.835213740350961,5.813419317852478
1769247419088,123,-5,-5.068476779043896,5.4248101868454555,5.680675351629685
1769247419092,123,-5,-4.957976007200566,5.6941038621031765,5.77088674705639
1769247419096,123,-5,-4.723156687625017,5.28909726933282,5.985568735292554
1769247419100,123,-5,-4.414339520896871,5.817047218561389,6.275441433694506
1769247419104,124,-4,-3.99686062707398,6.477901035039799,6.674954246025756
1769247419108,124,-4,-3.4114277925794196,6.583425167200176,7.241673562820714
1769247419112,125,-3,-2.677879007832807,7.335032069369939,7.9541832486210575
1769247419116,126,-2,-1.957952231388366,8.410799073510244,8.650969759954734
1769247419120,126,-2,-1.5126557408347772,8.528261301607348,9.073029008708628
1769247419124,126,-2,-1.557971439835636,8.49244976869327,9.006536774435823
1769247419128,126,-2,-2.101205415862287,8.38352625622888,8.444829606963118
1769247419132,125,-3,-2.8749171948294996,7.28443537215801,7.6543125820391476
1769247419136,124,-4,-3.44377312172738,6.271060804301242,7.068553743970465
1769247419140,124,-4,-3.445263700883528,6.453572222659364,7.048190185240875
1769247419144,125,-3,-2.8107448285849035,7.330459924652857,7.660367644981247
1769247419148,126,-2,-1.8131034780591917,8.340710179590724,8.63233989197101
1769247419152,127,-1,-0.9167530449923552,9.08527537465454,9.50234572398
1769247419156,127,-1,-0.5383698890348234,9.27597168874629,9.857331403040735
1769247419160,127,-1,-0.8527733169341785,9.190133630984697,9.523995804883704
1769247419164,126,-2,-1.7226168630705687,8.389127457369085,8.63780489988564
1769247419168,125,-3,-2.7707616522731837,7.01824792170491,7.572461263475513
1769247419172,124,-4,-3.5652162630277706,6.224540255995864,6.757727283162181
1769247419176,124,-4,-3.8302641171894902,5.893898173162119,6.469386198645687
1769247419180,124,-4,-3.56630668473803,6.351904997874408,6.708641098070244
1769247419184,125,-3,-3.008350955207381,7.008630601614195,7.242290221110737
1769247419188,125,-3,-2.459753824679382,7.128611187262965,7.767920083909304
1769247419192,126,-2,-2.1169295640684744,7.937454495807525,8.0889018643317
1769247419196,126,-2,-1.994246546777024,7.892052258549917,8.19021448361513
1769247419200,125,-3,-1.9806891731773053,7.171497663141455,8.182647367256124
1769247419204,126,-2,-1.9635809479241195,7.901379529540523,8.178905254634195
1769247419208,126,-2,-1.9091135569005409,8.050416892186893,8.212356587869095
1769247419212,126,-2,-1.8443459396517927,7.736400318723815,8.255011283875245
1769247419216,126,-2,-1.7900119156880627,7.914935479254558,8.285352829421385
1769247419220,126,-2,-1.7309776464630775,7.854385332519064,8.318616099673338
1769247419224,126,-2,-1.651129379906079,8.009641257408866,8.372470304917668
1769247419228,126,-2,-1.5809984761339235,7.6875582408191985,8.418870917474546
1769247419232,126,-2,-1.5839553689990091,7.86336585488348,8.395694707768218
1769247419236,127,-1,-1.662179676406116,8.57629645484772,8.299016959712421
1769247419240,126,-2,-1.668197431051754,7.908317862472177,8.272780016011119
1769247419244,126,-2,-1.3572480642300833,7.74274538529002,8.559502355761271
1769247419248,127,-1,-0.6062876479485755,8.680545403200698,9.282859262594926
1769247419252,128,0,0.3714987440128721,9.652418006471969,10.232176411948524
1769247419256,129,1,1.050514575403089,10.547628190284156,10.88428244034003
1769247419260,129,1,0.9118410157847928,10.678392744800751,10.721359997399189
1769247419264,128,0,-0.1548166587400983,9.734281715148075,9.632951870502662
1769247419268,126,-2,-1.692565006443248,7.390592978350281,8.075156688828812
1769247419272,124,-4,-2.922466825622706,5.745981545944777,6.825466723399016
1769247419276,125,-3,-3.2265119481371674,6.162891307903477,6.499514642608989
1769247419280,125,-3,-2.506355285704762,6.8852497737332,7.193476227319088
1769247419284,127,-1,-1.1738465488926462,8.225043695630927,8.495751790817424
1769247419288,128,0,0.1652647942650429,9.67787299126608,9.803831030277312
1769247419292,129,1,1.067694703770526,10.176026734518604,10.678382316463193
1769247419296,129,1,1.419183360010693,10.459164720119723,11.0067117852175
1769247419300,129,1,1.371865143493562,10.393396545672706,10.939009166461606
1769247419304,129,1,1.175311497207067,10.37469486855916,10.72114984600297
1769247419308,129,1,1.0438605094485145,10.38575302415208,10.565076237340046
1769247419312,129,1,1.1089944150091195,10.07905854121581,10.602758627829193
1769247419316,129,1,1.4179927605461575,10.419890609760916,10.883655949712612
1769247419320,130,2,1.9342187402895752,11.076338455634234,11.372645254078009
1769247419324,130,2,2.536383421114612,11.507280668460556,11.948303770187492
1769247419328,131,3,3.037685016337623,11.95136537312282,12.42290060408476
1769247419332,131,3,3.237035865317023,12.24809101414984,12.594850304414704
1769247419336,131,3,2.993528831359315,12.011051376261053,12.323681330659866
1769247419340,130,2,2.293882858465933,11.170674782849932,11.597174644029202
1769247419344,129,1,1.274236109905699,10.217871924786618,10.55222132679128
1769247419348,128,0,0.1775360442980882,8.906536105310527,9.431160921098442
1769247419352,127,-1,-0.7354870495405603,8.073605495660342,8.49275394938411
1769247419356,127,-1,-1.2837566090386805,7.893492443646846,7.916437117662825
1769247419360,126,-2,-1.441113732510953,7.022697795261317,7.728907821667975
1769247419364,126,-2,-1.3646430159477296,7.1293859314935055,7.77530545032549
1769247419368,127,-1,-1.3424615046852508,7.67583986317059,7.768835906803266
1769247419372,126,-2,-1.6500824698333016,7.07576934337625,7.433074639854778
1769247419376,126,-2,-2.3836792523253982,6.565318750624721,6.670447121569623
1769247419380,124,-4,-3.392712136580685,5.129893759801673,5.631999584919884
1769247419384,123,-5,-4.369890374198445,3.706580147898757,4.627150642512948
1769247419388,123,-5,-5.019305845004541,3.842456474872921,3.95281542085225
1769247419392,123,-5,-5.166242087414327,3.639330708070281,3.781726719999421
1769247419396,123,-5,-4.761946275380112,3.69685555509382,4.158789848628924
1769247419400,124,-4,-3.8593190009498777,4.787699941456929,5.028477565771904
1769247419404,125,-3,-2.6403840910998584,5.690208577431614,6.210031191520484
1769247419408,126,-2,-1.4658200710532452,6.634659844103242,7.348025012896477
1769247419412,127,-1,-0.8255878803445948,7.520089593924427,7.958210891309784
1769247419416,127,-1,-1.1137394455580214,7.561656819024609,7.647595664417651
1769247419420,126,-2,-2.325549758604378,6.639519882849266,6.415387162810516
1769247419424,124,-4,-3.9324847452495457,4.534682704095248,4.781985220991089
1769247419428,122,-6,-5.130140740662075,2.5094500109281945,3.5478201384346484
1769247419432,122,-6,-5.344876589658678,2.3448722943321645,3.2903185254360707
1769247419436,123,-5,-4.585427023771635,3.4915691004589906,4.009667895869216
1769247419440,125,-3,-3.2768707889197937,5.411706225802668,5.288237050702806
1769247419444,127,-1,-1.6585104805491668,7.507625299389685,6.887162784588758
1769247419448,129,1,0.7065872910176774,9.18480035078978,9.236355736475993
1769247419452,132,4,4.741257493085259,12.401104564678375,13.248975435220848
1769247419456,138,10,10.947647306263214,18.121522833043343,19.421159343707597
1769247419460,145,17,18.434880512498207,25.54054704398509,26.862848116718222
1769247419464,153,25,24.759563125650985,33.08368242432085,33.13681071792201
1769247419468,156,28,26.94245616859383,36.306132830484934,35.27179647678108
1769247419472,152,24,23.11149209627047,31.932321997557324,31.402789133290817
1769247419476,141,13,13.663171870112606,21.25896301660401,21.93005762395368
1769247419480,128,0,1.1442631807905783,8.099591995650714,9.398039260495654
1769247419484,116,-12,-11.008957867583108,-3.7588649925779674,-2.766305578116521
1769247419488,108,-20,-19.977912041879613,-12.091984791052564,-11.756448243387371
1769247419492,104,-24,-24.429271169671217,-15.949113908759236,-16.245968855333853
1769247419496,104,-24,-24.495405779707568,-16.13004253427429,-16.36379150849402
1769247419500,106,-22,-21.24691433334354,-13.842187688687728,-13.1692089656559
1769247419504,111,-17,-16.15958986080872,-9.11978436759426,-8.127336942483666
1769247419508,117,-11,-10.763420245817224,-3.05297563805032,-2.765066639392378
1769247419512,122,-6,-6.359754992186404,1.721136836404595,1.612072814634443
1769247419516,124,-4,-3.712103528237626,3.877837697813436,4.234445167569687
1769247419520,125,-3,-2.8262419023690035,4.822534720958231,5.092194124626047
1769247419524,125,-3,-3.020240185533555,4.884252631442532,4.865682998250777
1769247419528,124,-4,-3.3335818925728846,3.636372360381833,4.5156435866429145
1769247419532,124,-4,-3.074342381422264,3.752548341115116,4.7353671152968735
1769247419536,126,-2,-2.1599915283412834,5.560481777291463,5.609037633015466
1769247419540,127,-1,-1.0175323158311649,6.807557483451877,6.711161435715794
1769247419544,128,0,-0.1382284915986991,7.583957610967703,7.552163667318123
1769247419548,128,0,0.3395092509312436,7.601857865569261,7.995019620814594
1769247419552,128,0,0.690112987375195,7.490116923739681,8.313460600834695
1769247419556,129,1,1.3000186798113185,8.505821977649056,8.890547253262884
1769247419560,130,2,2.293877105223735,9.55504891615004,9.847373500417444
1769247419564,131,3,3.3920229876356256,10.499511178501958,10.90382295733326
1769247419568,132,4,4.087350384172435,11.386244792903616,11.555780041223128
1769247419572,132,4,3.991692748415296,11.369298722963084,11.418820110098295
1769247419576,131,3,3.1005429334839016,10.311488149374616,10.490355181534316
1769247419580,129,1,1.7988591512290515,8.423578000110718,9.154683708866749
1769247419584,128,0,0.6250245404476478,7.28741827672541,7.94739384113841
1769247419588,128,0,-0.0165168547639132,7.30628775697362,7.269480835555961
1769247419592,128,0,-5.591781585256861e-05,7.112187015874358,7.245072022668007
1769247419596,128,0,0.5573101200172872,7.268099585420164,7.758771083918497
1769247419600,129,1,1.4148649930381656,8.129653617609486,8.573080657825525
1769247419604,130,2,2.3161524579900674,9.219773989585054,9.433278575699417
1769247419608,131,3,3.0594325855254763,10.082650855554377,10.137238926612577
1769247419612,131,3,3.533049297318408,9.965204027917084,10.57233108619778
1769247419616,131,3,3.718896297318948,10.152462407145656,10.719623604535368
1769247419620,132,4,3.681006105145448,10.82946445777976,10.642117209229909
1769247419624,131,3,3.5518789162636666,10.249444621374565,10.471636960487013
1769247419628,131,3,3.495834210392073,9.648757971644937,10.37321634477043
1769247419632,131,3,3.6363232625560378,10.15024650286992,10.471699420564107
1769247419636,132,4,3.995798298397716,10.5801720099118,10.789836693424778
1769247419640,132,4,4.510751578424736,11.080693291076964,11.263202848354377
1769247419644,133,5,5.106946859282009,11.662685365512608,11.817020831977006
1769247419648,133,5,5.752231285400897,11.852527917547896,12.419732644538245
1769247419652,134,6,6.437920576069867,12.689293322187948,13.063292136247806
1769247419656,135,7,7.1263410344844855,13.60887728955102,13.709551964095144
1769247419660,135,7,7.734399158300328,13.803770521349811,14.274305780306626
1769247419664,136,8,8.175873696064368,14.486468148536478,14.671063181694471
1769247419668,136,8,8.424341974774851,14.78880575521045,14.87468228332994
1769247419672,136,8,8.54446018431009,14.317263784000843,14.951617553603844
1769247419676,136,8,8.673439901737854,14.713659625838211,15.039395856879654
1769247419680,137,9,8.975021429051447,15.298173976092666,15.29984131971286
1769247419684,137,9,9.588838200159794,15.65282814057346,15.87020485372742
1769247419688,138,10,10.571371406415416,16.30241987212515,16.806434789331018
1769247419692,139,11,11.836265687850766,17.407255557866215,18.02360246769525
1769247419696,141,13,13.150388904361757,19.33277449823018,19.290362541932453
1769247419700,142,14,14.23377871661069,20.26259801236616,20.327964520192467
1769247419704,142,14,14.918411889890477,20.37564051616392,20.96890751861855
1769247419708,143,15,15.250047697355065,21.200509596697668,21.25826707001656
1769247419712,143,15,15.45440708430961,21.15981382478836,21.419683309187707
1769247419716,143,15,15.785259464709505,21.22343630257017,21.70495337376931
1769247419720,144,16,16.34450899349008,22.01386959370118,22.21607903363256
1769247419724,144,16,16.98589595645948,22.2728493966105,22.80882502660476
1769247419728,145,17,17.377239746219637,22.93563521537365,23.15267652072148
1769247419732,145,17,17.1978940873338,23.075211164134735,22.92675298308733
1769247419736,144,16,16.335792173932568,21.922142684479866,22.017989914625183
1769247419740,142,14,14.925223146053522,19.96779523024643,20.560751673109618
1769247419744,140,12,13.194804784189804,17.939443283478283,18.784339477358483
1769247419748,139,11,11.277115043790692,16.905965346909372,16.820758389477064
1769247419752,137,9,9.165588975601322,14.76065435077762,14.661759536894545
1769247419756,134,6,6.836973227451505,11.844514297304787,12.283581110483327
1769247419760,132,4,4.382891477287824,9.712262158820687,9.779533879855942
1769247419764,129,1,2.0077590543277033,6.777187298215313,7.356114016835752
1769247419768,127,-1,-0.090707975758753,4.719516270646064,5.211183868408372
1769247419772,126,-2,-1.8285441618524911,3.5843527622688516,3.426805468633729
1769247419776,124,-4,-3.2365394621060988,1.648090426984739,1.970305449341902
1769247419780,123,-5,-4.382293545092524,0.5478629825899652,0.7740406387978513
1769247419784,122,-6,-5.307240938725701,-0.4603662946507718,-0.2018912229648091
1769247419788,121,-7,-6.029473246989707,-1.4247537173249023,-0.9740765720773634
1769247419792,121,-7,-6.581425420025132,-1.631799691516468,-1.574603841684711
1769247419796,120,-8,-7.022057863829433,-2.5022566465432927,-2.0632884181959827
1769247419800,120,-8,-7.400426377183194,-2.6930126704094537,-2.4905228863233493
1769247419804,120,-8,-7.706280713128507,-2.5962250489704957,-2.846686441859088
1769247419808,119,-9,-7.870008682043838,-3.703641285159581,-3.06133686317108
1769247419812,119,-9,-7.833060786097275,-3.704606812555829,-3.0746072034428007
1769247419816,120,-8,-7.626170087842625,-2.8039655117730415,-2.9172636724646868
1769247419820,120,-8,-7.367453179729436,-2.7881494238143727,-2.708820799638577
1769247419824,120,-8,-7.177947193614234,-2.8802497654980748,-2.571071058458827
1769247419828,120,-8,-7.104510161608551,-2.834671334510377,-2.5498722860744927
1769247419832,120,-8,-7.119475295569879,-2.9429781654731,-2.6160212757924732
1769247419836,120,-8,-7.17296637277873,-2.954475582445335,-2.719307059706612
1769247419840,120,-8,-7.229281035540926,-3.011445169319561,-2.8251628502908392
1769247419844,120,-8,-7.258378759413382,-3.0755544363136416,-2.904973820510863
1769247419848,120,-8,-7.214902511338499,-3.0154734863951127,-2.913750024857464
1769247419852,120,-8,-7.051852653462765,-3.1823008870043807,-2.803551243556681
1769247419856,120,-8,-6.769911984445787,-3.068118500996322,-2.57395674632002
1769247419860,121,-7,-6.446753620542738,-2.318794989602985,-2.302629667071562
1769247419864,121,-7,-6.195911929834111,-2.146057154662927,-2.1039258458259447
1769247419868,121,-7,-6.079123459892655,-2.37371907235301,-2.039801910581698
1769247419872,121,-7,-6.053805135280925,-2.2066397317209816,-2.066753370071565
1769247419876,121,-7,-6.00552335391791,-2.4413526076995744,-2.069514420434002
1769247419880,121,-7,-5.83167279413334,-2.354908595221291,-1.9461854907449077
1769247419884,122,-6,-5.502192048305568,-1.4874466152059398,-1.6685933005169655
1769247419888,122,-6,-5.062231638015347,-1.478258551971294,-1.2829288014674631
1769247419892,122,-6,-4.602693136600102,-1.4643913563551951,-0.8790080164936604
1769247419896,123,-5,-4.2307729348228715,-0.6250685581432762,-0.5618980501343511
1769247419900,123,-5,-4.033729515094019,-0.541904078408967,-0.4176764172437934
1769247419904,123,-5,-4.023450244504749,-0.7460619642910498,-0.458659413235722
1769247419908,123,-5,-4.093053572727854,-0.5962718349087854,-0.5791965976929312
1769247419912,123,-5,-4.040745523009689,-0.7881082546526912,-0.5785314444725689
1769247419916,123,-5,-3.6762868114171416,-0.68829865250407,-0.2669545430509998
1769247419920,124,-4,-2.9525943221927635,0.1046668316913947,0.4023389891821587
1769247419924,125,-3,-2.0259976943046594,1.1889750185778745,1.273024329221995
1769247419928,126,-2,-1.1908848669571137,2.0691622936805203,2.0516428759353964
1769247419932,126,-2,-0.7295604495818284,2.108841035969011,2.4577567712145036
1769247419936,126,-2,-0.7745103482218636,2.0126293216431765,2.3601303650048564
1769247419940,126,-2,-1.253896464387397,1.9662074530539224,1.8297587785616471
1769247419944,125,-3,-1.9346282528605672,0.9222661557987716,1.0975531841527602
1769247419948,124,-4,-2.540654018240971,-0.0931650839664417,0.4381376284975857
1769247419952,124,-4,-2.8913445917330245,-0.1345837455967853,0.0323072622921554
1769247419956,124,-4,-2.9774559525034405,-0.1776292413389484,-0.1096974947647169
1769247419960,124,-4,-2.9227521417405207,-0.2637294598021089,-0.1106709847055515
1769247419964,124,-4,-2.866422357715448,-0.2626222462386138,-0.109218207570235
1769247419968,124,-4,-2.860067740103596,-0.3510721989374907,-0.1568815787914754
1769247419972,124,-4,-2.850028347204271,-0.2871662868185787,-0.2002953193390979
1769247419976,124,-4,-2.744836848788182,-0.4760484514028142,-0.1482924765243769
1769247419980,124,-4,-2.506100676272829,-0.3767531769170311,0.0370979055052966
1769247419984,125,-3,-2.1865449518382354,0.4140331310552909,0.3023287093972016
1769247419988,125,-3,-1.8877168149010928,0.5505375045956704,0.5452709357987757
1769247419992,125,-3,-1.687983109256779,0.3648770439276614,0.6883308060872011
1769247419996,125,-3,-1.6146363012724454,0.4454582735848973,0.7060431041919486
1769247420000,125,-3,-2.7843289959036266,-3.68104379036508,-3.6866810894110538
1769247420004,125,-3,-2.7042289136802085,-3.871754225188652,-3.60504007144767
1769247420008,125,-3,-2.5420103364426163,-3.673371619499113,-3.4403670044886385
1769247420012,126,-2,-2.4337830601183823,-2.784511555502956,-3.3289677659181462
1769247420016,126,-2,-2.3856350257428396,-2.894015871374849,-3.2775508869280685
1769247420020,125,-3,-2.2056375861514663,-3.666642706948865,-3.0950566080088007
1769247420024,126,-2,-1.6697147130683083,-2.933056222550436,-2.55850941452412
1769247420028,127,-1,-0.7944408732839143,-1.545767417976949,-1.6853362305974575
1769247420032,128,0,0.0446826356426246,-0.9564464804714102,-0.8501217151047497
1769247420036,128,0,0.2929249010838748,-0.6532236221451313,-0.6043980325302123
1769247420040,128,0,-0.40973192757196,-0.9102712486200272,-1.305057132469983
1769247420044,126,-2,-1.924224966891816,-2.6910809321794966,-2.8130762760540406
1769247420048,124,-4,-3.6118622369011506,-4.774074352332831,-4.493263678413155
1769247420052,123,-5,-4.675614652878968,-5.737442510420406,-5.552710906160089
1769247420056,123,-5,-4.636839901555017,-5.8099463340600686,-5.514382570396684
1769247420060,124,-4,-3.624067107234584,-4.741505127120625,-4.505233184987295
1769247420064,126,-2,-2.2666911822892057,-2.835604520464599,-3.151762165543251
1769247420068,127,-1,-1.2678718183996875,-1.6411876660279223,-2.1549033076176993
1769247420072,127,-1,-0.971725652455132,-1.86903784305042,-1.8577019538853028
1769247420076,126,-2,-1.2373236964250984,-2.657078013971258,-2.1192758621251615
1769247420080,126,-2,-1.6679980842709623,-2.872969613366161,-2.544537704467571
1769247420084,126,-2,-1.9523102255036056,-2.6996866494214733,-2.824787223569136
1769247420088,126,-2,-2.026883487857423,-2.743823467814753,-2.8984984727704237
1769247420092,126,-2,-1.9869704332668845,-2.784547489321014,-2.860134408443342
1769247420096,126,-2,-1.9042940308162912,-2.6809269967797027,-2.778809285717585
1769247420100,126,-2,-1.7491284448712825,-2.8794756208573613,-2.6230229354502734
1769247420104,126,-2,-1.467422512867116,-2.650478864815316,-2.3394121668915773
1769247420108,127,-1,-1.10277843258775,-1.799963268888468,-1.9736272668312864
1769247420112,127,-1,-0.8225385666554705,-1.7058958462522034,-1.693793371075293
1769247420116,127,-1,-0.8119963965793935,-1.7311080641951837,-1.6835734750305276
1769247420120,127,-1,-1.1238634138520396,-1.8359057053496115,-1.9934846845063712
1769247420124,126,-2,-1.604156102420961,-2.6717471502585273,-2.4696020995005963
1769247420128,126,-2,-1.956322378387506,-2.7882887339803957,-2.8180428150922547
1769247420132,126,-2,-1.9145952038388472,-2.6724005727018785,-2.7755507156483734
1769247420136,126,-2,-1.427709326748706,-2.7593094453984826,-2.2905221335881483
1769247420140,127,-1,-0.7299319213871409,-1.7823293974040384,-1.594686678315857
1769247420144,128,0,-0.2217062895918888,-0.7222081088976633,-1.08667228101898
1769247420148,128,0,-0.2102857734001619,-0.7409726617080961,-1.0739637356406946
1769247420152,127,-1,-0.6960047859504475,-1.6832019410842545,-1.5578917575557751
1769247420156,126,-2,-1.3805802634485251,-2.746123720659604,-2.240649767580495
1769247420160,126,-2,-1.8858483816212024,-2.7856977818479787,-2.744176362252929
1769247420164,126,-2,-1.987675671510824,-2.695062085909954,-2.8443894141001067
1769247420168,126,-2,-1.6817252069682576,-2.772074858073781,-2.5368306284969373
1769247420172,127,-1,-1.0728968660821054,-1.5951663930060755,-1.9263908806153731
1769247420176,128,0,-0.2330952299901554,-0.8449181962986396,-1.0856224619542978
1769247420180,128,0,0.8227868515764043,-0.6782282125173913,-0.0303809395776026
1769247420184,130,2,2.023356285360737,1.208026098741879,1.167909335830802
1769247420188,131,3,3.121028396227179,2.3350530201669897,2.2633521406246326
1769247420192,131,3,3.727958790480901,2.336698770103061,2.8704561832284634
1769247420196,132,4,3.542247224438518,3.2213634867659406,2.687937489424777
1769247420200,131,3,2.616180322161797,2.279527730423884,1.766092072649461
1769247420204,129,1,1.4282683922937291,0.2010135759331145,0.5810236513818007
1769247420208,128,0,0.6304098397856646,-0.5635761700537976,-0.2157866161490678
1769247420212,128,0,0.6149772039647492,-0.8168366769006911,-0.2309975906736536
1769247420216,129,1,1.24733173447245,0.4777615844783849,0.4008972015992058
1769247420220,131,3,2.0000126647676564,1.9713808848252672,1.1516429914993025
1769247420224,130,2,2.37126091805261,1.5546898374585911,1.5199193104683055
1769247420228,130,2,2.22007772789666,1.0628266221353255,1.367235523372773
1769247420232,129,1,1.7582267228824144,0.5852057562055644,0.907545646630063
1769247420236,129,1,1.2800342344322737,0.0820252942588412,0.4342866094988991
1769247420240,129,1,0.92442650269009,0.3871778382511658,0.0829231641629373
1769247420244,129,1,0.6624426569208018,0.1764914136917453,-0.1782204999208352
1769247420248,128,0,0.4423107412066973,-0.5837636975178329,-0.4005688768322624
1769247420252,128,0,0.2888823629506174,-0.7132608838391763,-0.5568416678448134
1769247420256,128,0,0.2523698948264489,-0.6636885418624613,-0.5948412271194902
1769247420260,128,0,0.2870274987862683,-0.7991422498775637,-0.5599389539140198
1769247420264,128,0,0.2142791161681214,-0.6486800531229937,-0.6313853418706734
1769247420268,128,0,-0.1637416685496301,-0.720591211440651,-1.0079006153880132
1769247420272,127,-1,-0.8871411893144213,-1.590483634169025,-1.7301625590869678
1769247420276,126,-2,-1.7628716432852989,-2.7730228254077685,-2.605318048270242
1769247420280,125,-3,-2.4801687444834393,-3.673678820921034,-3.3226305077942975
1769247420284,125,-3,-2.8334046941851505,-3.753163256464892,-3.676439689615392
1769247420288,125,-3,-2.865201444544463,-3.583932012572004,-3.708978099240816
1769247420292,125,-3,-2.8117599208417805,-3.7339871283907886,-3.6557425960063297
1769247420296,125,-3,-2.9023042114479978,-3.6067168731032986,-3.74588130238657
1769247420300,125,-3,-3.1792464592350576,-3.8449303469909895,-4.0228990717444475
1769247420304,124,-4,-3.4819985259831143,-4.553048067153739,-4.327185862614229
1769247420308,124,-4,-3.602923334692406,-4.771891916459532,-4.450134273287976
1769247420312,124,-4,-3.4765873252612645,-4.526983769229718,-4.323667712848129
1769247420316,125,-3,-3.2269569801135543,-3.8152233819694152,-4.070169047532524
1769247420320,125,-3,-3.0266028553753648,-3.60113737484333,-3.864287581868547
1769247420324,125,-3,-2.9111307926470618,-3.8044316965318328,-3.746937532244589
1769247420328,125,-3,-2.748244489458091,-3.481315766529897,-3.590242686687618
1769247420332,125,-3,-2.4077735807866825,-3.830745849003746,-3.2625872020586275
1769247420336,125,-3,-1.948038768331944,-3.4982840364162877,-2.8140604394973736
1769247420340,127,-1,-1.5551654735687237,-1.8781877644621905,-2.4212230446245497
1769247420344,127,-1,-1.1772602084955102,-1.5383277608836703,-2.0294091000469985
1769247420348,128,0,-0.1576628732851128,-0.6887932449310394,-0.9897124129453576
1769247420352,131,3,2.6570755297644313,2.3297799136474904,1.837867399354606
1769247420356,135,7,8.13704461660748,6.40119767910781,7.314393686563347
1769247420360,142,14,15.820871278973264,13.19833806091214,14.980263865872004
1769247420364,151,23,23.448462398649426,22.471154193191783,22.585106897086938
1769247420368,157,29,27.716201746570736,28.283369250240938,26.835545790939783
1769247420372,155,27,26.01395348706724,26.34574219887783,25.12790892044533
1769247420376,146,18,18.022029698254947,17.37649682951758,17.144647698862883
1769247420380,133,5,6.015746687123343,4.143188123616869,5.158067153000429
1769247420384,120,-8,-6.339287282952553,-8.377554747339433,-7.175288152485938
1769247420388,112,-16,-15.822704320073663,-16.87119020591394,-16.647025134846576
1769247420392,107,-21,-20.915135790244737,-21.359719493556497,-21.74515145430717
1769247420396,107,-21,-21.87063245768395,-21.935128824885897,-22.72055964581454
1769247420400,108,-20,-19.921251791299632,-20.523378680095135,-20.79322816923975
1769247420404,111,-17,-16.394569372938186,-17.745963774362824,-17.27823180012401
1769247420408,115,-13,-12.293046023602528,-13.49256237058176,-13.173732632628765
1769247420412,119,-9,-8.32453207411954,-9.676127050352152,-9.193647677234248
1769247420416,123,-5,-5.028915807017314,-5.657913136662474,-5.888732808306135
1769247420420,126,-2,-2.7450157950518728,-2.7290192818581858,-3.604657262440101
1769247420424,126,-2,-1.4870501343816782,-2.65795927448048,-2.353542264789261
1769247420428,126,-2,-0.9588615267688302,-2.4589296136893775,-1.831566075617726
1769247420432,127,-1,-0.7697455952586635,-1.771018987980144,-1.6431396893580132
1769247420436,127,-1,-0.6656875258224281,-1.4502919201940254,-1.5366150143841184
1769247420440,128,0,-0.5770138283695366,-0.9936420696168198,-1.4480623411624287
1769247420444,127,-1,-0.5033925789690725,-1.344048698258585,-1.3792512759019784
1769247420448,127,-1,-0.4165076789398902,-1.8043047815838755,-1.2983803129883809
1769247420452,127,-1,-0.280813104677492,-1.3763436761250154,-1.1654310249889128
1769247420456,128,0,-0.1127763161292563,-0.8184937404781087,-0.9964314438506936
1769247420460,128,0,0.0399225431767819,-0.6371881173968446,-0.8424449760864746
1769247420464,128,0,0.1855026374046189,-0.6467946050885455,-0.6981789026862558
1769247420468,128,0,0.4172304349671127,-0.5722993493144726,-0.4699327889828664
1769247420472,128,0,0.8197019811053534,-0.5031358482546513,-0.0707310277072617
1769247420476,129,1,1.3424637712984286,0.2469210847179226,0.4499422359799832
1769247420480,130,2,1.7908314352497028,1.3982967530539128,0.8960874497492916
1769247420484,130,2,1.9663535009189828,1.2601480954833144,1.0682099450846168
1769247420488,129,1,1.8245777660591889,0.557458118510979,0.9231807066655732
1769247420492,129,1,1.5019315104328892,0.373708179971338,0.5994552234531071
1769247420496,129,1,1.2092135228999872,0.3646690258390503,0.3074684652110618
1769247420500,129,1,1.1089777466718391,0.3583481049552944,0.2070006183730177
1769247420504,129,1,1.263257341500162,0.2493206300717318,0.3580255482822512
1769247420508,129,1,1.6413827101271057,0.6413691769197245,0.7307646359821691
1769247420512,130,2,2.1453477854332776,1.23468403331109,1.2300060690119698
1769247420516,130,2,2.643251141304034,1.5658792521802996,1.7257404339977795
1769247420520,131,3,3.021942176160203,2.163021221494254,2.10410543193944
1769247420524,131,3,3.2462129678047797,2.4551496105390576,2.32745528672156
1769247420528,131,3,3.3789119114258885,2.4619527807071493,2.4570619776899303
1769247420532,131,3,3.5267364004399315,2.378097567942895,2.6005598689370037
1769247420536,131,3,3.74343656658743,2.4897129025260134,2.8139588126606165
1769247420540,132,4,3.9834963137400967,3.2189068744247344,3.0526150290919616
1769247420544,132,4,4.166583922252072,3.4607375673426137,3.2347234241676697
1769247420548,132,4,4.293587227178166,3.426349796311243,3.3592527328814143
1769247420552,132,4,4.480232307289921,3.4391509163487637,3.5418419986207024
1769247420556,132,4,4.850360263397074,3.4272922373230905,3.9079275392168897
1769247420560,133,5,5.390918594452036,4.318403156127552,4.445592112899621
1769247420564,134,6,5.932708988850223,5.374865699244018,4.985121397297214
1769247420568,134,6,6.298613490421014,5.5381679731127695,5.348368771905286
1769247420572,134,6,6.4805987421913755,5.299201068894163,5.5272717666983855
1769247420576,134,6,6.670982783216153,5.612206422941707,5.714906121514429
1769247420580,135,7,7.118260434192259,6.109937537851522,6.1600986930014585
1769247420584,135,7,7.940400391370161,6.65508635699412,6.980275428843941
1769247420588,137,9,9.054043333062424,8.243579004152615,8.09120109279319
1769247420592,138,10,10.26506722975512,9.614147330919668,9.298356209791272
1769247420596,139,11,11.424428110962737,10.301847752763672,10.453270392248704
1769247420600,140,12,12.505619371939671,11.413180197255803,11.530634471516926
1769247420604,141,13,13.548707830595346,12.421270473883965,12.571237973253773
1769247420608,142,14,14.550539495597349,13.425303700136912,13.57139334262782
1769247420612,143,15,15.424179727825154,14.526778652855391,14.44283534672731
1769247420616,144,16,16.06682935099388,15.299770464757351,15.082035640755231
1769247420620,144,16,16.457231297886892,15.527234681166547,15.468521791807753
1769247420624,144,16,16.67301908661566,15.239237258748542,15.681352269334704
1769247420628,144,16,16.807260880010773,15.693315476004887,15.813754896798637
1769247420632,145,17,16.87109019274225,16.216167215370948,15.875390304059447
1769247420636,144,16,16.772327594287056,15.65407303885052,15.77289023658975
1769247420640,144,16,16.371249094571187,15.178171077717098,15.36716525999689
1769247420644,143,15,15.55455355783441,14.60419642860126,14.546477777112512
1769247420648,142,14,14.283784823456893,13.34572738485348,13.27312310804662
1769247420652,140,12,12.605331227159054,11.556817142440831,11.593040930581266
1769247420656,138,10,10.622427439263271,9.351603119619746,9.60845641885108
1769247420660,136,8,8.447675747959149,7.470576195324837,7.430982756950227
1769247420664,134,6,6.170051943216016,5.358668591671725,5.149259187201391
1769247420668,131,3,3.853421509929816,2.5759983879619615,2.8280049872614677
1769247420672,129,1,1.55491474237989,0.3592654373460733,0.5258201144708707
1769247420676,127,-1,-0.651311597518001,-1.450765232094485,-1.682464868921
1769247420680,125,-3,-2.65443475883018,-3.700468528789573,-3.6866700901099816
1769247420684,123,-5,-4.313766844212291,-5.463759922886632,-5.347283822886588
1769247420688,122,-6,-5.512061097900443,-6.567678083939453,-6.548003226045353
1769247420692,121,-7,-6.231540308176539,-7.518169841032348,-7.271572247168614
1769247420696,121,-7,-6.5901042778608785,-7.524768359459021,-7.635598537500825
1769247420700,121,-7,-6.797144481747543,-7.636575686891368,-7.84780658687479
1769247420704,120,-8,-7.051988246855188,-8.495321591105801,-8.105264493865368
1769247420708,120,-8,-7.44547159683135,-8.526469222253441,-8.498370690965912
1769247420712,120,-8,-7.913907844197777,-8.574011730037558,-8.966055202031589
1769247420716,119,-9,-8.273706632546888,-9.420307504136357,-9.328055354242768
1769247420720,119,-9,-8.341808935157104,-9.765237448837956,-9.40173166916791
1769247420724,119,-9,-8.084269721614959,-9.291168407033473,-9.150149789910426
1769247420728,120,-8,-7.669415814264535,-8.781438082554526,-8.738419350993649
1769247420732,120,-8,-7.344529528524696,-8.257478495757171,-8.413534505055752
1769247420736,121,-7,-7.216508898358283,-7.759710613409332,-8.28491489157091
1769247420740,120,-8,-7.142358623173105,-8.385862429722831,-8.212142071084799
1769247420744,120,-8,-6.865161902823085,-8.666154533888987,-7.938814132186083
1769247420748,121,-7,-6.295760914700899,-7.406327470382628,-7.374483624781805
1769247420752,122,-6,-5.670622056296968,-6.598934516436066,-6.753844290473173
1769247420756,122,-6,-5.408809571540197,-6.424585949711149,-6.494689358790206
1769247420760,122,-6,-5.76728127440237,-6.6550313504174445,-6.85391675115776
1769247420764,121,-7,-6.585178244348031,-7.456244792315789,-7.671821546243184
1769247420768,120,-8,-7.348819128054227,-8.553225496897594,-8.43580543773167
1769247420772,119,-9,-7.554488331391409,-9.502879409766567,-8.642248769013083
1769247420776,120,-8,-7.087516999063562,-8.423853169610847,-8.176718577232306
1769247420780,122,-6,-6.2939322228879755,-6.674862662822877,-7.386635409130747
1769247420784,122,-6,-5.678955792855215,-6.394016770238867,-6.777846410702431
1769247420788,122,-6,-5.511086701297623,-6.642730227733013,-6.616144477011922
1769247420792,121,-7,-5.683215450542718,-7.405082705146865,-6.789994236190023
1769247420796,121,-7,-5.899778212586241,-7.502816348405883,-7.002808837238564
1769247420800,122,-6,-5.942654912882094,-6.571005618220023,-7.0409900574832065
1769247420804,122,-6,-5.760503234304938,-6.45216434094731,-6.858884118032499
1769247420808,122,-6,-5.383680339998551,-6.612434332583441,-6.487689953423617
1769247420812,122,-6,-4.848635011983039,-6.3994979909576735,-5.9594067112307245
1769247420816,123,-5,-4.228160695341599,-5.543035546983232,-5.342272504159698
1769247420820,124,-4,-3.6772582092209474,-4.465448367014425,-4.790884105372022
1769247420824,124,-4,-3.37783299376304,-4.540051842166063,-4.4900410162736994
1769247420828,124,-4,-3.4056876633110065,-4.526834317334905,-4.518099427201182
1769247420832,124,-4,-3.652744450162847,-4.469602241732094,-4.766970764471418
1769247420836,123,-5,-3.894335342656427,-5.507606290021883,-5.010124364509052
1769247420840,123,-5,-3.952684198021901,-5.436174201055012,-5.068560269768678
1769247420844,124,-4,-3.81065605603848,-4.540550837743018,-4.926182429505398
1769247420848,124,-4,-3.575797725107263,-4.527140879065318,-4.692519403008863
1769247420852,124,-4,-3.349094515130236,-4.451109607784334,-4.468682890401684
1769247420856,124,-4,-3.144990318150272,-4.557508785045007,-4.266923383600426
1769247420860,124,-4,-2.9294936391489523,-4.343622462510101,-4.051410727781267
1769247420864,125,-3,-2.6986643093992755,-3.592153515946347,-3.8189648201662303
1769247420868,125,-3,-2.491455028851311,-3.483613643628932,-3.610810124142096
1769247420872,125,-3,-2.334657543741856,-3.4571997391513514,-3.454796013382768
1769247420876,125,-3,-2.204161974305924,-3.6080838644209625,-3.325840709722633
1769247420880,125,-3,-2.053517225935666,-3.220437555790364,-3.176044142833455
1769247420884,126,-2,-1.8728315015458672,-2.7234302005337416,-2.995047716590397
1769247420888,125,-3,-1.7125843655193609,-3.293957231428337,-2.8339134869700815
1769247420892,126,-2,-1.649446101174403,-2.677478121326226,-2.77034614331025
1769247420896,126,-2,-1.723972399643101,-2.3750061254856214,-2.845505882710775
1769247420900,125,-3,-1.906618028623929,-3.4478083397539416,-3.029120909618725
1769247420904,125,-3,-2.128746443809974,-3.4591029834626226,-3.2510077504053982
1769247420908,125,-3,-2.3457281568716546,-3.5149250000962593,-3.466192382498814
1769247420912,125,-3,-2.554138252287774,-3.50687906433997,-3.672820368414783
1769247420916,125,-3,-2.7436424771206145,-3.47898503138194,-3.861923814029211
1769247420920,124,-4,-2.860340719531609,-4.403998392699062,-3.978815820004361
1769247420924,124,-4,-2.848723743685982,-4.389505679755663,-3.966465052724327
1769247420928,125,-3,-2.725091216959476,-3.638044006065092,-3.841587460139244
1769247420932,125,-3,-2.580861260598321,-3.326768913158946,-3.697342400501676
1769247420936,125,-3,-2.5048912391235105,-3.697534819096366,-3.622364213870343
1769247420940,124,-4,-2.5165310271836314,-4.139693917473112,-3.633260407291571
1769247420944,125,-3,-2.56897135964227,-3.639996240314646,-3.681666200243485
1769247420948,125,-3,-2.584889149914403,-3.381259482872041,-3.692605625867454
1769247420952,125,-3,-2.4804990773545823,-3.5468426368383,-3.586139552116994
1769247420956,125,-3,-2.202224575207803,-3.517111039399053,-3.309578684835673
1769247420960,125,-3,-1.7978184648122686,-3.2416668170651297,-2.907684937942758
1769247420964,126,-2,-1.455788362262164,-2.588694867421953,-2.565439996648976
1769247420968,126,-2,-1.4189027542425756,-2.3474844931495555,-2.524990373994143
1769247420972,126,-2,-1.790956057465312,-2.6252051576464925,-2.8924138269632325
1769247420976,125,-3,-2.3988530400932864,-3.397449329971681,-3.496987527343729
1769247420980,124,-4,-2.868139745810407,-4.366836232064827,-3.964477809953304
1769247420984,124,-4,-2.887687606332438,-4.448372184325523,-3.9824066230621984
1769247420988,125,-3,-2.446557520968522,-3.4507037639495888,-3.53906664226406
1769247420992,126,-2,-1.830735908298686,-2.5145985022715505,-2.921102061398124
1769247420996,126,-2,-1.385225258856686,-2.4892370858708404,-2.474402953878811
1769247421000,126,-2,-1.261575578999077,-2.274609156343054,-2.3502369257849347
1769247421004,126,-2,-1.367307086145578,-2.537693369674318,-2.4546892338437862
1769247421008,125,-3,-1.5282529878123898,-3.342994958476287,-2.6123498217340786
1769247421012,126,-2,-1.6758045654354534,-2.5967991180090335,-2.7549188103619477
1769247421016,126,-2,-1.8668085900983509,-2.386308973664516,-2.9409644083623214
1769247421020,125,-3,-2.1351971609643443,-3.3733627462951628,-3.205935018658858
1769247421024,125,-3,-2.3612492502450833,-3.429472636082915,-3.430179791692752
1769247421028,125,-3,-2.3248704171918853,-3.444002842031064,-3.3924923635351867
1769247421032,125,-3,-1.9108161183665249,-3.475637426899663,-2.9763989633377053
1769247421036,126,-2,-1.2677259197687705,-2.476357591017491,-2.3301411591970984
1769247421040,127,-1,-0.7485644872024388,-1.274201830969486,-1.8073510306103424
1769247421044,127,-1,-0.6567928462816708,-1.5226561374082923,-1.7123994239991
1769247421048,126,-2,-1.013026708574447,-2.3484437077701172,-2.0659646355088572
1769247421052,126,-2,-1.549709078860358,-2.5561895918121635,-2.59959053691413
1769247421056,125,-3,-1.9335252217082677,-3.3759914494762233,-2.9790157268387625
1769247421060,125,-3,-2.0113522302669953,-3.3585035534246592,-3.051234700947367
1769247421064,126,-2,-1.866526174966512,-2.40715351734836,-2.9011155994337843
1769247421068,126,-2,-1.6588660603831906,-2.479105311774475,-2.6902296971159148
1769247421072,126,-2,-1.4307461353940465,-2.3880430964452612,-2.460947725888056
1769247421076,126,-2,-1.0872750750235924,-2.5494856886121933,-2.1162640517101527
1769247421080,126,-2,-0.5626192905308367,-2.1699550583519773,-1.5882395176112003
1769247421084,128,0,0.0286633026394693,-0.562258751391193,-0.9914378579729488
1769247421088,128,0,0.4445792019808123,-0.3399848541638287,-0.5695117549363551
1769247421092,128,0,0.5340498886461305,-0.465521491526349,-0.4748564258310086
1769247421096,128,0,0.3954552037767551,-0.5224328310634652,-0.6092576815280825
1769247421100,127,-1,0.3067031853020667,-1.1243416605138727,-0.6945451760202188
1769247421104,128,0,0.4838067132040382,-0.6754175335215183,-0.5145277991216199
1769247421108,128,0,0.888810526532283,-0.1053470832286267,-0.1067298548993167
1769247421112,129,1,1.2661446968833476,0.2290103373905769,0.2741438839821749
1769247421116,129,1,1.3853126525998685,0.8685842671511855,0.3983511065942204
1769247421120,129,1,1.27994564128246,0.4382303225421823,0.2995172516282438
1769247421124,128,0,1.2609547852232477,-0.2287720881689086,0.2875827663411521
1769247421128,129,1,1.6695842195513984,0.5092913232054794,0.7021308084170346
1769247421132,130,2,2.5692595790374053,1.5799523832219156,1.6051724033156138
1769247421136,131,3,3.638263665737738,2.6022154690513895,2.6751402261742716
1769247421140,132,4,4.35974876230183,3.6515088608837662,3.3972832822157937
1769247421144,132,4,4.36617849474053,3.601854607096945,3.4068256932682024
1769247421148,131,3,3.6809529885704526,2.6616966712061467,2.728626601446758
1769247421152,130,2,2.686603627074552,1.4683592132247687,1.7441684491040728
1769247421156,129,1,1.8588007586579256,0.706366188977055,0.9259063616763024
1769247421160,129,1,1.4711786475253097,0.5975728590222771,0.5440820620275872
1769247421164,129,1,1.4698200594951394,0.6170326868307016,0.5438276260822901
1769247421168,129,1,1.5644224108290954,0.7358862920558924,0.6374091068611267
1769247421172,129,1,1.433218910982529,0.3280683535094614,0.5072654897063135
1769247421176,128,0,0.9030646107402508,-0.064471604255095,-0.0173205064333226
1769247421180,128,0,0.0256066989780494,-0.6933782444269312,-0.8857430185803685
1769247421184,126,-2,-0.9618291522343044,-2.0359261012330165,-1.8637018999175687
1769247421188,126,-2,-1.7640775212888151,-2.603324938422844,-2.6584081800815875
1769247421192,125,-3,-2.1869778945079874,-3.327448482062626,-3.076442940064339
1769247421196,125,-3,-2.2414447303174514,-3.361174129967671,-3.128559246538344
1769247421200,126,-2,-2.1248092651282584,-2.43959917565543,-3.011310975832093
1769247421204,125,-3,-2.092368967515569,-3.2080012826691062,-2.977839328436938
1769247421208,125,-3,-2.3099501308567834,-3.491524234614066,-3.1908283869195504
1769247421212,125,-3,-2.772874595237375,-3.347702663958625,-3.644195126721915
1769247421216,124,-4,-3.310649618857734,-4.40345352953414,-4.170139615789362
1769247421220,124,-4,-3.6592673502227946,-4.344816698569376,-4.510059844699857
1769247421224,124,-4,-3.588257217455802,-4.277656729506916,-4.436917967858717
1769247421228,124,-4,-3.0536077928567886,-4.449902060882315,-3.904501160243698
1769247421232,125,-3,-2.289448692599762,-3.2996226325384264,-3.140534878194515
1769247421236,126,-2,-1.724929773140854,-2.528063954499834,-2.569343485825547
1769247421240,126,-2,-1.71046044972588,-2.1412559691203294,-2.5427253077604552
1769247421244,126,-2,-2.227762657954655,-2.5002717105201357,-3.048911447918325
1769247421248,124,-4,-2.847303001827772,-4.210307872727856,-3.664334505995428
1769247421252,124,-4,-3.0234468060434003,-4.510715010155988,-3.843683547272428
1769247421256,125,-3,-2.4932177875102073,-3.349707182288376,-3.317944731156657
1769247421260,126,-2,-1.39887510129829,-2.2330578405016395,-2.221010327375028
1769247421264,128,0,0.0184246338299267,-0.4526698258057375,-0.7899103554047804
1769247421268,130,2,1.886348113183403,1.8472350281639085,1.0984680815362715
1769247421272,133,5,4.831361100996541,4.32203089424124,4.0599339377785535
1769247421276,136,8,9.473019738839014,7.918664478373962,8.70581104484369
1769247421280,142,14,15.534569159084144,13.44049296101507,14.759882845508589
1769247421284,148,20,21.30844605769846,19.972947196883062,20.52201404485094
1769247421288,153,25,24.139288154384495,24.412035233402023,23.34469199041901
1769247421292,151,23,21.841130845432783,22.736280165963457,21.04680743510526
1769247421296,142,14,14.11451532072703,13.508747018781838,13.331254137644564
1769247421300,129,1,2.893166554479656,0.7741433180717205,2.130814767862271
1769247421304,118,-10,-8.651635633012484,-10.258627160044837,-9.390084650158386
1769247421308,110,-18,-17.69472853097015,-18.38146201467544,-18.41728793186776
1769247421312,105,-23,-22.845851824517283,-23.32113480640927,-23.567633444926447
1769247421316,104,-24,-24.215483032182668,-24.474572119544387,-24.94824225305698
1769247421320,105,-23,-22.741811689516595,-23.188473300399114,-23.48604705555436
1769247421324,108,-20,-19.448984886671184,-20.36118544508649,-20.19518410925057
1769247421328,112,-16,-15.11158543247699,-16.22631355521574,-15.848490260926416
1769247421332,117,-11,-10.336119227681568,-11.462530782476628,-11.058709637011386
1769247421336,122,-6,-5.747446466889825,-6.318092861289049,-6.45900340678056
1769247421340,126,-2,-1.993072955867842,-2.330742922563913,-2.700888692484628
1769247421344,128,0,0.4548320011625586,-0.280401276785519,-0.2540389794749955
1769247421348,129,1,1.4985776736013632,0.7689525761313818,0.7898036483180957
1769247421352,129,1,1.4289069829875465,0.5074451782640097,0.7253959040762727
1769247421356,128,0,0.7514151182271664,-0.204617997425796,0.0572777257436682
1769247421360,128,0,-0.0317438044109349,-0.4889394345083792,-0.716993582514276
1769247421364,127,-1,-0.5572942312220661,-1.0855873134059697,-1.2377796111207755
1769247421368,127,-1,-0.6414093958415675,-1.423396149679386,-1.3208223335570215
1769247421372,127,-1,-0.2822529023500002,-1.2574098563216427,-0.9610435573786964
1769247421376,128,0,0.3561290913851771,-0.4194440516116701,-0.32025848808016
1769247421380,129,1,1.01251105261995,0.7097651034532503,0.3397930812989276
1769247421384,129,1,1.4526613507096031,0.7494338877081039,0.7835602169379662
1769247421388,129,1,1.5787576183889651,0.7058931495205598,0.9133735884056592
1769247421392,129,1,1.453803773426286,0.7120434301740598,0.7933181663482769
1769247421396,129,1,1.2487704508633424,0.536421031712712,0.594381493323496
1769247421400,129,1,1.1685469587303423,0.8506906987222851,0.5201265613738446
1769247421404,129,1,1.3833206041783046,0.5369789375116172,0.7395522130786754
1769247421408,129,1,1.9579659171421555,0.9944932981710006,1.3172536839246072
1769247421412,131,3,2.7958299870720795,2.424536566012892,2.156612789136504
1769247421416,131,3,3.6470361145117383,2.8291510179161747,3.007915620987576
1769247421420,132,4,4.205144161395662,3.5951043113935666,3.5658783536898486
1769247421424,132,4,4.251571989062631,3.7532089122522687,3.614263660281885
1769247421428,131,3,3.7739199546536257,2.843357880372093,3.142476615858936
1769247421432,131,3,3.001006796646859,2.536776403476333,2.3783686092445997
1769247421436,130,2,2.332915866421723,1.8018528317451128,1.7183153601234666
1769247421440,130,2,2.1752800216355817,1.553451614079151,1.5644716943125632
1769247421444,130,2,2.7264864534418902,1.895141149816936,2.114966061008804
1769247421448,131,3,3.826185248240948,2.635754029700764,3.2121994151175315
1769247421452,133,5,4.996585822187359,4.8280404166364645,4.381454249936199
1769247421456,134,6,5.707799760154161,5.497954246618843,5.0944201484936364
1769247421460,133,5,5.711143711279109,4.847058947927545,5.102574534931468
1769247421464,133,5,5.19531222981751,4.660884032468614,4.593617872272764
1769247421468,132,4,4.647301557313696,3.789131723506427,4.0523833863060075
1769247421472,132,4,4.5277551659103725,3.799308205649015,3.937143497428989
1769247421476,133,5,4.99337563734348,4.458003477564143,4.403676510625113
1769247421480,133,5,5.842566812237401,4.99290725180461,5.251387663016407
1769247421484,135,7,6.697088449022145,6.44720964034412,6.103987228580353
1769247421488,135,7,7.275578556807882,7.054302315466978,6.682148389186092
1769247421492,135,7,7.560550565348951,6.5274211273744775,6.970038856502804
1769247421496,135,7,7.757230082902809,6.735961930881517,7.172934863196728
1769247421500,136,8,8.120924731745577,7.789952061157552,7.543548894259555
1769247421504,137,9,8.814322677447167,8.55737271755726,8.240963077899005
1769247421508,137,9,9.867611374251258,9.08907394188376,9.294086980655251
1769247421512,139,11,11.192393595247998,10.368490619734734,10.61652323593352
1769247421516,140,12,12.599833497368186,12.043824645326543,12.022324134321591
1769247421520,142,14,13.843828203753803,13.384115301461891,13.26681605372019
1769247421524,142,14,14.715256226182628,14.048827155590264,14.14076282541014
1769247421528,143,15,15.14972008970983,14.570468885852582,14.579009710520786
1769247421532,143,15,15.27333674228517,14.9051996796347,14.706670837425056
1769247421536,143,15,15.340812805693623,14.54146239968173,14.77732769216078
1769247421540,143,15,15.5883777658843,14.86104381346827,15.026322168636874
1769247421544,144,16,16.08642453592318,15.641759728240118,15.523884433649886
1769247421548,144,16,16.68773747914563,15.93501109962864,16.12364349560363
1769247421552,145,17,17.10787110197848,16.612404450464627,16.542730361042405
1769247421556,145,17,17.084604894955238,16.792826078927177,16.52031575348937
1769247421560,144,16,16.51098103631991,15.667445836498796,15.949576968147657
1769247421564,143,15,15.459351829518445,14.794256314973406,14.901412172236212
1769247421568,142,14,14.09289516399155,13.856134667122584,13.537041754567346
1769247421572,140,12,12.533159340296985,11.642080559339965,11.977286451427034
1769247421576,138,10,10.774258922378536,9.846249509271203,10.21713914354746
1769247421580,137,9,8.708519478928872,8.569135496024591,8.15017874427248
1769247421584,134,6,6.255835861601102,5.944243722343992,5.697154863356082
1769247421588,131,3,3.495447968720784,2.6958622256080544,2.9379581111430886
1769247421592,128,0,0.6818807153049402,-0.169349860461291,0.1270702828419651
1769247421596,126,-2,-1.8679254421495817,-2.337308791575143,-2.420119359117226
1769247421600,124,-4,-3.9183071898910473,-4.2279272822989515,-4.4698936567543335
1769247421604,122,-6,-5.395289533923704,-6.242834070111097,-5.9483144285012886
1769247421608,121,-7,-6.382394625061973,-7.091629804329319,-6.936946740780351
1769247421612,121,-7,-7.051313263436007,-7.383045714272649,-7.606029754312709
1769247421616,120,-8,-7.559870653930133,-8.099072487433387,-8.114000562798322
1769247421620,120,-8,-7.974910310684347,-8.478004144593825,-8.529039258759969
1769247421624,119,-9,-8.278018710178882,-8.94101658441394,-8.832801572673871
1769247421628,119,-9,-8.443866966500545,-9.41989429208994,-8.9989137775436
1769247421632,119,-9,-8.501289096713462,-9.007041634025265,-9.055754294731008
1769247421636,120,-8,-8.501160442196449,-8.490984221730779,-9.054793104553283
1769247421640,119,-9,-8.42994919707377,-9.056299420738032,-8.98291140296258
1769247421644,119,-9,-8.188519702911528,-9.338614578121124,-8.740840245919655
1769247421648,120,-8,-7.686820475786362,-8.042391551737957,-8.239048116275345
1769247421652,121,-7,-6.968315823335168,-7.326152534411115,-7.522227735650434
1769247421656,121,-7,-6.244309189654523,-7.222453238725723,-6.801695772023182
1769247421660,122,-6,-5.8029467999401785,-6.220289047881146,-6.363524243686983
1769247421664,122,-6,-5.846161643447966,-6.2494281837414105,-6.407339665244728
1769247421668,121,-7,-6.346965371260571,-7.057490344060114,-6.905887669951213
1769247421672,121,-7,-7.020328613579304,-7.354412359763709,-7.576023736845149
1769247421676,120,-8,-7.452020876779947,-8.143344640822823,-8.005764164965058
1769247421680,120,-8,-7.331115200706387,-8.285597900038464,-7.885236578045411
1769247421684,121,-7,-6.6433464206274815,-7.173874148479871,-7.200025433635352
1769247421688,122,-6,-5.686306972304335,-6.10184818085388,-6.2470505139825825
1769247421692,123,-5,-4.887347840481616,-5.3407940725338285,-5.452517975729491
1769247421696,123,-5,-4.553152145973154,-5.0855297944391715,-5.121265593029452
1769247421700,123,-5,-4.722389452622185,-5.393227614398068,-5.290193871311657
1769247421704,122,-6,-5.194707749374804,-6.000105610488065,-5.758991190559438
1769247421708,122,-6,-5.671983882986664,-6.309154643000051,-6.232215589883216
1769247421712,122,-6,-5.896652435879692,-6.099134130774592,-6.455870135490846
1769247421716,122,-6,-5.731251074900586,-6.287503230448473,-6.293721219431593
1769247421720,122,-6,-5.19720920325493,-6.219013639733264,-5.76493198277792
1769247421724,123,-5,-4.483079533597188,-5.100665654074409,-5.054771394593484
1769247421728,124,-4,-3.882024689440736,-4.280554541223488,-4.4552025700673274
1769247421732,124,-4,-3.642704104626566,-4.04113069075841,-4.215928171166235
1769247421736,124,-4,-3.817125210008117,-4.370050368499898,-4.39014322283251
1769247421740,123,-5,-4.228232405693612,-5.108209331868507,-4.800998311782055
1769247421744,123,-5,-4.587878044587326,-5.198227923248461,-5.160323532861839
1769247421748,123,-5,-4.66967171124496,-5.211380681226248,-5.242215402287105
1769247421752,123,-5,-4.41285503736769,-5.02938447701675,-4.9864775193927615
1769247421756,124,-4,-3.911106016656442,-4.411411627566144,-4.48684073272953
1769247421760,124,-4,-3.3292154908784695,-4.0017828092026,-3.9078324775095417
1769247421764,125,-3,-2.819283732748306,-3.3541666483941515,-3.4012092996739716
1769247421768,125,-3,-2.481137482701077,-3.0224666574510564,-3.065940879230988
1769247421772,125,-3,-2.3656772371931867,-3.19997084543774,-2.951503956348182
1769247421776,125,-3,-2.483332025933695,-3.228501522810908,-3.067780172507204
1769247421780,125,-3,-2.780393449936981,-3.1401868413700647,-3.3627713817350977
1769247421784,125,-3,-3.102010012717128,-3.267105713533771,-3.684294415537447
1769247421788,124,-4,-3.223242170272759,-4.045986123215698,-3.8080375608715458
1769247421792,124,-4,-2.9933144888807446,-4.202918792932205,-3.5812968780052015
1769247421796,125,-3,-2.49480309846568,-3.1559485177236697,-3.0850934491783946
1769247421800,126,-2,-2.039964151626421,-2.2310630956400157,-2.6324661907015336
1769247421804,126,-2,-1.9575645261289776,-2.1579652885509013,-2.553219363464362
1769247421808,125,-3,-2.345258355566642,-3.1488990084198476,-2.9435564276954853
1769247421812,124,-4,-3.0073411695247585,-4.097784500413388,-3.605174915449747
1769247421816,124,-4,-3.6076229320378217,-4.2263804095950075,-4.20208396733039
1769247421820,124,-4,-3.87400018394833,-4.161622173644343,-4.465943062017885
1769247421824,124,-4,-3.703277724749038,-4.19279025575365,-4.296988562881809
1769247421828,124,-4,-3.1600693469961643,-4.10938864253849,-3.7593367293799016
1769247421832,125,-3,-2.4359931353829625,-3.129658648185842,-3.0410545096630113
1769247421836,126,-2,-1.7898212086439025,-2.173401247814019,-2.3978539269577017
1769247421840,126,-2,-1.45128255841364,-2.218605094008794,-2.059053525355478
1769247421844,126,-2,-1.509478248120694,-2.090407836145583,-2.115586268181468
1769247421848,126,-2,-1.8552569078422605,-2.231143424770412,-2.4605822281964267
1769247421852,125,-3,-2.2349270634134304,-2.9789708048188235,-2.8412726820597785
1769247421856,125,-3,-2.4019521825492607,-3.329768589541031,-3.010267259479795
1769247421860,125,-3,-2.269642523465154,-3.0268803803626207,-2.879690812311696
1769247421864,126,-2,-1.9458937541098724,-2.266324610453277,-2.5574140481828707
1769247421868,126,-2,-1.622083748576049,-2.039171201205788,-2.2355086662331702
1769247421872,126,-2,-1.4231223702388152,-2.168257471138755,-2.038820258941306
1769247421876,126,-2,-1.3563621969073372,-2.1335018610234053,-1.973741219126713
1769247421880,126,-2,-1.383384715647967,-2.2127199171045246,-2.0013683632751853
1769247421884,126,-2,-1.5108463677416475,-2.0475589674155827,-2.129135010493378
1769247421888,126,-2,-1.7934585617335033,-2.253891363989495,-2.4128495861171566
1769247421892,125,-3,-2.251177209067655,-2.927106729923782,-2.8724871744618663
1769247421896,125,-3,-2.7956151328687024,-3.392632706850035,-3.418503322417387
1769247421900,124,-4,-3.247720099746446,-3.9230402679365928,-3.870817971016265
1769247421904,124,-4,-3.438378327109826,-4.322620429434515,-4.0607798019656105
1769247421908,124,-4,-3.3084393977267776,-3.9620014804894046,-3.931149417343446
1769247421912,125,-3,-2.930638539298066,-3.182793699248021,-3.5561554543276435
1769247421916,125,-3,-2.452127328915279,-3.17530918035165,-3.0819816629930656
1769247421920,125,-3,-2.0191089936272535,-3.0779851318985756,-2.6519032023176847
1769247421924,126,-2,-1.727240016330548,-2.203248803060019,-2.359749148758719
1769247421928,126,-2,-1.5905785761438778,-2.016576212922856,-2.220834079759838
1769247421932,126,-2,-1.527772041754023,-2.148027122129367,-2.1566623553204636
1769247421936,126,-2,-1.4018624070476986,-2.185614124428251,-2.0319533481409495
1769247421940,126,-2,-1.1226429462871366,-2.059988513786619,-1.7560443015195606
1769247421944,127,-1,-0.7387524409080295,-1.2212875691282934,-1.3758626350594507
1769247421948,127,-1,-0.4260990020716968,-0.9420587928508448,-1.0654797361087711
1769247421952,127,-1,-0.3627856459084904,-1.246480358501365,-1.0021025807291477
1769247421956,127,-1,-0.5807946285850365,-1.045797114865302,-1.2186252193100753
1769247421960,127,-1,-0.910498722908128,-1.223530256915794,-1.547470109406785
1769247421964,126,-2,-1.0782222410292397,-2.035430081438834,-1.7160210909934872
1769247421968,126,-2,-0.908152708140244,-2.087246374994919,-1.547767664621596
1769247421972,127,-1,-0.4720135664113059,-1.1078485736924844,-1.113662777110511
1769247421976,128,0,-0.0371448052828649,-0.1457562358788433,-0.6812304754584745
1769247421980,128,0,0.1605755011529537,-0.1501726628501655,-0.4859496359634967
1769247421984,127,-1,0.1099128226147443,-1.064987305333707,-0.5371807504468384
1769247421988,127,-1,0.008713702447219,-1.0698814435805224,-0.636153230500171
1769247421992,128,0,0.0827848953646048,-0.088872049296526,-0.5593773047630597
1769247421996,128,0,0.4197389142484558,-0.1660446878969387,-0.2227008526218641
1769247422000,128,0,0.9280819498141276,-0.1043143089169683,0.2818235896306541
1769247422004,129,1,1.4027522025520711,0.9052682167372068,0.7519575142269149
1769247422008,129,1,1.6390208039330283,0.960151294186222,0.9858966185977625
1769247422012,129,1,1.5487177927551532,0.8926506289745906,0.8959662186944968
1769247422016,129,1,1.224929810364746,0.876254025395062,0.5738937444657359
1769247422020,128,0,0.9047659731133246,-0.1435638627692107,0.2553649741117728
1769247422024,128,0,0.8396881242309471,-0.0302715911840905,0.1910114056523684
1769247422028,129,1,1.1577801903514926,0.9007001623196251,0.5084374482875864
1769247422032,129,1,1.80798780240955,0.9651057281459164,1.1566240610968417
1769247422036,130,2,2.6034783843731266,1.8302462758552505,1.9495814348086644
1769247422040,131,3,3.312895272735142,2.917160399616393,2.6570919636058834
1769247422044,131,3,3.741494177789922,2.9042751529039355,3.084961656681315
1769247422048,131,3,3.7745651973715866,2.9866192285877986,3.118134851503862
1769247422052,131,3,3.38617712991806,2.882080093891723,2.7298794642612707
1769247422056,130,2,2.631041569519288,1.9368616004477508,1.974451572317916
1769247422060,129,1,1.6303411348908885,0.8326160953897964,0.9733662277432448
1769247422064,128,0,0.5494168104086588,-0.0185853182257014,-0.1073910004059124
1769247422068,127,-1,-0.4351140810029072,-1.0589766267767828,-1.091183494692984
1769247422072,126,-2,-1.1751232301549537,-2.0845111790187687,-1.8307986949612085
1769247422076,126,-2,-1.590962571184896,-2.0381764943484204,-2.247584830223379
1769247422080,126,-2,-1.7034318387952894,-2.214221538192186,-2.362145464349554
1769247422084,125,-3,-1.6445270877964755,-2.9244410618504553,-2.3050977795466263
1769247422088,126,-2,-1.6229931869241017,-2.1895062698147525,-2.284274720911305
1769247422092,126,-2,-1.8293837580414825,-1.893702311466712,-2.4907384343054177
1769247422096,125,-3,-2.3236992008072925,-3.256029416023265,-2.985163879372049
1769247422100,124,-4,-2.9990971543019405,-3.938828034381088,-3.66030708029232
1769247422104,124,-4,-3.6623772963474863,-4.221332434386867,-4.32239258680773
1769247422108,123,-5,-4.159022995464952,-4.888856708380597,-4.817628197916783
1769247422112,123,-5,-4.43797671817421,-5.141268969918887,-5.0966961170718195
1769247422116,123,-5,-4.526222410944156,-5.036641738660988,-5.187515427091641
1769247422120,123,-5,-4.466544779651329,-5.067689767236459,-5.131460983218425
1769247422124,123,-5,-4.286149725661117,-5.184817459751162,-4.952438267861435
1769247422128,123,-5,-4.011528298518657,-4.821963087497672,-4.674651704958729
1769247422132,124,-4,-3.6849902202558664,-4.288041724647881,-4.34227379235932
1769247422136,124,-4,-3.3422945184727464,-3.7672014382734975,-3.996676008552889
1769247422140,125,-3,-2.9792176847951146,-3.40181463455841,-3.6381956046230894
1769247422144,124,-4,-2.5680632084300026,-3.789155231524,-3.2376851706168757
1769247422148,125,-3,-2.1076063881827083,-3.2651782267467215,-2.7865153705918275
1769247422152,126,-2,-1.5909074354884147,-1.7923918342123542,-2.269793510523547
1769247422156,127,-1,-0.8287884132897587,-1.24648839610725,-1.4961639579331822
1769247422160,128,0,0.7239214417559703,0.1033443233059889,0.0734099439596822
1769247422164,132,4,3.858328805041241,3.711186268293021,3.2191462969440385
1769247422168,136,8,9.081364765822224,8.217353686271057,8.440296329475101
1769247422172,142,14,15.89913603418493,13.767630899766663,15.244237224613713
1769247422176,149,21,22.468601743977185,21.214513346595048,21.795969573511226
1769247422180,155,27,26.11062713993792,26.68421168148638,25.42438246696302
1769247422184,153,25,24.60572329781019,25.074980646916888,23.9145831838285
1769247422188,145,17,17.493843509856596,16.868983566118025,16.808541636260642
1769247422192,133,5,6.456784641110921,5.045144339479621,5.787107875936007
1769247422196,121,-7,-5.492446353416142,-6.973864058867447,-6.14292120656887
1769247422200,112,-16,-15.423594299902335,-16.13838230184884,-16.06143252981861
1769247422204,106,-22,-21.593507419652635,-21.974967624905016,-22.232606364681516
1769247422208,104,-24,-23.720726049759215,-24.117707446525134,-24.37349058966693
1769247422212,105,-23,-22.557777602917454,-22.907605387629985,-23.227343348114378
1769247422216,108,-20,-19.2524283427852,-20.06832099844739,-19.931976963781352
1769247422220,112,-16,-14.90547276571835,-16.000501381557473,-15.584277250645007
1769247422224,117,-11,-10.413856813615986,-11.104478876951918,-11.084693554799223
1769247422228,121,-7,-6.450191842115065,-6.979213361398332,-7.112776493224056
1769247422232,124,-4,-3.4291524306055203,-4.055058687038961,-4.088144705810732
1769247422236,126,-2,-1.4575801716723842,-1.9220573724777337,-2.117840614321593
1769247422240,127,-1,-0.3602960161150587,-1.1353483463185607,-1.0234014060184369
1769247422244,127,-1,0.1773223567161421,-0.934286310219404,-0.4869369707746926
1769247422248,128,0,0.4305159486964481,-0.1386510802866583,-0.2326286559726775
1769247422252,128,0,0.5475064667716715,0.1186548012825412,-0.1140959998129564
1769247422256,128,0,0.5925377997229673,-0.0989136346487148,-0.0688404623428142
1769247422260,128,0,0.6322633975740641,0.0705473596665803,-0.0300364300008352
1769247422264,128,0,0.7547752761653252,-0.1205045734830101,0.0917788739071807
1769247422268,128,0,1.0074678333875458,0.0548462404629459,0.3445906378870043
1769247422272,129,1,1.3389052396707282,0.9466165617946192,0.6761777062385446
1769247422276,129,1,1.623370338152576,1.063049132478502,0.9601459102919332
1769247422280,129,1,1.7534106785362475,0.9426971134587392,1.089814017282518
1769247422284,129,1,1.718603763184935,1.0216523709528282,1.0560360532502582
1769247422288,129,1,1.6133340130587508,0.9160915354822736,0.9529938344457278
1769247422292,129,1,1.579799847687379,1.0981827256007066,0.9211211982262272
1769247422296,129,1,1.7230994612235402,0.9264370993450748,1.064209535592532
1769247422300,129,1,2.0390418610462744,1.0851984697744528,1.3785831313475396
1769247422304,130,2,2.400705974275988,1.9314313351417096,1.7388164235844623
1769247422308,130,2,2.6323486988131855,1.9673580457947224,1.9701196742101503
1769247422312,130,2,2.634579782152346,2.1031595028013417,1.9731584729099216
1769247422316,130,2,2.465387495914637,1.8891946015969256,1.805604554172048
1769247422320,129,1,2.304890553932235,1.1728690063515308,1.6470712298551828
1769247422324,130,2,2.329236275396943,1.8392846288964249,1.672873335522302
1769247422328,130,2,2.594272306802724,2.08501372866182,1.9381143041713993
1769247422332,130,2,3.0106743737301884,1.9929481181764277,2.3535335842519753
1769247422336,131,3,3.4131693432409485,3.004665925298001,2.754665134634652
1769247422340,131,3,3.666728248856069,3.100358290236217,3.007337876142908
1769247422344,131,3,3.7413036676352727,2.869904157872013,3.0820963808033532
1769247422348,131,3,3.714692943958439,3.139674785489176,3.057040051149954
1769247422352,131,3,3.7164549204517887,2.8706406607664934,3.061382669716336
1769247422356,131,3,3.8660482273276937,3.2056459224075553,3.213335299259258
1769247422360,132,4,4.244696475591815,3.882991484786153,3.592739883722249
1769247422364,132,4,4.889400498369076,4.103763135411158,4.236487161053485
1769247422368,133,5,5.774070259047635,4.94361162306898,5.11994961831582
1769247422372,134,6,6.781047235593574,6.033957606181206,6.126953807546054
1769247422376,135,7,7.714470566455629,7.098220884567903,7.061491683819732
1769247422380,136,8,8.385935087112571,7.973598237321225,7.733753866895881
1769247422384,136,8,8.722214441833739,8.049533527796218,8.06982329883954
1769247422388,136,8,8.804134832979774,7.999321668781693,8.151579765488975
1769247422392,136,8,8.805248035066347,7.97222090042643,8.154099176004065
1769247422396,136,8,8.895597278578919,8.20095035225698,8.247421869567228
1769247422400,137,9,9.196441639486714,8.857428427315202,8.55109094361156
1769247422404,137,9,9.793476057313391,9.231923400161342,9.149193330113585
1769247422408,138,10,10.74012170705436,9.78176741712598,10.095113813658369
1769247422412,139,11,12.008880411193749,11.221578974180543,11.36244154087709
1769247422416,141,13,13.44121102026586,12.954438847756082,12.793721244834751
1769247422420,142,14,14.778099957742583,14.112922069925522,14.130734237452527
1769247422424,143,15,15.781680756380522,15.040302075663266,15.136090601311402
1769247422428,144,16,16.36898506952565,15.915916011985166,15.726470856597818
1769247422432,144,16,16.656887195626247,16.149891896612594,16.01750939230357
1769247422436,144,16,16.869212942053963,15.973244795527975,16.231856844532256
1769247422440,144,16,17.153075101501592,16.177587002845133,16.51629362730347
1769247422444,145,17,17.435772571497438,16.96432447100828,16.798481940489776
1769247422448,145,17,17.4413943315405,17.018290455548225,16.803249378241105
1769247422452,144,16,16.861256215164733,16.041511306150042,16.222878761041013
1769247422456,143,15,15.546940179893165,15.081394429913493,14.909719792863545
1769247422460,141,13,13.58612715508916,13.104275331995236,12.951496350593017
1769247422464,138,10,11.222680838158713,10.045991019164973,10.591242083836256
1769247422468,136,8,8.702677529207877,7.95306888687872,8.07363393533331
1769247422472,134,6,6.175270340152203,6.119109039123604,5.54690167413439
1769247422476,131,3,3.7079918102937466,2.995090137207402,3.079405690177748
1769247422480,128,0,1.360352303427346,0.2473197008614419,0.7326726042145488
1769247422484,127,-1,-0.7724688212253907,-1.1094822398558934,-1.3973918438746236
1769247422488,125,-3,-2.574607157159666,-2.863778287863652,-3.1964851380563455
1769247422492,123,-5,-3.9645764072759935,-5.064247327093316,-4.585001558463461
1769247422496,122,-6,-4.958887932016107,-5.816706570440966,-5.579627147033831
1769247422500,122,-6,-5.691900461064455,-5.887357502863512,-6.313271803761972
1769247422504,121,-7,-6.348252051309542,-7.009341344128888,-6.968677857556448
1769247422508,120,-8,-7.0390772506722445,-7.89439254224312,-7.65599880783851
1769247422512,120,-8,-7.715241034680355,-8.093752003592137,-8.327208262367936
1769247422516,119,-9,-8.188526542272708,-8.71807971267465,-8.796721946508011
1769247422520,119,-9,-8.26122274832053,-9.013707996542156,-8.868395522032092
1769247422524,119,-9,-7.8934685158971964,-8.820089238602788,-8.501245404918206
1769247422528,120,-8,-7.286211493621894,-8.103971686220067,-7.893935452963063
1769247422532,121,-7,-6.783881912225672,-6.864452818998737,-7.389899902450164
1769247422536,121,-7,-6.6417671897848845,-6.932689876497772,-7.244921324966114
1769247422540,120,-8,-6.84819780195506,-7.803901570373983,-7.447927401153256
1769247422544,120,-8,-7.164594676482188,-7.976881394510352,-7.760675893165596
1769247422548,120,-8,-7.345765206438179,-7.990207935608835,-7.938685360911614
1769247422552,120,-8,-7.338454690121413,-7.921433378501774,-7.92954437591087
1769247422556,120,-8,-7.292528449981191,-7.886280407009573,-7.883046408294108
1769247422560,120,-8,-7.394988688913074,-7.80803922408049,-7.984942936421947
1769247422564,120,-8,-7.680539395452414,-7.972973658186528,-8.268364492067017
1769247422568,119,-9,-7.979159770334439,-8.99659661223382,-8.56259621434096
1769247422572,119,-9,-8.038740235737658,-8.90226272814619,-8.616545443473099
1769247422576,120,-8,-7.712104016021921,-7.882467732680834,-8.285323087442563
1769247422580,120,-8,-7.056867543679743,-7.780972764131682,-7.628222199650507
1769247422584,121,-7,-6.290273984171128,-6.994909741323916,-6.862041687676974
1769247422588,122,-6,-5.655537308913898,-5.961450153245566,-6.227885763671837
1769247422592,122,-6,-5.294157346245572,-5.960580475146658,-5.864987197958814
1769247422596,122,-6,-5.1912584206903665,-5.778413380421813,-5.757212059628532
1769247422600,122,-6,-5.208364575685589,-5.872238143771459,-5.76672388208232
1769247422604,122,-6,-5.165189358181225,-5.890389100485547,-5.716134753677727
1769247422608,123,-5,-4.916478091455975,-5.0543990516477,-5.463709197429392
1769247422612,123,-5,-4.406474759845226,-4.877120726507415,-4.9544657541718635
1769247422616,123,-5,-3.714331200449105,-4.824090987774856,-4.26416210249756
1769247422620,124,-4,-3.067129446304085,-3.808599708390104,-3.615472174708637
1769247422624,125,-3,-2.749862274457094,-2.9421017023367817,-3.292488557194653
1769247422628,125,-3,-2.907783181920656,-3.0068836088528457,-3.443424262114888
1769247422632,124,-4,-3.389685015490293,-3.908652149922888,-3.919950655669521
1769247422636,123,-5,-3.8144309948990935,-4.787791069751195,-4.340881893102768
1769247422640,123,-5,-3.852192992272916,-4.806025634406582,-4.374903024693374
1769247422644,124,-4,-3.481766279805407,-3.952792752881992,-4.000749519712443
1769247422648,125,-3,-2.98671087781979,-2.9569049887853507,-3.503168682096281
1769247422652,125,-3,-2.7045527584968494,-2.971600298854602,-3.2194233848741076
1769247422656,124,-4,-2.7748418758379416,-3.6855088823119697,-3.2867189073498126
1769247422660,124,-4,-3.0980982829029955,-3.932093926899632,-3.604153130331249
1769247422664,124,-4,-3.483966701090142,-3.794113826894975,-3.983201735869848
1769247422668,124,-4,-3.8096135186327778,-4.114071360468367,-4.303961653381922
1769247422672,123,-5,-4.063589409006864,-4.777308894351777,-4.555211511210256
1769247422676,123,-5,-4.287072556790712,-4.866845584023559,-4.775568519646775
1769247422680,123,-5,-4.486454442437478,-4.763788464779057,-4.969567957507188
1769247422684,123,-5,-4.5825574400129,-4.933727825067178,-5.059006930471642
1769247422688,123,-5,-4.4417425183420365,-4.9831267859629715,-4.912531713354333
1769247422692,123,-5,-3.9882747344431273,-4.840925448078341,-4.455514487920867
1769247422696,124,-4,-3.3158016113868793,-3.838920305703792,-3.780827268973759
1769247422700,125,-3,-2.6824550472845594,-2.747820636123517,-3.1447367032278004
1769247422704,125,-3,-2.360621383516084,-2.9735937222040136,-2.817873160688599
1769247422708,125,-3,-2.4469346448564497,-2.911246821752106,-2.8965896976536296
1769247422712,125,-3,-2.7827544562478277,-2.8754025734684703,-3.2240829635513992
1769247422716,124,-4,-3.055207502281105,-3.843934033459946,-3.4900992709388814
1769247422720,124,-4,-3.017514721562258,-3.677725622559576,-3.4488912245512693
1769247422724,125,-3,-2.6712905325284195,-3.088260246634688,-3.100604908139561
1769247422728,125,-3,-2.2625066434518537,-2.722259581242799,-2.6885878132981595
1769247422732,126,-2,-2.077883770764888,-2.075198218158876,-2.4979279366162586
1769247422736,125,-3,-2.198169988890009,-2.619865261788566,-2.6099225982473926
1769247422740,125,-3,-2.4169490759678935,-2.925228773368876,-2.8203305926110813
1769247422744,125,-3,-2.407645330647952,-2.8074106632138753,-2.804570110726188
1769247422748,125,-3,-2.0143181291381524,-3.00295318308474,-2.4070394580803947
1769247422752,126,-2,-1.4241971535626672,-1.7365835921059816,-1.8137904264243607
1769247422756,127,-1,-1.0589669270759483,-0.9724577380941832,-1.444991522060293
1769247422760,126,-2,-1.2525470276663828,-1.5592391285264076,-1.6334445171895062
1769247422764,126,-2,-1.9764479426823875,-2.1875630188091693,-2.3500678611931987
1769247422768,124,-4,-2.8442578050951792,-3.5816007536398917,-3.208753618774584
1769247422772,124,-4,-3.388176809836899,-4.167264633489289,-3.743348564451325
1769247422776,124,-4,-3.373133709398149,-3.481912339248594,-3.7210727868641
1769247422780,125,-3,-2.9050778245211637,-3.0771035228623047,-3.2488728195473064
1769247422784,125,-3,-2.287973391487519,-2.64149185462987,-2.6292230025589083
1769247422788,126,-2,-1.7855522710941212,-2.1007152714417483,-2.1230524538313187
1769247422792,126,-2,-1.4786567692355828,-1.6862148177873,-1.809425792269835
1769247422796,126,-2,-1.292660917195568,-1.866012674065876,-1.61416831749513
1769247422800,126,-2,-1.1280000146118747,-1.7967418986271233,-1.439887045832046
1769247422804,127,-1,-0.9639627166772976,-0.779723967305912,-1.2681869449855212
1769247422808,127,-1,-0.8578468405225355,-1.0726510759409795,-1.1570154015405916
1769247422812,126,-2,-0.8727685783261194,-1.5874945987343494,-1.1679065514275695
1769247422816,127,-1,-1.019954981490518,-1.0396550848709305,-1.3097858678440466
1769247422820,126,-2,-1.2548632166213651,-1.5622236325360237,-1.5371208053888363
1769247422824,126,-2,-1.5036293125395033,-2.0301704659572306,-1.7769523366676545
1769247422828,126,-2,-1.685313885213686,-1.791492089477065,-1.9501870636080336
1769247422832,126,-2,-1.7207447125199469,-1.8428185765817928,-1.9788216846972793
1769247422836,126,-2,-1.5459169434658522,-1.803883614620696,-1.798187061462313
1769247422840,126,-2,-1.1475065622089118,-1.74472286081178,-1.3931935258322006
1769247422844,127,-1,-0.5975860837908413,-0.8930285110647785,-0.8353294420972837
1769247422848,128,0,-0.0367287311435458,0.152651611281067,-0.2666571165199276
1769247422852,128,0,0.398039394319353,0.1777833992360038,0.1743147814816361
1769247422856,128,0,0.6312605594146241,0.2194103378402884,0.4129276106017839
1769247422860,128,0,0.6382478708480899,0.2193526696416914,0.4266982004513993
1769247422864,128,0,0.4050015063547763,0.1461728744629721,0.2023416877321469
1769247422868,128,0,-0.0625184470216733,0.153034611142514,-0.2558842795075677
1769247422872,127,-1,-0.680119040465262,-0.8136483985836105,-0.865736708842759
1769247422876,126,-2,-1.2668720523019237,-1.7759278855194178,-1.446210562166936
1769247422880,126,-2,-1.6251534958403269,-1.7764803244450338,-1.7979101410083325
1769247422884,126,-2,-1.6623081422371837,-1.874067637495264,-1.8268786614718724
1769247422888,126,-2,-1.4399199143628998,-1.7626267217135014,-1.5953766826510751
1769247422892,127,-1,-1.1035691626665671,-0.9100675386431294,-1.2510271495844354
1769247422896,127,-1,-0.7631251141295536,-0.6287309389348692,-0.904793901528409
1769247422900,127,-1,-0.4433487014839106,-0.9770682445812467,-0.5799336657019986
1769247422904,127,-1,-0.1474280481879528,-0.6295644681420273,-0.2769452656751574
1769247422908,128,0,0.0607672450868914,-0.004942115396099,-0.0590740898226604
1769247422912,128,0,0.0831053277479658,0.3637751790157536,-0.0267423773335738
1769247422916,128,0,-0.0863753180789883,0.1392891786874877,-0.1882199440760371
1769247422920,127,-1,-0.2899042779437801,-0.8091909015217831,-0.3852967773174742
1769247422924,127,-1,-0.3025327951297636,-0.7277858299709044,-0.3908298261596875
1769247422928,128,0,-0.0179295311661578,0.0426146749156879,-0.0976085746345056
1769247422932,128,0,0.4633588304129195,0.4222060484776697,0.3923962469342541
1769247422936,129,1,0.9277888378661048,1.053465744366549,0.8638861817259356
1769247422940,129,1,1.2255985040671795,1.2925351612184672,1.1672474052193735
1769247422944,129,1,1.364574865474319,1.155909448752206,1.3123917758311097
1769247422948,129,1,1.4539410083433684,1.1563192404874898,1.4105121621334653
1769247422952,129,1,1.5820224292866218,1.3893689441907369,1.5494116689485125
1769247422956,130,2,1.7630888785282075,2.061042773580853,1.7404429995198083
1769247422960,130,2,1.9914384755838097,2.3316510747637835,1.9756630296318347
1769247422964,130,2,2.3048733213325967,2.066678705707445,2.2940862674243783
1769247422968,130,2,2.7523092451268445,2.276765502993647,2.7480143283901772
1769247422972,131,3,3.2972659818675787,3.313600918299241,3.302342590723539
1769247422976,132,4,3.790324986582821,4.134367616999374,3.805280656453091
1769247422980,132,4,4.065292487399802,4.302430267094231,4.087628114540237
1769247422984,132,4,4.055264137590532,4.041938184452927,4.082750812716116
1769247422988,131,3,3.7992074109001104,3.340502097869298,3.832758725526323
1769247422992,131,3,3.3517485774507354,3.260040751154225,3.394214470572893
1769247422996,131,3,2.729023132101919,3.225278461348446,2.781665529238309
1769247423000,130,2,1.962604969767745,2.229099187197533,2.0238974481153975
1769247423004,129,1,1.1754735418363935,1.0911042341486812,1.2434638382546417
1769247423008,128,0,0.5529242275266866,0.3151302760758613,0.6276942079008422
1769247423012,128,0,0.2113294708221379,0.2827853189985582,0.2944248464482931
1769247423016,128,0,0.0971287902570623,0.2693919478012908,0.1890411163099035
1769247423020,128,0,0.0203091796857397,0.1709369507660093,0.1193227722682838
1769247423024,128,0,-0.2120070629956009,0.1739703307992574,-0.1081762801375098
1769247423028,127,-1,-0.684384641707674,-0.8053686431422492,-0.5759349626064375
1769247423032,126,-2,-1.361980698058541,-1.552936985177542,-1.2463150805070775
1769247423036,126,-2,-2.144043363910734,-1.8793871309362689,-2.017977727637106
1769247423040,125,-3,-2.8972599041147413,-2.645084420154321,-2.7598684462112746
1769247423044,125,-3,-3.4522525452481903,-3.021795652766505,-3.30532434013915
1769247423048,124,-4,-3.634519693689094,-3.604301009132999,-3.480560305233938
1769247423052,124,-4,-3.376189192963406,-3.746200510578168,-3.2168457354996436
1769247423056,125,-3,-2.829998667533904,-2.6496606955959896,-2.6665686885477182
1769247423060,126,-2,-2.344526456120521,-1.842986797711598,-2.178399361578485
1769247423064,126,-2,-2.2677276673391713,-1.8461341675360805,-2.098266114288787
1769247423068,125,-3,-2.7174367216478337,-2.7497350343720615,-2.5395244650691717
1769247423072,124,-4,-3.493427737576174,-3.645777509674193,-3.2997731687137963
1769247423076,124,-4,-4.177598946756101,-3.66850185609732,-3.965965892510719
1769247423080,124,-4,-4.342808493012604,-3.844467368045836,-4.120887942039899
1769247423084,124,-4,-3.7742758430388097,-3.785243465935898,-3.555358887043427
1769247423088,125,-3,-2.6195556341923343,-2.8498497643944933,-2.4114449223159053
1769247423092,126,-2,-1.3472736136220305,-1.5118775511780298,-1.1445029024431728
1769247423096,128,0,-0.4174686227545431,0.1898338299664375,-0.204318164728732
1769247423100,129,1,0.2210769655966153,1.3570296785264897,0.4590763343693012
1769247423104,130,2,1.4089366761130782,1.9998952454713592,1.67448369271776
1769247423108,132,4,4.4164304491913375,4.367699744886079,4.698898805561193
1769247423112,137,9,9.962202903274935,9.281776864703074,10.245235660179429
1769247423116,144,16,17.229614866168557,16.39925181899247,17.501125619327958
1769247423120,152,24,23.72566612139602,24.24914758134998,23.98317441335522
1769247423124,156,28,26.343531636827947,28.05611187820137,26.593391514209273
1769247423128,152,24,23.075143522602172,24.3368493953585,23.32898586057517
1769247423132,142,14,14.226468519019306,14.208528735852951,14.497178761804326
1769247423136,129,1,2.2900029797821997,1.504969803360678,2.586646933082401
1769247423140,118,-10,-9.38187788862994,-9.822513086984582,-9.059488597001636
1769247423144,110,-18,-18.13274688782266,-17.79582378270176,-17.795564483291354
1769247423148,106,-22,-22.82395691253109,-21.75016894821658,-22.48788456452925
1769247423152,105,-23,-23.67596384250278,-22.72680590261711,-23.35165583076475
1769247423156,106,-22,-21.602561862200965,-21.541647002887004,-21.28882891113427
1769247423160,110,-18,-17.662207764508253,-17.78838149317397,-17.348608559174917
1769247423164,115,-13,-12.869694705888502,-12.781564881899849,-12.545705601710472
1769247423168,120,-8,-8.185954900716746,-7.759170428933009,-7.848363332491127
1769247423172,124,-4,-4.4256546148104565,-3.722368840980987,-4.078349357529907
1769247423176,126,-2,-2.0494679248764833,-1.5643087899511343,-1.69749192547462
1769247423180,127,-1,-1.021216692420723,-0.7646013271349758,-0.6657056191244629
1769247423184,127,-1,-0.8905055732513567,-0.7729370851034651,-0.5289208902680285
1769247423188,127,-1,-1.0697499253938942,-0.7422150724223684,-0.6999755807631787
1769247423192,127,-1,-1.1225075362087495,-0.727075994976046,-0.7460269821395591
1769247423196,127,-1,-0.8966797942737121,-0.5596842992417891,-0.5176981870970613
1769247423200,128,0,-0.4729152281027117,0.2449861377286174,-0.0944357923412513
1769247423204,128,0,-0.0205291273241229,0.2429154092236589,0.3587417269971388
1769247423208,128,0,0.3285360196831637,0.2662148710049539,0.7131300611019344
1769247423212,129,1,0.543620875721355,1.26014903973642,0.936819868367015
1769247423216,129,1,0.705976590271286,1.4658176089197508,1.1067075166499811
1769247423220,129,1,0.9610593145000528,1.206207651643055,1.365668384720884
1769247423224,129,1,1.4032381469034538,1.347343900054963,1.8095761756569857
1769247423228,130,2,1.9612962760425945,2.1405763172037378,2.369961481304733
1769247423232,131,3,2.4119443109742256,3.4202594424721293,2.8241279919444255
1769247423236,131,3,2.548763087255341,3.297987509021617,2.964684573752333
1769247423240,130,2,2.35720722900276,2.3751465110294285,2.776963109580872
1769247423244,130,2,2.023612397431058,2.232189272939451,2.4479084571461796
1769247423248,130,2,1.7811499320410444,2.2200797216109276,2.2101934744365557
1769247423252,130,2,1.751715806461775,2.394382151070322,2.184334849878774
1769247423256,130,2,1.9108134889330708,2.311463326676487,2.3456716454044404
1769247423260,130,2,2.164925161443259,2.3868610247016604,2.6021130016076537
1769247423264,131,3,2.4516232935081472,3.243691505180986,2.892246296468794
1769247423268,131,3,2.785072916051339,3.1944953633822726,3.2295656647206625
1769247423272,131,3,3.2178566101676913,3.4476926299518587,3.665407320884478
1769247423276,132,4,3.7486788365635055,4.270052323689839,4.19824945132245
1769247423280,132,4,4.2581249317774414,4.433435792189854,4.709471309756776
1769247423284,133,5,4.549576305463876,5.23143452438936,5.003086673253973
1769247423288,133,5,4.487253519056912,5.191308328210331,4.943194581621467
1769247423292,132,4,4.124328822086308,4.47775645305148,4.582744219685081
1769247423296,132,4,3.7023213052447224,4.241030112030408,4.163615363231729
1769247423300,131,3,3.507788365385405,3.486120623901807,3.9727420200583774
1769247423304,132,4,3.702627335531695,4.182685600744956,4.171308263719279
1769247423308,133,5,4.26633932226307,5.275511828475512,4.737300120937194
1769247423312,133,5,5.072848355722645,5.383250920681109,5.544075925141307
1769247423316,134,6,5.997420902420012,6.369199717412773,6.46813255968145
1769247423320,135,7,6.951822416116924,7.3515438145819,7.422970557861499
1769247423324,136,8,7.854384166277714,8.325854407702328,8.327531355719572
1769247423328,137,9,8.612139187680693,9.163643326337423,9.088182024490308
1769247423332,137,9,9.15887786122046,9.491014815664446,9.6376130508457
1769247423336,138,10,9.518197469340535,10.2935332587405,9.998694335992017
1769247423340,138,10,9.822113766496884,10.411386189074278,10.30362472229334
1769247423344,138,10,10.243001106381683,10.294614639375268,10.72564291485076
1769247423348,139,11,10.8768093240262,11.19806049245114,11.360967983222794
1769247423352,140,12,11.679310064756976,12.492431581062696,12.16437492710656
1769247423356,141,13,12.517138623414038,13.290589531631651,13.00169692339026
1769247423360,141,13,13.277888225882334,13.429599069217703,13.761577846005403
1769247423364,142,14,13.932387259727422,14.28467994508386,14.416752430839242
1769247423368,143,15,14.51583488730166,15.20209197784143,15.002707226407177
1769247423372,143,15,15.0782812633373,15.541887313730218,15.56776778711844
1769247423376,144,16,15.64848213226754,16.2117268429533,16.139025321301965
1769247423380,144,16,16.20845576962909,16.578659906376178,16.698482678976347
1769247423384,145,17,16.67269676070264,17.066896367782682,17.161685812007082
1769247423388,145,17,16.89315201384718,17.504537874789513,17.381322500075967
1769247423392,145,17,16.7081381459314,17.19322470322482,17.195835397667118
1769247423396,144,16,16.01314956944893,16.63145432860309,16.500868322194833
1769247423400,143,15,14.804893206584056,15.13443276963582,15.293430282317628
1769247423404,141,13,13.172480231006544,13.51499913808766,13.662379450061692
1769247423408,140,12,11.253228787569608,12.087593364799517,11.74404642131582
1769247423412,137,9,9.183198672306537,9.598396140090806,9.673790306172153
1769247423416,135,7,7.055789010012382,7.297917965553529,7.545308472263381
1769247423420,133,5,4.900270035707589,5.418479826713835,5.388401612682249
1769247423424,131,3,2.703454907595078,3.292412368212252,3.189912669457481
1769247423428,129,1,0.471827328314621,1.2507408037785597,0.9566778831301006
1769247423432,126,-2,-1.7190949868472585,-1.4541102491695057,-1.2344307613927294
1769247423436,124,-4,-3.73601417433299,-3.721323763263995,-3.249392119004272
1769247423440,123,-5,-5.438813368625937,-4.4726663456248765,-4.949951629684479
1769247423444,122,-6,-6.7200994615967575,-5.881724320639888,-6.231732910283859
1769247423448,120,-8,-7.533112242726707,-7.521879650535453,-7.048503776038007
1769247423452,120,-8,-7.934507614350247,-7.651726249904701,-7.454166275592613
1769247423456,120,-8,-8.105196168421491,-7.546239931812139,-7.626768606015465
1769247423460,120,-8,-8.2740166513211,-7.591545281239847,-7.794985694195236
1769247423464,120,-8,-8.560559264340164,-7.81919490669284,-8.080304843705003
1769247423468,119,-9,-8.87376114129138,-8.508345752454867,-8.393265607264478
1769247423472,119,-9,-8.983594108070426,-8.698016316106672,-8.504072154637004
1769247423476,119,-9,-8.72432118489161,-8.449946027255422,-8.246545572958167
1769247423480,120,-8,-8.154514014981125,-7.702215633066104,-7.679007758810263
1769247423484,121,-7,-7.530308317363099,-6.692688803792285,-7.057429947683437
1769247423488,121,-7,-7.1153813373926695,-6.595412394309009,-6.644908753296724
1769247423492,121,-7,-6.992528761431243,-6.64089309445846,-6.52346021525558
1769247423496,121,-7,-7.028939714242089,-6.447897088459782,-6.560076637119883
1769247423500,121,-7,-7.007644513455692,-6.7585712412588,-6.538468696092783
