timestamp_ms,ecg_u8_raw,ecg_counts_raw_int,ecg_counts_filt_monitor,ecg_counts_filt_diagnostic,ecg_counts_filt_st
1770448306540,128,0,0.0976154740674508,0.7786220736455318,1.28342655470435
1770448306544,128,0,0.432005688283501,0.7625144065380971,1.6398207721082596
1770448306548,128,0,0.6651481717366554,0.7608768754112583,1.895076548886412
1770448306552,128,0,0.8864692450282552,1.1968485228579937,2.139332421980083
1770448306556,129,1,1.1819430528910089,1.6812165047045209,2.458037406675259
1770448306560,129,1,1.5879719111611907,2.083881605523981,2.8862502485758923
1770448306564,130,2,2.0936534119517787,2.4124334117834643,3.4124408248514606
1770448306568,130,2,2.6628499780111854,3.1356404488989695,4.001183253994822
1770448306572,131,3,3.247455561546631,3.838499122451413,4.605628049605565
1770448306576,131,3,3.793130082756047,3.977992402637869,5.172033092836162
1770448306580,132,4,4.253934856336278,4.889889853635245,5.653903903458506
1770448306584,133,5,4.61876941646711,5.491858963905926,6.039176356216646
1770448306588,132,4,4.924656319944978,5.179862387118496,6.3646940764803634
1770448306592,133,5,5.229486197364274,5.682340745375891,6.688937114131884
1770448306596,133,5,5.560251122263758,6.2226936336159895,7.0390471108561545
1770448306600,134,6,5.88868343566014,6.587576540807395,7.386077386066747
1770448306604,134,6,6.1566987507940265,6.837687603557958,7.671579557498691
1770448306608,134,6,6.317792384827868,6.827070836470998,7.849860189306032
1770448306612,134,6,6.354014732781369,7.017637127268109,7.904122801510418
1770448306616,134,6,6.268521273353221,6.909203870240451,7.837559127642769
1770448306620,134,6,6.077393246248143,6.878666989676519,7.664987799274013
1770448306624,134,6,5.806174372226413,6.58431072111821,7.410736658274328
1770448306628,133,5,5.474374700799929,6.060343293160448,7.094435280644975
1770448306632,133,5,5.064682509410243,5.79496563514862,6.699973766280832
1770448306636,132,4,4.50845586188672,5.113748456949376,6.159569015813331
1770448306640,132,4,3.7224854608004696,4.69736318482108,5.389735952535846
1770448306644,131,3,2.681996143024494,3.7579090750655255,4.365051732747347
1770448306648,129,1,1.462439632160632,1.913073871476968,3.1609522692785528
1770448306652,128,0,0.2011842355861266,0.9003101320268718,1.915080486524128
1770448306656,127,-1,-0.988368122326608,0.0418946553491775,0.7404805231807048
1770448306660,126,-2,-2.070916207136198,-1.2555975041910246,-0.3282528864969816
1770448306664,125,-3,-3.074077230684752,-2.247065454964357,-1.318665607328307
1770448306668,124,-4,-4.033857908662293,-3.086661409125799,-2.265779442647652
1770448306672,123,-5,-4.949451693500725,-4.130536504017949,-3.1679883431173614
1770448306676,122,-6,-5.7720877278744025,-4.898390802625706,-3.9767337669404377
1770448306680,122,-6,-6.42730462210847,-5.347083232998464,-4.618385980363156
1770448306684,121,-7,-6.85726335769355,-6.094721513922918,-5.035666216311111
1770448306688,121,-7,-7.060670328412135,-6.272857147612873,-5.227354200990323
1770448306692,121,-7,-7.102270803588054,-5.937143177154847,-5.258135957029803
1770448306696,121,-7,-7.079617872262631,-6.099505121302801,-5.225320306636502
1770448306700,121,-7,-7.071215981320162,-6.155026273151255,-5.206667686959179
1770448306704,121,-7,-7.105487422988134,-6.2253091430814536,-5.229850686132234
1770448306708,121,-7,-7.161741068379688,-6.211973831372175,-5.274436753846988
1770448306712,121,-7,-7.184590773026641,-5.9321299332443385,-5.286233919407959
1770448306716,121,-7,-7.102444310326363,-6.185713637920016,-5.194405375897398
1770448306720,121,-7,-6.859939314982716,-5.991218673384587,-4.943092374576476
1770448306724,122,-6,-6.458156364611506,-5.413174035706832,-4.532536085219908
1770448306728,122,-6,-5.966272395074836,-5.0161290683699775,-4.031963945666475
1770448306732,123,-5,-5.481963507328117,-4.12628808123051,-3.53967544116422
1770448306736,123,-5,-5.072603012845673,-4.02201590669997,-3.1229214994669703
1770448306740,123,-5,-4.753344168063765,-4.110833444685859,-2.7959016888110138
1770448306744,124,-4,-4.511906559628356,-3.314270692691829,-2.5460498073817543
1770448306748,124,-4,-4.333823677271315,-3.0914281738699696,-2.3599693397865624
1770448306752,124,-4,-4.196431607585157,-3.0787087373388657,-2.2159734788179364
1770448306756,124,-4,-4.058382474220938,-3.0575798579308553,-2.0721775698663936
1770448306760,124,-4,-3.878577032364015,-3.065751571479618,-1.8862890718203051
1770448306764,125,-3,-3.6458008088255225,-2.3679830402396673,-1.647022560394251
1770448306768,125,-3,-3.378094989660686,-2.005015497332726,-1.373419743699023
1770448306772,125,-3,-3.096208370634032,-2.2117611517570155,-1.0867004045560409
1770448306776,125,-3,-2.8126874496620067,-1.8839760931875864,-0.7988167182703387
1770448306780,126,-2,-2.547400452033939,-1.2651054405766975,-0.529045358335551
1770448306784,126,-2,-2.3363077906945247,-1.1503604370244265,-0.3134451060542575
1770448306788,126,-2,-2.213000935092243,-1.2095359111517106,-0.1859101097096069
1770448306792,126,-2,-2.18277865238828,-1.0368021187987615,-0.1518155650878483
1770448306796,126,-2,-2.2156186679078296,-1.0276543972474517,-0.1811630676374991
1770448306800,126,-2,-2.2626078968953696,-1.1575025552891276,-0.225084726759704
1770448306804,126,-2,-2.284301540577183,-1.2098887016935715,-0.2440310866722885
1770448306808,126,-2,-2.27296085704253,-1.1775225400376366,-0.230128275669585
1770448306812,126,-2,-2.250935625284839,-1.049431370784057,-0.2058588641462264
1770448306816,126,-2,-2.2443990468152686,-1.0330438955946712,-0.1976539398448562
1770448306820,126,-2,-2.2569755001002263,-1.1429955569631989,-0.209038510846153
1770448306824,126,-2,-2.2703565657935147,-1.2149449137402704,-0.2212199334930036
1770448306828,126,-2,-2.2691138502655974,-1.1732314724264925,-0.2185243482218781
1770448306832,126,-2,-2.258691598618114,-1.0533073945458358,-0.2068234005295062
1770448306836,126,-2,-2.2553938214316567,-1.034547181073863,-0.2030675153486645
1770448306840,126,-2,-2.2634286989896384,-1.1359782552117894,-0.2115111221715611
1770448306844,126,-2,-2.269885354040561,-1.2137232259531543,-0.2186005518925382
1770448306848,126,-2,-2.263546292900042,-1.1746778721836664,-0.2125800683552725
1770448306852,126,-2,-2.251309955619174,-1.0540463146675172,-0.2005526509887243
1770448306856,126,-2,-2.249499379054779,-1.0348618009688182,-0.1994486980432392
1770448306860,126,-2,-2.261317945170762,-1.1316496803870602,-0.2126721115257781
1770448306864,126,-2,-2.2705673672290567,-1.2090755130059876,-0.2236508182341428
1770448306868,126,-2,-2.2607543501449703,-1.182539171730325,-0.2155813128363199
1770448306872,126,-2,-2.2362059589954457,-1.0480194256874604,-0.1930093548372435
1770448306876,126,-2,-2.2198081418644997,-1.0383734298433995,-0.1791784826997167
1770448306880,126,-2,-2.230512093003252,-1.1283227298524772,-0.1929006789424261
1770448306884,126,-2,-2.264340450180059,-1.1959519616634031,-0.2296684106270412
1770448306888,126,-2,-2.2928446205203423,-1.2122947001980786,-0.2608237064144532
1770448306892,126,-2,-2.273541027349344,-1.0063297757235523,-0.2442644514110428
1770448306896,126,-2,-2.1645767376821095,-1.090019942948513,-0.1386190805107408
1770448306900,126,-2,-1.9426211286778627,-1.0621250751830111,0.0793136879258669
1770448306904,127,-1,-1.6180639184092265,-0.2606416643085418,0.3992998991981431
1770448306908,127,-1,-1.2344504131281775,-0.1487167564119738,0.7780339956605122
1770448306912,127,-1,-0.8482491853872485,-0.0733712763304966,1.159265654131738
1770448306916,128,0,-0.4998441912753852,0.9774513113099323,1.5027379760460524
1770448306920,128,0,-0.1925101243904895,0.8847256247805881,1.805283258644621
1770448306924,128,0,0.105437916877709,0.7744241098510192,2.098663199765957
1770448306928,129,1,0.4343119990581841,1.8478157931802484,2.4229085797310206
1770448306932,129,1,0.8121102816426924,1.89314474743358,2.795355491414439
1770448306936,129,1,1.21765733433227,2.034620965645054,3.1944168898993026
1770448306940,130,2,1.589298275142098,2.838246925886844,3.5587355448066913
1770448306944,130,2,1.8375571105118829,2.7941138355649633,3.7995820687676063
1770448306948,130,2,1.8746941499575676,2.8716007304569295,3.829861315589848
1770448306952,130,2,1.6549863115065897,2.811727495606414,3.6039885770248294
1770448306956,129,1,1.2053516984890835,2.174336379409767,3.1484051610260884
1770448306960,129,1,0.6243546774074695,1.650652511756706,2.5608846828094647
1770448306964,128,0,0.0430625499948336,1.035126133829498,1.9720284078826968
1770448306968,128,0,-0.4345135203321988,0.583941180077099,1.486206673013254
1770448306972,127,-1,-0.7770391060419071,0.1354953557691595,1.1356249740941062
1770448306976,127,-1,-1.0264738752288445,-0.1691132422031813,0.878627132437356
1770448306980,127,-1,-1.2492334040991186,0.0088008415545688,0.6480357285877711
1770448306984,127,-1,-1.476095284251136,-0.3159075754859792,0.412319139663174
1770448306988,126,-2,-1.690675858203824,-1.082865463749643,0.1883477603792744
1770448306992,126,-2,-1.881368182997416,-1.1833822144957882,-0.0111745681091348
1770448306996,126,-2,-2.091694805852109,-0.862164105870596,-0.2296729200167686
1770448307000,126,-2,-2.396106266321388,-1.2827993156091773,-0.5425335701791145
1770448307004,125,-3,-2.819769321813076,-2.0199995143400793,-0.9754322031858028
1770448307008,125,-3,-3.294316623145193,-2.382731354617278,-1.459527781558216
1770448307012,124,-4,-3.700950521436339,-2.8971874353367166,-1.87553905418781
1770448307016,124,-4,-3.9566758238994866,-3.132972210593805,-2.1407305176785876
1770448307020,124,-4,-4.062388687061619,-3.022376266613177,-2.2564765106488394
1770448307024,124,-4,-4.077745442335624,-3.233033249779703,-2.2822731770856888
1770448307028,124,-4,-4.055634905660404,-3.229253696446919,-2.270280430628622
1770448307032,124,-4,-3.996426624086071,-2.996449264741624,-2.220450245882943
1770448307036,124,-4,-3.858086917859485,-3.1054033880052514,-2.0912651822724655
1770448307040,124,-4,-3.6108740925763994,-2.967426438032762,-1.8541864148963536
1770448307044,125,-3,-3.288394007889322,-2.334309596355875,-1.5437127302663225
1770448307048,125,-3,-2.9878427525987785,-2.0958521157135657,-1.2564299814206956
1770448307052,125,-3,-2.8146660560597425,-2.1568201012319257,-1.0954546263967784
1770448307056,125,-3,-2.811866926990932,-1.952992542438708,-1.101452219447677
1770448307060,125,-3,-2.922565230897148,-2.078341591805429,-1.2177830805434895
1770448307064,125,-3,-3.0130188812239456,-2.2658094557804875,-1.3143758618564627
1770448307068,125,-3,-2.953330774885665,-2.10186187972697,-1.266148839484453
1770448307072,125,-3,-2.7135756600890573,-2.2280241052226786,-1.045132470598234
1770448307076,125,-3,-2.392049684035042,-1.8238837308439133,-0.7461707626072198
1770448307080,126,-2,-2.0946119305900446,-1.232736551808927,-0.4676561966222012
1770448307084,126,-2,-1.6717103285233244,-1.0886955929132405,-0.0535721000873787
1770448307088,128,0,-0.46612411948988,0.7224818653740226,1.153671406216615
1770448307092,131,3,2.677026199713807,3.924365022576223,4.30232975538247
1770448307096,136,8,8.95975635093691,9.047011030412069,10.58489288025086
1770448307100,146,18,18.84365179164497,18.89884618035083,20.456147143169584
1770448307104,159,31,31.36483918918541,31.820540823912836,32.95175767295461
1770448307108,172,44,44.07946269380329,44.78917687447327,45.634236718735515
1770448307112,182,54,53.842617556107655,54.86398698475056,55.36900452077403
1770448307116,186,58,58.08507076386599,59.05714557112296,59.595413841627774
1770448307120,184,56,55.90163863267905,56.86671576844522,57.40990424427895
1770448307124,176,48,48.35081903181204,48.842334920631274,49.86500767124684
1770448307128,165,37,37.825769398655176,37.75066981999024,39.34452687167182
1770448307132,154,26,26.9015007592849,26.94943716517649,28.41595634368558
1770448307136,145,17,17.342065609233643,17.972673965280016,18.84078838953136
1770448307140,138,10,9.769615588245756,11.001831932617623,11.244285594569508
1770448307144,132,4,3.9951697543362457,4.709465714843816,5.4447355180316475
1770448307148,127,-1,-0.4064621756235791,-0.1246566443009524,1.0243663952783082
1770448307152,124,-4,-3.7193203087919464,-3.1719498312292336,-2.298047034754795
1770448307156,121,-7,-6.050422151307481,-5.934988215992037,-4.633033599550541
1770448307160,120,-8,-7.482368802531726,-7.050185910349065,-6.069963305003338
1770448307164,120,-8,-8.191248591506548,-7.250246036104549,-6.789585818374792
1770448307168,119,-9,-8.434971953661863,-8.153404925921997,-7.049167843826204
1770448307172,119,-9,-8.466692252670649,-8.177227158109966,-7.097409279097126
1770448307176,119,-9,-8.463446974265668,-7.913146418393017,-7.1074823440953745
1770448307180,119,-9,-8.50265715332033,-8.091393137734581,-7.156478665538609
1770448307184,119,-9,-8.57338466658519,-8.161233700532168,-7.235976036079963
1770448307188,119,-9,-8.61018840700309,-8.27430776512526,-7.283208454138595
1770448307192,119,-9,-8.5435514244627,-8.054236328982103,-7.229404719594157
1770448307196,119,-9,-8.350696931248576,-8.044994445379697,-7.050350951627864
1770448307200,119,-9,-8.079261308000696,-7.953931605203209,-6.791602015503967
1770448307204,120,-8,-7.819830179348584,-7.266766282631138,-6.54307285516651
1770448307208,120,-8,-7.633796127944724,-7.1885652572549095,-6.367409124039789
1770448307212,120,-8,-7.49103875555059,-7.145526472044829,-6.235986190004997
1770448307216,120,-8,-7.284777585450331,-6.963197074433635,-6.041880422122493
1770448307220,120,-8,-6.927470573346877,-7.02564091819761,-5.696094692016195
1770448307224,121,-7,-6.440602663620808,-6.177270264607575,-5.219523155402816
1770448307228,122,-6,-5.939614510074736,-5.273023587647736,-4.728915771166797
1770448307232,122,-6,-5.520192159417103,-5.086474054077131,-4.321374443374346
1770448307236,122,-6,-5.167878568251688,-5.01305198958068,-3.981710462526829
1770448307240,122,-6,-4.793619322970155,-4.985771317312627,-3.6186889225643744
1770448307244,123,-5,-4.350191883091206,-4.194837258466881,-3.1844393080804574
1770448307248,124,-4,-3.8871007808169127,-3.254994723779057,-2.730417798048027
1770448307252,124,-4,-3.481130534812456,-3.108639269645977,-2.3353969869993736
1770448307256,124,-4,-3.135852837411244,-3.0038075995676294,-2.002268883874482
1770448307260,124,-4,-2.775575802077719,-2.9767572410680243,-1.6529689684654818
1770448307264,125,-3,-2.333233769110543,-2.2329428971511964,-1.2196268607543683
1770448307268,126,-2,-1.8193075539238528,-1.1602428559709,-0.7144335565547479
1770448307272,126,-2,-1.2990386012523698,-1.2535953020253383,-0.2043655988250858
1770448307276,126,-2,-0.8240560739421865,-0.8232904690088308,0.2593921450479339
1770448307280,127,-1,-0.4005966152940836,-0.1807969632077093,0.6723268450990671
1770448307284,127,-1,-0.00877936493618,-0.0410704078934951,1.055092133856912
1770448307288,128,0,0.3709185676509425,0.6985320373829016,1.4264752732080417
1770448307292,128,0,0.7532429298627337,0.8393154862530328,1.8002118474861286
1770448307296,128,0,1.1540008735423155,1.1317426555726566,2.191866508406349
1770448307300,129,1,1.5853397559220055,1.8140812937103252,2.6139382819108565
1770448307304,129,1,2.0409528693949146,1.987093818138359,3.0604275048491107
1770448307308,130,2,2.48753097364096,2.681239874366374,3.4980839564981343
1770448307312,130,2,2.8740488703929237,2.8457678521285743,3.8758550335788735
1770448307316,130,2,3.1572942621997533,3.1510850677266307,4.150569319244486
1770448307320,131,3,3.3302578521252584,3.738122681440484,4.315434276678917
1770448307324,130,2,3.4331153261280676,3.123541244743158,4.410914905846994
1770448307328,131,3,3.535508871629696,3.4856622328223184,4.506532691144503
1770448307332,131,3,3.702376292834273,4.125724084617989,4.6665211812796095
1770448307336,131,3,3.963943464128977,3.79123031186108,4.920558735732914
1770448307340,131,3,4.2959023891972326,4.147565928882727,5.244588798853095
1770448307344,132,4,4.613306249304778,4.685707650547636,5.554241410829931
1770448307348,132,4,4.793192449933647,4.929655017207391,5.7267990162917926
1770448307352,132,4,4.7257205508377425,4.718302249550679,5.652497439627212
1770448307356,131,3,4.361209655812539,4.146606316410212,5.281811512569392
1770448307360,131,3,3.722373684549488,3.832501492457737,4.637392530376289
1770448307364,130,2,2.883355785918804,2.950423659400871,3.7930051200589854
1770448307368,129,1,1.934062388132576,1.7208901394613954,2.83829200120347
1770448307372,128,0,0.9455311501411154,0.8974950474579024,1.8442889708509216
1770448307376,127,-1,-0.048371904763768,-0.0007915108757767,0.8448133889033156
1770448307380,126,-2,-1.0437973415534154,-1.066395691518662,-0.1563590790216711
1770448307384,125,-3,-2.0461463158522215,-2.1184569099443467,-1.1643552101759624
1770448307388,124,-4,-3.056838625883512,-3.2212191831953474,-2.180082125197522
1770448307392,123,-5,-4.070226493022538,-4.145626280701337,-3.1977398535488115
1770448307396,122,-6,-5.066854869100952,-4.954470890436108,-4.198218566841487
1770448307400,121,-7,-6.00205197684487,-6.145045758798343,-5.137141566895822
1770448307404,120,-8,-6.808148621393502,-7.008421792457872,-5.946762511392052
1770448307408,120,-8,-7.419999968745723,-7.352011963839535,-6.561849659916116
1770448307412,119,-9,-7.807760727605157,-7.981820786861451,-6.952830834131572
1770448307416,119,-9,-7.992917943995589,-8.140152094311556,-7.141600287535608
1770448307420,119,-9,-8.038378930281008,-7.959743064063027,-7.191028115847119
1770448307424,119,-9,-8.021430484651074,-8.19051060601586,-7.1776518544864185
1770448307428,119,-9,-8.005641580428588,-8.180898084476823,-7.164145534400332
1770448307432,119,-9,-8.020832781629906,-8.110555877711562,-7.1803490816161
1770448307436,119,-9,-8.051423799072406,-8.06911928952777,-7.211824043051794
1770448307440,119,-9,-8.040385380455074,-7.975897809624801,-7.20254465896227
1770448307444,119,-9,-7.923908296997809,-8.238429730581931,-7.088374001894477
1770448307448,119,-9,-7.686517694476394,-8.066525921576861,-6.85280024104318
1770448307452,120,-8,-7.3851654212438,-7.264769879120761,-6.552519556870295
1770448307456,120,-8,-7.103695799390145,-6.889080464136215,-6.271909922605884
1770448307460,120,-8,-6.876017023294329,-7.173335408019973,-6.044926895035302
1770448307464,120,-8,-6.659798888629961,-7.048080537415779,-5.828628689097377
1770448307468,121,-7,-6.385716024967965,-6.233864346531149,-5.553618580116258
1770448307472,121,-7,-6.026330496608042,-6.122537585587152,-5.193344209701692
1770448307476,121,-7,-5.623265220019434,-5.992491710495764,-4.790271221611851
1770448307480,122,-6,-5.262142850119973,-5.111788391307493,-4.4299058081658815
1770448307484,122,-6,-5.022079861572131,-5.075934628971822,-4.190319950686257
1770448307488,122,-6,-4.934065645229947,-5.246621591875144,-4.101285963102972
1770448307492,122,-6,-4.969057978865469,-5.059841174416748,-4.1334744296174355
1770448307496,122,-6,-5.050831371026703,-5.096678186560109,-4.211775885181247
1770448307500,122,-6,-5.079884242532424,-4.9763334119172,-4.2381515365641835
1770448307504,122,-6,-4.970694429024979,-5.232111095936587,-4.127382881476386
1770448307508,122,-6,-4.702231431164638,-5.089779256791165,-3.857596200924406
1770448307512,123,-5,-4.347186819413991,-4.192772550038943,-3.5007513298274024
1770448307516,123,-5,-4.0390756227138205,-3.9923307387640454,-3.190225440471681
1770448307520,123,-5,-3.8919900661285975,-4.0504211319756225,-3.040005353536265
1770448307524,123,-5,-3.938012608024101,-4.186098632356868,-3.082058414868174
1770448307528,123,-5,-4.124828876673137,-4.131654537665331,-3.26448660372957
1770448307532,123,-5,-4.359937342089378,-4.137856945741016,-3.4954201430023057
1770448307536,122,-6,-4.565981843784121,-5.064945953589858,-3.697500179320086
1770448307540,122,-6,-4.716053936906368,-4.943844014117113,-3.8434212251829423
1770448307544,123,-5,-4.823400167051141,-4.332507097837699,-3.9464122171187377
1770448307548,122,-6,-4.892440759362625,-4.958202077928696,-4.010914734956396
1770448307552,122,-6,-4.886570684602432,-5.327794745414811,-3.999853718904337
1770448307556,122,-6,-4.754055289926127,-4.858827534897099,-3.861359244856389
1770448307560,123,-5,-4.479035361641444,-4.152814322297771,-3.580416973703353
1770448307564,123,-5,-4.1006670192457335,-4.141449000859472,-3.196790808424505
1770448307568,123,-5,-3.695471219499345,-4.117300109108859,-2.786278597297045
1770448307572,124,-4,-3.3494039536332263,-3.2086048213767895,-2.4338990357997554
1770448307576,124,-4,-3.126347188982936,-2.9308821132314447,-2.203845738854305
1770448307580,124,-4,-3.0376985251433597,-3.131211293546754,-2.108466105699791
1770448307584,124,-4,-3.0411791689356353,-3.1204428631987553,-2.105552389215757
1770448307588,124,-4,-3.080776447962289,-3.1717785102727354,-2.138248179464779
1770448307592,124,-4,-3.1283117268440743,-3.131627446711602,-2.1778775287859253
1770448307596,124,-4,-3.1782188343785003,-3.0204968146584847,-2.2193529026862624
1770448307600,124,-4,-3.203259679951977,-3.0245788731147796,-2.236177338386529
1770448307604,124,-4,-3.131554730583479,-3.250365245903833,-2.1565998391870975
1770448307608,124,-4,-2.88588686522427,-3.012837070144847,-1.903054384225063
1770448307612,125,-3,-2.4529887687362497,-2.3314247461895565,-1.4621025152166356
1770448307616,125,-3,-1.910324545029547,-1.7737688559538012,-0.9112268820694698
1770448307620,126,-2,-1.3784914500358867,-1.303586294685893,-0.3707896035452929
1770448307624,126,-2,-0.9382302170159668,-0.9501410550415732,0.0788203622023773
1770448307628,127,-1,-0.5778750224708937,-0.3274261767899102,0.4492062909186347
1770448307632,127,-1,-0.2102541389607153,-0.0315086751622287,0.8271269634217029
1770448307636,127,-1,0.2502334043337368,-0.0395414289368676,1.2978507665714372
1770448307640,128,0,0.8058397181114421,0.9289243536748136,1.86336725239125
1770448307644,129,1,1.3568984387645622,1.859156081615559,2.4238253881664016
1770448307648,129,1,1.7623234698566348,1.8198218622740832,2.8385405937608663
1770448307652,129,1,1.9217398115274784,1.8402114447018283,3.0080511510617676
1770448307656,129,1,1.814334324161912,2.092126532250683,2.911858911333031
1770448307660,129,1,1.4857035475764624,1.7716850319248365,2.594820120376192
1770448307664,128,0,1.0118778509446984,1.0645107696036693,2.132231287871847
1770448307668,128,0,0.4652933726904806,0.5562390695105646,1.5967011142731533
1770448307672,127,-1,-0.1002176523368643,0.1544660313875218,1.042636017559185
1770448307676,127,-1,-0.6364264548003882,-0.2604113796548992,0.5184337849909533
1770448307680,126,-2,-1.0789696233467123,-0.853771184272232,0.0882517693642586
1770448307684,126,-2,-1.355464821868692,-1.296725047585383,-0.175783319605199
1770448307688,126,-2,-1.4329995812970449,-1.1303994659584005,-0.2411042774502372
1770448307692,126,-2,-1.3647316944407242,-1.0876559790031726,-0.1612624115700094
1770448307696,126,-2,-1.2861813216650284,-1.1149842082227783,-0.0717216411804815
1770448307700,126,-2,-1.3524039329192177,-0.8826745905270097,-0.1266713513674733
1770448307704,126,-2,-1.6538181306898654,-1.3754929769147457,-0.4153211079326482
1770448307708,125,-3,-2.163263160889466,-1.976659697955153,-0.9100787910017464
1770448307712,125,-3,-2.7448982340599213,-2.2923358081266056,-1.476171511879477
1770448307716,124,-4,-3.2188867552028437,-2.9010460436587673,-1.9356223220720703
1770448307720,124,-4,-3.451233387947073,-3.05764792955549,-2.1553871557964537
1770448307724,124,-4,-3.4279772032242017,-3.2536061810161687,-2.120715741068593
1770448307728,124,-4,-3.268570879620573,-3.038423326545749,-1.949478702685543
1770448307732,125,-3,-3.1532174703948534,-2.303961484949469,-1.820862291089652
1770448307736,124,-4,-3.200788011384444,-2.822722386296092,-1.8535838714493769
1770448307740,124,-4,-3.3896654926985805,-3.1879632789414503,-2.026502103665752
1770448307744,124,-4,-3.587438554060584,-3.074788969918198,-2.208375390614748
1770448307748,124,-4,-3.6609969715407766,-3.2698988476468345,-2.2675454949505425
1770448307752,124,-4,-3.576651310805274,-3.0391916143039417,-2.170698545620649
1770448307756,124,-4,-3.420103570363611,-3.101526414985647,-2.0021060816574563
1770448307760,124,-4,-3.326166138416461,-2.8897988086447706,-1.8944695703722647
1770448307764,125,-3,-3.3646617830670413,-2.387843313847509,-1.9164805376742673
1770448307768,124,-4,-3.468917298447443,-2.958073191167124,-2.0019013747978223
1770448307772,124,-4,-3.4813963167256516,-3.3635189835017627,-1.995210547319977
1770448307776,124,-4,-3.2967132814166566,-2.762480623604237,-1.794473143906365
1770448307780,125,-3,-2.976148729176516,-2.2169215501422657,-1.4639713579123022
1770448307784,125,-3,-2.7125246982126745,-2.090328879809338,-1.1954056188310531
1770448307788,125,-3,-2.640111131585123,-2.2052534819264675,-1.1164989972474877
1770448307792,125,-3,-2.5878323088772746,-2.2044120529561995,-1.0485778027612112
1770448307796,126,-2,-1.905650523746192,-0.8302868169567876,-0.3395854244742957
1770448307800,129,1,0.4979293273298082,1.7781165541630206,2.0962605818268645
1770448307804,133,5,5.790908332356057,5.987067076534871,7.417532900480477
1770448307808,142,14,14.562118802607706,14.690207805000334,16.20577486423255
1770448307812,154,26,26.180327655866257,26.895314284461797,27.82836703090127
1770448307816,166,38,38.61695951656588,39.112142841828806,40.262058700844435
1770448307820,177,49,48.99052901774194,49.77084446288861,50.634895724183096
1770448307824,183,55,54.66012827093682,56.06875080881845,56.31434708887964
1770448307828,183,55,54.325383243695704,55.45891424869749,56.00241201702659
1770448307832,176,48,48.53185338729055,49.19089227145966,50.24029124411233
1770448307836,167,39,39.298631233346256,39.731435533802696,41.03919880255677
1770448307840,156,28,29.107132589248582,29.236712767189495,30.8733112357948
1770448307844,148,20,19.86596450701863,20.608732123395917,21.647595909688366
1770448307848,141,13,12.415719910100282,13.939427435236407,14.204022078312942
1770448307852,135,7,6.7067096634873,7.723800502886643,8.49879014059372
1770448307856,130,2,2.329582098241521,3.165416469346747,4.129762504578906
1770448307860,127,-1,-1.0480925520102875,-0.1481863670622252,0.7683999763485001
1770448307864,124,-4,-3.5627628401755507,-3.0641504241984396,-1.7236492669676733
1770448307868,123,-5,-5.271347802795833,-4.327843257933718,-3.408966825140883
1770448307872,122,-6,-6.289383473281397,-5.07267215665961,-4.407779599573378
1770448307876,121,-7,-6.816184545680125,-5.990019536404741,-4.9199006886114205
1770448307880,121,-7,-7.062765460187698,-6.037755151903283,-5.153457920818318
1770448307884,121,-7,-7.173088312632898,-6.129612176209378,-5.24945718481905
1770448307888,121,-7,-7.201731920962338,-6.318704474116991,-5.261661377001466
1770448307892,121,-7,-7.149029753772892,-6.030502388943848,-5.191275286629567
1770448307896,121,-7,-7.014886530012277,-6.082367064393774,-5.039290484981837
1770448307900,121,-7,-6.8263975922461935,-5.906336304544305,-4.833575965747748
1770448307904,122,-6,-6.618656613312222,-5.280800728249383,-4.609821151982694
1770448307908,122,-6,-6.393218846143043,-5.166928838736684,-4.369510213554344
1770448307912,122,-6,-6.108918796804602,-5.17953882848781,-4.07017166739697
1770448307916,122,-6,-5.7284668512347565,-4.9403883869872836,-3.673030755678287
1770448307920,123,-5,-5.2698842524233,-4.047539754093329,-3.1963939634206953
1770448307924,124,-4,-4.793597649329021,-3.1303538784741,-2.7026786425504152
1770448307928,124,-4,-4.337826305784649,-3.329603886500808,-2.231392392670219
1770448307932,124,-4,-3.889416773755216,-3.0063302116066826,-1.7684973570060856
1770448307936,125,-3,-3.431078709195852,-2.1311593324390667,-1.294967853622144
1770448307940,125,-3,-3.000367585143522,-1.8536473369074689,-0.8477515963520141
1770448307944,126,-2,-2.6771898844695654,-1.3180343683033748,-0.507509728106692
1770448307948,126,-2,-2.503415873653332,-1.1378057751625552,-0.3170953131180316
1770448307952,126,-2,-2.418189522849712,-1.203353271889952,-0.2159276822944349
1770448307956,126,-2,-2.281782912698455,-0.953181594200007,-0.063824588416631
1770448307960,126,-2,-1.977046071142608,-1.0103234560990844,0.2568295917407461
1770448307964,127,-1,-1.4999541491834427,-0.1948662984630288,0.7498502781110818
1770448307968,128,0,-0.9547649585005528,0.8134175502545906,1.3103850015240452
1770448307972,128,0,-0.4595302909423127,0.7563383663425614,1.8204166827135095
1770448307976,128,0,-0.0537236372178404,1.1626553332589922,2.241331560168112
1770448307980,129,1,0.3125984668040942,1.7871914294853422,2.623708794732015
1770448307984,129,1,0.7156301948503676,2.075221171241679,3.0433771886329204
1770448307988,130,2,1.1870672026701696,2.5184576239142973,3.5310705299094045
1770448307992,130,2,1.691062121461501,3.060442606273313,4.050178693654406
1770448307996,131,3,2.157645478229308,3.859084013098218,4.530709409493561
1770448308000,131,3,2.536749318172747,4.045274549523386,4.923531558891391
1770448308004,131,3,2.8238263886469146,3.883924982437323,5.225380128890707
1770448308008,132,4,3.0450536405813775,4.63768599458497,5.462707585407351
1770448308012,132,4,3.2364316865243734,5.035356784118858,5.67036897417512
1770448308016,132,4,3.441912199060732,4.771380020784685,5.891066363577433
1770448308020,132,4,3.711063146163045,5.220308578300589,6.174293674702148
1770448308024,133,5,4.07414888776508,5.6469570703164464,6.55107990115787
1770448308028,133,5,4.513847875272761,5.911093744803671,7.004654232241476
1770448308032,134,6,4.969129099794328,6.770758318294186,7.474069928827224
1770448308036,134,6,5.373939549697929,6.988690395637846,7.893317828061424
1770448308040,134,6,5.696642460492781,7.049014767504684,8.23079881808882
1770448308044,135,7,5.948103628244999,7.764008164551591,8.49700351593829
1770448308048,135,7,6.156012275570356,7.8504994050421555,8.718991245664398
1770448308052,135,7,6.323990070782842,7.791646672306216,8.900258056560642
1770448308056,135,7,6.400788594525466,7.990320965859854,8.990052081065196
1770448308060,135,7,6.287709184099768,8.021927013604019,8.890066517860136
1770448308064,135,7,5.893228106145856,7.795486766694258,8.5087729386446
1770448308068,134,6,5.197674932943928,6.8353242274944055,7.826568567680763
1770448308072,133,5,4.270308262110876,5.788966902845427,6.912918757090345
1770448308076,132,4,3.224606306683641,5.003079692595155,5.88105233721117
1770448308080,131,3,2.156089130430139,3.9848873141464423,4.825773105017204
1770448308084,130,2,1.1107438354040182,2.8485595557098717,3.792789403786616
1770448308088,129,1,0.0910503760812362,1.7887486176633027,2.7851314399488127
1770448308092,128,0,-0.9193965426437164,0.8339289894742103,1.7869239871816878
1770448308096,127,-1,-1.9280194776399924,-0.0551375252036138,0.7905320416085555
1770448308100,126,-2,-2.915049503174286,-0.9595803001180276,-0.1846139717332429
1770448308104,125,-3,-3.840991619117309,-2.2086502708946223,-1.0986401775136891
1770448308108,124,-4,-4.6764480298381645,-3.136872314673276,-1.9216247907142403
1770448308112,124,-4,-5.418293269864193,-3.2500541068160618,-2.6509058284146865
1770448308116,123,-5,-6.0661546231674945,-3.9798884899931934,-3.287135685987673
1770448308120,122,-6,-6.5905381430504395,-5.034728240299216,-3.8008875218950338
1770448308124,122,-6,-6.94458938711254,-5.14229936278023,-4.14428308625776
1770448308128,122,-6,-7.112592045829286,-5.174188884120819,-4.300971786878405
1770448308132,122,-6,-7.133339859398481,-5.25031200909174,-4.310273754777093
1770448308136,122,-6,-7.066685871279654,-4.945820122652193,-4.23280025831388
1770448308140,122,-6,-6.9421549122527,-5.108296385394745,-4.0980147340414455
1770448308144,122,-6,-6.746207285369172,-5.048505466523553,-3.891743623915998
1770448308148,123,-5,-6.456669282311954,-4.265862877669447,-3.5915128137524097
1770448308152,123,-5,-6.085316341006682,-4.177669219560025,-3.209417541666057
1770448308156,123,-5,-5.6905482358559185,-3.993015174167196,-2.8044713838150805
1770448308160,124,-4,-5.352613028827618,-3.0979365890222224,-2.457433624922465
1770448308164,124,-4,-5.13121925855316,-3.029759232795416,-2.2278548087128707
1770448308168,124,-4,-5.039342928669325,-3.3096924355046475,-2.1275389724993263
1770448308172,124,-4,-5.052237357799375,-3.1169083137482665,-2.130499669735524
1770448308176,124,-4,-5.12953116636439,-3.0632142944214102,-2.196675842948157
1770448308180,124,-4,-5.216006794023954,-3.045074411467401,-2.272718126625034
1770448308184,124,-4,-5.231887752844457,-3.047770096907523,-2.2802414775791835
1770448308188,124,-4,-5.099584105526139,-3.3345630626827916,-2.141038204117636
1770448308192,124,-4,-4.811403368335958,-3.048883695620452,-1.8457655483485391
1770448308196,125,-3,-4.467655500140374,-2.174611866061559,-1.4940620468096129
1770448308200,125,-3,-4.219287105931343,-1.914105248617962,-1.2374777616987471
1770448308204,125,-3,-4.149796239507178,-2.174213588425794,-1.1600238933972904
1770448308208,125,-3,-4.2065212418738245,-2.2307962931415717,-1.2087891963608337
1770448308212,125,-3,-4.245538612488619,-2.1251016160203893,-1.2395976731032503
1770448308216,125,-3,-4.145527426319093,-2.1524315778536938,-1.1315605596713114
1770448308220,125,-3,-3.892795630479178,-1.8800643087776057,-0.8717573334033177
1770448308224,126,-2,-3.577044919232946,-1.244293758030237,-0.5501807289435277
1770448308228,126,-2,-3.3155992109452272,-1.1320482723186562,-0.2835309952790741
1770448308232,126,-2,-3.1761760675339654,-1.2509703833412744,-0.1384260517378852
1770448308236,126,-2,-3.1543203040575487,-1.0379733189168934,-0.1098856623641626
1770448308240,126,-2,-3.2021588856640806,-0.9755310723851128,-0.1505853504253913
1770448308244,126,-2,-3.2674192376002993,-1.162405287095157,-0.2091741604785879
1770448308248,126,-2,-3.3146616314698467,-1.192255968411685,-0.2506107825092272
1770448308252,126,-2,-3.327703935331369,-1.2120375870160514,-0.2585950624933293
1770448308256,126,-2,-3.3020116256792043,-1.0961474601112415,-0.2283645802871554
1770448308260,126,-2,-3.2379690749024226,-0.8855092496937897,-0.1599038195542763
1770448308264,126,-2,-3.1458987372525726,-1.2816021043196657,-0.0629700636854115
1770448308268,126,-2,-3.0570249964039444,-1.035561853941246,0.0311791911472456
1770448308272,127,-1,-3.0148793293144855,-0.4068794818406169,0.0780120408500111
1770448308276,126,-2,-3.040595726462688,-0.9069373976040616,0.0556816859184763
1770448308280,126,-2,-3.109859798377146,-1.0524554726953654,-0.010621030296587
1770448308284,126,-2,-3.174498543880105,-1.1396393291531297,-0.0712552853498038
1770448308288,126,-2,-3.199582194949148,-1.136661403400567,-0.0913901878461436
1770448308292,127,-1,-3.1630888168686164,-0.370809141851504,-0.0506332681584322
1770448308296,126,-2,-3.027602004386921,-0.883519731917673,0.0876180454666069
1770448308300,126,-2,-2.7477723555214935,-1.143095058772017,0.3696757431017994
1770448308304,127,-1,-2.326474578471738,0.0277391855605545,0.7934889020340252
1770448308308,128,0,-1.8463885866825456,0.62870440873699,1.2756799285160318
1770448308312,128,0,-1.422276707435212,0.8936677023818569,1.7008566569972072
1770448308316,128,0,-1.1202854784322616,0.8498163285799598,2.003999287157
1770448308320,128,0,-0.9227224708469772,1.0858810383716424,2.204346498462
1770448308324,129,1,-0.7494075554331858,1.860805125715524,2.3816888598811543
1770448308328,129,1,-0.4984733221629656,1.7138453982589543,2.63579950258798
1770448308332,129,1,-0.0925976763615883,1.8910502097519144,3.0425287819624818
1770448308336,130,2,0.4662228676951878,2.776252522026819,3.6003336697405053
1770448308340,130,2,1.0617048656887176,3.215932674782266,4.194538716198782
1770448308344,131,3,1.4947496489633418,3.682985769507555,4.627310885366867
1770448308348,131,3,1.586197565328039,3.921137485007371,4.719563317263627
1770448308352,131,3,1.2906964495889173,3.670014626220169,4.42515679188648
1770448308356,130,2,0.7353042199040025,2.9784909916911477,3.870555038839366
1770448308360,129,1,0.1415016408818119,2.0463847734980343,3.2772568371379567
1770448308364,129,1,-0.3158676666462834,1.7905090436096915,2.820012009892115
1770448308368,129,1,-0.5989299695138216,1.896671165715977,2.536051797376401
1770448308372,129,1,-0.7813645096769306,1.6130782086726034,2.351430868968877
1770448308376,128,0,-0.9553063905627072,1.1083245393198924,2.17493486126228
1770448308380,128,0,-1.1667853763911389,0.8488004120404726,1.961678998624609
1770448308384,128,0,-1.4167441814537922,1.011531612456436,1.7106777644075783
1770448308388,128,0,-1.693132471791878,0.6778687049974637,1.4330802475763265
1770448308392,127,-1,-1.9940737675299551,-0.1843917068747792,1.1302966156271763
1770448308396,127,-1,-2.328164361356645,-0.0596434986965788,0.7938604867658698
1770448308400,127,-1,-2.691803259880897,-0.0402870076509023,0.4275149331550445
1770448308404,126,-2,-3.042944335653118,-1.0613561198144803,0.0735317310052032
1770448308408,126,-2,-3.308364963592158,-1.2868095477088903,-0.1944873580452548
1770448308412,126,-2,-3.4307594939537673,-1.1660834693323798,-0.3194226831014057
1770448308416,126,-2,-3.409928267104487,-1.1408117854722188,-0.3019662773988423
1770448308420,126,-2,-3.298757048156398,-0.9033556970006836,-0.1953593001099614
1770448308424,126,-2,-3.168896916759059,-1.267381719759914,-0.0703422502190191
1770448308428,126,-2,-3.0795022765673843,-1.02317631840577,0.0149291607564656
1770448308432,127,-1,-3.0546213956738653,-0.4648022945731418,0.0362543480261925
1770448308436,126,-2,-3.068069844744285,-0.8350060562853865,0.019163008844057
1770448308440,126,-2,-3.0576151521614108,-1.20159335814017,0.0257544881036244
1770448308444,126,-2,-2.9753243130306113,-1.0117773893617772,0.1037123908393489
1770448308448,127,-1,-2.828135328571961,-0.2230406315370222,0.245053180170397
1770448308452,127,-1,-2.664453450725532,-0.3274878210109877,0.4010308873522399
1770448308456,126,-2,-2.5305481752233603,-0.9020686422260488,0.5273649454609861
1770448308460,127,-1,-2.4470521160813377,-0.2103572375951605,0.6062490993167071
1770448308464,127,-1,-2.4079420109003973,0.0407884742557175,0.6440982791968073
1770448308468,127,-1,-2.3795865330030477,-0.3134219479183274,0.6713831008051221
1770448308472,127,-1,-2.3119365051953147,-0.2057621025534832,0.7335416940222148
1770448308476,127,-1,-2.181537765601373,-0.0295642640712465,0.8514159206246898
1770448308480,127,-1,-2.028015433938378,-0.1060704212367994,0.9873809900443068
1770448308484,127,-1,-1.898157144876772,-0.0578555725404211,1.1011430609441126
1770448308488,128,0,-1.6542471056024022,0.7790277446908771,1.3377570526685276
1770448308492,129,1,-0.7365426599404077,1.7108766708616376,2.2598473182575254
1770448308496,131,3,1.8958819769501192,4.0679236076767245,4.903573030168987
1770448308500,137,9,7.430855026651454,9.762557277304785,10.446137647759084
1770448308504,145,17,16.487209844720493,18.102092945623575,19.496267641182747
1770448308508,157,29,28.362540744128125,29.60491678679125,31.348853885983452
1770448308512,170,42,40.77827763864449,42.91726227386344,43.7324129844382
1770448308516,180,52,50.48479517613581,52.854645555103595,53.410156412108535
1770448308520,184,56,54.58133565440035,56.90724504041982,57.49205468821083
1770448308524,182,54,51.879294697360805,54.95609731398761,54.79188045710806
1770448308528,173,45,43.49492346864661,45.67454336277794,46.41946604552799
1770448308532,160,32,32.26563484407178,32.89041826496746,35.20148087684457
1770448308536,150,22,21.322724449679257,22.88842644905749,24.259502489896075
1770448308540,142,14,12.705462963647491,14.90078572441982,15.628272677148129
1770448308544,136,8,6.81900528514319,8.988746735048771,9.716090949086782
1770448308548,133,5,2.8866169343261747,5.656756374902345,5.755864994540876
1770448308552,129,1,-0.1188874026715636,1.8959968808648624,2.7307205205882212
1770448308556,126,-2,-2.7605804085083605,-1.1376836836675783,0.0817171997465853
1770448308560,124,-4,-5.006791067199343,-3.0929421026433186,-2.1637920654191003
1770448308564,122,-6,-6.565477374200636,-5.013215737186655,-3.722474019066566
1770448308568,122,-6,-7.294579272864432,-5.334450409561649,-4.458763889032754
1770448308572,122,-6,-7.368998199222674,-5.089500505551446,-4.548048047853872
1770448308576,122,-6,-7.153698156992044,-5.195470830449752,-4.350895347004341
1770448308580,122,-6,-6.961718438536002,-5.029790321465645,-4.175180194748136
1770448308584,122,-6,-6.910659365308004,-5.092115641132066,-4.136111319371884
1770448308588,122,-6,-6.954521703650201,-5.249515131808208,-4.188762270878995
1770448308592,122,-6,-7.009739044304828,-5.156015753499815,-4.252346435780894
1770448308596,122,-6,-7.043496435351034,-5.15413419141413,-4.296380650691099
1770448308600,122,-6,-7.062242544478055,-5.084070961954452,-4.328056226912091
1770448308604,122,-6,-7.046948468954028,-5.022320341378297,-4.327415079513234
1770448308608,122,-6,-6.9287230830871955,-5.342668851799918,-4.223685337135642
1770448308612,122,-6,-6.643384463685233,-5.022274459606824,-3.951246137790344
1770448308616,123,-5,-6.205827807595516,-4.3298029951659505,-3.5252406119632944
1770448308620,123,-5,-5.713990323245912,-3.9082954047176472,-3.045305366428547
1770448308624,124,-4,-5.2679604463205205,-3.1872075273464766,-2.612879710813929
1770448308628,124,-4,-4.887426775201174,-3.199364732359481,-2.2471404343104533
1770448308632,124,-4,-4.514998194567907,-3.126655645432049,-1.8889350153664577
1770448308636,125,-3,-4.096047176830988,-2.2871875389594916,-1.4827600107396286
1770448308640,125,-3,-3.64103938496067,-1.9122086359859736,-1.040123661678905
1770448308644,126,-2,-3.204756571992187,-1.224940720031875,-0.6174033028533459
1770448308648,126,-2,-2.819637436447504,-1.107647792585278,-0.247294855211535
1770448308652,126,-2,-2.467707322543185,-1.2598799715764892,0.0892404006558789
1770448308656,127,-1,-2.115912230613393,-0.1554290716510566,0.4261433169686872
1770448308660,127,-1,-1.761040594045093,-0.0447034371277187,0.7666512104848633
1770448308664,127,-1,-1.4297166597478734,-0.1181920813522217,1.083902312705202
1770448308668,128,0,-1.1371388292287852,0.852565600918757,1.362564508334295
1770448308672,128,0,-0.8485762775738671,0.7116211106321508,1.6370062825842702
1770448308676,128,0,-0.4839134375518621,0.89692101970599,1.9867201571288415
1770448308680,129,1,0.0276850961882252,1.8746912443645072,2.4823154275614456
1770448308684,129,1,0.679092923053271,1.974316389796644,3.117338430875825
1770448308688,130,2,1.3611407163143916,2.7776500244420954,3.7836422031838985
1770448308692,131,3,1.9184684431052,3.778567716455413,4.326079218132431
1770448308696,131,3,2.257261532531026,3.79535574505871,4.650006476020206
1770448308700,131,3,2.418054708056882,3.9867960688937303,4.795200628616975
1770448308704,131,3,2.5395586935218715,3.853551721954843,4.900595237879896
1770448308708,131,3,2.7366235569334805,3.912934305116457,5.081710373456808
1770448308712,132,4,3.0063592837912316,4.649450743153197,5.3356813767129365
1770448308716,132,4,3.255282663247063,4.880428355897416,5.568415076929703
1770448308720,132,4,3.417958293493924,4.934430416154862,5.71431073367507
1770448308724,132,4,3.543000720264049,4.864568910895961,5.822741429520712
1770448308728,132,4,3.758597098903559,4.9571316594930295,6.022632190055354
1770448308732,133,5,4.154026047479514,5.544312681676741,6.4028334434483485
1770448308736,133,5,4.691953803763905,6.025990787074004,6.924640315186641
1770448308740,134,6,5.226521557775625,6.740084760752192,7.441388549668465
1770448308744,134,6,5.59821417787731,7.098162697741545,7.794447870364186
1770448308748,134,6,5.715958546622899,6.708763448513474,7.894574394675256
1770448308752,134,6,5.571249672475974,6.769031979301242,7.734012154337831
1770448308756,134,6,5.205244350005691,6.82487198096079,7.352735611426102
1770448308760,133,5,4.675757918373348,5.884449974588268,6.806924494297237
1770448308764,132,4,4.036914721523073,5.029339618749145,6.150403096509061
1770448308768,132,4,3.322121684883214,4.713043488889358,5.417518454693878
1770448308772,131,3,2.5366641136814874,3.803838636775644,4.614438341182817
1770448308776,130,2,1.671207628895323,2.740134117692185,3.731925414865848
1770448308780,129,1,0.7260338300102624,1.9950690733545735,2.7697460062832957
1770448308784,128,0,-0.2759252481143863,0.918544158184009,1.750281461244909
1770448308788,127,-1,-1.2978236589152226,-0.1893775377261866,0.7103687110330783
1770448308792,126,-2,-2.3110556420186317,-1.2781764406964338,-0.3208226131805798
1770448308796,125,-3,-3.307679245142256,-2.2332687155193045,-1.334878867347837
1770448308800,124,-4,-4.283980116946671,-2.9744369049667676,-2.3282514464241837
1770448308804,123,-5,-5.207015334860775,-4.160892264149735,-3.268547059371776
1770448308808,122,-6,-6.00348779712486,-5.061674950606512,-4.082805854082446
1770448308812,122,-6,-6.594024681069175,-5.4590892761591885,-4.691555774090457
1770448308816,121,-7,-6.948384504714721,-6.041081044961885,-5.064193822331814
1770448308820,121,-7,-7.111530040161865,-6.1679666330672545,-5.245365962615096
1770448308824,121,-7,-7.173127292014298,-5.96977049320834,-5.324718847188331
1770448308828,121,-7,-7.202467787021849,-6.22735812542972,-5.371810936344766
1770448308832,121,-7,-7.2040225366456285,-6.356061971948646,-5.391386995597823
1770448308836,121,-7,-7.132825117883815,-6.100801155579985,-5.338480994387677
1770448308840,121,-7,-6.954638096638163,-6.163322880088408,-5.178549335761819
1770448308844,121,-7,-6.6942894226817495,-5.916304365666811,-4.936132860679114
1770448308848,122,-6,-6.425013869801494,-5.3087222456264955,-4.684607637510698
1770448308852,122,-6,-6.205842182274511,-5.288578805300428,-4.4834525871491415
1770448308856,122,-6,-6.028148600463776,-5.167406159342748,-4.3241724811364275
1770448308860,122,-6,-5.830102451949891,-5.117856245932967,-4.144533171751572
1770448308864,122,-6,-5.570068573885841,-4.934931468102067,-3.9025570937120295
1770448308868,123,-5,-5.284858455424228,-4.295624515286576,-3.635345200572193
1770448308872,123,-5,-5.07033521010622,-4.32455861282131,-3.4393584343189323
1770448308876,123,-5,-5.000084495307193,-4.123433151923799,-3.3881978190212636
1770448308880,123,-5,-5.059629032939602,-4.189887205841951,-3.4665028399308326
1770448308884,122,-6,-5.156434414774418,-4.830818530515751,-3.580851532681998
1770448308888,123,-5,-5.189828757754711,-4.4229692836847025,-3.630954375383799
1770448308892,123,-5,-5.110566285742161,-4.192912113614201,-3.569134883000641
1770448308896,123,-5,-4.92517639107805,-4.268907000547047,-3.4029169641437367
1770448308900,123,-5,-4.667887497407641,-4.054056416956106,-3.165648287798023
1770448308904,123,-5,-4.383266877900136,-3.9351861068962104,-2.9001301881202166
1770448308908,124,-4,-4.121668750028069,-3.370776296503225,-2.656108855934538
1770448308912,124,-4,-3.922243870366363,-3.195122330643525,-2.4738085371668723
1770448308916,124,-4,-3.78542387812372,-3.3360169563617927,-2.3549681180585056
1770448308920,124,-4,-3.669326777364893,-2.9374042833141587,-2.257715295890117
1770448308924,124,-4,-3.528282357679175,-3.079219724213066,-2.135252518209996
1770448308928,124,-4,-3.361828467377533,-3.228489552314189,-1.9865238138071524
1770448308932,125,-3,-3.218416326718204,-2.3309488149997866,-1.8609336835569428
1770448308936,125,-3,-3.140560210555337,-2.222795028719591,-1.8020994391466445
1770448308940,124,-4,-3.1131522514567833,-3.0463674798776657,-1.7941355258134513
1770448308944,124,-4,-3.0821900218595495,-2.955875538747852,-1.781161089564269
1770448308948,125,-3,-3.018241301134389,-2.3963420816679437,-1.733622029695399
1770448308952,125,-3,-2.9366498103708096,-2.124616607939162,-1.668950097594895
1770448308956,125,-3,-2.8556960067318475,-2.469861991174434,-1.6068685836539034
1770448308960,124,-4,-2.7680857124563185,-2.7711486241325405,-1.5390257039641444
1770448308964,125,-3,-2.672890349682916,-2.2447955342407857,-1.4626171498846472
1770448308968,125,-3,-2.6149471057775515,-2.1430487147891566,-1.4221839076276934
1770448308972,125,-3,-2.662166854311146,-2.327371627758312,-1.4867843011016628
1770448308976,125,-3,-2.8357497054002403,-2.337686180185432,-1.67832904968583
1770448308980,124,-4,-3.0721467920776737,-2.815639618657072,-1.9327331342767593
1770448308984,124,-4,-3.2616593186102127,-3.3090639017482917,-2.139670697518467
1770448308988,124,-4,-3.3246231476476464,-3.004395485093591,-2.219997216147047
1770448308992,125,-3,-3.251731919172822,-2.526005723147925,-2.1653381350616483
1770448308996,124,-4,-3.0862091520680064,-3.0971875588373488,-2.0185810660773185
1770448309000,124,-4,-2.8865907441753635,-3.064275160814491,-1.8369763628767777
1770448309004,125,-3,-2.7000002588463365,-2.097250305807268,-1.6674984161035538
1770448309008,125,-3,-2.5403869366677996,-2.1974681633938475,-1.525375593498146
1770448309012,125,-3,-2.3797435342646693,-2.3652754889997727,-1.3831195745488123
1770448309016,125,-3,-2.1785504118880543,-2.2116649526334173,-1.1999819143830837
1770448309020,125,-3,-1.9356258844249823,-1.9842630700921289,-0.973769101404556
1770448309024,126,-2,-1.6911754400801011,-1.1894279426187664,-0.7456366189606916
1770448309028,126,-2,-1.4667021195537182,-1.0953435759141594,-0.538690558709559
1770448309032,126,-2,-1.218462204950081,-1.5005594843266803,-0.3091085509636393
1770448309036,126,-2,-0.8769883392974744,-1.0163011614849904,0.014158669826461
1770448309040,127,-1,-0.433965605213098,-0.2498649299839818,0.4402568577789929
1770448309044,127,-1,0.0307517497578393,0.1098812151765803,0.8884534823081949
1770448309048,128,0,0.4201845169640972,0.5689112775012292,1.260635833308572
1770448309052,128,0,0.7115241215371118,0.8592420048641087,1.5342220810628096
1770448309056,128,0,0.9676842733415312,0.623860665249451,1.7733327125255192
1770448309060,128,0,1.2585047958860636,1.0710566440914615,2.048182496566765
1770448309064,129,1,1.576395555887189,1.8236552920395597,2.3499470510303904
1770448309068,129,1,1.8286872186760563,1.7854974178379457,2.5845748231238668
1770448309072,129,1,1.9016010911390024,1.7433933005465023,2.6386030954486275
1770448309076,129,1,1.7282982287896278,1.6320243528697476,2.447002272359471
1770448309080,128,0,1.3157281038501272,1.1462181210174882,2.018093933429463
1770448309084,128,0,0.7374362232992744,0.6391363325753935,1.4250445889954455
1770448309088,127,-1,0.1135943935207786,0.0540983176084821,0.7864497924950682
1770448309092,127,-1,-0.4204162343923034,-0.5658683960307032,0.236448255004591
1770448309096,126,-2,-0.7641719452479625,-1.0455665595412815,-0.124568025660291
1770448309100,126,-2,-0.9059066956162268,-1.175055214851764,-0.2840628160374989
1770448309104,126,-2,-0.9389217907157632,-1.109810127983929,-0.3346361820209826
1770448309108,126,-2,-1.0133276343506998,-1.1047893342577575,-0.4260504978294832
1770448309112,126,-2,-1.2470986606758725,-1.4975215827302408,-0.6760737218051107
1770448309116,125,-3,-1.657385549267309,-2.022258642860864,-1.101829460911144
1770448309120,125,-3,-2.1562217960909544,-2.3075900016603064,-1.6157378332474988
1770448309124,124,-4,-2.6060777839289564,-2.927960169785079,-2.0808427197425163
1770448309128,124,-4,-2.8961165963401525,-3.313655320494116,-2.386541551629529
1770448309132,124,-4,-2.9946344965654244,-3.262503319610847,-2.5010046704912474
1770448309136,124,-4,-2.9501053391860386,-3.2578561913623623,-2.472663057934377
1770448309140,124,-4,-2.8473299437034107,-3.1150884070244533,-2.386426030724425
1770448309144,124,-4,-2.757871637557682,-3.106032601018465,-2.313642008180931
1770448309148,124,-4,-2.7230291202830923,-3.162524410292216,-2.2949151888266983
1770448309152,124,-4,-2.7679318096315972,-3.36498884000007,-2.354903902268471
1770448309156,124,-4,-2.9085712382841877,-3.2069895067071332,-2.51002840563261
1770448309160,124,-4,-3.128004701840674,-3.1365514483313324,-2.744156403590003
1770448309164,123,-5,-3.351915932971253,-4.153582376906844,-2.9831001894598064
1770448309168,123,-5,-3.472293055396081,-4.0505275526398385,-3.1183696944200214
1770448309172,124,-4,-3.415899962308115,-3.5214431721883828,-3.0766958983981803
1770448309176,123,-5,-3.1992075385240284,-4.011533760011145,-2.8752858280425753
1770448309180,124,-4,-2.922158863879227,-3.386162548955919,-2.6147284725642517
1770448309184,124,-4,-2.7057537938505187,-2.887072014507495,-2.41549635762308
1770448309188,124,-4,-2.61904991789863,-3.333385016444445,-2.3446446060769244
1770448309192,124,-4,-2.646303223510766,-3.233176285826815,-2.384254750464581
1770448309196,124,-4,-2.7104708837843496,-3.27639675482968,-2.4574741115051797
1770448309200,124,-4,-2.7249189532715503,-3.2036961087170135,-2.4814719218969485
1770448309204,124,-4,-2.638666456824932,-2.985901272118632,-2.410421549496239
1770448309208,124,-4,-2.4615369028840552,-3.3352848018246903,-2.2561750462640133
1770448309212,124,-4,-2.248547569657739,-3.125077643934723,-2.0698534720597044
1770448309216,125,-3,-1.994641542609364,-2.4731982392737306,-1.838119245910444
1770448309220,125,-3,-1.425358727889931,-1.9758496902176288,-1.2791336746270052
1770448309224,127,-1,0.2026710839609657,-0.2348359672522465,0.3511454111313503
1770448309228,131,3,4.061415717829454,3.90666227435058,4.216698965408415
1770448309232,138,10,11.288418899954522,10.685311169711904,11.442816866900962
1770448309236,148,20,22.17876390018812,20.653303636259547,22.31603888719677
1770448309240,161,33,35.4607881312265,33.965093766256224,35.565270170497726
1770448309244,175,47,48.24394192116347,47.73961856916725,48.30918710005441
1770448309248,184,56,56.94030245357732,56.99189686978574,56.97292174257272
1770448309252,186,58,58.81742903620437,58.52791607742647,58.83427166729109
1770448309256,180,52,53.321696962653355,52.778083892902494,53.34108550273763
1770448309260,169,41,42.36591200535532,41.79949252612795,42.39750353294482
1770448309264,155,27,29.3868328462556,27.872321376517945,29.426791001325007
1770448309268,143,15,17.721450169024635,15.947657782796975,17.75578886761481
1770448309272,136,8,9.2445260994361,8.585355842469227,9.25733125514452
1770448309276,131,3,3.9971136574530473,3.7670195151940686,3.978480876195208
1770448309280,128,0,0.846762401615003,0.7644379311032636,0.7972425376478971
1770448309284,125,-3,-1.4443378604430723,-2.0963158636865153,-1.5144912828519668
1770448309288,122,-6,-3.503320311805119,-5.1067137156886755,-3.580484778714996
1770448309292,121,-7,-5.3084047019473255,-6.352291359866038,-5.384344488924193
1770448309296,120,-8,-6.593927160780663,-7.300350707376683,-6.670586129513247
1770448309300,119,-9,-7.244859000490814,-8.193774033169866,-7.331213100848112
1770448309304,119,-9,-7.410438643092179,-8.122747111944829,-7.514537193651789
1770448309308,119,-9,-7.368156873089856,-8.107597342307136,-7.491518427800784
1770448309312,119,-9,-7.327612825117806,-8.331026003893541,-7.465943960793496
1770448309316,119,-9,-7.334378685311066,-8.351058397744326,-7.482495916075754
1770448309320,119,-9,-7.311842582855857,-8.137253574468533,-7.467787104424268
1770448309324,119,-9,-7.1747258033549555,-8.202063487472424,-7.340005368235182
1770448309328,119,-9,-6.918850180710479,-8.01676312712788,-7.095845005310489
1770448309332,120,-8,-6.627245485469477,-7.422071569233723,-6.816946987113464
1770448309336,120,-8,-6.397115963471608,-7.283728992529039,-6.598928717517
1770448309340,120,-8,-6.2521855317625015,-7.186097816052267,-6.465023465903034
1770448309344,120,-8,-6.118535061352451,-7.203160315609216,-6.341727483736621
1770448309348,120,-8,-5.887323682596843,-6.972283069289692,-6.1207376907637405
1770448309352,121,-7,-5.508680061784815,-6.505355116576216,-5.752391081681708
1770448309356,121,-7,-5.032495812993557,-6.180683680396928,-5.286577007046169
1770448309360,122,-6,-4.560368014918298,-5.3059671822562455,-4.824949526150536
1770448309364,122,-6,-4.154590827116284,-5.101556313349986,-4.429826376424904
1770448309368,122,-6,-3.791115312578025,-5.056482945113182,-4.076898818531395
1770448309372,123,-5,-3.4006029204283625,-4.4534977454358184,-3.696478092995449
1770448309376,123,-5,-2.95188287284963,-4.2051145795484395,-3.2573921564049595
1770448309380,124,-4,-2.4895532838215777,-3.32545791166432,-2.804515677314709
1770448309384,124,-4,-2.0891657399828953,-3.0470359792683004,-2.4134947534335645
1770448309388,124,-4,-1.7793879928365277,-3.1569679097962244,-2.1129387895699745
1770448309392,125,-3,-1.5083530073259102,-2.3218528988222897,-1.8512203805646303
1770448309396,125,-3,-1.1843658509921278,-2.3735128758698893,-1.5370088822962955
1770448309400,125,-3,-0.7562341684375657,-2.1479743328849628,-1.1188449925275856
1770448309404,126,-2,-0.2655552398621708,-1.2284263467192311,-0.6374342425752832
1770448309408,126,-2,0.1806916351943736,-0.984421260098584,-0.1993115430671759
1770448309412,127,-1,0.5054642099558837,-0.498019177353777,0.1177649973990617
1770448309416,127,-1,0.7434423936065463,-0.2041678077284947,0.3473396707666858
1770448309420,127,-1,1.0231628472903462,-0.3317190960588568,0.6177597954017953
1770448309424,127,-1,1.448893864686707,-0.0453667892366274,1.0342537997010852
1770448309428,128,0,1.9885116197277095,0.8354793215210558,1.5655540807038957
1770448309432,129,1,2.486739229471535,1.660924371207515,2.0561722068674184
1770448309436,129,1,2.80559280626317,1.6604258421322693,2.367379248448028
1770448309440,129,1,2.9593906912531107,1.7562697209378706,2.5132534757358913
1770448309444,129,1,3.1097188971504077,1.8962601206143823,2.655777409813898
1770448309448,129,1,3.421862073119127,1.8474557091343229,2.9605382903779613
1770448309452,130,2,3.918247767329305,2.6855774475898326,3.4496306583804857
1770448309456,131,3,4.466224629704405,3.608025748253589,3.9898912156186097
1770448309460,131,3,4.906105171706949,3.823139492636717,4.421932183947709
1770448309464,131,3,5.189888299711488,3.796662922007513,4.698784027557611
1770448309468,131,3,5.40046156810545,3.953806565271197,4.903582467468633
1770448309472,132,4,5.647824424081702,4.552702512043349,5.145033445161722
1770448309476,132,4,5.947300346931877,4.76995202243031,5.437183829708172
1770448309480,132,4,6.17882865017806,4.638893359925048,5.6605150000201965
1770448309484,132,4,6.152444364272562,4.977397825923439,5.626759433690422
1770448309488,132,4,5.737527024644367,4.765008788219098,5.20605280805956
1770448309492,131,3,4.968861652985094,3.703082491741932,4.432461933386168
1770448309496,130,2,4.039622695298546,2.677545120602038,3.498275690498934
1770448309500,129,1,3.1669373418367335,1.661387908154618,2.6204264514902937
1770448309504,128,0,2.4313371022058896,1.0131978625546132,1.8793555654187712
1770448309508,128,0,1.729422757810508,0.6536464096274639,1.1711292065653454
1770448309512,127,-1,0.8812403225903491,-0.1361793564950864,0.3156227059496508
1770448309516,126,-2,-0.2104491308095837,-1.5123036442711406,-0.7831652748165947
1770448309520,124,-4,-1.4920660031325437,-3.1442842526357024,-2.0698175867675737
1770448309524,123,-5,-2.8198338571211092,-4.198829878503968,-3.4003601412895694
1770448309528,122,-6,-4.059605790010822,-5.156187983184251,-4.642733221478568
1770448309532,121,-7,-5.129748469665036,-6.304900659982672,-5.717417003750676
1770448309536,120,-8,-5.986571042685956,-7.349797677794607,-6.580492436416221
1770448309540,119,-9,-6.610326783193019,-8.305016796466502,-7.210240302851739
1770448309544,119,-9,-7.012077118301174,-8.076829682095358,-7.6164579624984015
1770448309548,119,-9,-7.233231560701911,-8.266725606409446,-7.84098153561314
1770448309552,118,-10,-7.324940304139545,-9.214033230925644,-7.936043544040529
1770448309556,119,-9,-7.328674244606918,-8.401391738329968,-7.943781919482358
1770448309560,119,-9,-7.273804613286576,-8.29967781363996,-7.8934897603497
1770448309564,118,-10,-7.186889362889113,-9.083022798257431,-7.810960610502817
1770448309568,119,-9,-7.099708749000233,-8.288971122785844,-7.7272003967860865
1770448309572,119,-9,-7.040275342859702,-8.155791965796904,-7.67031808595525
1770448309576,119,-9,-7.005242522435657,-8.495603495694333,-7.637770851040438
1770448309580,119,-9,-6.945433622498778,-8.165795667598985,-7.580906079994796
1770448309584,119,-9,-6.797250026739273,-8.295658400094371,-7.436002418632337
1770448309588,119,-9,-6.542660873170248,-8.046983770682008,-7.184770631628875
1770448309592,120,-8,-6.239905847489764,-7.399591198576302,-6.8853882218906834
1770448309596,120,-8,-5.989709653996254,-7.2624199832474,-6.638376409185545
1770448309600,120,-8,-5.863795619059856,-7.365689360359003,-6.514926737948208
1770448309604,120,-8,-5.855251943530909,-7.1947416592313065,-6.507870426365541
1770448309608,120,-8,-5.885544942083193,-7.0720071477551985,-6.539258417438246
1770448309612,120,-8,-5.857888034128913,-7.461737481196382,-6.513278650718797
1770448309616,120,-8,-5.720071023585464,-7.092445169662925,-6.378087139002371
1770448309620,121,-7,-5.496414882030722,-6.630938637246833,-6.157354742397798
1770448309624,120,-8,-5.267107534276466,-6.89906431215764,-5.930232136899768
1770448309628,121,-7,-5.107469710898528,-6.40801068903074,-5.771727458691015
1770448309632,121,-7,-5.027484221774776,-6.118696055416057,-5.692531252450908
1770448309636,121,-7,-4.958141655230034,-6.397766212198376,-5.62430169300747
1770448309640,121,-7,-4.8065052746543,-6.389417352682202,-5.4738380466644365
1770448309644,121,-7,-4.542157685811485,-6.099917610587753,-5.210252660565105
1770448309648,122,-6,-4.232703713389007,-5.297754566142471,-4.901530937353519
1770448309652,122,-6,-3.987098511482378,-5.136147562240988,-4.657299799634952
1770448309656,122,-6,-3.86482647964648,-5.441916032088497,-4.536721030742203
1770448309660,122,-6,-3.843855874183937,-5.30721670152798,-4.5166805935598315
1770448309664,122,-6,-3.8657130733847738,-5.2469538250674495,-4.53832307198827
1770448309668,122,-6,-3.8929282097777858,-5.155840502202895,-4.564915063807271
1770448309672,122,-6,-3.920750299995597,-5.2412516629938075,-4.592468774194669
1770448309676,122,-6,-3.9505195119174026,-5.36249204321505,-4.622330050418402
1770448309680,122,-6,-3.967187777691054,-5.355107015609728,-4.63920246600619
1770448309684,122,-6,-3.9440619124062337,-5.29204162710933,-4.6164646606506015
1770448309688,122,-6,-3.8667922437412345,-5.062270613317199,-4.539698919997131
1770448309692,122,-6,-3.756593848936333,-5.367279660843349,-4.4294218309038635
1770448309696,122,-6,-3.6705719676235007,-5.184530268708036,-4.342211191086556
1770448309700,123,-5,-3.663492121269849,-4.57894562916644,-4.333512947791309
1770448309704,122,-6,-3.730657255004101,-5.094474851825999,-4.399824601031249
1770448309708,122,-6,-3.7927775392465017,-5.264337225621105,-4.4618577128365615
1770448309712,122,-6,-3.760274771479138,-5.16202597835888,-4.428779768189702
1770448309716,122,-6,-3.6242739368115946,-5.354942485477331,-4.29113906916445
1770448309720,123,-5,-3.472352696405568,-4.465121210817896,-4.137673274326934
1770448309724,123,-5,-3.4001736628197303,-4.187822170510715,-4.065185881742419
1770448309728,122,-6,-3.4132928285265485,-5.237395416007737,-4.078207303814013
1770448309732,122,-6,-3.42940911751883,-5.124976254516774,-4.092356550497518
1770448309736,123,-5,-3.3678650973700046,-4.4195524207352435,-4.027020995128977
1770448309740,123,-5,-3.2137348086339084,-4.412333760006697,-3.8698534766645816
1770448309744,123,-5,-2.999315665006221,-4.242679584129961,-3.654993477170114
1770448309748,123,-5,-2.7589242153833915,-4.221794298650517,-3.415437350546873
1770448309752,123,-5,-2.5212401386885426,-4.1040412648966775,-3.176986266735262
1770448309756,124,-4,-2.3216149929394994,-3.4631148827828113,-2.97390110898352
1770448309760,124,-4,-2.181822134679821,-3.3685147914333635,-2.8296301522716685
1770448309764,124,-4,-2.0643556786611663,-3.3109128598413413,-2.708952084788698
1770448309768,124,-4,-1.8694374611828903,-3.158908100343534,-2.5125575403090137
1770448309772,124,-4,-1.5103796227380624,-3.1691444985068964,-2.152414323948568
1770448309776,125,-3,-1.0060199098395937,-2.391899837740857,-1.646174072054649
1770448309780,126,-2,-0.4868129880592327,-1.4581681188375817,-1.124473700713548
1770448309784,126,-2,-0.0897571265909444,-1.221188767193903,-0.724921257381195
1770448309788,126,-2,0.1617349932680487,-1.2818905369301477,-0.4706324921602445
1770448309792,126,-2,0.374943383063246,-1.019403865298489,-0.2535546041811334
1770448309796,127,-1,0.6878555752195148,-0.5817542483013131,0.0640447361422253
1770448309800,127,-1,1.1472741918459874,-0.2393822220535533,0.5274129327790275
1770448309804,128,0,1.665237610200415,0.5240731434000366,1.0472672769430609
1770448309808,128,0,2.072787466239952,0.9802437090284198,1.4551891305875173
1770448309812,128,0,2.2147429350918033,0.7103790835534297,1.5981904352707643
1770448309816,128,0,2.0214850290769224,0.6637177192126096,1.408442635302083
1770448309820,128,0,1.5363652992574506,0.5379571370945669,0.9289838161664818
1770448309824,127,-1,0.9050173817005458,-0.3056793053247162,0.3035743356600262
1770448309828,126,-2,0.325001397781856,-1.1420690792618882,-0.2717842848096459
1770448309832,126,-2,-0.0412898863623889,-1.230017190296037,-0.6349431009226758
1770448309836,126,-2,-0.1511843302148803,-1.3443288846757515,-0.7425419671802713
1770448309840,126,-2,-0.1063637398329913,-1.5218338274815753,-0.6954507500718423
1770448309844,126,-2,-0.0937657952874326,-1.187479232421538,-0.6801784605129622
1770448309848,126,-2,-0.2760571118040393,-1.331056573256987,-0.8592658063600387
1770448309852,125,-3,-0.7022366190856375,-1.9948660584713889,-1.281437739185066
1770448309856,125,-3,-1.2966757094187762,-2.636909670959577,-1.8706990864632704
1770448309860,124,-4,-1.9231540306611996,-3.2050775867720067,-2.4911685727866537
1770448309864,124,-4,-2.462649256455135,-3.5237840445405304,-3.0251884611303708
1770448309868,123,-5,-2.850246119294094,-3.998595143292385,-3.4091514465630732
1770448309872,123,-5,-3.0720344063596725,-4.3173478539427546,-3.6289403192706056
1770448309876,123,-5,-3.1546773071593144,-4.356746455052365,-3.709431482473339
1770448309880,123,-5,-3.158660314616656,-4.455833193181855,-3.70936007801633
1770448309884,123,-5,-3.155332298664187,-4.321551836739746,-3.700086189384005
1770448309888,123,-5,-3.1785613725976627,-4.162142489719816,-3.7172201018596183
1770448309892,123,-5,-3.186833789892824,-4.1946333561017175,-3.720811728588358
1770448309896,123,-5,-3.0899598850247116,-4.472063387509967,-3.620433160931047
1770448309900,123,-5,-2.839757891875351,-4.359514427114773,-3.366542589232448
1770448309904,124,-4,-2.5010415592185575,-3.4271342094898416,-3.023380094094701
1770448309908,124,-4,-2.218062136729915,-3.0443209728657097,-2.735764840867446
1770448309912,124,-4,-2.098952251433233,-3.3278579026774024,-2.612169852503355
1770448309916,124,-4,-2.1329914645833803,-3.3541757313342484,-2.641454019346602
1770448309920,124,-4,-2.216447085646424,-3.4782151259012757,-2.719821986152558
1770448309924,124,-4,-2.2465022312303677,-3.3571671559384053,-2.745250919713301
1770448309928,124,-4,-2.190253382659426,-3.043054971080953,-2.685056456323138
1770448309932,124,-4,-2.0850976063643953,-3.4042997606081444,-2.57514194716783
1770448309936,124,-4,-1.994361049817521,-3.2226281272292576,-2.477226630887133
1770448309940,125,-3,-1.959794033017046,-2.6867942319194267,-2.4341397411268844
1770448309944,124,-4,-1.9794035474113905,-3.128146127218694,-2.4477866943739763
1770448309948,124,-4,-2.023264893331996,-3.2643025319429544,-2.491530538313925
1770448309952,124,-4,-2.063059455262614,-3.2076164491276224,-2.535983350891529
1770448309956,124,-4,-2.042195402991144,-3.3929308019382916,-2.5186752083165245
1770448309960,125,-3,-1.7287390293034588,-2.600710189713309,-2.2005723743227295
1770448309964,126,-2,-0.5143834343107234,-1.1403929450229355,-0.9703297093100948
1770448309968,129,1,2.6345207100063677,1.678241093599087,2.2014587141213635
1770448309972,135,7,8.860217916382325,7.927491766647563,8.447108677903298
1770448309976,145,17,18.72731420165588,17.40627624660227,18.32160675094572
1770448309980,157,29,31.489113112449218,29.614053861752456,31.075389654990246
1770448309984,171,43,44.82511286042542,43.64375426049416,44.39403662769276
1770448309988,182,54,55.418012756081325,54.88152989205644,54.97177913857085
1770448309992,187,59,60.24747195579287,59.71160201995337,59.79866616271822
1770448309996,185,57,57.95161935848259,57.553281137170536,57.51643156398013
1770448310000,176,48,49.46049955927239,48.418375964828385,49.050290312379815
1770448310004,163,35,37.50398935418771,35.824806013144105,37.1198561514268
1770448310008,151,23,25.28865878040918,23.738179160476903,24.92160072025928
1770448310012,141,13,15.138469455208028,13.892394968895346,14.774556892803792
1770448310016,135,7,7.848686623897156,7.384773852763787,7.476390489922528
1770448310020,130,2,2.962406327566842,2.5813278041159737,2.5784391772958246
1770448310024,126,-2,-0.4301259968100552,-1.367047509336428,-0.8196295765181159
1770448310028,123,-5,-2.9984213528115617,-4.059889152855601,-3.382335364176388
1770448310032,121,-7,-4.961145779468113,-6.3275693741686965,-5.330710018408168
1770448310036,120,-8,-6.289650185277156,-7.407405620145176,-6.6436482376624335
1770448310040,120,-8,-6.998535157520692,-7.634764854506599,-7.342666574873875
1770448310044,119,-9,-7.261816151464602,-8.176739067829269,-7.603289307405192
1770448310048,119,-9,-7.328993179805179,-8.229537075406606,-7.671107263993202
1770448310052,119,-9,-7.381230072303557,-8.186731753575152,-7.72205836807763
1770448310056,119,-9,-7.463311249811641,-8.543494947280523,-7.798545996497453
1770448310060,119,-9,-7.521842831851159,-8.54144287324844,-7.848647956274292
1770448310064,119,-9,-7.490238398541234,-8.240912474650962,-7.809002415146216
1770448310068,119,-9,-7.347293151985374,-8.206669116513684,-7.660493515353949
1770448310072,119,-9,-7.122416541716348,-8.162441092680695,-7.432197523614469
1770448310076,120,-8,-6.866474650631755,-7.640734543364587,-7.173135399075599
1770448310080,120,-8,-6.617447893954055,-7.403577941606377,-6.919647977795346
1770448310084,120,-8,-6.3796972243640315,-7.443281414514778,-6.675713600570478
1770448310088,120,-8,-6.123316185958269,-6.943804337752115,-6.412361157608405
1770448310092,121,-7,-5.799476862162646,-6.484292882800898,-6.082216821363131
1770448310096,121,-7,-5.365881038212671,-6.288496420471237,-5.643719854527116
1770448310100,122,-6,-4.818339586272595,-5.809180703708978,-5.092143565066543
1770448310104,122,-6,-4.212462552898744,-5.018008053851004,-4.482014050870648
1770448310108,123,-5,-3.6481731115485463,-4.37852884542802,-3.9127010203399775
1770448310112,123,-5,-3.2127254744543094,-4.059094396292258,-3.4717040218107065
1770448310116,124,-4,-2.9206349959361777,-3.708549833634637,-3.1740571729550413
1770448310120,124,-4,-2.700670747602429,-3.4454692255286408,-2.9486870775957135
1770448310124,124,-4,-2.4448796097391092,-3.341196260122953,-2.6873170310009855
1770448310128,124,-4,-2.0832578721884523,-3.10211337919324,-2.3197828751089205
1770448310132,125,-3,-1.6225863226871298,-2.292564573289882,-1.8534955391603616
1770448310136,126,-2,-1.118752519099874,-1.5228112774110782,-1.345145877734416
1770448310140,126,-2,-0.6198233533811537,-1.6312079491457838,-0.8424623597756282
1770448310144,126,-2,-0.1446500357809332,-1.1694537989264524,-0.3629010167923543
1770448310148,127,-1,0.292905842505853,-0.2787254788191915,0.0804356540386366
1770448310152,127,-1,0.6666760633140734,-0.1104732079458588,0.4605569628451846
1770448310156,128,0,0.9625792867766344,0.2730206054003241,0.7620623484815999
1770448310160,128,0,1.213244445848675,0.5690465088792557,1.017348449007844
1770448310164,128,0,1.4912432217509752,0.6055958257012783,1.2999679100465205
1770448310168,128,0,1.8575055806472085,0.9521080521168304,1.671680938248708
1770448310172,129,1,2.316076091032191,1.658608932100159,2.1361214551171006
1770448310176,130,2,2.8206989654427472,2.480907386824454,2.6460237284615657
1770448310180,130,2,3.3172257045614453,2.3780201230368863,3.147050391046136
1770448310184,130,2,3.768703207910482,2.7316661393010317,3.60295538761485
1770448310188,131,3,4.1463543135489305,3.885576160840244,3.9854338497961783
1770448310192,131,3,4.4184914376058995,3.648014452623812,4.262666616019393
1770448310196,131,3,4.561577352829087,3.5613245497586212,4.410965536763389
1770448310200,132,4,4.583584680206712,4.216308544581193,4.438336743997103
1770448310204,131,3,4.538991387578886,3.930750788502454,4.39925793274409
1770448310208,131,3,4.518052715186556,3.637192931495098,4.383930995142327
1770448310212,131,3,4.604484443546541,3.928078803998247,4.475890754414937
1770448310216,132,4,4.8243019163166725,4.261663768732187,4.700733347808892
1770448310220,132,4,5.12358926172544,4.494188414595019,5.004300039373046
1770448310224,132,4,5.388628410634333,4.669632683125639,5.2733079694701
1770448310228,132,4,5.491101051190468,4.837205501809041,5.380219406520544
1770448310232,132,4,5.335750016737831,4.790966912002304,5.230114095315075
1770448310236,132,4,4.892814999252157,4.324793256028872,4.792938220605059
1770448310240,131,3,4.199488666394302,3.4732279789056357,4.105367284328404
1770448310244,130,2,3.3284949760234417,2.6372478139422455,3.239689749535688
1770448310248,129,1,2.3467042522702717,1.878266140057966,2.262603663890693
1770448310252,128,0,1.2923098952557155,0.7530593836625397,1.2126364281590505
1770448310256,127,-1,0.1782956977217646,-0.6584459597658321,0.1033830283453958
1770448310260,126,-2,-0.9871212689593962,-1.5368583234779605,-1.05683873124178
1770448310264,125,-3,-2.175489466418388,-2.3856459105541092,-2.240107959128477
1770448310268,123,-5,-3.3286352490916347,-4.100538134672961,-3.388483890125885
1770448310272,122,-6,-4.383041888835645,-5.261596278134629,-4.438024899333531
1770448310276,122,-6,-5.3093501652619315,-5.665327147778592,-5.359184439455882
1770448310280,121,-7,-6.119015123793654,-6.523971029528234,-6.163899398892611
1770448310284,120,-8,-6.8264133513729295,-7.43574381982989,-6.8668009782447275
1770448310288,119,-9,-7.4123603958191,-8.033315137621358,-7.448132302890151
1770448310292,119,-9,-7.830664481269262,-8.3533022030838,-7.861082332093185
1770448310296,119,-9,-8.04581461754562,-8.567036696429039,-8.070428378107021
1770448310300,119,-9,-8.062093478463268,-8.643466244056576,-8.081431476962596
1770448310304,119,-9,-7.924101277646235,-8.321460395526005,-7.939254775212178
1770448310308,119,-9,-7.699309919464033,-8.165123276750606,-7.710789715361056
1770448310312,119,-9,-7.461325374353665,-8.206630505808084,-7.4684826864884
1770448310316,120,-8,-7.275691516097521,-7.762019817422143,-7.277489855892406
1770448310320,120,-8,-7.177300994007703,-7.402485464592471,-7.173489126548399
1770448310324,120,-8,-7.147574287862708,-7.648734260738184,-7.138665568566879
1770448310328,119,-9,-7.1237073481873585,-7.765319514888017,-7.109969244797731
1770448310332,120,-8,-7.048040623969533,-7.679369951446872,-7.029262035636361
1770448310336,120,-8,-6.911810415468653,-7.266314990634394,-6.888199474565106
1770448310340,121,-7,-6.746184159281934,-6.894260903410911,-6.718606597523764
1770448310344,120,-8,-6.57759047087691,-7.230568134668159,-6.546307292339148
1770448310348,120,-8,-6.4039141454077,-7.078259633538525,-6.367709456908866
1770448310352,121,-7,-6.207988073102767,-6.528335683074866,-6.165425564760717
1770448310356,121,-7,-5.973533455581212,-6.260690235760427,-5.9248914866104565
1770448310360,122,-6,-5.684871083408947,-6.0685207839156785,-5.632032217844658
1770448310364,121,-7,-5.335822671605971,-5.9245291868350725,-5.28009716870002
1770448310368,122,-6,-4.9611521570992885,-5.492150268655403,-4.901779293941315
1770448310372,122,-6,-4.650307189451777,-5.087354642619439,-4.585473670713686
1770448310376,123,-5,-4.4986321966431575,-4.695040725900518,-4.4276651658399615
1770448310380,123,-5,-4.522608154145965,-4.7005842635324395,-4.446606360826251
1770448310384,122,-6,-4.628898181959078,-5.206823497836907,-4.5491159535730965
1770448310388,122,-6,-4.68894919747372,-5.330348920443158,-4.605150612790793
1770448310392,122,-6,-4.655320731597591,-5.169298295091606,-4.5662946978136425
1770448310396,123,-5,-4.59621284590603,-4.686302579085226,-4.501636806784974
1770448310400,123,-5,-4.606810223781532,-4.672409307073668,-4.507787572708183
1770448310404,122,-6,-4.694721600550382,-5.243625272952944,-4.592255902424751
1770448310408,122,-6,-4.765766051498135,-5.34293075301292,-4.6593703598030025
1770448310412,122,-6,-4.719289474769033,-5.134249934051363,-4.607624688842404
1770448310416,123,-5,-4.542479404097572,-4.766652028822579,-4.425029354531421
1770448310420,123,-5,-4.30764088071758,-4.552165135606112,-4.185224355171974
1770448310424,123,-5,-4.0905902547883946,-4.379565245547785,-3.964300144279213
1770448310428,123,-5,-3.90415924146657,-4.248331155022416,-3.774228086178882
1770448310432,123,-5,-3.7091340912672113,-4.21829921716673,-3.5749460916456908
1770448310436,124,-4,-3.478787991119909,-3.733437258640539,-3.3397084854089885
1770448310440,124,-4,-3.244968867543685,-3.5211894856834083,-3.1009288380085764
1770448310444,124,-4,-3.0805405578226788,-3.461849861307747,-2.9319425061627373
1770448310448,124,-4,-3.036704520698173,-3.1593067919111655,-2.883985165344933
1770448310452,124,-4,-3.094076592347959,-3.348774629439932,-2.9372789746874592
1770448310456,124,-4,-3.1742805732336294,-3.613176999011867,-3.0128889003142683
1770448310460,124,-4,-3.204522287742621,-3.6052768499342966,-3.037929864738351
1770448310464,124,-4,-3.1750379552517827,-3.41560268825058,-3.0034591381510154
1770448310468,124,-4,-3.1341233521013434,-3.1946672986535485,-2.9587769522151435
1770448310472,124,-4,-3.131342267157307,-3.365865606986681,-2.9531987887660036
1770448310476,124,-4,-3.1727665787983863,-3.587651058600517,-2.9911461491454734
1770448310480,124,-4,-3.2275878941731397,-3.6199618775277433,-3.040611813614082
1770448310484,124,-4,-3.2588427736965606,-3.424407257242664,-3.065559066724208
1770448310488,124,-4,-3.233888696640287,-3.177115819019906,-3.0354876112199913
1770448310492,124,-4,-3.1196504686612014,-3.4420578255565624,-2.918159097970812
1770448310496,124,-4,-2.89939176478244,-3.47961262260499,-2.695515000350985
1770448310500,125,-3,-2.605873932046941,-2.757352714764126,-2.398569425574136
1770448310504,125,-3,-2.317398515750759,-2.2654393850244894,-2.10523226732729
1770448310508,125,-3,-2.0958974536387984,-2.372274111634822,-1.8783034540826793
1770448310512,125,-3,-1.9222033604632451,-2.2601848295395603,-1.6996863373392417
1770448310516,126,-2,-1.6981159155094177,-1.6703819874925854,-1.4716747247494084
1770448310520,126,-2,-1.323518180792009,-1.5739933148734306,-1.093713310428008
1770448310524,126,-2,-0.7892311489698454,-1.4364831250093806,-0.5557187104913548
1770448310528,127,-1,-0.2032407747787088,-0.231658978508719,0.0344599761638511
1770448310532,128,0,0.2882510308708559,0.5920579307992062,0.5298154725313209
1770448310536,128,0,0.6225611722237963,0.4546844698115183,0.8674985209818771
1770448310540,128,0,0.8617710468881066,0.3082264588657291,1.1107483856516085
1770448310544,128,0,1.1086138841023925,0.6760691676923141,1.3629023229219823
1770448310548,129,1,1.3932957366868737,1.6231292678386702,1.6527317980029093
1770448310552,129,1,1.6488456063801815,1.752154466713197,1.9115600651425584
1770448310556,129,1,1.7749105501404137,1.2518699673717446,2.0395778109995533
1770448310560,129,1,1.7041407464884848,1.5461052824808212,1.9715379568386229
1770448310564,129,1,1.4249633568334752,1.3956784524597032,1.6967273400570193
1770448310568,128,0,0.980368823813344,0.8914935295002714,1.2570254839260762
1770448310572,128,0,0.4577024601256294,0.4947641059801684,0.7386562001452215
1770448310576,127,-1,-0.0435634128431519,-0.532885890502989,0.2412792168678275
1770448310580,127,-1,-0.4588833582341092,-0.6293452076323187,-0.1700831081331717
1770448310584,127,-1,-0.7789663313062745,-0.485011836959186,-0.48652499269521
1770448310588,126,-2,-1.024864526116467,-1.2113407747877594,-0.7295790776465507
1770448310592,126,-2,-1.2162921702558027,-1.4269889108911245,-0.9183553441925434
1770448310596,126,-2,-1.3732104349900611,-1.608558601313171,-1.071782413752468
1770448310600,126,-2,-1.532143792332384,-1.5728644688709073,-1.2264510784271867
1770448310604,126,-2,-1.7338000588112648,-1.54357262467519,-1.4241377067720669
1770448310608,125,-3,-1.9862787855061943,-2.1785559173343234,-1.673435468901089
1770448310612,125,-3,-2.2517740885210547,-2.447707710432103,-1.935857348571326
1770448310616,125,-3,-2.4766388145336844,-2.6244835232954857,-2.157076240318305
1770448310620,125,-3,-2.628800841543007,-2.537560049830979,-2.305330012479597
1770448310624,125,-3,-2.704350011187389,-2.621354813156172,-2.3773912605864407
1770448310628,124,-4,-2.7113391934041537,-3.073376268264654,-2.381371805862212
1770448310632,125,-3,-2.6607107835031374,-2.598283299986212,-2.3277807383140288
1770448310636,125,-3,-2.5708702161844927,-2.4573154604801832,-2.234790662760356
1770448310640,125,-3,-2.4717279442804907,-2.7368446669353284,-2.132423415531544
1770448310644,125,-3,-2.399284074920388,-2.420030593575749,-2.056898075729598
1770448310648,125,-3,-2.3809458451951127,-2.2779431693964876,-2.0357267314924266
1770448310652,125,-3,-2.4183795838643443,-2.4273434844678814,-2.0702729229874675
1770448310656,125,-3,-2.4833261700498976,-2.609899412915292,-2.1316522180069004
1770448310660,125,-3,-2.534331895166446,-2.628411613368477,-2.178384313318629
1770448310664,125,-3,-2.5380699210740714,-2.5041059161219974,-2.1783464572647437
1770448310668,125,-3,-2.4759167060823133,-2.2327541770077466,-2.11423056094948
1770448310672,125,-3,-2.343908568435493,-2.4501936684192627,-1.9816212390128072
1770448310676,125,-3,-2.162783035792517,-2.636858446054885,-1.7990002376274403
1770448310680,126,-2,-1.982411578404741,-1.5766079676544082,-1.6142984257734554
1770448310684,126,-2,-1.85223087979351,-1.5945845574450372,-1.4771980248453236
1770448310688,125,-3,-1.7770460087132485,-2.1356758076882287,-1.3950992143496022
1770448310692,126,-2,-1.7143884333254522,-1.5451847347510623,-1.329308864707662
1770448310696,126,-2,-1.6245026798594164,-1.5959859959931353,-1.2425465845721004
1770448310700,126,-2,-1.5093410454933276,-1.579465582399739,-1.134884566475781
1770448310704,126,-2,-1.3580927046662998,-1.649736219335712,-0.9889523603329772
1770448310708,126,-2,-0.968903232608259,-1.036551126581019,-0.5960457800491701
1770448310712,129,1,0.2710854513017993,1.305170813468386,0.6582410873723248
1770448310716,131,3,3.4320177453843463,3.569537455126232,3.838689714908607
1770448310720,137,9,9.688587839567974,9.22842853163072,10.110849256057854
1770448310724,147,19,19.58637191213737,19.555038698571543,20.012432621769456
1770448310728,159,31,32.313056415732255,31.764573329218763,32.72906712381567
1770448310732,173,45,45.51558878433109,45.47272040776225,45.913293924842904
1770448310736,184,56,55.95536477651304,56.43168475662437,56.33704400926487
1770448310740,189,61,60.78175683032232,61.25460318033905,61.159038782079406
1770448310744,187,59,58.76980006191451,59.552843130617184,59.15728461396524
1770448310748,178,50,50.81915464863273,50.674479580881766,51.22703738617277
1770448310752,166,38,39.42764913670128,38.5814633535875,39.857041452137466
1770448310756,155,27,27.482611950242177,27.329617357064727,27.9252384919771
1770448310760,145,17,17.104982363613786,17.36921628052815,17.547629507958764
1770448310764,137,9,9.14537736465717,9.466671617627895,9.577418052286188
1770448310768,131,3,3.4194479502466244,3.7635406453025504,3.8388125027681226
1770448310772,127,-1,-0.6817738077363655,-0.5396636841787269,-0.2686108838779391
1770448310776,124,-4,-3.669297901876708,-3.5509700883577557,-3.252882056047003
1770448310780,122,-6,-5.774451571720122,-5.784827191439975,-5.348577848809289
1770448310784,120,-8,-7.068610343173576,-7.361299300345258,-6.6329596086997125
1770448310788,120,-8,-7.665519356432741,-7.438021636628716,-7.224232076355251
1770448310792,120,-8,-7.803253131304631,-7.333496423816042,-7.361473140159173
1770448310796,120,-8,-7.76413024830525,-7.802999397021288,-7.324797921257888
1770448310800,120,-8,-7.7437338510323235,-7.51831652328424,-7.306236988089602
1770448310804,120,-8,-7.796260149240633,-7.651326677265424,-7.357414275616572
1770448310808,119,-9,-7.881982195883714,-8.15644201165508,-7.438530561471317
1770448310812,120,-8,-7.944912815307039,-7.617604559787392,-7.495950276152335
1770448310816,120,-8,-7.943690096077337,-7.555078465601965,-7.4912778954984285
1770448310820,120,-8,-7.835185264856826,-7.7479397375133825,-7.382455779538508
1770448310824,120,-8,-7.573584901506758,-7.453183574047179,-7.121914520677427
1770448310828,120,-8,-7.1562344757399865,-7.338553294206238,-6.7042806815722775
1770448310832,121,-7,-6.662051831901355,-6.486434438698663,-6.207543620054897
1770448310836,122,-6,-6.210984031905936,-5.6571591055306545,-5.753049963411007
1770448310840,122,-6,-5.862598150887956,-5.690974819674244,-5.402033301335706
1770448310844,122,-6,-5.559885224492674,-5.489990883587512,-5.097622034924212
1770448310848,122,-6,-5.189171960438614,-5.3243006102995984,-4.725367876646089
1770448310852,123,-5,-4.699972491276649,-4.544164193745877,-4.234644780963894
1770448310856,124,-4,-4.162429945629775,-3.5545411247033862,-3.6960423874493857
1770448310860,124,-4,-3.70953013243022,-3.8551145182782065,-3.242372244584986
1770448310864,124,-4,-3.42378148558629,-3.2809907979588484,-2.955240339498289
1770448310868,125,-3,-3.2644126893211767,-2.585583986452142,-2.7933261670968763
1770448310872,124,-4,-3.0874807716730865,-3.310714593295923,-2.613060132754173
1770448310876,125,-3,-2.744458225232852,-2.7525059360708752,-2.2669411295572583
1770448310880,126,-2,-2.187961551410779,-1.7149717459310836,-1.7087538828821796
1770448310884,126,-2,-1.503918996686782,-1.3550318641721046,-1.0248617642158646
1770448310888,127,-1,-0.851290510643623,-0.6131827810145918,-0.3731406547221558
1770448310892,127,-1,-0.3637119477254,-0.2235112328664804,0.114765407798949
1770448310896,128,0,-0.0779952916621589,0.0763932226014861,0.4031769230402289
1770448310900,128,0,0.0819647434188306,0.5108125566293444,0.5674962374109265
1770448310904,128,0,0.2655268748788106,0.3915352046646205,0.7552414708723316
1770448310908,128,0,0.6148283632759015,0.6016275374538702,1.1068887841757125
1770448310912,129,1,1.1807991400715985,1.5988182165844398,1.672831755714028
1770448310916,130,2,1.88529557277006,2.1650264999775266,2.3759777638735953
1770448310920,130,2,2.5553838538410387,2.5087116181020765,3.045558459681941
1770448310924,131,3,3.0156374378918347,3.3197602609429744,3.5077168286968683
1770448310928,131,3,3.1957372074881705,3.6847971236933943,3.6916952048289766
1770448310932,131,3,3.190446307162568,3.492803597579402,3.690453943613423
1770448310936,131,3,3.213151268519225,3.2306929847664,3.715994355371028
1770448310940,131,3,3.451461414855251,3.5019264578338367,3.9556566265393607
1770448310944,132,4,3.9284308562148738,4.2539507313544345,4.432792295577059
1770448310948,132,4,4.4876714020965185,4.795375935167256,4.991564398494562
1770448310952,133,5,4.9189199189428585,5.315962023899871,5.422792907167187
1770448310956,133,5,5.119670908839319,5.420083307820733,5.625382699920365
1770448310960,133,5,5.163711491803312,5.310953142139527,5.673675313191462
1770448310964,133,5,5.231465459464905,5.406741030583194,5.746701572289616
1770448310968,133,5,5.465794264473018,5.6732359099193035,5.984556190123191
1770448310972,134,6,5.859059566430841,6.365846989061717,6.377821630433302
1770448310976,134,6,6.235259878775132,6.425563072284209,6.751651940117531
1770448310980,134,6,6.32556599276096,6.2426191121881915,6.840427654648228
1770448310984,134,6,5.901522074983424,6.506760590669029,6.418015401979709
1770448310988,133,5,4.911153434273146,5.520545856831937,5.432192124131168
1770448310992,131,3,3.537309365872932,3.521084989911971,4.063846938847837
1770448310996,130,2,2.1158786332436974,2.2563059443769147,2.6467465520197684
1770448311000,129,1,0.9483255690650296,1.4114961327068976,1.4810382364924055
1770448311004,128,0,0.1332622063989801,0.3204603510638014,0.665543454845589
1770448311008,127,-1,-0.4708124806405322,-0.2938500490999739,0.0605073507541222
1770448311012,127,-1,-1.1317948751929952,-0.6849992474743538,-0.6000930239781348
1770448311016,126,-2,-2.053554509218472,-1.5512095275775717,-1.5196221100829137
1770448311020,125,-3,-3.2346589405480426,-2.7800187168767003,-2.6973635378040823
1770448311024,123,-5,-4.477573562873173,-4.52482967545938,-3.936615463787825
1770448311028,122,-6,-5.5382959873504625,-5.432001000852104,-4.993932744703443
1770448311032,122,-6,-6.289520325507523,-5.591824798745943,-5.742513617178894
1770448311036,121,-7,-6.7675847547327885,-6.611144868082421,-6.219021418483143
1770448311040,121,-7,-7.088307802486707,-6.768091563835222,-6.539074271243514
1770448311044,121,-7,-7.327628348272902,-6.507965578556568,-6.7778032879043755
1770448311048,120,-8,-7.474698611388456,-7.509650773991501,-6.923217036281076
1770448311052,120,-8,-7.48519981329138,-7.5023035739409405,-6.930388892653854
1770448311056,121,-7,-7.36273523229728,-6.706943431941436,-6.803803521693634
1770448311060,121,-7,-7.172413024866499,-6.700110077730192,-6.610362035629704
1770448311064,121,-7,-6.9776942600705825,-6.548970329501206,-6.414231838231478
1770448311068,121,-7,-6.785766717113318,-6.531605049553298,-6.221382204620823
1770448311072,121,-7,-6.5674926489152305,-6.463228589540073,-6.0010834240515845
1770448311076,122,-6,-6.319384198904627,-5.779434563257745,-5.749721591111218
1770448311080,122,-6,-6.089279359958326,-5.6099963481594655,-5.516310791337258
1770448311084,122,-6,-5.940180637947846,-5.659773069963254,-5.364763361923494
1770448311088,122,-6,-5.8976414872687375,-5.436431873742223,-5.320426844133503
1770448311092,122,-6,-5.933821803549803,-5.577995300831072,-5.354647915634665
1770448311096,122,-6,-5.99574045780158,-5.689717727941485,-5.413902559774296
1770448311100,122,-6,-6.043895114304046,-5.666465757415604,-5.45883179563494
1770448311104,122,-6,-6.063656108229114,-5.651163830765252,-5.475424208491783
1770448311108,122,-6,-6.043665444346913,-5.424048815485861,-5.452743506791635
1770448311112,122,-6,-5.953469461751741,-5.645843378861424,-5.360099862305429
1770448311116,122,-6,-5.754187849992496,-5.61464236163045,-5.1581287056268215
1770448311120,123,-5,-5.434883513169787,-4.739150925934835,-4.835883299326152
1770448311124,123,-5,-5.0354436298403815,-4.600397469500382,-4.4336379823531935
1770448311128,123,-5,-4.633611054733581,-4.471769568509605,-4.029287604303039
1770448311132,124,-4,-4.308513140359876,-3.644283389484808,-3.701731367309
1770448311136,124,-4,-4.105276483515038,-3.607010534037775,-3.4957775053033986
1770448311140,124,-4,-4.020616043586405,-3.7683880214437457,-3.407911974547097
1770448311144,124,-4,-4.01675507700885,-3.5566631712738106,-3.400412809129788
1770448311148,124,-4,-4.0491598122030705,-3.550882065546162,-3.429225049877432
1770448311152,124,-4,-4.084482946150125,-3.5805816760653073,-3.461493881902186
1770448311156,124,-4,-4.103629816220712,-3.6760599232102167,-3.478021401209987
1770448311160,124,-4,-4.101862556705445,-3.7143527541231736,-3.4735023008018917
1770448311164,124,-4,-4.089425178955653,-3.5966236664211193,-3.4579111404984
1770448311168,124,-4,-4.083929930211529,-3.552093621049506,-3.449168601931476
1770448311172,124,-4,-4.094655475246311,-3.5842155356094594,-3.4568399228631512
1770448311176,124,-4,-4.114512741024661,-3.691862441059793,-3.473553401709864
1770448311180,124,-4,-4.129672489788685,-3.6990012880538794,-3.4850082343744675
1770448311184,124,-4,-4.134590755066357,-3.613933593262715,-3.485819300134807
1770448311188,124,-4,-4.133604623921103,-3.5637292374402567,-3.481162461130798
1770448311192,124,-4,-4.130507321769081,-3.581778105231729,-3.4753948625064557
1770448311196,124,-4,-4.12557331848741,-3.7128051504852513,-3.4682781593427308
1770448311200,124,-4,-4.126661467166938,-3.6805699477431872,-3.4665205071452214
1770448311204,124,-4,-4.152881567757493,-3.630172712431746,-3.4886878227882647
1770448311208,124,-4,-4.209276727382264,-3.589080968777423,-3.540442907213286
1770448311212,124,-4,-4.249964215304644,-3.539497795204634,-3.5768857261935056
1770448311216,124,-4,-4.17906962313293,-3.810174549732565,-3.5024001353319174
1770448311220,124,-4,-3.912524747622444,-3.5417123436516995,-3.2324750928031967
1770448311224,125,-3,-3.4560945890993957,-2.81840831351562,-2.7726449903901544
1770448311228,125,-3,-2.9242157225295493,-2.3857677986789874,-2.23767696673596
1770448311232,126,-2,-2.474282422869604,-1.7779487913127017,-1.7851262968687056
1770448311236,126,-2,-2.2103897579442986,-1.578576154931056,-1.5183869856765908
1770448311240,126,-2,-2.134683777221478,-1.7760279937030905,-1.438552819911021
1770448311244,126,-2,-2.1735486120636063,-1.61529811535108,-1.4719265835138131
1770448311248,126,-2,-2.2393663038925737,-1.572308307834331,-1.5322651134865244
1770448311252,126,-2,-2.274528139124347,-1.6451895612772496,-1.5635664331633936
1770448311256,126,-2,-2.262930895885331,-1.6756951082295408,-1.5498723739167664
1770448311260,126,-2,-2.2258339415145096,-1.7299162454656665,-1.510921879379624
1770448311264,126,-2,-2.209568324320935,-1.64290897738958,-1.4914054879274548
1770448311268,126,-2,-2.2541820182902654,-1.5793423434297689,-1.531184739655334
1770448311272,126,-2,-2.346435463312902,-1.6439712736982364,-1.6182076611209475
1770448311276,126,-2,-2.3956818171751193,-1.6830654509993768,-1.662881003795828
1770448311280,126,-2,-2.2743696297374236,-1.7426549686467916,-1.537547334182443
1770448311284,126,-2,-1.9104248308007663,-1.631135004786567,-1.169624519423996
1770448311288,127,-1,-1.3538674362661256,-0.6216521278933728,-0.6094770494542491
1770448311292,128,0,-0.7486163346894599,0.4082324465180389,-0.0016864466544596
1770448311296,128,0,-0.2338778452742822,0.235861687393452,0.5152675116565799
1770448311300,128,0,0.1306113945697826,0.3453573731882191,0.8835053986843517
1770448311304,129,1,0.3659966814705382,1.2409504206984148,1.124699848987023
1770448311308,129,1,0.5388889994010841,1.505845377848394,1.3037230312021613
1770448311312,129,1,0.7294374868667726,1.2609577230388125,1.4988352816094068
1770448311316,129,1,0.9944230879630772,1.39985700871976,1.7667612505686998
1770448311320,130,2,1.3224482541608735,2.13940727848787,2.097320674197303
1770448311324,130,2,1.6208788850656726,2.452328731364016,2.3988671826156183
1770448311328,130,2,1.7628799755875026,2.2540267548651944,2.54481098234307
1770448311332,130,2,1.664932061533256,2.5311953317608533,2.45132695545684
1770448311336,130,2,1.3372017269873515,2.114441638589386,2.128019771647715
1770448311340,129,1,0.8724604383526244,1.392063087220402,1.6673290432120296
1770448311344,129,1,0.3837499035613012,1.2088087710790318,1.1825376076654968
1770448311348,128,0,-0.0614776414627111,0.4482731664133183,0.7415504006606315
1770448311352,128,0,-0.4589428337068213,0.3700258418346802,0.3486255209111872
1770448311356,128,0,-0.8280706500190596,0.2536628159195314,-0.0162348527012028
1770448311360,127,-1,-1.1633143156864116,-0.7745314642343986,-0.3479828501497063
1770448311364,127,-1,-1.4326863096609828,-0.6202323256042878,-0.6145066270653077
1770448311368,127,-1,-1.6253062779936538,-0.775680986810608,-0.8041778978222869
1770448311372,126,-2,-1.7922175493242043,-1.36245544338288,-0.967185335432019
1770448311376,127,-1,-2.0259927156368853,-1.0623094431885929,-1.195987156473198
1770448311380,126,-2,-2.3813861308170523,-1.4345087793177336,-1.546335813301121
1770448311384,126,-2,-2.803564921119679,-2.0272082824077797,-1.9645562202630384
1770448311388,125,-3,-3.143975932517337,-2.350161159663459,-2.301985164764742
1770448311392,125,-3,-3.273583233789271,-2.8040038982612354,-2.428297915936436
1770448311396,125,-3,-3.19825898493761,-2.635002118325338,-2.348702207510729
1770448311400,126,-2,-3.0560948212104604,-1.839855676484949,-2.20227186401303
1770448311404,126,-2,-2.986394810377684,-1.7025769820420442,-2.129396992440117
1770448311408,125,-3,-3.002822799849121,-2.6207767440319936,-2.143028595507843
1770448311412,125,-3,-3.0045485180114593,-2.6117037695142864,-2.1407829650438215
1770448311416,126,-2,-2.901667678678876,-1.774055447160214,-2.032865835167886
1770448311420,126,-2,-2.709677434041431,-1.7630573937016951,-1.8365328134618732
1770448311424,126,-2,-2.5266209544669698,-1.7587143231365383,-1.6506889941783636
1770448311428,126,-2,-2.442860351997052,-1.5929501761221756,-1.5645416128568843
1770448311432,126,-2,-2.477043102941278,-1.6584108834942646,-1.5953234236064842
1770448311436,126,-2,-2.575233760180824,-1.7273805059104508,-1.6892916783494782
1770448311440,126,-2,-2.6514438023577176,-1.835636591678497,-1.761766268523417
1770448311444,126,-2,-2.634248211841241,-1.6814845822683986,-1.7417336283835707
1770448311448,126,-2,-2.497016906750012,-1.692655276449625,-1.6011894187284714
1770448311452,126,-2,-2.2627006101213465,-1.5707039876853663,-1.3614903907822895
1770448311456,127,-1,-1.9837474359633789,-0.8313301425387054,-1.0756821711099775
1770448311460,127,-1,-1.713495282339902,-0.7332956296848121,-0.8002310807149922
1770448311464,127,-1,-1.4978953133939497,-0.8107766693788413,-0.58423279980648
1770448311468,127,-1,-1.390570112572023,-0.5524908573570524,-0.481368171573196
1770448311472,127,-1,-1.4346525048714436,-0.7618243511541543,-0.5308099875910915
1770448311476,127,-1,-1.5395615842949897,-0.6233243256666463,-0.6360797031566985
1770448311480,128,0,-1.272185608642132,0.0331439354618607,-0.3600176375330193
1770448311484,129,1,0.2723174230636758,1.420508844245647,1.2012893814281431
1770448311488,133,5,4.298887851315726,5.216684381812992,5.246428241958691
1770448311492,140,12,11.7610413854405,12.42762881146691,12.720080759571808
1770448311496,151,23,22.637207353263477,23.230369310020947,23.594598779374692
1770448311500,164,36,35.465922733605005,36.1213128412687,36.40961838306622
1770448311504,176,48,47.53144714976852,48.39752490094235,48.457708432692314
1770448311508,185,57,55.76415753679515,57.12175678585445,56.679785279078395
1770448311512,187,59,57.98080521340457,59.55166798811891,58.899036340418874
1770448311516,183,55,53.81767897695819,54.986946833888815,54.75098558888187
1770448311520,173,45,44.8235942246134,45.40006852794577,45.77788004430049
1770448311524,162,34,33.660270845934896,34.083316627977936,34.632823486417884
1770448311528,151,23,22.897838267963294,23.458684129742863,23.87903051650799
1770448311532,143,15,14.100846443031632,15.230661149737056,15.078726852161566
1770448311536,137,9,7.627211756410749,9.301728323092208,8.593576689796313
1770448311540,132,4,3.0450269576659617,4.1063658450635,4.000032661521631
1770448311544,128,0,-0.273114054686145,0.3338320799950907,0.6785519303168694
1770448311548,126,-2,-2.7687657976433595,-1.7954265540759555,-1.8106245308411928
1770448311552,124,-4,-4.626772978420551,-3.5571600635760525,-3.657374677373325
1770448311556,123,-5,-5.887701104015013,-4.89874638706575,-4.909191904360251
1770448311560,122,-6,-6.5874332226083565,-5.705973037441937,-5.605375956826174
1770448311564,122,-6,-6.837233255964177,-5.86726196842208,-5.856066891071395
1770448311568,122,-6,-6.820649512851801,-5.6317085753713405,-5.8416980551618165
1770448311572,122,-6,-6.7299738808651925,-5.718921882086561,-5.751918870360025
1770448311576,122,-6,-6.696078118945272,-5.76928537254997,-5.716347263450729
1770448311580,122,-6,-6.75598807209896,-5.796907521123462,-5.772360792409299
1770448311584,122,-6,-6.860812564055663,-5.849130629113497,-5.872803752763246
1770448311588,122,-6,-6.904526747270098,-5.628296697926468,-5.9135024454010106
1770448311592,122,-6,-6.770199234881603,-5.767461678108121,-5.777884375763997
1770448311596,122,-6,-6.397452681443345,-5.711470283750293,-5.404478533959014
1770448311600,123,-5,-5.8391572445797335,-4.837633413851898,-4.845415994336081
1770448311604,124,-4,-5.248722813297252,-3.881184533849435,-4.25459471639839
1770448311608,124,-4,-4.7898093867160085,-3.548580479602283,-3.795889212410339
1770448311612,124,-4,-4.542308964205446,-3.937862220795292,-3.5478605936215084
1770448311616,124,-4,-4.4776601456285885,-3.4797461974288497,-3.480575494623173
1770448311620,125,-3,-4.492998278912151,-3.11894576144637,-3.492020701050889
1770448311624,124,-4,-4.449790878257865,-3.614267134245458,-3.446179382318547
1770448311628,125,-3,-4.206092197273938,-2.800402291078098,-3.2023398302681665
1770448311632,125,-3,-3.670427853191472,-2.755431295444925,-2.667558411168383
1770448311636,125,-3,-2.8664244931607716,-2.597571189667996,-1.8633641095775408
1770448311640,128,0,-1.9384740168699963,-0.0914373506062486,-0.934127312833602
1770448311644,128,0,-1.0596598790660994,0.4312530193263882,-0.0544536758705864
1770448311648,128,0,-0.3166988249019065,0.042753107183363,0.6885384365033929
1770448311652,129,1,0.3121039193222319,1.4765347394122543,1.3177252970940905
1770448311656,130,2,0.8777538850744271,2.080868483110984,1.8847942024683713
1770448311660,130,2,1.3843037960938056,2.2611291587074605,2.39292000463049
1770448311664,131,3,1.7935921181720518,3.071474695547859,2.8027446945786805
1770448311668,131,3,2.085511257359175,3.3611383770151093,3.0941478795960804
1770448311672,131,3,2.296161825139984,3.1737657391356,3.3043443097586582
1770448311676,131,3,2.4931192595682727,3.3336419876902768,3.5017033012082863
1770448311680,132,4,2.7213351198076072,4.0194231992191956,3.7306545351643257
1770448311684,132,4,2.9804069554712,4.305648653980144,3.9898742066593025
1770448311688,132,4,3.245740105067481,4.108324684557511,4.254902162569637
1770448311692,132,4,3.497038630880925,4.415830316479633,4.506207557846358
1770448311696,133,5,3.7310319320580376,5.059620329669604,4.740387362972998
1770448311700,133,5,3.964104202515625,5.28746136185489,4.972982595192552
1770448311704,133,5,4.221491219999793,5.045773731473789,5.229303487960691
1770448311708,133,5,4.506387342157252,5.337550028570395,5.5136474516398
1770448311712,134,6,4.778744665759843,6.186562413555304,5.786410524083829
1770448311716,134,6,4.982663991865678,6.2411126069833935,5.990798167591602
1770448311720,134,6,5.100115754481921,6.11952452150714,6.10780467581197
1770448311724,134,6,5.161444999404568,6.209962496357663,6.167807757332295
1770448311728,134,6,5.189617399960799,6.14151776984082,6.19444891642465
1770448311732,134,6,5.137615960468998,6.384405248461239,6.1412477378533294
1770448311736,134,6,4.891322583418963,5.9935066568112,5.894247017278113
1770448311740,133,5,4.344669244001997,5.391530193200605,5.347197654565946
1770448311744,133,5,3.4846545096242414,4.919840246152876,4.486684669994285
1770448311748,131,3,2.410763127547211,3.409287460388599,3.4119280468238204
1770448311752,130,2,1.2639993000844378,2.1080778815641077,2.264026998476519
1770448311756,129,1,0.1219312298933052,1.2231422650030324,1.1205845391001297
1770448311760,128,0,-1.0425405996999242,0.203642245641774,-0.0457832272305607
1770448311764,127,-1,-2.295974950241378,-0.942757813698228,-1.3016009436061569
1770448311768,125,-3,-3.635675061247331,-2.691817512359368,-2.6432992219857345
1770448311772,124,-4,-4.940994478705492,-3.876379351278933,-3.949294539547192
1770448311776,123,-5,-6.024812887638929,-4.764623519998316,-5.032701063603349
1770448311780,122,-6,-6.737764614442907,-5.839230176937707,-5.745640672743641
1770448311784,122,-6,-7.048238107068061,-5.884521378648742,-6.058036317554719
1770448311788,122,-6,-7.052504204123737,-5.753612502577157,-6.066346331024179
1770448311792,122,-6,-6.921749158933923,-5.878784350774142,-5.940141260254881
1770448311796,122,-6,-6.827213209249372,-5.744735923018393,-5.848428611018179
1770448311800,122,-6,-6.878685655692634,-5.895328062813445,-5.900331967778654
1770448311804,122,-6,-7.08626577334371,-5.810364092436126,-6.107679125044144
1770448311808,122,-6,-7.3549160053589935,-5.842000826535525,-6.377611953985183
1770448311812,121,-7,-7.536307502458634,-6.835824804667492,-6.561961749131336
1770448311816,121,-7,-7.53115297479098,-6.791951371332807,-6.559918676803945
1770448311820,122,-6,-7.363674221012941,-5.859371747151498,-6.394933974549448
1770448311824,122,-6,-7.147154179088501,-5.843812647448664,-6.181000161968702
1770448311828,122,-6,-6.969525126791823,-5.812075018550984,-6.006520635249234
1770448311832,122,-6,-6.819934017450817,-5.902657050626559,-5.859923794380159
1770448311836,122,-6,-6.624871070753305,-5.762753275017129,-5.66707924357695
1770448311840,123,-5,-6.336872857643235,-4.872041434389431,-5.38108910230536
1770448311844,123,-5,-5.978902226352277,-4.850163187517989,-5.025764549527601
1770448311848,123,-5,-5.616960781649204,-4.781161336596885,-4.667073656186534
1770448311852,124,-4,-5.303749246317135,-3.994466258403431,-4.357180830922349
1770448311856,124,-4,-5.0434640112133895,-3.6914580994819617,-4.100065851303908
1770448311860,124,-4,-4.803213863594248,-3.945918175355419,-3.862886590693238
1770448311864,124,-4,-4.563021664317188,-3.783389219256781,-3.625793671802452
1770448311868,125,-3,-4.35665667772504,-2.81722187369402,-3.42287752419945
1770448311872,125,-3,-4.255443290750902,-3.047754505411196,-3.3255900506162965
1770448311876,124,-4,-4.307844972033607,-3.607915833094793,-3.3818574864898165
1770448311880,125,-3,-4.4940940836730725,-3.0949129661348698,-3.5712989572623446
1770448311884,124,-4,-4.731676519979928,-3.5740043082523787,-3.811589395026996
1770448311888,124,-4,-4.92151027871991,-4.0736751975748495,-4.004439641527739
1770448311892,124,-4,-5.003799188800667,-3.799190745721631,-4.0906314913266115
1770448311896,124,-4,-4.988879953187761,-3.889315154254934,-4.0804574786558465
1770448311900,124,-4,-4.941128969458297,-3.839959355613381,-4.037704700063126
1770448311904,124,-4,-4.927520722813137,-3.779271070043321,-4.028596404384561
1770448311908,124,-4,-4.968513388166055,-3.927272750701464,-4.073269580306505
1770448311912,124,-4,-5.023077201058118,-3.933074681141589,-4.131096298952804
1770448311916,124,-4,-5.0145039150982145,-3.819258897206264,-4.126050305947507
1770448311920,124,-4,-4.881207402609117,-3.899531274626752,-3.996842152072684
1770448311924,124,-4,-4.622564189263441,-3.708990479262202,-3.742764786445655
1770448311928,125,-3,-4.307174766580065,-3.014410812698393,-3.4324346543512605
1770448311932,125,-3,-4.033370190250183,-2.8685914024069747,-3.1642413326232783
1770448311936,125,-3,-3.8723707365834152,-2.925178512754734,-3.008962598980364
1770448311940,125,-3,-3.838795405538841,-2.791870435930883,-2.9803592288648044
1770448311944,125,-3,-3.899882194189708,-2.815930092508628,-3.0452774386266346
1770448311948,125,-3,-3.997751244086124,-2.9101457683934773,-3.1464804137578435
1770448311952,125,-3,-4.06302775502701,-3.0075953539742812,-3.2157984003744264
1770448311956,125,-3,-4.0268307928021105,-2.814432525512777,-3.1850460324087058
1770448311960,125,-3,-3.8483272902867984,-2.9039384812633164,-3.012943418799252
1770448311964,125,-3,-3.551833914933946,-2.712729652710797,-2.7227347553125627
1770448311968,126,-2,-3.236555837436127,-1.991229065120824,-2.41309367886466
1770448311972,126,-2,-3.0279658420277715,-1.9996009587022685,-2.20990059268771
1770448311976,126,-2,-2.9935991748123234,-1.8038649494067232,-2.181150268488008
1770448311980,126,-2,-3.093478371071593,-1.968884721289386,-2.2864952339057223
1770448311984,125,-3,-3.213293843124203,-2.6079661679222776,-2.410997261097914
1770448311988,126,-2,-3.2495604288698563,-2.126768476685382,-2.451672738619868
1770448311992,126,-2,-3.166806635433564,-1.882499326478062,-2.374634563795522
1770448311996,126,-2,-2.987464910120051,-1.9430492370136705,-2.202982237477504
1770448312000,126,-2,-2.7526206253802,-1.84957668574622,-1.9762513941011448
1770448312004,126,-2,-2.503743768711345,-1.7054659825919174,-1.7337165530023493
1770448312008,127,-1,-2.279794066411102,-1.069816233093591,-1.5141174682984158
1770448312012,127,-1,-2.098384117217502,-0.9357680318239469,-1.3370936008702423
1770448312016,127,-1,-1.9329377718567209,-0.9380731508936002,-1.1780158626212816
1770448312020,127,-1,-1.731205980983801,-0.8450345451525099,-0.9845512136136808
1770448312024,127,-1,-1.476688993138338,-0.7196104065258001,-0.7385589348722957
1770448312028,128,0,-1.2258127175636244,-0.0728094799914869,-0.4950606159741618
1770448312032,128,0,-1.0604668669648758,0.0579429005202943,-0.3357233399094547
1770448312036,128,0,-0.985626672815262,0.0323564970912854,-0.2661086219951477
1770448312040,128,0,-0.8750897330466763,0.1858742528305397,-0.1607961421255003
1770448312044,128,0,-0.5382378668846988,0.2399515105870273,0.1700099001911208
1770448312048,129,1,0.1282527752326099,0.9456000527580516,0.8288512214899684
1770448312052,130,2,1.0242541568102403,2.0435993849377145,1.715414560627372
1770448312056,131,3,1.8666977460931544,3.000340563385592,2.5477187997742887
1770448312060,131,3,2.3415787495765374,3.2386858044319182,3.013727119671775
1770448312064,131,3,2.2848042078376505,3.1466989172905233,2.950473212533031
1770448312068,131,3,1.7757377081405088,3.037898332254884,2.4363876118129806
1770448312072,130,2,1.0867727622232652,1.926885557500166,1.7418407594409913
1770448312076,129,1,0.5169802378613855,1.0897563067925926,1.1647393409671276
1770448312080,129,1,0.2145561438133736,1.1786404945405964,0.8535347018995391
1770448312084,129,1,0.1131863974429328,1.1448660017446275,0.7427045297346788
1770448312088,129,1,0.026487852181638,1.0945651787994843,0.646503045093363
1770448312092,129,1,-0.1863193350563514,0.7711314545471007,0.4246563999854319
1770448312096,128,0,-0.525010443898279,0.3098756875059633,0.0777829258686371
1770448312100,128,0,-0.8893497472022216,-0.1390195692469529,-0.2939289518725602
1770448312104,127,-1,-1.196049162377714,-0.4664492605722279,-0.6079083240611245
1770448312108,128,0,-1.4531381999091428,-0.3732848835200849,-0.8731658003736615
1770448312112,127,-1,-1.7296820730511795,-0.7246770708681738,-1.159115221911361
1770448312116,127,-1,-2.066644815358533,-1.242339774134333,-1.5060079300530378
1770448312120,126,-2,-2.424597618333705,-1.6015382042852515,-1.8733552276752896
1770448312124,126,-2,-2.7137926446753053,-1.985140438262142,-2.171112789483485
1770448312128,126,-2,-2.8673870758076148,-1.929704954660886,-2.333079866342222
1770448312132,126,-2,-2.8872751555753453,-2.081877333529065,-2.3618850795561057
1770448312136,126,-2,-2.8291830390794597,-2.0276167943302617,-2.3133722969788946
1770448312140,126,-2,-2.7495521521923902,-1.6912013144305855,-2.243622033313938
1770448312144,126,-2,-2.6632878424532076,-2.052156015621173,-2.167230998466698
1770448312148,126,-2,-2.545633208203295,-1.74870322762779,-2.0593821659201352
1770448312152,127,-1,-2.3711206076192584,-1.3702921298412052,-1.894549053821122
1770448312156,126,-2,-2.152135289270184,-1.696896915699085,-1.684940852514861
1770448312160,127,-1,-1.941522159817324,-1.062303343632931,-1.4835122564093612
1770448312164,127,-1,-1.7941710297008242,-0.6958791452541804,-1.345805853832832
1770448312168,127,-1,-1.7226200342971354,-1.0989095458019291,-1.2849630396445515
1770448312172,127,-1,-1.694556254736035,-1.063947814919653,-1.2685090048841012
1770448312176,127,-1,-1.6767026975514094,-0.9791708029640463,-1.2623375624649034
1770448312180,127,-1,-1.6719251814280254,-0.8480651255687336,-1.2682891811755976
1770448312184,127,-1,-1.702406436501183,-0.8619372721654395,-1.3076199142392535
1770448312188,127,-1,-1.7591393047874566,-1.0050012717910186,-1.3711800126941844
1770448312192,127,-1,-1.7825209665109187,-1.1090859315580714,-1.4011834492942827
1770448312196,127,-1,-1.7088145360960711,-1.0187090834496653,-1.337640207688452
1770448312200,127,-1,-1.546949858882411,-0.760270496187636,-1.1924833657703358
1770448312204,127,-1,-1.40275259979832,-1.0192622373664946,-1.070167472822432
1770448312208,127,-1,-1.3754986354009513,-0.8044248001947719,-1.0634856542704207
1770448312212,128,0,-1.322100210419278,-0.3619194522669295,-1.0216259488751491
1770448312216,128,0,-0.6083808822682926,0.2253353968047244,-0.3073088825567267
1770448312220,131,3,1.9230294610872685,2.99616953571538,2.232039803583618
1770448312224,136,8,7.568836387209663,8.186776571805424,7.882461131956916
1770448312228,145,17,17.002382505073644,17.039683267614866,17.307060863452975
1770448312232,158,30,29.500204778752988,29.73353092535032,29.779169384961524
1770448312236,171,43,42.69640275752359,43.1646705378148,42.9393425148
1770448312240,182,54,53.20917205952228,53.998625074398774,53.41852877136848
1770448312244,187,59,57.97756358408401,59.15851639477582,58.16726688652742
1770448312248,185,57,55.645966757283645,57.03578344288176,55.83346475433494
1770448312252,176,48,47.20286406508542,47.64898916662643,47.399750315371186
1770448312256,163,35,35.46717940198765,35.27594715842136,35.67381430462408
1770448312260,152,24,23.712261495043368,23.85090051744297,23.91848666949256
1770448312264,142,14,14.248659049288916,14.366839337834024,14.439486725837387
1770448312268,137,9,7.756380742543459,8.844087932792513,7.919725918804129
1770448312272,133,5,3.597775821837083,4.823555158302539,3.7304794783686086
1770448312276,129,1,0.6967661485939862,1.096430431159508,0.8056207958328085
1770448312280,127,-1,-1.688501445082478,-1.0399197209254132,-1.5915420674700655
1770448312284,124,-4,-3.724155652061984,-3.7125967901470833,-3.629677075491082
1770448312288,123,-5,-5.24195289270299,-5.13533532398312,-5.1485769060657125
1770448312292,123,-5,-6.1105568927085665,-5.150596970324053,-6.0246032417366235
1770448312296,122,-6,-6.421890390520374,-5.99134914422768,-6.35187342581718
1770448312300,122,-6,-6.429045502005281,-5.9608285134523955,-6.379525256251481
1770448312304,122,-6,-6.377102073433836,-5.790375225120225,-6.346474584618561
1770448312308,122,-6,-6.387830749611878,-6.112932612491611,-6.370899859376388
1770448312312,122,-6,-6.454910429092596,-6.1210630980615255,-6.447404693579625
1770448312316,122,-6,-6.506867072981332,-6.1001650402571315,-6.5083916742292445
1770448312320,122,-6,-6.470454613362221,-5.827798960047624,-6.484075284196859
1770448312324,122,-6,-6.307022825768326,-5.961511139616392,-6.336261150031835
1770448312328,122,-6,-6.032873351145168,-5.946686057704263,-6.0789304167087375
1770448312332,123,-5,-5.723354756881997,-5.279434575625251,-5.784907710822372
1770448312336,123,-5,-5.476385410279053,-4.995636269855281,-5.551439789458127
1770448312340,123,-5,-5.338306765299741,-4.904959022364883,-5.425752426754567
1770448312344,123,-5,-5.25087129594333,-4.9561508146862385,-5.35063428785069
1770448312348,123,-5,-5.078856970717277,-4.895780624822681,-5.191514801272472
1770448312352,124,-4,-4.707158205970037,-4.413711600192155,-4.833834044757928
1770448312356,124,-4,-4.131113530364068,-3.8072809482783976,-4.273220255869038
1770448312360,125,-3,-3.4705577845439435,-3.168892781454315,-3.628910100439758
1770448312364,125,-3,-2.899943240030685,-2.6640462799194315,-3.0739507246871693
1770448312368,126,-2,-2.542999443047679,-2.2177470149023324,-2.731036833425436
1770448312372,126,-2,-2.396761652933835,-2.117895277764771,-2.5975524149072067
1770448312376,126,-2,-2.3312210702712695,-2.0893411411462743,-2.5448184176212476
1770448312380,126,-2,-2.1700269451211565,-1.9454341660413448,-2.3974683115365645
1770448312384,126,-2,-1.806261085203454,-1.8523243532081937,-2.0485856607195494
1770448312388,127,-1,-1.2732195943627538,-1.0804322250839142,-1.5310657588394003
1770448312392,128,0,-0.7126251142718021,-0.2391816793424532,-0.9863879862035164
1770448312396,128,0,-0.2642559709179157,-0.0023957489639025,-0.553905367083598
1770448312400,128,0,0.0288503554768695,-0.0404008977521743,-0.2758418944566123
1770448312404,128,0,0.2272431576634057,0.2189327605833515,-0.0912841196522298
1770448312408,129,1,0.4318417905176916,0.8463654099564067,0.0999581103058435
1770448312412,129,1,0.7193946023393121,0.800507445541207,0.3735761216718456
1770448312416,129,1,1.1160511722681397,0.9857396774622896,0.7553401534769191
1770448312420,130,2,1.6039406285348492,1.899960240986533,1.2275566979149786
1770448312424,130,2,2.1425240980038422,2.327412681187635,1.7499762049431378
1770448312428,131,3,2.6860978587457875,2.6483470912394123,2.277434473754774
1770448312432,131,3,3.185857086976216,3.064202960816428,2.761814728209224
1770448312436,132,4,3.5908441330300573,3.6457439736470465,3.152256550920933
1770448312440,132,4,3.8726684931084696,4.258218509739198,3.419740184457842
1770448312444,132,4,4.061672155591664,3.951060987679726,3.59410758630393
1770448312448,132,4,4.247047863987688,3.974727432806513,3.764601961021007
1770448312452,133,5,4.522807071595537,4.79387997525713,4.025285968834919
1770448312456,133,5,4.920377014370159,4.8200636577813025,4.407349744173464
1770448312460,133,5,5.380824309219705,5.146235778569813,4.851784095355626
1770448312464,134,6,5.783614150211395,5.99570526914858,5.23841883150752
1770448312468,134,6,6.010365084955215,5.933304923597415,5.449402877895768
1770448312472,134,6,6.002100974822781,5.833242382290151,5.4260444791787315
1770448312476,134,6,5.774610157831329,5.729470078955893,5.183916339762369
1770448312480,133,5,5.389023659273224,5.271133029657547,4.783569235078524
1770448312484,133,5,4.905408475137997,4.804498839751686,4.2846667469226425
1770448312488,132,4,4.350882781211257,4.153981897932532,3.7144374593382414
1770448312492,132,4,3.718492830364635,3.5776747150777775,3.0662659845447515
1770448312496,131,3,2.9928257853511724,2.962107255459978,2.3249328472355084
1770448312500,130,2,2.1781631045724064,2.0660495218249713,1.4948260213552411
1770448312504,129,1,1.3007643887812756,0.9207010028635262,0.6022773357219848
1770448312508,128,0,0.3836523882040168,0.117468096013118,-0.3299493811674935
1770448312512,128,0,-0.5750226604182895,-0.4970292891872343,-1.3042359497848195
1770448312516,126,-2,-1.5944636489231263,-1.8933576823256923,-2.3398615809132335
1770448312520,125,-3,-2.6840170849594553,-3.144915115025354,-3.445519265207532
1770448312524,124,-4,-3.819233144910399,-3.8732257435594337,-4.596151441211047
1770448312528,123,-5,-4.9307409803507785,-5.0724296907013855,-5.7224626659777496
1770448312532,122,-6,-5.9113714134450275,-6.391527418564944,-6.717730133893064
1770448312536,121,-7,-6.648793926131922,-6.910100838692575,-7.469971634198872
1770448312540,121,-7,-7.073427029423763,-7.250384820598919,-7.909834141842394
1770448312544,120,-8,-7.192560524267268,-7.688048720871893,-8.044759839941634
1770448312548,121,-7,-7.089313182973519,-7.341213840157174,-7.9578133286770205
1770448312552,121,-7,-6.888489434449022,-7.0989115598342885,-7.773425148346436
1770448312556,121,-7,-6.708965714039181,-7.221064660101277,-7.609883527151046
1770448312560,121,-7,-6.625247677391503,-6.978265712322242,-7.541299889741616
1770448312564,121,-7,-6.649696449791182,-6.938274708087282,-7.580222918513992
1770448312568,121,-7,-6.735561965152494,-7.154199176995935,-7.680518600765622
1770448312572,121,-7,-6.799899964713766,-7.25098479358536,-7.75971744740493
1770448312576,121,-7,-6.763032518077863,-7.116829034920832,-7.738141692065795
1770448312580,121,-7,-6.589423839727225,-7.077248664834814,-7.579987054898975
1770448312584,121,-7,-6.307009875600984,-6.863185116369771,-7.313096538385447
1770448312588,122,-6,-5.991271328052576,-6.244725831220724,-7.013128152893458
1770448312592,122,-6,-5.724340711787789,-6.166652254253768,-6.76219856516773
1770448312596,122,-6,-5.558947536413625,-6.220860601802152,-6.612503263178758
1770448312600,122,-6,-5.5078663189625985,-5.987309959894838,-6.576259371473835
1770448312604,122,-6,-5.550064489635886,-5.972558510767628,-6.632569107048265
1770448312608,122,-6,-5.635588541476275,-6.148688488528795,-6.7322235054549004
1770448312612,122,-6,-5.691809187954872,-6.2717205982523625,-6.803211677084336
1770448312616,122,-6,-5.6462525890246935,-6.127021902201439,-6.773056479983793
1770448312620,122,-6,-5.464334896945957,-6.104584858907165,-6.606692767466271
1770448312624,122,-6,-5.176304595934103,-5.866065573129941,-6.333939477083971
1770448312628,123,-5,-4.86605789827362,-5.269798220405447,-6.038689460331392
1770448312632,123,-5,-4.62220582687827,-5.165184477185584,-5.809814786466623
1770448312636,123,-5,-4.486434229293728,-5.232939064415565,-5.689104252175851
1770448312640,123,-5,-4.438316355205492,-5.046668084884295,-5.655915982276484
1770448312644,123,-5,-4.422648239389783,-4.905330552143516,-5.654669396666248
1770448312648,123,-5,-4.391496176878517,-5.2835598154949786,-5.637294527264709
1770448312652,123,-5,-4.326488209129359,-5.117671774901445,-5.586005411968927
1770448312656,124,-4,-4.227000631547837,-4.3291162892385655,-5.50118882414596
1770448312660,123,-5,-4.087091981343117,-4.942631442004189,-5.377055372602324
1770448312664,123,-5,-3.9017183909256534,-5.052339059570534,-5.207382512350625
1770448312668,124,-4,-3.700756053803924,-4.124387347457428,-5.020961446102055
1770448312672,124,-4,-3.55494905728391,-4.310458951172847,-4.888865960212886
1770448312676,124,-4,-3.52250989622291,-4.129325205684198,-4.87031852423435
1770448312680,124,-4,-3.5867142247634853,-4.167384710032827,-4.948780171917443
1770448312684,123,-5,-3.658397392189343,-4.853873467694018,-5.034454732911377
1770448312688,124,-4,-3.6477741950771554,-4.330465381856453,-5.037424424679565
1770448312692,124,-4,-3.535397888360801,-4.116034785954795,-4.939080159180504
