timestamp_ms,ecg_u8_raw,ecg_counts_raw_int,ecg_counts_filt_monitor,ecg_counts_filt_diagnostic,ecg_counts_filt_st
1769250138332,127,-1,-1.7528883227930658,4.6659466293963465,0.5905599213139491
1769250138336,127,-1,-1.6620609412231762,4.881555075307546,0.7136316254750115
1769250138340,128,0,-1.4753767513611145,5.742278176812482,0.9318605921741364
1769250138344,128,0,-1.146761316847651,5.911565930589328,1.2889718361762956
1769250138348,128,0,-0.643552352704592,5.746665312611787,1.8185394529632948
1769250138352,129,1,0.0299219586277355,6.672778537113656,2.5190041504111487
1769250138356,130,2,0.7971322495713613,7.942971996101277,3.3148361933222716
1769250138360,131,3,1.5363257900761214,8.68321761334818,4.0827513816402
1769250138364,131,3,2.1627054846308544,9.102656865478815,4.736482725218377
1769250138368,132,4,2.6752187142115917,9.534611396825593,5.275428390658049
1769250138372,132,4,3.116202865830655,9.97429145177778,5.74322540808488
1769250138376,133,5,3.4958135989098795,10.64053753309438,6.150296152024133
1769250138380,133,5,3.764558977920178,11.058123551763922,6.4461943361639715
1769250138384,133,5,3.851239573491482,10.812299674559302,6.558687488467626
1769250138388,133,5,3.714852848788494,10.82893234793089,6.446498008624443
1769250138392,133,5,3.360240723093451,10.770711841106603,6.115148907080692
1769250138396,132,4,2.8143635884723723,9.802692948548136,5.593041213411997
1769250138400,131,3,2.099006476020532,9.039973599648928,4.903122819081135
1769250138404,131,3,1.2414761529986251,8.82386617986305,4.072202769967847
1769250138408,130,2,0.3235916235999234,7.928434381597258,3.18016548665429
1769250138412,129,1,-0.4972108124242074,6.649011356790455,2.3830442538492607
1769250138416,128,0,-1.0630312933560315,5.997237340774411,1.8389956599801764
1769250138420,128,0,-1.3505812597222546,5.885097387301708,1.5723016012428663
1769250138424,128,0,-1.5324595536154937,6.050175605761013,1.4110819193788366
1769250138428,128,0,-1.8783342524608568,5.771381078020443,1.0864348518490263
1769250138432,127,-1,-2.562666931753004,4.800337323839345,0.4248893735234533
1769250138436,126,-2,-3.5349039079448445,3.917666303104929,-0.5230932835398707
1769250138440,125,-3,-4.549527610032087,2.971523897805997,-1.514249146959694
1769250138444,124,-4,-5.324116224832259,2.0731581263913252,-2.2689923974998396
1769250138448,124,-4,-5.7101648154455615,1.782446258623101,-2.6388478274426057
1769250138452,124,-4,-5.766169834772511,1.832124171015142,-2.678141038947024
1769250138456,124,-4,-5.692713204146996,1.9239046653281164,-2.5822687991416844
1769250138460,124,-4,-5.681592964479797,1.9919132811090892,-2.5426557244673105
1769250138464,124,-4,-5.794760796839144,2.153546437319916,-2.628483356775705
1769250138468,124,-4,-5.977571548615635,1.717864665718202,-2.7953460560469368
1769250138472,123,-5,-6.205404634079625,0.963976064717639,-3.022200462992961
1769250138476,123,-5,-6.607644560261038,0.7902150048164671,-3.4290427988803645
1769250138480,122,-6,-7.3427922779524035,0.2036164295337457,-4.15644782831006
1769250138484,122,-6,-8.15597260738196,-0.0125145982992274,-4.9369391204264215
1769250138488,123,-5,-7.903925854681473,0.9685187897745652,-4.632460386940821
1769250138492,126,-2,-4.602690174418252,3.7212630434359593,-1.2810550942623191
1769250138496,133,5,3.608113308886926,11.087864603820083,6.9546349184447305
1769250138500,145,17,16.864585766929395,22.96372440990944,20.20410961809739
1769250138504,160,32,32.39811461960234,38.30151468027415,35.71215413863211
1769250138508,176,48,44.97461644807412,53.74416959731523,48.26654260968335
1769250138512,182,54,49.22346021846178,59.9116423968308,52.51352227568266
1769250138516,174,46,42.62311822587969,51.92075185097556,45.93822895766705
1769250138520,156,28,27.119576507838403,34.05129749541389,30.48287090039016
1769250138524,136,8,8.167947110590775,14.306955268639769,11.587945155277056
1769250138528,121,-7,-8.159806037687405,-1.2237237620869426,-4.6965148600888575
1769250138532,112,-16,-18.04953549365373,-9.925297304261711,-14.573560070289536
1769250138536,110,-18,-21.10695577965668,-12.152643663250103,-17.648263639336868
1769250138540,111,-17,-19.509284159802917,-10.828009388165746,-16.078485130444008
1769250138544,114,-14,-16.14627675614672,-7.799603217609031,-12.729694061809964
1769250138548,117,-11,-13.07923165382202,-5.1582701065546885,-9.650580649344477
1769250138552,118,-10,-11.04849259966261,-3.879294170067228,-7.5869511978816275
1769250138556,120,-8,-9.883481340934852,-2.1900156645762285,-6.385347255507073
1769250138560,121,-7,-9.16732921904064,-0.6900558776304795,-5.645083640690303
1769250138564,122,-6,-8.61839209256925,0.0243924621104509,-5.089644954830911
1769250138568,122,-6,-8.110336919081622,0.0901628616855791,-4.585258519727571
1769250138572,122,-6,-7.576007104129714,-0.080590816627394,-4.052452093253765
1769250138576,123,-5,-6.989364210186176,1.085328883453009,-3.4583145033181637
1769250138580,124,-4,-6.394298610226182,2.0936108518988092,-2.8492502863560123
1769250138584,124,-4,-5.871480422962076,2.23512286843566,-2.312950158634953
1769250138588,125,-3,-5.449253504157071,2.9444891468659895,-1.8818341284469868
1769250138592,125,-3,-5.064558034776541,3.0995309171016205,-1.491357362574904
1769250138596,125,-3,-4.627704350049349,2.988486225467998,-1.048223033666777
1769250138600,126,-2,-4.11812213039536,4.213848361927395,-0.5307759941464976
1769250138604,127,-1,-3.598665992953677,5.175046486048194,-0.0038531638128793
1769250138608,127,-1,-3.136623821701856,4.989943163239655,0.4636865637300664
1769250138612,127,-1,-2.7332975453144535,5.1874428936601715,0.8717263127430156
1769250138616,128,0,-2.3399356533132147,5.87021423627836,1.2711113800067118
1769250138620,128,0,-1.9184009883299336,6.457211672540809,1.7000088931047512
1769250138624,129,1,-1.461724129959213,6.894671788637027,2.1633646205212687
1769250138628,129,1,-0.9648670799762922,7.35877232039431,2.6646690731077047
1769250138632,130,2,-0.4065773434277336,7.8631096550029,3.2257461136230905
1769250138636,130,2,0.2218612560715529,8.223043196937144,3.857073952438302
1769250138640,131,3,0.879945407952381,9.198700671204763,4.519083447366449
1769250138644,132,4,1.495194536163519,10.108952651026,5.13874317757271
1769250138648,132,4,2.0335868559529953,10.286356684672056,5.681168182256233
1769250138652,133,5,2.5490435575119887,10.885334379444876,6.20019637959808
1769250138656,133,5,3.1486215621039264,11.35434304495575,6.803098594926144
1769250138660,134,6,3.8977568741360793,12.006819179764095,7.554802454051361
1769250138664,135,7,4.752662463206729,13.419984245356924,8.4106739667986
1769250138668,136,8,5.5770106555414936,13.973932224425416,9.234747491693144
1769250138672,136,8,6.2209037741555475,14.265733170384095,9.878948316384449
1769250138676,137,9,6.602368649974509,15.040967563156505,10.262569267971877
1769250138680,137,9,6.752458364433712,15.29774977847989,10.415689672612723
1769250138684,137,9,6.806115678278775,15.243827403883564,10.471214012756793
1769250138688,137,9,6.926865652923679,15.11834598752708,10.591982361814352
1769250138692,137,9,7.191578058505841,15.26155345568952,10.855849969158038
1769250138696,138,10,7.52078173853005,16.00548454149615,11.184213754442355
1769250138700,138,10,7.728387143321526,16.445539298296204,11.390794758887576
1769250138704,138,10,7.656643186019372,16.071243106390526,11.317599878149435
1769250138708,137,9,7.273063238564772,15.392776673673843,10.932693523934123
1769250138712,137,9,6.648547057189136,14.996541086744148,10.307531897559596
1769250138716,136,8,5.860322495202221,14.329138364376693,9.518871134870054
1769250138720,135,7,4.925546296872076,13.16245019180557,8.582716163466113
1769250138724,134,6,3.8201956245866127,12.38588663280008,7.474460549146884
1769250138728,133,5,2.54820557062246,11.155539349946515,6.198719607747595
1769250138732,131,3,1.1858073432257323,9.240776850863009,4.833051045731409
1769250138736,130,2,-0.1380386369469133,8.158196234993579,3.506972272059795
1769250138740,129,1,-1.2964876769635651,7.352319121056857,2.346559556983338
1769250138744,128,0,-2.2040430082105784,6.248610923767586,1.436342371172303
1769250138748,127,-1,-2.8277182799339875,5.3622634242403056,0.8092229107681382
1769250138752,127,-1,-3.1866485512009266,5.043665850181271,0.4462378899712496
1769250138756,127,-1,-3.3418928894815036,5.427234458890389,0.2859236331814827
1769250138760,127,-1,-3.371855148876308,5.094789574481869,0.249788729644419
1769250138764,126,-2,-3.3496514567575906,4.5679734096013185,0.2659864834192575
1769250138768,127,-1,-3.331919995424657,5.103590465133216,0.2793419965296608
1769250138772,127,-1,-3.335027579854854,5.303523668288707,0.2732540903615086
1769250138776,127,-1,-3.292115103158475,5.259195828998305,0.3129471650617703
1769250138780,127,-1,-3.0473978746091315,5.240674362661687,0.5530146158700499
1769250138784,127,-1,-2.440655977837191,5.543201373728835,1.1535744042890006
1769250138788,129,1,-1.4368800634417933,7.102602969904758,2.1499398677617383
1769250138792,130,2,-0.1870203594864337,8.409578526813894,3.3917342999830296
1769250138796,131,3,1.0406726549549368,9.146056827182118,4.6118590743415435
1769250138800,132,4,2.0097532152764703,10.422748018623585,5.574835067141344
1769250138804,133,5,2.642042861245492,11.401009968624152,6.202113352123041
1769250138808,133,5,3.0378275447181915,11.26106855705262,6.592630817475088
1769250138812,133,5,3.3706325612346477,11.333199736573125,6.918950730710649
1769250138816,134,6,3.7283916239782777,12.221691823612495,7.268951749111079
1769250138820,134,6,4.02846700995754,12.43229802585347,7.560442534289854
1769250138824,134,6,4.079546078775901,12.403910182947095,7.602683169817661
1769250138828,134,6,3.7363006770385097,12.326070589191126,7.2508539332301565
1769250138832,133,5,3.0168331677976483,11.285907402799005,6.523369617748455
1769250138836,132,4,2.0915448240964896,10.318079059275764,5.590735132836777
1769250138840,131,3,1.1617964194471662,9.375694954180643,4.654097355140278
1769250138844,130,2,0.3356315882498882,8.51128326441025,3.820744741055413
1769250138848,130,2,-0.3990072884884359,8.260720173383461,3.077641749514653
1769250138852,129,1,-1.1024397576734468,7.406273765385654,2.364262120310238
1769250138856,128,0,-1.805570943451369,6.204546501258316,1.6506279542213456
1769250138860,127,-1,-2.5050831059378433,5.571853342927654,0.9410345419754425
1769250138864,127,-1,-3.209761441742294,5.3070151157992695,0.2268004174589333
1769250138868,126,-2,-3.9604463061046937,4.567556365707787,-0.5329390238883756
1769250138872,125,-3,-4.795157689042841,3.0951407076689588,-1.3756534971498366
1769250138876,124,-4,-5.69786785066897,2.584952193885556,-2.285504900926171
1769250138880,124,-4,-6.57591092507573,2.2094405522107765,-3.172022261993807
1769250138884,122,-6,-7.288704532921213,0.7119787559150108,-3.897036494480104
1769250138888,122,-6,-7.727648206170543,0.2325055372642426,-4.351257073175978
1769250138892,122,-6,-7.899197021104996,0.4474500350056756,-4.536630006356598
1769250138896,122,-6,-7.926167107154301,0.2976624817833411,-4.570909925867641
1769250138900,122,-6,-7.938532456091049,0.4952391950348902,-4.583427870327032
1769250138904,122,-6,-7.946458150133534,0.5194693621773316,-4.59086749765768
1769250138908,122,-6,-7.840267521177958,0.4136484003085714,-4.494210432271441
1769250138912,122,-6,-7.5621436921833665,0.3708041851773824,-4.241858726110684
1769250138916,122,-6,-7.300276625018176,0.340470973692712,-4.01579851147726
1769250138920,122,-6,-7.43521491006924,0.5524116465527964,-4.178868878810146
1769250138924,122,-6,-8.08946235613698,0.4615698452203567,-4.8365201260181845
1769250138928,122,-6,-8.500036502165118,0.5513999163311736,-5.224589843488738
1769250138932,124,-4,-6.79405870149866,2.256930265271313,-3.489471734156228
1769250138936,129,1,-0.7162120773179321,7.487398767023945,2.597098119518508
1769250138940,139,11,10.747490127438995,17.475651849725796,14.034817477144506
1769250138944,153,25,25.785574958523803,31.57632369356321,29.02076579149113
1769250138948,169,41,39.58358894830621,47.53002345586887,42.76347311882812
1769250138952,179,51,46.26147026779849,57.26995819791863,49.4042794586758
1769250138956,174,46,42.07448875576496,52.48451701914622,45.2092371069058
1769250138960,157,29,27.784883829722144,35.422614984103205,30.939512467084953
1769250138964,136,8,8.453701639122231,14.634718157730337,11.643014664585724
1769250138968,119,-9,-9.267141813650433,-2.470693287822824,-6.051166836287958
1769250138972,109,-19,-20.491453958166616,-12.590896733365357,-17.278247761792166
1769250138976,106,-22,-23.997931197608967,-15.487133735713313,-20.821932993408065
1769250138980,109,-19,-21.829577613708757,-12.574292677386191,-18.70898359800329
1769250138984,113,-15,-17.343499539001876,-8.349667591314251,-14.269990004508614
1769250138988,116,-12,-13.222782405748225,-5.569075438554152,-10.16899581603984
1769250138992,118,-10,-10.575686294938253,-3.4036475467937306,-7.513925833022954
1769250138996,120,-8,-9.23479277273936,-1.6391970812138466,-6.153880349636437
1769250139000,121,-7,-8.577420150986171,-0.3453944953998231,-5.487118368375572
1769250139004,122,-6,-8.127624472980989,0.4199362664195103,-5.048856360092073
1769250139008,122,-6,-7.691385191065705,0.650927665443124,-4.640217474184519
1769250139012,122,-6,-7.240545069982404,0.4730521961147236,-4.218014915955987
1769250139016,122,-6,-6.818859548624686,0.5049434482705148,-3.813738950285438
1769250139020,123,-5,-6.5117947619343575,1.6374687591792476,-3.5124722699578093
1769250139024,124,-4,-6.374807736206432,2.3621530939080806,-3.3787330295309816
1769250139028,123,-5,-6.3221429367241715,1.7992632417589771,-3.334756863415376
1769250139032,123,-5,-6.126859546979788,1.3088134991526026,-3.153577966704309
1769250139036,123,-5,-5.601302140107478,1.7849269649231836,-2.642652848491843
1769250139040,125,-3,-4.792090871285704,3.3873550329381548,-1.84611792992058
1769250139044,126,-2,-3.964949641685309,4.6179614946595295,-1.0313284424872788
1769250139048,126,-2,-3.3794316586942688,4.609865727365298,-0.459192977544377
1769250139052,126,-2,-3.0841407418511153,4.466657025128252,-0.1765772354732464
1769250139056,126,-2,-2.9194809672271824,4.777305435626769,-0.0218151095913869
1769250139060,127,-1,-2.679534128899047,5.330544781885413,0.2097506518174587
1769250139064,127,-1,-2.252317646995463,5.808066756019655,0.6265342306268734
1769250139068,128,0,-1.641076456322607,6.362818604230538,1.2237614064537576
1769250139072,128,0,-0.9117857197657112,6.822342102995799,1.9378596695613872
1769250139076,129,1,-0.1438042379329811,7.431296691428088,2.692941454053626
1769250139080,130,2,0.6024943605759594,8.722613726248523,3.429331104038619
1769250139084,131,3,1.3193299691566651,9.468140912265584,4.136981631266771
1769250139088,131,3,2.0645697387635646,9.69053418341166,4.871577608466715
1769250139092,132,4,2.911596690898052,10.597693753054656,5.706450801131601
1769250139096,133,5,3.856967934564758,11.630780635655588,6.6392981096561385
1769250139100,134,6,4.776476284736544,12.627080768170078,7.546527922893007
1769250139104,135,7,5.488742991920196,13.544725470643854,8.246734589164417
1769250139108,135,7,5.878538857173543,13.690640954400047,8.62492846653187
1769250139112,135,7,5.972093104464115,13.60118379938614,8.707910056142856
1769250139116,135,7,5.906034860524927,13.685644076611958,8.632240187617999
1769250139120,135,7,5.82891219965031,13.603313469695395,8.545333418891545
1769250139124,135,7,5.819022263496556,13.605964431134204,8.524287237701213
1769250139128,135,7,5.867973645639271,13.681238447393898,8.560746150226
1769250139132,135,7,5.920184351327536,13.628322573563423,8.600444937236988
1769250139136,135,7,5.928719414534524,13.706348434634926,8.597786256918292
1769250139140,135,7,5.893185394880781,13.622403464168803,8.55253395483151
1769250139144,135,7,5.863263508932986,13.6033511927676,8.513396874858064
1769250139148,135,7,5.906581226953245,13.765773700448776,8.546987203299775
1769250139152,135,7,6.054555253095812,13.52066387411584,8.68446448485156
1769250139156,135,7,6.258275519088494,13.910132427508922,8.877183416864238
1769250139160,136,8,6.391044586845328,14.406123943204785,8.998737459743861
1769250139164,135,7,6.302756500602851,13.889603839034953,8.899417109183277
1769250139168,135,7,5.886501701842765,13.509242091693157,8.472863024772497
1769250139172,134,6,5.113499951394902,12.792833082274504,7.690390197137639
1769250139176,133,5,4.030501264533653,11.704890161953458,6.598073880177697
1769250139180,132,4,2.739037435378943,10.599270299997196,5.296839135853589
1769250139184,130,2,1.3678629186104618,8.803893969773151,3.915762988526053
1769250139188,129,1,0.0438319588138824,7.559856949708433,2.5824254995409293
1769250139192,128,0,-1.124802482446468,6.846588274291219,1.405099729056694
1769250139196,127,-1,-2.047699579173322,5.623042454450678,0.4734573312757568
1769250139200,126,-2,-2.6577535955933618,4.764765927010314,-0.1458894500417922
1769250139204,126,-2,-2.942034413819651,4.662907619943338,-0.440057905082009
1769250139208,126,-2,-2.972806703371318,4.728453697558365,-0.4811641197491303
1769250139212,126,-2,-2.8925058142802267,4.731194514819193,-0.4111617237468352
1769250139216,126,-2,-2.8448036040670313,4.744699484867672,-0.3727912369346631
1769250139220,126,-2,-2.89243957591473,4.708479544080584,-0.4281306611789544
1769250139224,126,-2,-2.9734892286965544,4.733723370837268,-0.5157348304927385
1769250139228,126,-2,-2.9269178604180945,4.705201337886024,-0.4759643131724036
1769250139232,126,-2,-2.583090095834023,4.78294183158779,-0.1403345442861401
1769250139236,127,-1,-1.872312707809936,5.723041521616414,0.5608358351138303
1769250139240,128,0,-0.8800103063511107,6.791062720572117,1.5432117216452967
1769250139244,129,1,0.1952108786645942,7.654125812721042,2.609530588964483
1769250139248,130,2,1.1560218290957165,8.864001562252035,3.5629555848424905
1769250139252,131,3,1.91472320877716,9.600695012437974,4.315041053611979
1769250139256,131,3,2.517727259717081,9.986534568788706,4.911104265995311
1769250139260,132,4,3.065954289216235,10.525463494538148,5.451830034862148
1769250139264,132,4,3.5930742690287696,10.98526068130383,5.971526871206504
1769250139268,133,5,4.007062681319898,11.558302550878306,6.378531130898171
1769250139272,133,5,4.153083425477442,11.928688875943108,6.517449752491309
1769250139276,133,5,3.943539826454957,11.72109011695979,6.300120720389223
1769250139280,132,4,3.4296900083733624,10.776233819999186,5.778387432690648
1769250139284,131,3,2.7444422804738755,9.834706299703695,5.086370257211505
1769250139288,131,3,1.9827437801711536,9.664998316967802,4.319214748438596
1769250139292,130,2,1.1509402665988482,8.938649374412826,3.4821531474905862
1769250139296,129,1,0.2294291813370026,7.676388297082063,2.5546527213198873
1769250139300,128,0,-0.7392388357574509,6.912762208238746,1.5795468041830492
1769250139304,127,-1,-1.6455229023449407,5.697829724960671,0.6670788944098611
1769250139308,126,-2,-2.399707328103126,4.826202024607567,-0.093123574151966
1769250139312,126,-2,-3.020189837674393,4.850781096908943,-0.7201125440917324
1769250139316,125,-3,-3.634548266467685,3.75742906493306,-1.3413652422840965
1769250139320,124,-4,-4.388341106450924,2.9144432203085975,-2.1011693366838613
1769250139324,124,-4,-5.33297725026867,2.687226441242589,-3.0497797075021333
1769250139328,122,-6,-6.376251682210806,0.8764956111848425,-4.095532946437133
1769250139332,121,-7,-7.332929453384342,-0.1646889746452089,-5.055628226766564
1769250139336,121,-7,-8.039178728289725,-0.1844419465671922,-5.768759415214498
1769250139340,120,-8,-8.446087885540557,-1.1008902686149007,-6.18563234142228
1769250139344,120,-8,-8.628646374942186,-1.283458065680481,-6.376614818687528
1769250139348,120,-8,-8.711484349898996,-1.0993053237406762,-6.460624131839185
1769250139352,120,-8,-8.765859777623616,-1.1961470064830433,-6.50822287302483
1769250139356,120,-8,-8.758542747391642,-1.0650926839173156,-6.4938398691129615
1769250139360,120,-8,-8.61863995704313,-1.225859171114427,-6.358490754733439
1769250139364,120,-8,-8.40142887660295,-1.1048521247866958,-6.163366605587953
1769250139368,120,-8,-8.396906909070243,-1.2627464155878378,-6.18990459691894
1769250139372,119,-9,-8.9725419957835,-2.0051500168042384,-6.785150957575016
1769250139376,119,-9,-10.076158206378894,-2.1985496054330973,-7.8797498406487
1769250139380,119,-9,-10.655808066922898,-2.075645874845778,-8.424092343922982
1769250139384,121,-7,-8.568078713056348,-0.2089549841801741,-6.298372898059439
1769250139388,127,-1,-1.4810259812457116,5.860017088273985,0.8012752240646575
1769250139392,138,10,11.3739877470714,16.935057958633752,13.63231368869696
1769250139396,154,26,27.66156838728359,32.9038213819682,29.872055359183346
1769250139400,171,43,42.02885956787681,49.883873819278215,44.1926808024078
1769250139404,180,52,48.38920177811565,58.827394864485285,50.52845544736959
1769250139408,174,46,43.28796227239183,52.80704552583549,45.433553112971715
1769250139412,156,28,28.101090379786665,34.930416735151816,30.28012841440949
1769250139416,135,7,8.426250259943057,13.905297870143205,10.650230412347897
1769250139420,118,-10,-8.964007611923462,-3.0675310684099504,-6.707040016593908
1769250139424,109,-19,-19.521682521486593,-12.057225219020903,-17.263103001694454
1769250139428,107,-21,-22.55723893259128,-14.18407740808992,-20.330046602001023
1769250139432,109,-19,-20.469346651344953,-12.027282393236035,-18.287821487262654
1769250139436,113,-15,-16.582671634002367,-8.182390383118825,-14.4346308874101
1769250139440,115,-13,-13.233658323990722,-6.027286215032783,-11.090206550761684
1769250139444,116,-12,-11.144561016531044,-5.042819909497005,-8.979397040014426
1769250139448,118,-10,-9.981261811128793,-3.141770828803791,-7.786578915478497
1769250139452,120,-8,-9.231597259246794,-1.0029589002831365,-7.020518236037637
1769250139456,121,-7,-8.652522438559636,-0.2486609457868827,-6.446611825624469
1769250139460,120,-8,-8.201579102372374,-0.933298261274695,-6.013424428209671
1769250139464,120,-8,-7.838805731602399,-1.108087497441593,-5.664538730357552
1769250139468,121,-7,-7.4870543873596915,0.0005085887621785,-5.314133219371222
1769250139472,122,-6,-7.099398481881214,0.9109143313421492,-4.9197095679244
1769250139476,122,-6,-6.6760549336902635,0.8096703506620377,-4.490999027241119
1769250139480,122,-6,-6.2192330869107595,1.0529257719505916,-4.034542055744984
1769250139484,123,-5,-5.714946063496443,1.895504854062402,-3.533514495220204
1769250139488,123,-5,-5.165851792210231,2.103514239918258,-2.9860047629591597
1769250139492,124,-4,-4.61158944659797,2.8154118240046895,-2.4305672226063124
1769250139496,125,-3,-4.090308253379808,3.943873603056268,-1.9077488745450144
1769250139500,125,-3,-3.5828738907272504,3.902068128688368,-1.4004293919310973
1769250139504,125,-3,-3.0217206641959735,4.080386752667086,-0.8401355330445948
1769250139508,126,-2,-2.3732100846423316,4.99441514782408,-0.191166027806801
1769250139512,127,-1,-1.6957186815787924,5.938529296173053,0.4881434802835327
1769250139516,128,0,-1.0869388064816774,6.869930451290882,1.0981477133771604
1769250139520,128,0,-0.5701443245866682,6.951785681896719,1.6146055369341084
1769250139524,128,0,-0.0549831294525446,7.072965540101747,2.129368326542139
1769250139528,129,1,0.5764777795956175,8.056027998679166,2.762275349167782
1769250139532,130,2,1.3568659658333422,8.905731669867997,3.5456499156490655
1769250139536,131,3,2.2176646122190364,9.945339700846718,4.4087800053106445
1769250139540,132,4,3.0731154551075175,10.864771040500964,5.2645202598152405
1769250139544,132,4,3.894227072146143,11.200956201655686,6.0849195304618755
1769250139548,133,5,4.689710960901324,11.959709062943656,6.880804632285965
1769250139552,134,6,5.432735447764718,13.053066974813088,7.626072461431308
1769250139556,135,7,6.037124407997403,13.815005857936416,8.233388776938058
1769250139560,135,7,6.419092881214798,14.01289625280002,8.617641818529812
1769250139564,135,7,6.572980936248291,14.072866299789496,8.773075175626897
1769250139568,135,7,6.5740951684865605,14.130085970877024,8.7756648407367
1769250139572,135,7,6.50507567552492,13.915551804078682,8.708315825160387
1769250139576,135,7,6.3810717586624355,13.989949948304153,8.58582366429734
1769250139580,135,7,6.146440559017492,13.840909235481272,8.3523532874888
1769250139584,134,6,5.7463636738001895,13.285730692252056,7.953652102456872
1769250139588,134,6,5.20983653486079,12.934234223131789,7.419617380096594
1769250139592,133,5,4.672038317605823,12.16819687778142,6.885600186022883
1769250139596,133,5,4.314509290534879,11.744222876799878,6.5320766809778466
1769250139600,133,5,4.263056456789109,12.117524693697067,6.483412088779948
1769250139604,133,5,4.50692202756239,12.037345902875336,6.728493689604783
1769250139608,133,5,4.883512162876659,12.200192506340487,7.10572517512474
1769250139612,134,6,5.1406278569397745,12.975683799992147,7.363977875975184
1769250139616,134,6,5.052976291884292,12.907094617091015,7.278179794735499
1769250139620,133,5,4.528729485467464,12.02200603046882,6.756435958148946
1769250139624,132,4,3.634278853228153,11.113518769304749,5.8654168331002925
1769250139628,131,3,2.5272364445944007,10.185507537419976,4.762814999682292
1769250139632,130,2,1.3639774476441937,9.01576320154378,3.6041122559449983
1769250139636,129,1,0.2528835027433183,7.88980623623349,2.4961643613557953
1769250139640,128,0,-0.7374417456447362,7.074850442497459,1.5067661221534716
1769250139644,127,-1,-1.5576927648111956,6.067255614172969,0.6862484203107315
1769250139648,126,-2,-2.1803782162098058,5.271495874202102,0.064515716004238
1769250139652,126,-2,-2.611012555105922,4.9744577267129735,-0.3622693154793257
1769250139656,126,-2,-2.8648064249117984,4.924144845198429,-0.6102140340419835
1769250139660,126,-2,-2.9064491372866947,5.117202877964699,-0.6467458142870113
1769250139664,126,-2,-2.623433991719606,4.977844931102615,-0.3611606029672738
1769250139668,126,-2,-1.9031368518099232,5.461256859880471,0.3599421724566782
1769250139672,128,0,-0.7748183973012124,6.757947720372051,1.4893417187785896
1769250139676,129,1,0.5258882216543037,8.201152996146975,2.7923480714943043
1769250139680,131,3,1.668555986400457,9.862136654175169,3.9379427311938695
1769250139684,131,3,2.442639644993061,10.229565909851058,4.714992103269649
1769250139688,131,3,2.885761132048239,10.278786991819093,5.161484470721421
1769250139692,132,4,3.2101315503077066,10.902377826069255,5.490048627972456
1769250139696,132,4,3.599979693574318,11.147359695064887,5.884274018708499
1769250139700,133,5,4.058955377590863,11.88787849274636,6.346531208997486
1769250139704,133,5,4.420298686597089,12.288880675205442,6.7094512782381495
1769250139708,133,5,4.483482973507096,12.199259413314346,6.773173297157845
1769250139712,133,5,4.149895542543891,12.02623013207252,6.440541244948862
1769250139716,132,4,3.4567315681992623,11.029559955730956,5.750038950428706
1769250139720,131,3,2.5104750033230703,10.040717530875884,4.8083155779420705
1769250139724,130,2,1.406691838653221,9.169501649758269,3.7095927362621026
1769250139728,129,1,0.215846567082135,8.343377885462333,2.5224744746241448
1769250139732,128,0,-0.976823556453243,6.9000012233443755,1.3316503296536757
1769250139736,126,-2,-2.05980485556627,5.1808279980600975,0.249844923555818
1769250139740,126,-2,-2.951926426712137,4.914042725277332,-0.6404505229903741
1769250139744,125,-3,-3.667436866425991,4.324261139388774,-1.353456848046685
1769250139748,124,-4,-4.309814490083317,3.231208892391333,-1.9932873948693464
1769250139752,124,-4,-4.993325568398405,3.003610634497128,-2.67424979756375
1769250139756,123,-5,-5.762450990749431,2.144531040629909,-3.4403439661038338
1769250139760,122,-6,-6.572620562726422,0.900075029261366,-4.247177632295378
1769250139764,121,-7,-7.335096517326487,0.4503334622502883,-5.0074248352655175
1769250139768,121,-7,-7.975120422686281,0.0578573146704641,-5.647607317257899
1769250139772,120,-8,-8.453888634597213,-0.7402658291704274,-6.127651247248123
1769250139776,120,-8,-8.751830007586017,-1.124383728206631,-6.423821697406842
1769250139780,120,-8,-8.844874337770344,-0.8089380446792092,-6.508510719396407
1769250139784,120,-8,-8.705232327433745,-0.7909170613586376,-6.355857336783337
1769250139788,120,-8,-8.346398664563221,-0.7074012894147437,-5.987985058464116
1769250139792,121,-7,-7.905451644847402,0.0908059234282152,-5.551945162562939
1769250139796,121,-7,-7.6999913667153566,0.0252449764114341,-5.367001935596224
1769250139800,120,-8,-8.145770898041958,-0.9230133252627084,-5.836411353235868
1769250139804,119,-9,-9.440489038988895,-1.6531532861132696,-7.137301886857651
1769250139808,118,-10,-11.065975566857958,-2.8293283111036267,-8.739299596759736
1769250139812,118,-10,-11.419976452146765,-2.746682282713804,-9.049522779190529
1769250139816,122,-6,-8.075349471960138,0.876439873532668,-5.667758195118801
1769250139820,129,1,1.0270376275721844,8.26438209732618,3.4407436097899606
1769250139824,142,14,15.831661824530286,21.201920280784822,18.216994917227243
1769250139828,160,32,33.03080604705522,39.35178530530685,35.37106929923338
1769250139832,177,49,46.77238913113018,56.10743430265176,49.075238637757806
1769250139836,183,55,51.34686453799265,61.99621108541836,53.637058653069616
1769250139840,174,46,44.3652432266354,53.13536738685764,46.67253547068033
1769250139844,156,28,28.25828260045328,35.232615731449215,30.605208675133625
1769250139848,136,8,8.98494728533946,15.35918580800018,11.376231194323973
1769250139852,120,-8,-7.173767535841234,-0.8784953360209862,-4.755196962201115
1769250139856,112,-16,-16.593326595864827,-8.816493367699493,-14.178577054065608
1769250139860,111,-17,-19.300761836948567,-9.98933942173137,-16.917862075435664
1769250139864,112,-16,-17.795475574238168,-8.6086845321219,-15.453097956911703
1769250139868,114,-14,-14.946506983544392,-6.873231581413785,-12.629403633544978
1769250139872,115,-13,-12.504683351984124,-5.667637947443051,-10.18459215681641
1769250139876,117,-11,-10.902017333103329,-3.977311748842558,-8.556983476680465
1769250139880,119,-9,-9.902965315727034,-1.7773236783885196,-7.531041997295469
1769250139884,120,-8,-9.251446489895429,-0.780140759090985,-6.868678656338063
1769250139888,120,-8,-8.85406010274856,-0.7626770312213971,-6.47971514451423
1769250139892,120,-8,-8.64328855597989,-0.7431833637742944,-6.285529955446618
1769250139896,120,-8,-8.476499190968195,-0.8977721773668463,-6.129497476571702
1769250139900,120,-8,-8.208994308609864,-0.7574018065808588,-5.8613795466112775
1769250139904,121,-7,-7.803943166900258,0.214196706493654,-5.449530517135787
1769250139908,122,-6,-7.313947519235047,1.2164763724651042,-4.955447839323609
1769250139912,122,-6,-6.761267205674817,1.2989224566862054,-4.405191104242883
1769250139916,122,-6,-6.087618799453404,1.0577595054877342,-3.73706920456073
1769250139920,123,-5,-5.249699871524713,2.3888943336135338,-2.902785167240541
1769250139924,125,-3,-4.3322036474074554,4.053326096243069,-1.9862297783771603
1769250139928,125,-3,-3.5177717449580204,4.396904804652577,-1.172782577768969
1769250139932,126,-2,-2.9338345637885856,5.095267793413367,-0.5914601122857803
1769250139936,126,-2,-2.544230215290488,5.314796940622193,-0.2046021359909589
1769250139940,126,-2,-2.19283931487811,5.150875062462238,0.1457225129194901
1769250139944,127,-1,-1.7368618625417702,6.347789284371482,0.6013237267744891
1769250139948,128,0,-1.133072586364862,7.070462870629903,1.2026115891787228
1769250139952,128,0,-0.4237800284193203,7.448143609016732,1.9065083095684447
1769250139956,129,1,0.3173433300451593,7.985092454945943,2.6419902978336394
1769250139960,129,1,1.0179532581491997,8.516079628545347,3.339484144876707
1769250139964,131,3,1.6325840224343713,10.01229786161509,3.9529419721528822
1769250139968,131,3,2.184610169251748,10.395590443775037,4.502946842217181
1769250139972,131,3,2.7774265723774487,10.143422416885189,5.0917080701758035
1769250139976,132,4,3.5191280266079925,11.29991386417808,5.828746181171994
1769250139980,133,5,4.4092688093918495,12.265491751124198,6.715030678322257
1769250139984,134,6,5.308107886966199,13.238754479481074,7.610200563450865
1769250139988,135,7,6.030988276007412,14.23764370785224,8.328122229133736
1769250139992,135,7,6.474016111582512,14.244295641479102,8.764922674388323
1769250139996,135,7,6.648219535877082,14.270771279356795,8.933400210372039
1769250140000,135,7,6.607793138343422,14.290594927278253,8.889040758850369
1769250140004,135,7,6.374939908012354,14.248723341793864,8.653031182713518
1769250140008,135,7,5.953811250520949,14.245358262676856,8.227316571760824
1769250140012,134,6,5.404184953366038,13.238716352321909,7.671061673291866
1769250140016,133,5,4.865106680565168,12.295699317307845,7.125036311052106
1769250140020,133,5,4.482338715811094,12.295866510313513,6.736732239905469
1769250140024,133,5,4.315497295481498,12.256151748583054,6.5652990203167585
1769250140028,133,5,4.32165103883631,12.265024481493864,6.5659194271256744
1769250140032,133,5,4.415967469124422,12.238405153128852,6.652887067571969
1769250140036,133,5,4.529701563687132,12.282768460780108,6.758529451733101
1769250140040,133,5,4.610566930963715,12.370435798185756,6.83216486491366
1769250140044,133,5,4.590640944930852,12.144165511429126,6.80611995021048
1769250140048,133,5,4.38343985473484,12.460927153739068,6.592639401898409
1769250140052,133,5,3.928341129738556,12.002212959325735,6.130019412832803
1769250140056,131,3,3.2338302531733505,10.565648581455472,5.4271856143570805
1769250140060,131,3,2.3691550026881476,10.090218352141097,4.554491356110379
1769250140064,130,2,1.4199821680004543,9.430566955013608,3.597791222712334
1769250140068,129,1,0.4609504444092911,8.23369976899263,2.6310896980293426
1769250140072,128,0,-0.440710791574032,7.19536101361477,1.7213190618513976
1769250140076,127,-1,-1.2188132772167817,6.450581252579884,0.9348307662179812
1769250140080,127,-1,-1.816757796623084,6.140207122492962,0.3281737334231003
1769250140084,126,-2,-2.2042191804859383,5.475309475956209,-0.0685287961947542
1769250140088,126,-2,-2.393216151878786,5.149680362496177,-0.2671255500498808
1769250140092,126,-2,-2.4434462007748574,5.344534092826934,-0.3269829745071235
1769250140096,126,-2,-2.4395457591554006,5.284308950511502,-0.3328301317564222
1769250140100,126,-2,-2.439645800499674,5.315525238967728,-0.3430905306217182
1769250140104,126,-2,-2.43075070553842,5.34202459039212,-0.3444380340347135
1769250140108,126,-2,-2.333638075069511,5.267287602154387,-0.2567427980435766
1769250140112,126,-2,-2.056990656156692,5.292052650764505,0.0114064065534336
1769250140116,127,-1,-1.550862008269247,6.290680023572455,0.50835104754074
1769250140120,128,0,-0.8175133518881696,7.376092038406184,1.230093350753395
1769250140124,128,0,0.1012257343402591,7.2539729328977955,2.13536737704396
1769250140128,129,1,1.1184156690349392,8.414513187368426,3.1397461182401845
1769250140132,131,3,2.0954113502081704,10.13346748243542,4.106026981007651
1769250140136,131,3,2.889681414945504,10.46062444333787,4.890510996340998
1769250140140,132,4,3.444943933963123,11.226226021181798,5.434920369362468
1769250140144,132,4,3.8298253268391345,11.419170733559122,5.807403580878624
1769250140148,132,4,4.165343079648361,11.26721924294693,6.130094951081252
1769250140152,133,5,4.500370093061731,12.282181458378547,6.452891833704746
1769250140156,133,5,4.755507296786063,12.34841783375636,6.6961716505206
1769250140160,133,5,4.788700011328657,12.30649826789329,6.716863491373886
1769250140164,133,5,4.514900932365981,12.44075345405392,6.42934211699589
1769250140168,132,4,3.963546324733319,11.152261753875209,5.8635578691284795
1769250140172,131,3,3.2262491707514664,10.506933438640043,5.112208418297694
1769250140176,131,3,2.360986256191413,10.0418544304241,4.233827582026706
1769250140180,129,1,1.3614167981851453,8.712459841085895,3.2216470429222532
1769250140184,129,1,0.2245114074656062,7.998912035117089,2.0718213451962724
1769250140188,127,-1,-0.9634132627290048,6.651445526793072,0.8702504996702505
1769250140192,126,-2,-2.0300562753389184,4.969571502032338,-0.2107607725242606
1769250140196,125,-3,-2.828003253161828,4.611520366968778,-1.02388480000378
1769250140200,125,-3,-3.356556272024677,4.171154767435636,-1.5685074492065725
1769250140204,124,-4,-3.779552817827832,3.531124330640144,-2.007779505229025
1769250140208,124,-4,-4.31682963481757,3.197921679971535,-2.5601948813081163
1769250140212,123,-5,-5.091190608462292,2.3294599620048215,-3.348148765890736
1769250140216,122,-6,-6.041669382035037,1.3480298904933647,-4.312342644986735
1769250140220,121,-7,-6.963529969015526,0.3711455056636339,-5.250524925748025
1769250140224,120,-8,-7.64637205963262,-0.5704305036385726,-5.952757806321174
1769250140228,120,-8,-8.007582779851852,-0.73994524431237,-6.333348404658204
1769250140232,120,-8,-8.11692680479886,-0.693266338370508,-6.457299067487941
1769250140236,120,-8,-8.098038966500916,-0.6570324481072376,-6.4463216635049845
1769250140240,120,-8,-8.009553731555933,-0.5723975697427512,-6.363743567061827
1769250140244,120,-8,-7.840973845923596,-0.634984908874868,-6.209202937753317
1769250140248,120,-8,-7.653164016742111,-0.6336922326304038,-6.051570883710221
1769250140252,120,-8,-7.720725497021278,-0.8380943099456495,-6.1619458776026566
1769250140256,119,-9,-8.443020066515293,-1.471013605281458,-6.922658503811888
1769250140260,118,-10,-9.90213456508572,-2.7672417120145063,-8.39618716316494
1769250140264,117,-11,-11.2526143744514,-3.3985795378027124,-9.732298244600788
1769250140268,119,-9,-10.455680608011416,-1.867924008543744,-8.909987596575064
1769250140272,123,-5,-4.918222794371184,2.398268703210515,-3.3647086124238488
1769250140276,133,5,6.889533417644897,12.32384896785093,8.415788041059248
1769250140280,149,21,23.65619463135491,28.475897419443157,25.125459506727932
1769250140284,168,40,40.71257832709133,47.3805196802998,42.11663608111561
1769250140288,182,54,51.70641882131166,61.37981069707206,53.059789129760944
1769250140292,182,54,51.84390330911737,61.07093810270098,53.17514532234132
1769250140296,168,40,40.65991241037921,47.616972922106186,41.99939026351276
1769250140300,149,21,22.37221678509781,28.09808907576151,23.73842048710643
1769250140304,129,1,3.552768295926659,8.797476190875079,4.9413519857545545
1769250140308,117,-11,-10.278068485082136,-3.937233656056609,-8.894058669640357
1769250140312,111,-17,-16.96189382715369,-9.494318608504582,-15.617152779335695
1769250140316,111,-17,-17.760636809716615,-9.752833296310255,-16.476817687293554
1769250140320,113,-15,-15.632187799560011,-7.606370557857213,-14.405780135784248
1769250140324,114,-14,-13.190919271554687,-6.505754042753505,-11.997782547361016
1769250140328,115,-13,-11.631897595032152,-5.696229708213149,-10.444309695300255
1769250140332,116,-12,-10.904151786475056,-4.627310574132959,-9.7082975055408
1769250140336,117,-11,-10.508911308512582,-3.653269133036991,-9.311387329985909
1769250140340,118,-10,-10.117449672600475,-2.68546629916116,-8.937421768130463
1769250140344,118,-10,-9.679056097266423,-2.4651984843149712,-8.532927722288129
1769250140348,118,-10,-9.234983985447585,-2.7217510685824244,-8.125590835383687
1769250140352,118,-10,-8.787650854958692,-2.5524285743294826,-7.705730592800003
1769250140356,119,-9,-8.32767417389307,-1.7013723240067673,-7.262638444911995
1769250140360,120,-8,-7.881366389251415,-0.6790674050156227,-6.830525017483649
1769250140364,120,-8,-7.470528968769789,-0.429394288582948,-6.438703214901201
1769250140368,120,-8,-7.0518018234902105,-0.8259578992005494,-6.044003474351335
1769250140372,120,-8,-6.54377598775096,-0.3186317563127083,-5.560289860428442
1769250140376,122,-6,-5.913583453390518,0.9858136807115904,-4.951995692834667
1769250140380,122,-6,-5.2037726412702945,1.7028476069864036,-4.263353924046957
1769250140384,123,-5,-4.470148415886018,2.13415026668454,-3.5524507667641223
1769250140388,123,-5,-3.726713879005165,2.6369405817538443,-2.8327286736577655
1769250140392,124,-4,-2.9705266292224644,3.261767031671864,-2.099255332540661
1769250140396,125,-3,-2.2350139544873704,4.368133397228406,-1.385324609937724
1769250140400,126,-2,-1.5811050411532093,5.382973400779699,-0.75367239470128
1769250140404,126,-2,-1.0313608259578535,5.387347849138595,-0.2277116833097667
1769250140408,126,-2,-0.5380398777721958,5.440307683061055,0.2416348978807889
1769250140412,127,-1,-0.0277090727453239,6.457330203544953,0.729154161280537
1769250140416,128,0,0.5402784759529924,7.167200182011387,1.2748961363564155
1769250140420,128,0,1.170807789697117,7.62926805162876,1.8823341785688592
1769250140424,129,1,1.8674331124372856,8.089374877903133,2.554884692977369
1769250140428,129,1,2.6430833829610902,8.79387876837899,3.306524598273671
1769250140432,131,3,3.4941212860926028,10.078571863905667,4.134246302105484
1769250140436,131,3,4.374724043006674,10.570877640109169,4.991771074310278
1769250140440,132,4,5.199160414922331,11.244368191877609,5.792491619765111
1769250140444,133,5,5.867458021452664,12.437323840583971,6.436044376580828
1769250140448,133,5,6.295310039360623,12.504715933147908,6.838701579306376
1769250140452,133,5,6.431506579842165,12.303625307695777,6.950369925927837
1769250140456,133,5,6.264405634899671,12.436496408414536,6.7597651593972845
1769250140460,133,5,5.8360892806028115,12.309456497027131,6.3080760362370825
1769250140464,132,4,5.261009240406388,11.432013679291998,5.708954783024174
1769250140468,131,3,4.708639919512282,10.476231608387137,5.132355957967899
1769250140472,131,3,4.332084192949148,10.357147807173394,4.732137088462071
1769250140476,131,3,4.193865776147298,10.39219443466232,4.570239688890543
1769250140480,131,3,4.2533516243169105,10.353624497682402,4.604610025665016
1769250140484,131,3,4.412512133084043,10.405835451005917,4.737033293449964
1769250140488,131,3,4.562941416403222,10.486425028236084,4.860876241324895
1769250140492,131,3,4.603164528370305,10.365663508388884,4.876594620244031
1769250140496,131,3,4.451438548952298,10.369304512926508,4.702283031366058
1769250140500,131,3,4.0817627103694765,10.411080108903754,4.309768448678218
1769250140504,130,2,3.554648106385266,9.328746198856244,3.757826752618032
1769250140508,129,1,2.983719910994332,8.578283168031376,3.160614369133479
1769250140512,129,1,2.438998121776178,8.272767788830134,2.5899603472727986
1769250140516,128,0,1.8771453005977463,7.450027718381046,2.003273313603514
1769250140520,128,0,1.1852350604150708,7.379713569065833,1.2866777838108212
1769250140524,127,-1,0.310208377685762,6.325590845543287,0.3861702079424911
1769250140528,125,-3,-0.6536049254242524,4.616015237663813,-0.603327088846696
1769250140532,125,-3,-1.510268144469967,4.194325586467537,-1.4845397525047803
1769250140536,124,-4,-2.095116018875774,3.560619671061816,-2.092679274766432
1769250140540,124,-4,-2.3667201095965895,3.265823940864756,-2.387852202109789
1769250140544,124,-4,-2.3886910585125056,3.471693211582388,-2.4352402730700407
1769250140548,124,-4,-2.2497203847954212,3.4519389895255044,-2.323380627944697
1769250140552,124,-4,-2.0163758191697276,3.349244948886472,-2.117079562075762
1769250140556,124,-4,-1.7503205214613968,3.409445186932192,-1.8765706388710508
1769250140560,125,-3,-1.5314264055724889,4.42310188235529,-1.682009252678384
1769250140564,125,-3,-1.4245280059477226,4.345956421195188,-1.5992995594689918
1769250140568,124,-4,-1.4139550535531231,3.5532210265133246,-1.6130674248452823
1769250140572,125,-3,-1.383868479973948,4.254672325181962,-1.607211521961963
1769250140576,125,-3,-1.1755694866093662,4.476885322335182,-1.4232897389883257
1769250140580,125,-3,-0.6820775362452677,4.396485339981683,-0.9549540382021782
1769250140584,126,-2,0.0806915038257486,5.371700758860856,-0.218274018642937
1769250140588,127,-1,0.9720394729682924,6.5504974278765165,0.646558567487872
1769250140592,128,0,1.8027267952545731,7.205244762777561,1.4511533500126592
1769250140596,128,0,2.4416001607237643,7.55500050633437,2.0651418212928556
1769250140600,129,1,2.8777910699223237,8.305787331557692,2.4777796957289904
1769250140604,129,1,3.2003263414528194,8.491684428955232,2.777243988844275
1769250140608,129,1,3.5178056390301977,8.433590154873498,3.0708485410491217
1769250140612,130,2,3.875228583385395,9.27694093711046,3.40290834695943
1769250140616,130,2,4.219224883493531,9.52815972239356,3.720646630932964
1769250140620,130,2,4.426052204357436,9.28975247904977,3.901729648642622
1769250140624,130,2,4.368940430920074,9.578723064492555,3.8201130226601903
1769250140628,130,2,3.987730790934267,9.3028531237012,3.4148712617997914
1769250140632,129,1,3.322896379797688,8.391147621257357,2.725449044781638
1769250140636,128,0,2.4849416363299346,7.4467562839456445,1.8627053369827673
1769250140640,127,-1,1.574638304033262,6.317568967457651,0.9286012095938214
1769250140644,126,-2,0.6266791094369123,5.6544035047377985,-0.0422299118803115
1769250140648,126,-2,-0.3632324261294046,5.1299483677075,-1.0557143929228938
1769250140652,124,-4,-1.3653356519431925,3.631898313870869,-2.0830703586063564
1769250140656,123,-5,-2.3001475926376105,2.1390373155722022,-3.0436855725330547
1769250140660,122,-6,-3.113069896791755,1.666825474764874,-3.881282852044981
1769250140664,122,-6,-3.845479857964405,1.319790174678623,-4.637070561049676
1769250140668,121,-7,-4.602177835414642,0.4265776239302834,-5.416709769646736
1769250140672,120,-8,-5.443365769193954,-0.6075672044748188,-6.280695818391782
1769250140676,119,-9,-6.319068238603419,-1.7186709502943192,-7.1790995663399375
1769250140680,118,-10,-7.107322942269313,-2.3853248207288793,-7.991150972259847
1769250140684,118,-10,-7.70546710053262,-2.6948277007416817,-8.615643500783905
1769250140688,117,-11,-8.08967999945419,-3.490053089150159,-9.027454407276789
1769250140692,117,-11,-8.306643574347236,-3.7442011423880626,-9.268474502463738
1769250140696,117,-11,-8.415078394735627,-3.563968902558951,-9.39332629188906
1769250140700,117,-11,-8.424530272724663,-3.567105062198202,-9.41379547453642
1769250140704,117,-11,-8.296553457062998,-3.4796943881328133,-9.300969945904416
1769250140708,117,-11,-8.048480308787646,-3.7181672990128583,-9.08265990602587
1769250140712,117,-11,-7.895095739089479,-3.5115081554966405,-8.975044951419477
1769250140716,117,-11,-8.245288712094544,-3.825932025500259,-9.373873475894396
1769250140720,115,-13,-9.38458869480236,-5.298434167156067,-10.543510785802354
1769250140724,115,-13,-10.895140758359393,-5.743029330621466,-12.05369615797779
1769250140728,115,-13,-11.198842620550424,-5.447401937976808,-12.33616192745414
1769250140732,118,-10,-7.802214598626219,-2.7827863144950804,-8.92526138032328
1769250140736,126,-2,1.4333335922395891,5.418050117242593,0.2925578457118631
1769250140740,139,11,16.44268628587147,18.532008507752373,15.248955329123806
1769250140744,157,29,33.79013364935745,36.35643416618085,32.5271748060741
1769250140748,174,46,47.4613603925217,53.58975175832624,46.1383889900262
1769250140752,180,52,51.693850975378226,58.99540650197211,50.33721612275371
1769250140756,170,42,44.243310950931686,49.69531587200012,42.88349372443832
1769250140760,152,24,27.82297929984456,31.06953919716613,26.48249639071103
1769250140764,131,3,8.62321889099189,10.850190240044173,7.306294447736469
1769250140768,117,-11,-7.067968416954191,-3.8558197070455833,-8.379510816055488
1769250140772,109,-19,-15.854674390613408,-11.462088573078304,-17.193161549018583
1769250140776,108,-20,-18.074174869582784,-12.721702302460638,-19.46760347924872
1769250140780,110,-18,-16.430924583791565,-10.62009935934308,-17.886142065958147
1769250140784,111,-17,-13.803499821345904,-9.443542598922305,-15.30286270616455
1769250140788,112,-16,-11.794775226402098,-8.72620878978367,-13.30864434419829
1769250140792,113,-15,-10.645422886340874,-7.4400274485935185,-12.151982285859315
1769250140796,115,-13,-9.99056546037814,-5.8369258527600305,-11.489049429082169
1769250140800,116,-12,-9.539011504106794,-4.408441185970586,-11.046750944592103
1769250140804,116,-12,-9.217507723120232,-4.779808353708244,-10.753988660899305
1769250140808,115,-13,-8.985113641396016,-5.378130220815365,-10.557146086682398
1769250140812,116,-12,-8.721486495980965,-4.770554438360808,-10.321441803108325
1769250140816,116,-12,-8.313255053367381,-4.496152003231758,-9.929228881159808
1769250140820,117,-11,-7.766786804829459,-3.716888858415201,-9.39342472490333
1769250140824,118,-10,-7.18093756887095,-2.541971244142422,-8.821567245689632
1769250140828,118,-10,-6.620029685596295,-2.615207616085854,-8.280450835376069
1769250140832,118,-10,-6.0507456762260965,-2.5537963088087796,-7.732541177653388
1769250140836,119,-9,-5.412563104468655,-1.655948363954156,-7.112714706353303
1769250140840,120,-8,-4.716774020768609,-0.5943048564592157,-6.432480868797947
1769250140844,121,-7,-4.043251773081417,0.3400431208901491,-5.775150275100196
1769250140848,121,-7,-3.4511227765965,0.4484795729644624,-5.201250010079069
1769250140852,121,-7,-2.928949364191949,0.410486276965015,-4.697167132193744
1769250140856,122,-6,-2.437510180474017,1.3755702064076392,-4.221600625763582
1769250140860,123,-5,-1.9654463592033973,2.3897596765146227,-3.764247562601727
1769250140864,123,-5,-1.5189298593267972,2.313200925748445,-3.333698853643601
1769250140868,123,-5,-1.0787213979966634,2.477974579439413,-2.9110238890694493
1769250140872,124,-4,-0.6012898243671208,3.3523263157317427,-2.450619720329251
1769250140876,124,-4,-0.0642985002188509,3.4769957402738463,-1.9285084610670469
1769250140880,125,-3,0.5120546323229491,4.242097302303387,-1.3656970249428066
1769250140884,126,-2,1.102796013432063,5.502109189009838,-0.7892802696330381
1769250140888,126,-2,1.7243232054250894,5.201782184612673,-0.1835980144330384
1769250140892,126,-2,2.415725169859893,5.6819168061249234,0.4918244857864051
1769250140896,128,0,3.164243372196762,7.11434154262756,1.2257023010075188
1769250140900,128,0,3.868824867799738,7.6131422101494195,1.9167597857022631
1769250140904,129,1,4.400833110719921,8.138156865056533,2.435167922655044
1769250140908,129,1,4.705976692914245,8.49910529868674,2.726241899600516
1769250140912,129,1,4.842442043648347,8.438269575873449,2.8489692080407063
1769250140916,129,1,4.91841291786271,8.277361771888458,2.9122547443649767
1769250140920,129,1,4.995246612448877,8.541285966670157,2.9768594242170625
1769250140924,130,2,5.052899894919905,9.108783415510342,3.021420370464596
1769250140928,129,1,5.04138737799154,8.595555177191027,2.995854489387101
1769250140932,129,1,4.950194169655394,8.258808752912788,2.8913275118779778
1769250140936,129,1,4.82484529007107,8.501189199469929,2.7548243692978636
1769250140940,129,1,4.733421525733671,8.29152661429703,2.6536713595154424
1769250140944,129,1,4.728027683351977,8.345388396823402,2.637738936172575
1769250140948,129,1,4.820441375990967,8.379631924520977,2.7176588800995094
1769250140952,129,1,4.962761514559523,8.401364199500614,2.8467696712987047
1769250140956,129,1,5.038694952144048,8.423684438465296,2.9109308261163545
1769250140960,129,1,4.895974498168425,8.288430120817244,2.758437629693627
1769250140964,129,1,4.4293899697732275,8.409763595122556,2.2826009062214707
1769250140968,128,0,3.658453450052949,7.246114244725616,1.5015744561870676
1769250140972,126,-2,2.715863350798885,5.553795335415729,0.548522917658498
1769250140976,126,-2,1.741144594207527,5.2385819572490355,-0.4358370442875565
1769250140980,125,-3,0.7845930521847018,4.482457252397761,-1.4012113960766652
1769250140984,124,-4,-0.178722494856329,3.204495243622185,-2.373541734487934
1769250140988,123,-5,-1.150859065343119,2.448997730348733,-3.3552568684812183
1769250140992,122,-6,-2.0444964479199856,1.329237677520581,-4.258189750822654
1769250140996,121,-7,-2.7201456668038575,0.4311242311284804,-4.941869306545242
1769250141000,121,-7,-3.0877227838359564,0.3149586429380644,-5.316346547629096
1769250141004,121,-7,-3.173706015026008,0.3336291967898965,-5.409314709199164
1769250141008,121,-7,-3.0974593144386264,0.3555372684621467,-5.341178554094325
1769250141012,121,-7,-2.9901544057024516,0.3621101705426639,-5.242923637266947
1769250141016,121,-7,-2.931530394026536,0.3994307102469143,-5.193096392416997
1769250141020,121,-7,-2.9416548289116893,0.3295980714650053,-5.210630509453438
1769250141024,121,-7,-3.003032684252273,0.3085737209475656,-5.277753711434009
1769250141028,121,-7,-3.0699734096161384,0.4038383392342943,-5.349379131029358
1769250141032,121,-7,-3.0563240166115024,0.2471531059686409,-5.340334302939803
1769250141036,121,-7,-2.834925050864098,0.5463387603881564,-5.124202767469222
1769250141040,122,-6,-2.2843482939065303,1.1137653112843164,-4.5796727861742745
1769250141044,122,-6,-1.3733222078544594,1.5845770323400463,-3.675098309728815
1769250141048,124,-4,-0.2199847008998963,3.0664420096414817,-2.528248299396779
1769250141052,125,-3,0.940024357050082,4.612084740597964,-1.374461505227757
1769250141056,126,-2,1.8729531370841408,5.118365124140073,-0.4468214306647318
1769250141060,126,-2,2.469329553164658,5.549392544168341,0.1459564003351097
1769250141064,127,-1,2.7829343150623576,6.145678348717446,0.4573899660339962
1769250141068,127,-1,2.971500192314736,6.466263258090515,0.6438321002099869
1769250141072,127,-1,3.1848475037365644,6.248611485603703,0.8540056027311251
1769250141076,127,-1,3.4642052872912767,6.3892485513609465,1.129176721227923
1769250141080,128,0,3.7139421048170154,7.34936860073689,1.3743098101034117
1769250141084,128,0,3.769518870332429,7.256503841363534,1.4255390907307417
1769250141088,127,-1,3.5092070127658332,6.420387357550473,1.16197813589062
1769250141092,127,-1,2.920124834230064,6.212713333168334,0.5712488976788168
1769250141096,126,-2,2.082784142285587,5.443891363638055,-0.2667456575521729
1769250141100,125,-3,1.110943330836011,4.249317192718944,-1.239480729721898
1769250141104,124,-4,0.0965982375932825,3.374397748025096,-2.2554738809003627
1769250141108,123,-5,-0.9163044727995412,2.292154170592319,-3.270217060224157
1769250141112,122,-6,-1.9256566300641853,1.3031996294353014,-4.280958788119594
1769250141116,121,-7,-2.941143995779097,0.3585986325160348,-5.29754327037899
1769250141120,120,-8,-3.9529280476195936,-0.722063805975548,-6.310667191437572
1769250141124,119,-9,-4.925371431044158,-1.611482247563357,-7.2844214801957
1769250141128,118,-10,-5.822291898907648,-2.769711280762257,-8.18137498245149
1769250141132,117,-11,-6.635589715949325,-3.633644012366592,-8.992755938861926
1769250141136,117,-11,-7.377026347304679,-3.7436467204255166,-9.73167053277464
1769250141140,116,-12,-8.034418445791434,-4.630000274788667,-10.388390249398208
1769250141144,115,-13,-8.550044083981213,-5.702869901304009,-10.906217098104245
1769250141148,115,-13,-8.864857933377277,-5.6983329379050325,-11.224265691042724
1769250141152,115,-13,-8.986603646341042,-5.7172415958992,-11.346429042673678
1769250141156,115,-13,-8.997857687232234,-5.714210208352339,-11.351907601647408
1769250141160,115,-13,-8.987101865619799,-5.623432185997842,-11.32959679025316
1769250141164,115,-13,-8.980343269625147,-5.77153496484117,-11.31190597096751
1769250141168,115,-13,-8.961297768930823,-5.586619743959304,-11.292360390160852
1769250141172,115,-13,-8.979847059530709,-5.914162364281619,-11.325705593221413
1769250141176,114,-14,-9.228949390686845,-6.503108504814364,-11.596873077464329
1769250141180,114,-14,-9.914926729660182,-6.861521783352391,-12.293302292794214
1769250141184,113,-15,-10.848952275105564,-7.540295043891739,-13.21068304198466
1769250141188,114,-14,-10.96744554398064,-6.819118017589846,-13.288818798728656
1769250141192,117,-11,-8.279801979673858,-3.7317858128145462,-10.56018404255499
1769250141196,123,-5,-0.710981688948487,2.327644051918954,-2.975263837613854
1769250141200,134,6,12.27636429588764,13.28308541046692,9.995087817286723
1769250141204,150,22,28.272083819881548,29.34629488134868,25.953674615554405
1769250141208,167,39,42.07510831519224,46.25973252747377,39.72126837486916
1769250141212,175,47,47.930439179661654,54.16266514375928,45.5606619787884
1769250141216,168,40,42.70797478470384,47.35079737345693,40.35074083525661
1769250141220,151,23,27.867142574221305,30.1759371232447,25.549170848569315
1769250141224,131,3,8.766163394900238,10.38219679625726,6.499124666953048
1769250141228,115,-13,-8.207800148526252,-5.755978909085872,-10.436305447419851
1769250141232,105,-23,-18.74675765669046,-15.73705525049992,-20.96760188363046
1769250141236,102,-26,-22.11309588286772,-18.645811071897626,-24.35655203031419
1769250141240,105,-23,-20.47077934725072,-15.876527119301574,-22.748358686417568
1769250141244,108,-20,-16.924891461500785,-12.616166192874504,-19.224770118971005
1769250141248,110,-18,-13.727214732117584,-10.888497529323269,-16.023797542588525
1769250141252,111,-17,-11.64279853376723,-9.549520458816032,-13.912705563651956
1769250141256,113,-15,-10.435860444803046,-7.864096037426606,-12.6712398014842
1769250141260,115,-13,-9.67735073125206,-5.657213961737188,-11.888784684358589
1769250141264,116,-12,-9.1501996962205,-4.893177110219568,-11.35670812478613
1769250141268,115,-13,-8.77184294498199,-5.6855331218554515,-10.985451706425824
1769250141272,115,-13,-8.419758138879686,-5.686657501246916,-10.637879761708598
1769250141276,116,-12,-7.944391777977962,-4.790455162268302,-10.155910308836026
1769250141280,117,-11,-7.294742671921389,-3.6761637761438024,-9.491894575851974
1769250141284,118,-10,-6.553035462379178,-2.9893276816455465,-8.736820054430215
1769250141288,118,-10,-5.839768821066572,-2.568660368412761,-8.01557992198708
1769250141292,119,-9,-5.214218842906436,-1.8504956870175135,-7.384691103120843
1769250141296,119,-9,-4.666619219384266,-1.601740423794265,-6.829504593585926
1769250141300,120,-8,-4.1685044408603495,-0.9037055258117644,-6.320391316549698
1769250141304,121,-7,-3.695335363681143,0.2042574041853999,-5.835814077926297
1769250141308,121,-7,-3.2061224176955916,0.2079508273084798,-5.337542116324336
1769250141312,121,-7,-2.644668234956979,0.3531333290287861,-4.768548764115145
1769250141316,122,-6,-1.994883201504968,1.2121706104309986,-4.11000842057906
1769250141320,123,-5,-1.3216419873186458,2.2224682532501525,-3.425969261607237
1769250141324,124,-4,-0.7193768492429733,3.082912764687113,-2.8125581848460426
1769250141328,124,-4,-0.2084472442365808,3.254023574604446,-2.2915081116673983
1769250141332,124,-4,0.296690382460113,3.3467435321254113,-1.7765642393161696
1769250141336,125,-3,0.9004811454340609,4.148472873614371,-1.1620753361212364
1769250141340,126,-2,1.616572089336341,5.317000416744956,-0.4347305705728432
1769250141344,127,-1,2.355924740378592,5.905497301078642,0.3151955031164584
1769250141348,127,-1,3.0165625260580775,6.445670191780758,0.9856704881789324
1769250141352,128,0,3.5739240832743455,7.125141244954743,1.553575440120854
1769250141356,128,0,4.089246763809223,7.331330703126592,2.0812230328248797
1769250141360,129,1,4.646297620968455,8.150233743335086,2.651570582910084
1769250141364,130,2,5.283472755506832,8.982734417248588,3.301135713926206
1769250141368,130,2,5.967442120034268,9.41604210524877,3.9958321868376214
1769250141372,131,3,6.605072323618545,10.075086778229233,4.643684325851561
1769250141376,131,3,7.076249784794902,10.403702106709853,5.126012606645753
1769250141380,132,4,7.28649513937216,11.01940790180803,5.3483182608125635
1769250141384,132,4,7.22938358928424,11.090299813738609,5.303377228868424
1769250141388,131,3,7.012804346187578,10.305429127842237,5.099328099069327
1769250141392,131,3,6.810691156428995,10.13047613738282,4.91114991469407
1769250141396,131,3,6.774371236925155,10.369750236675753,4.889829697177759
1769250141400,132,4,6.980963927817377,10.97194510323537,5.110363536597345
1769250141404,132,4,7.437440056931656,11.165061501917291,5.578392827637838
1769250141408,132,4,8.082736537211652,11.175015555081336,6.234153631851064
1769250141412,133,5,8.760162771203696,12.252495995490545,6.923182331465508
1769250141416,134,6,9.222513010461803,13.215617500630309,7.398845457018307
1769250141420,134,6,9.227074629640368,13.081745943551091,7.41749537819399
1769250141424,133,5,8.665785027416902,12.062494053358373,6.870423712546167
1769250141428,132,4,7.616619966959584,11.218991765168198,5.835624795424744
1769250141432,131,3,6.276220766972415,10.205246580372954,4.509571889954932
1769250141436,129,1,4.838199298893997,8.209547751349696,3.0854562869982045
1769250141440,128,0,3.4089028526960554,7.082089865174767,1.669587857053451
1769250141444,127,-1,2.009300080767848,6.046301538709249,0.2833615235172777
1769250141448,125,-3,0.645582913834966,4.194700278094466,-1.066607638423088
1769250141452,124,-4,-0.6201974133478356,3.2124220646711654,-2.3181468492461876
1769250141456,123,-5,-1.6656429396347034,2.159238970519823,-3.348960186677547
1769250141460,122,-6,-2.3759676021871616,1.1074391713021967,-4.044418729041311
1769250141464,122,-6,-2.724907051842683,1.0246174366813392,-4.378513746142987
1769250141468,122,-6,-2.795031025752608,1.1542146214469504,-4.4341740889102566
1769250141472,122,-6,-2.718341689807924,1.2648265459812738,-4.343449879193549
1769250141476,122,-6,-2.593748748551822,1.0202935881702686,-4.204716524994096
1769250141480,122,-6,-2.4542449272535576,1.2757740021837325,-4.050416072933366
1769250141484,123,-5,-2.297051085282014,1.7769343519675864,-3.877905586855625
1769250141488,122,-6,-2.1291182572490728,1.43241737843005,-3.694766648233102
1769250141492,123,-5,-1.978628164097591,1.9000690565452,-3.5295288683052104
1769250141496,123,-5,-1.8643219970821805,2.4001436549363397,-3.4005524178319364
1769250141500,123,-5,-1.7559514773718967,1.8328344307507176,-3.276798694910951
1769250141504,123,-5,-1.5686233844784188,2.208741691711793,-3.0731442660965396
1769250141508,124,-4,-1.2012456218722969,2.99233164299536,-2.6894004795477837
1769250141512,124,-4,-0.5918845687135867,3.2601242772620873,-2.064747841284685
1769250141516,125,-3,0.239858111368606,4.076588540748016,-1.2187022851446678
1769250141520,126,-2,1.1820419055266032,5.056542100257297,-0.2620972803658405
1769250141524,127,-1,2.0683321362063793,6.0222680062933795,0.6393851650502573
1769250141528,128,0,2.7608141130439976,7.099863348136122,1.3475402830866874
1769250141532,128,0,3.224507063849988,7.154883684050001,1.8271443615919412
1769250141536,128,0,3.526996668245475,7.125977226764078,2.1461059630526664
1769250141540,129,1,3.76117943671156,7.9817124359705245,2.3973701474704265
1769250141544,129,1,3.963688312322239,8.085238160302636,2.616733441293108
1769250141548,129,1,4.094511515859509,7.973160111640108,2.763196718691147
1769250141552,129,1,4.07372587497954,8.317011833334304,2.7567460481453896
1769250141556,129,1,3.8282952488431095,7.842476123754359,2.525354251738677
1769250141560,128,0,3.315847174032559,7.316898958460229,2.0281067079887185
1769250141564,128,0,2.527889271627898,6.6445201231940825,1.2572908518898915
1769250141568,126,-2,1.4953697223136655,5.451642447172548,0.2430688522479274
1769250141572,126,-2,0.3060296047734541,4.763657071651759,-0.9286682530132352
1769250141576,124,-4,-0.8945657998556213,3.38757973774932,-2.1134068620343704
1769250141580,123,-5,-1.9570336835755349,1.7218362376050642,-3.1609498267908984
1769250141584,122,-6,-2.81937803347924,1.2104946646649353,-4.007905051020324
1769250141588,122,-6,-3.54847833396599,0.8840453732407596,-4.72092143058832
1769250141592,121,-7,-4.272323478509089,0.2529052903588571,-5.428509484755077
1769250141596,120,-8,-5.06095441956855,-1.057753424897955,-6.2005300948875615
1769250141600,119,-9,-5.87305474465217,-1.9797286869882704,-6.995159233380047
1769250141604,119,-9,-6.607261859616354,-2.0011008972527424,-7.7117931529923744
1769250141608,118,-10,-7.190600919735935,-3.057112121136944,-8.279300591597792
1769250141612,117,-11,-7.621327863039125,-3.7071190966202,-8.696640372619694
1769250141616,118,-10,-7.940323153983936,-3.235170716566728,-9.002532826540225
1769250141620,117,-11,-8.164019635500523,-3.76542239710621,-9.209134082577606
1769250141624,117,-11,-8.243901185010447,-4.312015459740765,-9.265133707457426
1769250141628,117,-11,-8.100547868026645,-3.737523781157288,-9.094304502768836
1769250141632,118,-10,-7.717598580669564,-3.055659215098105,-8.689868293518497
1769250141636,118,-10,-7.233944196728131,-2.948910467503694,-8.199679146641868
1769250141640,118,-10,-6.964015241535806,-3.0325397176873317,-7.93667508796559
1769250141644,118,-10,-7.265788349711321,-3.175108383681245,-8.243968990095599
1769250141648,117,-11,-8.195965933874351,-3.804028698328468,-9.159124156954157
1769250141652,117,-11,-9.046168192059625,-4.1201503838197056,-9.966006748663345
1769250141656,118,-10,-8.111508736373423,-2.815907067798422,-8.972782235864068
1769250141660,123,-5,-3.150215871751062,1.7214095430652083,-3.964709719603604
1769250141664,132,4,7.317809759404071,11.095720527290316,6.517057555598193
1769250141668,146,18,22.422743669248817,24.884315922631345,21.603364892748974
1769250141672,162,34,38.22412027570196,41.17539337185029,37.374508919109864
1769250141676,176,48,48.85499254265875,54.87185469019635,47.98821945202438
1769250141680,178,50,49.355646981212566,56.91988561651665,48.49940381391476
1769250141684,165,37,38.56713890901588,43.83682421519326,37.75059336295815
1769250141688,144,16,20.052491213405013,22.996085642990955,19.295038504330385
1769250141692,124,-4,0.2786517617629398,3.069479120843834,-0.4195148366381533
1769250141696,110,-18,-14.736174861012255,-11.039858190606097,-15.396968971766004
1769250141700,104,-24,-22.112106550592937,-17.044913422220603,-22.769114087255
1769250141704,104,-24,-22.64687820983237,-17.182884598093963,-23.3251965342642
1769250141708,107,-21,-19.342725455079844,-14.059793245773962,-20.043840265813003
1769250141712,111,-17,-15.262254005617796,-9.95408525273304,-15.965329938033122
1769250141716,113,-15,-12.121587929157927,-8.15140448431913,-12.798665441258402
1769250141720,114,-14,-10.18223625444749,-6.8741789326979195,-10.815701434172595
1769250141724,117,-11,-9.0042469675651,-4.417753479887409,-9.595907549458056
1769250141728,118,-10,-8.196075725558469,-2.828223906866393,-8.763098444830298
1769250141732,119,-9,-7.638582937250899,-2.305395411671814,-8.199296324369524
1769250141736,118,-10,-7.305291889492839,-2.8198595895931184,-7.865562564877987
1769250141740,118,-10,-7.092342432514205,-3.218048636267458,-7.643821599085117
1769250141744,119,-9,-6.849339453883771,-2.0966545897137205,-7.3801985866760145
1769250141748,120,-8,-6.481966880287847,-1.1566921630374374,-6.988392069269773
1769250141752,120,-8,-5.971362698232173,-1.1112134094970898,-6.458469751525216
1769250141756,120,-8,-5.336968342057216,-0.9730069785778728,-5.810642030448558
1769250141760,121,-7,-4.6350606424263745,-0.1753776882453408,-5.095609139307521
1769250141764,122,-6,-3.9725994882005313,0.9317587256192628,-4.416534442994289
1769250141768,123,-5,-3.4516488791730113,1.6922546137020973,-3.8771350435480967
1769250141772,123,-5,-3.064301941258182,2.0396101165209037,-3.4727181709753716
1769250141776,123,-5,-2.670264656656232,1.7879366461207278,-3.0630276977053654
1769250141780,123,-5,-2.120205783554393,2.055399341503795,-2.496426358608242
1769250141784,125,-3,-1.4042400625335902,3.6834479411014014,-1.762587131536162
1769250141788,126,-2,-0.6541652037937062,4.8823436627560834,-0.9955380048113128
1769250141792,126,-2,0.0008116413174505,4.831957656938411,-0.32576584475169
1769250141796,126,-2,0.5500772933859428,4.898767994331682,0.2379388469087426
1769250141800,127,-1,1.0669914509398666,5.954736921892215,0.7713107034708697
1769250141804,128,0,1.5954374669485007,6.707738833874917,1.317980551115665
1769250141808,128,0,2.1036422549318523,6.876785692216455,1.84386464020832
1769250141812,129,1,2.5428872962713887,7.748250294282508,2.298860336510393
1769250141816,129,1,2.924592996510822,7.968280801983437,2.6954141834482876
1769250141820,129,1,3.324822209885778,7.794804583255215,3.11159176006812
1769250141824,130,2,3.816874555559271,8.885845607302786,3.621209973745664
1769250141828,131,3,4.409239735949789,9.63068472357221,4.231209187148398
1769250141832,131,3,5.046765744783328,9.983492945394037,4.8847738801844445
1769250141836,132,4,5.653688037911769,10.657834991179604,5.506306637207514
1769250141840,132,4,6.164549841277149,11.061129546719853,6.031965741669837
1769250141844,133,5,6.529824170335,11.59146003214467,6.413437686712789
1769250141848,133,5,6.722260966502361,11.883423229949042,6.623241583638308
1769250141852,133,5,6.757011952674256,11.71836156879692,6.675321219345573
1769250141856,133,5,6.7053374099033665,11.820358306186863,6.639899490332298
1769250141860,133,5,6.675243004878127,11.907489522733483,6.625059492853237
1769250141864,133,5,6.757612163473347,11.642342458558918,6.722885256466213
1769250141868,133,5,6.971331876275475,11.876364073202048,6.95328254782763
1769250141872,134,6,7.255857100415977,12.630547019129818,7.255134809026023
1769250141876,134,6,7.524008778567309,12.881576629782046,7.539617287564945
1769250141880,134,6,7.719761257704606,12.787511613785137,7.75010770733954
1769250141884,134,6,7.810981427885003,12.711942140944508,7.855810555728488
1769250141888,134,6,7.727063425437865,12.80209006487786,7.787720792900284
1769250141892,134,6,7.333898547174206,12.63605575468756,7.41158222323161
1769250141896,133,5,6.508091244468048,11.839175424123557,6.602412434582554
1769250141900,132,4,5.253069762197763,10.776825073799106,5.3628124942169695
1769250141904,130,2,3.733657787661669,8.664369904049824,3.8586527903960866
1769250141908,128,0,2.181163050951728,6.853481641606665,2.3225688192453475
1769250141912,128,0,0.7602733574695195,6.48366482053631,0.9188109857014032
1769250141916,126,-2,-0.4745313455205475,5.02631863661971,-0.2997329313958037
1769250141920,125,-3,-1.5173804718202053,3.441962043265539,-1.3276219180492137
1769250141924,124,-4,-2.341218830457401,3.071184042640323,-2.1366034357083508
1769250141928,124,-4,-2.896722634425971,2.2946683800266,-2.676336310388774
1769250141932,123,-5,-3.1618372344502133,2.081207263594105,-2.9250941649083915
1769250141936,124,-4,-3.1799843897582196,2.3422860786690016,-2.9271516941977125
1769250141940,123,-5,-3.052741271699994,2.0773368396432206,-2.7843323749559388
1769250141944,124,-4,-2.894466766413666,2.435483337405616,-2.6107374892773323
1769250141948,124,-4,-2.7770223170177144,2.80421159800866,-2.478083514207268
1769250141952,124,-4,-2.6978131850882345,2.629814368918258,-2.383600384652312
1769250141956,124,-4,-2.595459294696484,2.625461741623674,-2.265329448485355
1769250141960,124,-4,-2.4025878694929217,2.8856082540649304,-2.0555363707743304
1769250141964,125,-3,-2.087327834323162,3.437446079672716,-1.7231576507481297
1769250141968,125,-3,-1.6475939430307156,3.8957908848372993,-1.2676066557550565
1769250141972,126,-2,-1.082308030874813,4.374866004789175,-0.6882300058641775
1769250141976,126,-2,-0.3935443481545834,4.921202621661896,0.0143237471906561
1769250141980,127,-1,0.3742501975446272,5.496269222524849,0.797376337434871
1769250141984,128,0,1.118295039204502,6.769788472902727,1.558227045003461
1769250141988,129,1,1.7329063510033416,7.583821962584692,2.189682082643219
1769250141992,129,1,2.192888877523666,7.530895626385314,2.6654274037166754
1769250141996,129,1,2.5685193918587492,7.862260361857434,3.056057762893733
1769250142000,130,2,2.944212267747784,8.34012738329842,3.4467964892216822
1769250142004,130,2,3.322193947273851,9.023984898443077,3.84017695515352
1769250142008,131,3,3.60620506048895,9.181691879173046,4.139932675725673
1769250142012,130,2,3.674304745066225,8.951785577061642,4.224015494687304
1769250142016,131,3,3.472124278856651,9.384066720382672,4.037552186929553
1769250142020,130,2,3.049695546344559,8.708391912688583,3.630065324038589
1769250142024,129,1,2.509305455889265,7.69414421923239,3.104299343066056
1769250142028,129,1,1.9046851683313393,7.36508782255253,2.515080308583202
1769250142032,128,0,1.1904369319211834,6.845069092399581,1.817182351666799
1769250142036,128,0,0.2869525741471301,6.324873756688521,0.9299267296797477
1769250142040,126,-2,-0.7985441623009093,4.809133189986586,-0.1402019413875432
1769250142044,125,-3,-1.9317008424495308,3.461167091932457,-1.2582385767113426
1769250142048,124,-4,-2.9494888318012125,2.6109161727014243,-2.2603527056519086
1769250142052,123,-5,-3.800989765423468,1.5282352202052607,-3.096175050323354
1769250142056,123,-5,-4.583438719264181,1.5946317845290494,-3.864146596393731
1769250142060,122,-6,-5.438243349477889,0.5141534773405798,-4.705260043250333
1769250142064,120,-8,-6.415670005262693,-1.3500444334581534,-5.6674584640795915
1769250142068,120,-8,-7.4309916387806,-1.5681395516157917,-6.6647686701290265
1769250142072,119,-9,-8.32468365800936,-2.3977188881293383,-7.539981178255973
1769250142076,118,-10,-8.954318912132228,-3.48059058087825,-8.154662381384949
1769250142080,118,-10,-9.2590336727439,-3.482298244845854,-8.448933456021813
1769250142084,118,-10,-9.280158249047613,-3.3976567909990703,-8.459671127110722
1769250142088,118,-10,-9.137019046546245,-3.581394277313562,-8.299413846720299
1769250142092,118,-10,-8.963065092657269,-3.4290361773180287,-8.099605504736543
1769250142096,119,-9,-8.82970152486405,-2.497978757859297,-7.939064101564073
1769250142100,119,-9,-8.721814484046165,-2.512872154711223,-7.815195716029854
1769250142104,118,-10,-8.626589855459056,-3.426824940915381,-7.721362760541661
1769250142108,118,-10,-8.677217190783963,-3.6047314493626494,-7.782414936427106
1769250142112,118,-10,-9.12241432733387,-3.469958871656491,-8.227945211748537
1769250142116,118,-10,-9.928697433878462,-3.4814034787797468,-9.008528965917138
1769250142120,118,-10,-10.191910695017263,-3.59842247925026,-9.221165837680886
1769250142124,120,-8,-7.948787621322216,-1.3599636192890774,-6.923111798725591
1769250142128,127,-1,-0.9541559980439004,5.227467288781482,0.1044512894728679
1769250142132,137,9,11.658605377263902,15.70337880139439,12.715650591375148
1769250142136,153,25,27.82024966507895,31.271681460498293,28.851101801892224
1769250142140,170,42,42.45608392949352,48.66395711952927,43.45905015914272
1769250142144,180,52,49.557276306613616,58.26831926177881,50.551316499416146
1769250142148,175,47,45.4377378659846,53.500527144064925,46.45211860873178
1769250142152,158,30,31.028264821858677,36.30385819838172,32.09077607175969
1769250142156,137,9,11.521097598429392,15.54421777168733,12.64552597435446
1769250142160,120,-8,-6.430440243807077,-1.5905986860851282,-5.253766805074562
1769250142164,109,-19,-18.041530918109416,-12.46457656384937,-16.842930385776977
1769250142168,106,-22,-22.186807008038492,-15.68374377707673,-20.99972474981297
1769250142172,108,-20,-20.897063190403895,-13.568446640821758,-19.73735404929586
1769250142176,111,-17,-17.380053791365278,-10.702137346734984,-16.237496605066937
1769250142180,113,-15,-14.093937089389446,-8.449524609215565,-12.941208853082747
1769250142184,115,-13,-11.96133178181518,-6.675292189542869,-10.772697045539887
1769250142188,116,-12,-10.769317126299184,-5.466578380333962,-9.535993944246703
1769250142192,118,-10,-10.016648125533248,-3.866993649654269,-8.749538758680943
1769250142196,119,-9,-9.446121592692844,-2.457532645654389,-8.165327430390228
1769250142200,119,-9,-9.048859824189616,-2.8133348001265475,-7.768198897293987
1769250142204,118,-10,-8.837412396418198,-3.3162066669911745,-7.555750151115928
1769250142208,119,-9,-8.731544875876732,-2.863043879661438,-7.437165982704962
1769250142212,119,-9,-8.609207237026652,-2.5207089483924996,-7.291937554920022
1769250142216,120,-8,-8.370459647690133,-1.8764650784672785,-7.029683354092351
1769250142220,120,-8,-7.934215445439,-1.4862391898367289,-6.576347251713076
1769250142224,120,-8,-7.23879975704248,-1.6578715893683,-5.8691026289981565
1769250142228,121,-7,-6.305153815340585,-0.5867675634456351,-4.923474019203622
1769250142232,123,-5,-5.285504399936649,1.1947380066279676,-3.889021185686693
1769250142236,124,-4,-4.39090213606993,2.2673565755887175,-2.978305551590403
1769250142240,124,-4,-3.737939887596744,2.3732978631463872,-2.3095626496121824
1769250142244,124,-4,-3.2732181974396903,2.361069526124612,-1.828751591863031
1769250142248,125,-3,-2.849122994018157,3.4196226450120726,-1.3874754957815196
1769250142252,126,-2,-2.35474756384468,4.078854458686607,-0.8761011769041593
1769250142256,126,-2,-1.7735109251120746,4.347081863322741,-0.2799142959051914
1769250142260,127,-1,-1.1500371290154032,5.217851066605979,0.3566875898297901
1769250142264,127,-1,-0.5341388978565855,5.467420740117394,0.9861977640466196
1769250142268,128,0,0.050228737102429,6.261881036295599,1.5865231619203768
1769250142272,129,1,0.6153596168117978,7.188158276054974,2.1694915620243163
1769250142276,129,1,1.2117112571714292,7.155595295796286,2.7833559183560737
1769250142280,130,2,1.911097886351545,8.36090770294668,3.4981653812852205
1769250142284,131,3,2.759606691450215,9.266613941513173,4.360382019508613
1769250142288,131,3,3.7198162116389417,9.401099913787768,5.334649687308379
1769250142292,133,5,4.655309471959444,11.01705035783571,6.285920810185315
1769250142296,134,6,5.4002973773959715,12.227007991160514,7.04756447728013
1769250142300,134,6,5.878212495550624,12.260066899123842,7.541453604477169
1769250142304,134,6,6.155115611197661,12.273630160514845,7.833647506708989
1769250142308,134,6,6.358675879553219,12.385424529837891,8.052953448677584
1769250142312,135,7,6.54125542930299,12.914534608965514,8.2517798715967
1769250142316,135,7,6.634779734276733,13.330461174730615,8.360707516820725
1769250142320,135,7,6.541117815797927,13.042051696996449,8.281066020113748
1769250142324,134,6,6.253715171677905,12.473752809862503,8.007838545239318
1769250142328,134,6,5.888633048786015,12.112703050605909,7.658954427423389
1769250142332,134,6,5.613752176791556,12.096152157789488,7.402080595548793
1769250142336,134,6,5.555423215406082,12.146519738801656,7.361457738580156
1769250142340,134,6,5.745594468880485,12.09910095690965,7.567368980573651
1769250142344,134,6,6.111592742349133,12.441914553826932,7.947329491445808
1769250142348,135,7,6.492274651879507,13.004206013665696,8.341493142067847
1769250142352,135,7,6.680626147153362,13.185958960331472,8.543972398892123
1769250142356,135,7,6.491088007058555,12.97429552870848,8.369734596431776
1769250142360,134,6,5.82817736166867,12.212023835237938,7.723266936601674
1769250142364,133,5,4.725625530664007,11.296606524458776,6.637750257277817
1769250142368,132,4,3.3374363232973514,10.035458344023516,5.26644383576436
1769250142372,130,2,1.879177818822728,8.138334567107151,3.824447093277309
1769250142376,129,1,0.5423183019581994,6.916069522208477,2.5030224919730335
1769250142380,128,0,-0.5698178425444098,6.260022654698343,1.4054177591715515
1769250142384,127,-1,-1.446333174643062,5.161727771487169,0.5429884206056914
1769250142388,126,-2,-2.1247322432825615,4.114937017008323,-0.1206730505211632
1769250142392,126,-2,-2.639982724774115,3.991271834976577,-0.6198093383514951
1769250142396,126,-2,-2.994202065110993,3.986758051148975,-0.9570036457546433
1769250142400,125,-3,-3.1594324952264135,3.156260776263962,-1.1054047616735017
1769250142404,125,-3,-3.1179246531621794,3.1853095639997857,-1.048170309181783
1769250142408,126,-2,-2.912813497388178,4.0403534986085115,-0.8288490830070088
1769250142412,126,-2,-2.6581846280704924,3.980090499128127,-0.5609807324525526
1769250142416,126,-2,-2.490721045486316,3.940081209582433,-0.3795004873665981
1769250142420,126,-2,-2.4953391989562004,4.160123758460368,-0.3677556447602315
1769250142424,126,-2,-2.646175018889316,4.094142495531466,-0.5004151600230142
1769250142428,126,-2,-2.794179626460438,4.086278537397382,-0.6307543056917213
1769250142432,126,-2,-2.7294232910467056,3.8428110450768314,-0.5504774756149615
1769250142436,126,-2,-2.3115534401662705,4.027953205355321,-0.1187193198365155
1769250142440,127,-1,-1.5858306337838446,5.023564920609574,0.6207100969195183
1769250142444,128,0,-0.7727122017649659,6.14836378467537,1.44802406888113
1769250142448,129,1,-0.1125286147406864,6.990063705074324,2.122946160399253
1769250142452,129,1,0.3101166240422052,6.836856475786064,2.5613280875851507
1769250142456,129,1,0.6086132099694341,6.993268160742186,2.8769730949036907
1769250142460,130,2,0.9771458894411692,7.9724908017176,3.263143669762578
1769250142464,130,2,1.5281450739120297,8.162528721793196,3.8303560469940816
1769250142468,131,3,2.2111857270936244,8.886596664299155,4.527263351870994
1769250142472,132,4,2.849783477254359,9.906715941931944,5.178539048213801
1769250142476,132,4,3.247599279890017,9.812990190691522,5.589965271526601
1769250142480,132,4,3.289470481644245,10.116202498087334,5.647457610162581
1769250142484,132,4,2.9847861850633057,9.942879901822693,5.35961734592329
1769250142488,131,3,2.441229344600668,9.031089676033858,4.832535663649365
1769250142492,131,3,1.7920541565566943,8.726858053594174,4.198726758604803
1769250142496,130,2,1.1218919858812837,7.875818442523613,3.5433286638249197
1769250142500,129,1,0.438657366202912,7.03882409302294,2.874897343116026
1769250142504,129,1,-0.2894819571036966,6.908453873420639,2.1614967719779252
1769250142508,128,0,-1.0682260002620485,6.048633966814352,1.3972739155634626
1769250142512,127,-1,-1.8542003453309055,4.5979248236591586,0.6262655210025747
1769250142516,126,-2,-2.6048096205072304,3.9615868696836287,-0.1084787205085338
1769250142520,126,-2,-3.338017967530263,3.8682940402351305,-0.826124969930718
1769250142524,125,-3,-4.119152802630941,3.016513377142105,-1.593568573230367
1769250142528,124,-4,-4.987499195068699,1.8968754297354176,-2.449178788293325
1769250142532,123,-5,-5.913127652705857,0.6572732784322302,-3.359978954545092
1769250142536,122,-6,-6.820433758273261,-0.1672078644695229,-4.24934863739095
1769250142540,122,-6,-7.620235545968995,-0.0740611146277565,-5.031441607499272
1769250142544,121,-7,-8.207546896688296,-1.105998603812683,-5.605440490934319
1769250142548,120,-8,-8.47233692779371,-2.018333979799328,-5.860885401398586
1769250142552,121,-7,-8.370729041023258,-1.523480308540936,-5.748322553270339
1769250142556,121,-7,-7.996423432216432,-1.0590365725963693,-5.3559418287705105
1769250142560,122,-6,-7.549853464553832,-0.2622410329911648,-4.884498971872227
1769250142564,122,-6,-7.215794502318786,0.0409570327645525,-4.52624805037765
1769250142568,122,-6,-7.086339981471622,-0.227925209694586,-4.38347566713206
1769250142572,122,-6,-7.225473204993505,-0.4079603107789378,-4.524915171196177
1769250142576,121,-7,-7.780718107210098,-1.2527736322400609,-5.090737601769353
1769250142580,120,-8,-8.907553659276413,-2.1565963620265016,-6.218576869866733
1769250142584,119,-9,-10.371941189121262,-3.0852950347767862,-7.658245425429099
1769250142588,119,-9,-11.032917806050753,-3.1762946601570743,-8.26918395528402
1769250142592,122,-6,-8.741945901406034,-0.5393218351218323,-5.923343763150136
1769250142596,128,0,-1.1694304770767627,5.806747110494824,1.6820360324895782
1769250142600,140,12,12.521779563272023,17.70495957227761,15.370953851452494
1769250142604,157,29,30.12113408534963,35.06120304736713,32.94184908652217
1769250142608,176,48,46.315412990595185,53.58848229662794,49.10420008721021
1769250142612,187,59,54.79047557886165,64.6190093521677,57.565973119271575
1769250142616,183,55,51.54165011437962,60.49462497239908,54.33500619700307
1769250142620,166,38,37.26257618828224,43.85464503492504,40.10406558858429
1769250142624,145,17,17.11250861399918,22.837974107053977,20.01683429541767
1769250142628,126,-2,-2.019508339077163,3.725456643167695,0.9371295394207252
1769250142632,114,-14,-14.93314456946733,-8.444324884144514,-11.955658067604029
1769250142636,110,-18,-20.127711779987173,-12.462517154609325,-17.163381937387072
1769250142640,111,-17,-19.49346590704995,-11.205602740777548,-16.558648104618452
1769250142644,114,-14,-16.352768340380337,-8.237917683723294,-13.438301711083325
1769250142648,116,-12,-13.380922721794937,-6.317133296863325,-10.460592282658329
1769250142652,117,-11,-11.636692370210222,-5.490335560822539,-8.684716364793218
1769250142656,118,-10,-10.890915702832835,-4.480911172534393,-7.896842651631593
1769250142660,119,-9,-10.535290398946264,-3.234811058600389,-7.507672393255503
1769250142664,120,-8,-10.216216389035148,-2.323193046278382,-7.173815194885006
1769250142668,120,-8,-9.88374995024435,-2.2846059043161073,-6.841275880516551
1769250142672,120,-8,-9.541584134345127,-2.630022707173117,-6.500767566743609
1769250142676,120,-8,-9.108764162191244,-2.364716214197445,-6.060841482432633
1769250142680,121,-7,-8.502265256561614,-1.446141852485873,-5.437867995470117
1769250142684,122,-6,-7.756024404872093,-0.1809606249473052,-4.672527562498148
1769250142688,123,-5,-7.001550895970432,0.4963341002375117,-3.902217090306216
1769250142692,123,-5,-6.3387532477748785,0.5000160474872253,-3.2272945326010047
1769250142696,124,-4,-5.741648033333875,1.4609038159227676,-2.619164592253054
1769250142700,125,-3,-5.081219885024124,2.6226214113019033,-1.9471666209356324
1769250142704,125,-3,-4.236871475489562,2.6987644528340127,-1.0906310475857142
1769250142708,126,-2,-3.2121185932202225,3.5193856692361427,-0.0533401399397839
1769250142712,128,0,-2.1611665925173984,5.422807406127722,1.0099867889752845
1769250142716,129,1,-1.2824614329161286,6.455194879118915,1.900220099622291
1769250142720,129,1,-0.6570917780350674,6.548945942826423,2.536683547922798
1769250142724,129,1,-0.1862507055505124,6.710870807084172,3.019762916872571
1769250142728,130,2,0.3123648847118909,7.391414953431182,3.5322128681368
1769250142732,131,3,0.9569813051628868,8.51526503637863,4.190324929774735
1769250142736,132,4,1.742448522990505,9.263607608546227,4.98693833485291
1769250142740,132,4,2.5859160869228557,9.69403424057861,5.839905866383192
1769250142744,133,5,3.3956235638672405,10.476356338440157,6.659971867469702
1769250142748,134,6,4.108135005050827,11.51899582514395,7.384702735861835
1769250142752,135,7,4.7019079921130436,12.341910744858511,7.991118704600056
1769250142756,135,7,5.19413981745951,12.337560819119089,8.494892315378767
1769250142760,135,7,5.607118856861065,12.5881302931834,8.918545775689498
1769250142764,136,8,5.922015422731512,13.46287896920472,9.244306319731647
1769250142768,136,8,6.075356435525994,13.4567256723434,9.4089202266704
1769250142772,136,8,6.016744643544344,13.32752377264519,9.36133549509415
1769250142776,136,8,5.772596529170283,13.285396752804802,9.12754548917125
1769250142780,135,7,5.44778898598253,12.58011452473252,8.81283902942775
1769250142784,135,7,5.160883225199266,12.35866582228358,8.536561798394896
1769250142788,135,7,4.975632011190704,12.488675070882662,8.362749643681983
1769250142792,135,7,4.891567892244474,12.218953569189482,8.290356809422857
1769250142796,135,7,4.891160507344439,12.31998252130457,8.30088409182317
1769250142800,135,7,4.97993195109677,12.513246611059428,8.39936399934533
1769250142804,135,7,5.16376710260054,12.256288583530807,8.592151561856035
1769250142808,135,7,5.379130844982495,12.587941522071048,8.816663031409654
1769250142812,136,8,5.457298068837706,12.957152436969086,8.904598994154513
1769250142816,135,7,5.18861237131714,12.603748963529425,8.645892685031857
1769250142820,135,7,4.456947437248669,12.090114796287462,7.9239452143618205
1769250142824,133,5,3.3328880005564723,10.620209594299816,6.809550012069374
1769250142828,132,4,2.0401308996687737,9.103691811640658,5.526953521096376
1769250142832,131,3,0.8227054131808305,8.374999439043286,4.320162128726288
1769250142836,130,2,-0.1755208172268365,7.146141575526231,3.3322389262041128
1769250142840,129,1,-0.9336519832810072,6.444253843057782,2.5832285230500776
1769250142844,129,1,-1.490464853662981,6.216337928954031,2.034270977254834
1769250142848,128,0,-1.8748727173951307,5.3492589180498955,1.6572848625325796
1769250142852,128,0,-2.0945748234626356,5.107697297436484,1.4456763289246042
1769250142856,128,0,-2.1736618981162596,5.312432626443087,1.3758394462672066
1769250142860,128,0,-2.1765565895687273,5.238352004887859,1.382927932151464
1769250142864,128,0,-2.178788351561559,5.297812464019375,1.3905264011769618
1769250142868,128,0,-2.211844685705731,5.194720584350984,1.3663122733884452
1769250142872,128,0,-2.240620425194491,5.1439958896683935,1.3449813044952494
1769250142876,128,0,-2.2005532478798955,5.266659182318346,1.3915888920418948
1769250142880,128,0,-2.0646537066499997,5.154474156790869,1.5345308646906983
1769250142884,128,0,-1.8756679872415185,5.345985120466743,1.7321581685256018
1769250142888,129,1,-1.6969523859786917,5.988044552654877,1.920535563135111
1769250142892,129,1,-1.512492665387957,6.317526211859469,2.113993693455975
1769250142896,129,1,-1.1832434035986457,6.000187142091022,2.4508176259570753
1769250142900,129,1,-0.5391996540746374,6.363222835350546,3.10176712367667
1769250142904,131,3,0.4551652609408823,8.03643893393241,4.103117945159921
1769250142908,132,4,1.6249974578532456,9.187007142981177,5.279738069760403
1769250142912,133,5,2.6856909260688933,10.06150521780763,6.346631429438855
1769250142916,134,6,3.4342846443580703,11.176788666731529,7.10144909806134
1769250142920,134,6,3.865369413060624,11.120016204657508,7.539922311210189
1769250142924,134,6,4.125273971101732,11.152283434170869,7.808548307278927
1769250142928,135,7,4.363934446555014,11.992896137332178,8.055880875234624
1769250142932,135,7,4.6162710739026664,12.167568606310114,8.315214639539915
1769250142936,135,7,4.7916742974892195,12.029213943091934,8.495758870140918
1769250142940,135,7,4.749167511283879,12.176796002924618,8.457716800303345
1769250142944,135,7,4.388644351605657,11.98364734003228,8.102102708649022
1769250142948,134,6,3.7029620672224786,11.058776293339548,7.422207742015627
1769250142952,133,5,2.7694106816875115,10.03274591638856,6.495503516151086
1769250142956,132,4,1.698354408803198,9.105931400161214,5.432316284766483
1769250142960,131,3,0.5861450610372512,8.018769191754389,4.328117704234119
1769250142964,130,2,-0.4951065073360796,7.024551602893502,3.253343508067692
1769250142968,129,1,-1.4879998760655289,5.9304893973484045,2.2643246651217233
1769250142972,128,0,-2.362750918412402,5.066511239578465,1.391895675782003
1769250142976,127,-1,-3.158720205127999,4.050742712602864,0.5993978698194251
1769250142980,126,-2,-3.998606491939204,2.938879453399199,-0.23421453464714
1769250142984,126,-2,-5.0123280359232805,3.043906383492402,-1.2401982165375465
1769250142988,125,-3,-6.2003620933746415,1.7671666950658471,-2.4217909835906193
1769250142992,122,-6,-7.372706905943458,-0.8146024781631258,-3.5901674045383043
1769250142996,122,-6,-8.25799232452343,-1.1425953385194187,-4.473084468790291
1769250143000,122,-6,-8.693580497865746,-0.9581618545503154,-4.906331017292531
1769250143004,122,-6,-8.713395318738456,-1.1624847196697754,-4.921612801541716
1769250143008,122,-6,-8.47469799571541,-1.1158909317292591,-4.673611376899917
1769250143012,122,-6,-8.134925621970995,-1.0057136787389496,-4.320403048830477
1769250143016,123,-5,-7.80654920227987,-0.0332314601020069,-3.981647907506991
1769250143020,123,-5,-7.614588950114317,-0.1538419291409773,-3.792207110469224
1769250143024,122,-6,-7.779851968428419,-1.0821760153688,-3.9750187325519217
1769250143028,122,-6,-8.587730508613205,-1.2818345791060128,-4.803320753226563
1769250143032,120,-8,-10.110807522138982,-2.906634332816232,-6.329514665838885
1769250143036,119,-9,-11.71913750839806,-4.246112130548802,-7.912000203420472
1769250143040,120,-8,-11.713165594318877,-2.9761673584994988,-7.860884319305328
1769250143044,124,-4,-7.611250280220763,0.5877890856076533,-3.720947800177441
1769250143048,132,4,2.602368722731571,9.013095643760884,6.500210230811768
1769250143052,147,19,18.69689830368124,23.72850416449732,22.568587112389313
1769250143056,166,38,37.10086129620209,43.02207301727825,40.92940459825533
1769250143060,184,56,51.72294311063962,60.726389639882505,55.51467852939947
1769250143064,190,62,56.734844134048096,66.67097804775082,60.51396641195487
1769250143068,181,53,49.752542692162336,57.86860448762425,53.55026804403072
1769250143072,163,35,33.268482413534805,39.615723020731465,37.10969589605271
1769250143076,142,14,13.312101185600577,19.101822394530032,17.2021877406822
1769250143080,126,-2,-3.740262963596903,2.544255690270086,0.179569568980336
1769250143084,116,-12,-14.117847730158315,-7.067142242670499,-10.202157408587938
1769250143088,114,-14,-17.693626693414025,-9.432642876721872,-13.810763331274764
1769250143092,115,-13,-16.901920092317184,-8.184650011259453,-13.058720161962915
1769250143096,116,-12,-14.67367106769892,-7.236823728123664,-10.85290592352764
1769250143100,117,-11,-12.857484180530331,-6.2947692563336215,-9.030770445645036
1769250143104,118,-10,-11.877655045662072,-5.235417887985491,-8.024191155771838
1769250143108,119,-9,-11.347879972252288,-4.396845481156523,-7.466263827675854
1769250143112,120,-8,-10.837773332547664,-3.2527000013617187,-6.943514841781313
1769250143116,121,-7,-10.217503237207428,-2.3468944714837647,-6.329442698513491
1769250143120,121,-7,-9.567822546193092,-2.266687124016663,-5.69455378758439
1769250143124,121,-7,-8.978222115181481,-2.3277266262034093,-5.114703581112634
1769250143128,122,-6,-8.471358063129589,-1.389580922140354,-4.606719770654363
1769250143132,123,-5,-8.035224425798415,-0.320685210236789,-4.163105154166164
1769250143136,123,-5,-7.645385278099529,-0.4451232113192009,-3.767342152470403
1769250143140,123,-5,-7.253386662428242,-0.2331673301770926,-3.3744286154338003
1769250143144,124,-4,-6.797516040556484,0.5380101532843113,-2.9204495464369145
1769250143148,124,-4,-6.2499230390969185,0.6910276121716041,-2.374191136523907
1769250143152,125,-3,-5.645951182677131,1.4982463403218702,-1.770351331870203
1769250143156,126,-2,-5.053837806185252,2.61666031110786,-1.1786425302497787
1769250143160,126,-2,-4.516297454089553,2.604365060176536,-0.642219287064324
1769250143164,126,-2,-4.03119269503849,2.615588471399505,-0.157429803095046
1769250143168,127,-1,-3.5813487015863266,3.553850284715669,0.2937530434284685
1769250143172,128,0,-3.1516171439221554,4.517985352805892,0.7247706260513587
1769250143176,128,0,-2.701908091411877,4.507863314287489,1.173550426827007
1769250143180,128,0,-2.155191470793988,4.583655854279046,1.7175301636086864
1769250143184,129,1,-1.4535783385567944,5.5833664139760035,2.4170132915189964
1769250143188,130,2,-0.6277305984950796,6.480078398651863,3.2426035927728583
1769250143192,131,3,0.2183412559586373,7.520161038012571,4.08908842896647
1769250143196,132,4,1.0077165797985417,8.382844582791986,4.877739872127193
1769250143200,132,4,1.7655547084882026,8.608811422571698,5.633522937225751
1769250143204,133,5,2.5777624821952543,9.468542747400356,6.443637967998647
1769250143208,134,6,3.4723013901960647,10.510458321255,7.33695047847232
1769250143212,135,7,4.350698020749527,11.404042591146926,8.214419551571464
1769250143216,136,8,5.045334109526585,12.385656154460628,8.907277663519093
1769250143220,136,8,5.446684166144459,12.517614279684288,9.30583149595692
1769250143224,136,8,5.576358868859119,12.434180806259308,9.432804481054486
1769250143228,136,8,5.5430960253946795,12.49771521619946,9.398003126450204
1769250143232,136,8,5.438470534211369,12.28184000039927,9.292625787949651
1769250143236,136,8,5.280877037667503,12.447450769194536,9.133503360260562
1769250143240,136,8,5.052369270553423,12.32596206980358,8.901753384063312
1769250143244,135,7,4.769852463853704,11.542699730560686,8.615238033665026
1769250143248,135,7,4.5048117175145155,11.2987473218956,8.347280592316908
1769250143252,135,7,4.336712490847897,11.375628836182363,8.177874356043358
1769250143256,135,7,4.299113186608449,11.271957311848364,8.139165887393103
1769250143260,135,7,4.367998345208458,11.377836770801451,8.205449199805905
1769250143264,135,7,4.4808729250092565,11.427636034652028,8.314081401238024
1769250143268,135,7,4.550408782134408,11.279665434640323,8.379048009959753
1769250143272,135,7,4.468434818589029,11.335775170324242,8.293364440922673
1769250143276,135,7,4.127745259957647,11.177605101812452,7.949802419058272
1769250143280,134,6,3.4715917527454203,10.393415185545042,7.290855548492837
1769250143284,133,5,2.536796333936902,9.313317974487346,6.352896972581135
1769250143288,132,4,1.4481058622269265,8.278681122251053,5.26081952703743
1769250143292,131,3,0.362583079552137,7.270905868897522,4.171976860978509
1769250143296,130,2,-0.595413034870723,6.099395806468184,3.210710972615919
1769250143300,129,1,-1.3657948323070168,5.425231992005557,2.4366865600840755
1769250143304,129,1,-1.9391915949066376,5.140812173628591,1.858836132644599
1769250143308,128,0,-2.3244408047685527,4.386843092598473,1.4685309803051518
1769250143312,128,0,-2.5355261166938137,4.039490175655935,1.252673196645415
1769250143316,128,0,-2.60514004905808,4.236105602487752,1.1791826985268348
1769250143320,128,0,-2.592450560304513,4.1996191459047,1.188478796583222
1769250143324,128,0,-2.560215050592492,4.246088313429771,1.2168626513974203
1769250143328,128,0,-2.541444304550424,4.21917177314379,1.2309002443045705
1769250143332,128,0,-2.5339525038991546,4.059601097935933,1.2331517983141884
1769250143336,128,0,-2.527893000060223,4.149985157959831,1.2340118821308277
1769250143340,128,0,-2.5307314853125353,4.16471363987423,1.2261757109704088
1769250143344,128,0,-2.556211833263956,4.188034457835359,1.1958451419298113
1769250143348,128,0,-2.5864552819254905,4.20053719036896,1.1610608464497805
1769250143352,128,0,-2.55022474833911,3.931415501996733,1.1932304121707338
1769250143356,128,0,-2.3467260720118635,4.2209856960621615,1.3926521477952596
1769250143360,129,1,-1.9011503888701415,4.949511499581693,1.8331096149416957
1769250143364,129,1,-1.2152084534953835,5.343749619130465,2.5125508477489413
1769250143368,130,2,-0.3848303834778732,5.934380642361857,3.335978384540089
1769250143372,131,3,0.4307468660240889,7.077919398166351,4.145300005204506
1769250143376,132,4,1.0885721236618442,7.999186981137086,4.797784592088632
1769250143380,132,4,1.5484873906978085,8.016985903963395,5.252880552614655
1769250143384,132,4,1.8941599793211017,8.248635322929712,5.594000033007889
1769250143388,133,5,2.2593130201381437,8.859665006734296,5.954601087678963
1769250143392,133,5,2.7156175916735417,9.1051642019848,6.405690037844418
1769250143396,134,6,3.209998006034731,9.815339759432318,6.893550112911911
1769250143400,134,6,3.588761725499932,10.14408663170482,7.264638016467337
1769250143404,134,6,3.6774730844789385,9.999428308096867,7.345500131302363
1769250143408,134,6,3.359486308899079,10.01004015677416,7.020528653215777
1769250143412,133,5,2.6162670095406386,8.857796902257295,6.27150704038662
1769250143416,132,4,1.5265401526122524,7.909708289504963,5.176704664227477
1769250143420,131,3,0.2389310724768669,7.029177507080558,3.8841181063187817
1769250143424,129,1,-1.0706059947611677,4.924479304760759,2.569316174647202
1769250143428,128,0,-2.249068037447598,4.080749465809275,1.3848680335875665
1769250143432,128,0,-3.208766538624824,3.584259018623177,0.4178470058764094
1769250143436,126,-2,-3.946528427933891,2.150440684268128,-0.3285490771895918
1769250143440,126,-2,-4.539292223761367,1.6387107392627476,-0.9300499874470884
1769250143444,125,-3,-5.114699646227933,1.2580702104682686,-1.5129086689872624
1769250143448,125,-3,-5.7868738660957995,0.609192310022225,-2.1909690250071985
1769250143452,124,-4,-6.5773516307568345,-0.0470021653745273,-2.986504979881043
1769250143456,123,-5,-7.385042363338687,-1.3107547369486312,-3.799448820822044
1769250143460,122,-6,-8.04716111572482,-2.0425417936885317,-4.468298024367484
1769250143464,122,-6,-8.44670820576544,-2.0883784156948817,-4.877348615399927
1769250143468,122,-6,-8.574082841963673,-2.2390467366956166,-5.016402034383961
1769250143472,122,-6,-8.502622765289981,-2.2177763555941006,-4.954654711247054
1769250143476,122,-6,-8.322096065808454,-2.320854204160888,-4.776774424783732
1769250143480,122,-6,-8.093256625894117,-2.090227344179425,-4.543864435922722
1769250143484,123,-5,-7.848973689178924,-1.161288159539449,-4.297827108908612
1769250143488,123,-5,-7.644181111650619,-1.2825991114711215,-4.105326077464755
1769250143492,122,-6,-7.638451499436476,-2.249030837593649,-4.128771477947147
1769250143496,122,-6,-8.115443567590727,-2.449489230410707,-4.639587288274753
1769250143500,121,-7,-9.268993844926843,-3.0139123115905626,-5.810902307122038
1769250143504,120,-8,-10.710060340312529,-4.400315675400542,-7.240501713146045
1769250143508,120,-8,-10.996376300399453,-4.089995670962384,-7.493632024080311
1769250143512,124,-4,-7.758395345767024,-0.5771845078119302,-4.226534367976271
1769250143516,131,3,1.1842344741197897,6.781459340834769,4.715901197308943
1769250143520,144,16,16.03726208606886,19.68381067285206,19.534031623219427
1769250143524,162,34,33.7384560110813,37.77526102936695,37.18205126318602
1769250143528,180,52,48.478916054666186,55.68694233653083,51.874864777562074
1769250143532,188,60,54.314109739960585,63.46267605565514,57.68509848625763
1769250143536,180,52,48.44913824574431,55.613080077109046,51.82427845004012
1769250143540,162,34,32.949176100698985,37.62553633763045,36.3531424337171
1769250143544,142,14,13.61443169199839,17.7090403879468,17.05559002576377
1769250143548,126,-2,-3.1803317223099974,1.6773492879728922,0.2826762265177822
1769250143552,117,-11,-13.5272494734396,-7.491245516846002,-10.07488942170074
1769250143556,114,-14,-17.123306100773895,-10.4619192668986,-13.711580395060556
1769250143560,115,-13,-16.261382411265295,-9.41446460525956,-12.899313583480737
1769250143564,117,-11,-13.812181831580936,-7.458166272802401,-10.484465833812983
1769250143568,118,-10,-11.656694084085196,-6.29718046423354,-8.33616363310195
1769250143572,119,-9,-10.32605832870776,-5.6015385458412155,-6.991563406998245
1769250143576,120,-8,-9.585157651350263,-4.408892722734702,-6.233222844863519
1769250143580,122,-6,-9.14644828708606,-2.5987255170788117,-5.790472824702783
1769250143584,122,-6,-8.927972694582204,-2.442062943564313,-5.586418280664637
1769250143588,121,-7,-8.897081591330185,-3.430841518268858,-5.579552091124303
1769250143592,121,-7,-8.905819605422902,-3.5518101088354364,-5.6079180584419746
1769250143596,121,-7,-8.756289864248156,-3.503553229065492,-5.466651544815189
1769250143600,122,-6,-8.369262731318816,-2.664090759897631,-5.081075673130182
1769250143604,123,-5,-7.821911659777757,-1.483602413662716,-4.5378106768581095
1769250143608,123,-5,-7.224934905519507,-1.554286475208265,-3.9518354129868154
1769250143612,123,-5,-6.612120508804235,-1.4740593512338591,-3.3530060471908976
1769250143616,124,-4,-5.966723590513158,-0.6771733011132479,-2.718499417594628
1769250143620,125,-3,-5.308759056119198,0.3710600966020037,-2.067271429869216
1769250143624,126,-2,-4.698236446761904,1.364192340270324,-1.463336113866735
1769250143628,126,-2,-4.1506219350406734,1.4483406704618869,-0.925375177213213
1769250143632,126,-2,-3.5978683615512845,1.4763613138398275,-0.3841028049564869
1769250143636,127,-1,-2.966648895264523,2.2508044681580266,0.2368694789426904
1769250143640,128,0,-2.2769137293787822,3.330769516291463,0.9180650091884182
1769250143644,129,1,-1.6270495183611344,4.261400965349191,1.5589454888213314
1769250143648,129,1,-1.078073094242466,4.43663102953343,2.0974294124039368
1769250143652,129,1,-0.578711097154938,4.420530022614609,2.5864555954895008
1769250143656,130,2,-0.016185335755015,5.1710573799013195,3.1404626540855123
1769250143660,131,3,0.6785119840105334,6.3205122394211966,3.8273398955836417
1769250143664,132,4,1.4881283120862037,7.095843567394952,4.627368100817963
1769250143668,132,4,2.345169815018329,7.540415546482821,5.472692465441327
1769250143672,133,5,3.1754014549120884,8.200923988730253,6.291256970773869
1769250143676,134,6,3.9120340932196855,9.279234011429777,7.01808830179284
1769250143680,135,7,4.5102127138875225,10.10571338951078,7.607853383512675
1769250143684,135,7,4.977055390576182,10.132931694795206,8.066098640300435
1769250143688,135,7,5.378297796399708,10.468607466555143,8.457812033245014
1769250143692,136,8,5.791633038622306,11.105503937105452,8.860954679815087
1769250143696,136,8,6.2403560352778475,11.325454266596145,9.299213931628262
1769250143700,137,9,6.6687721771058985,11.879722475725492,9.717002622083283
1769250143704,137,9,6.982536679719809,12.26725442614028,10.02004802577114
1769250143708,137,9,7.120705923400604,12.21603463973011,10.147705810692305
1769250143712,137,9,7.102800982901773,12.253747535806149,10.119926525256693
1769250143716,137,9,7.017170171818618,12.081663292447196,10.025227793208623
1769250143720,137,9,6.963683437681197,11.961979870891083,9.963040022564604
1769250143724,137,9,6.9948532666685015,12.098102013883544,9.984931778624356
1769250143728,137,9,7.091377152105573,12.24864850222404,10.070851732882964
1769250143732,137,9,7.173656242038256,12.149272767210991,10.14142404964518
1769250143736,137,9,7.127338878537625,12.047580592809457,10.083453972909991
1769250143740,137,9,6.82989413733705,11.8791689822446,9.77546470117984
1769250143744,136,8,6.185259506404707,11.039794201260111,9.121305743193776
1769250143748,135,7,5.169826000858648,10.218896812178354,8.096305346480264
1769250143752,134,6,3.8654850612284424,9.061245555586217,6.78167137232583
1769250143756,132,4,2.442187891767488,7.037382667794432,5.347955656686757
1769250143760,131,3,1.0867708376219487,5.7326413903603815,3.98292851729734
1769250143764,130,2,-0.0683034809934517,5.087332500440709,2.81872155567783
1769250143768,129,1,-0.9592941122447524,4.047190252819811,1.9177105706103363
1769250143772,128,0,-1.5606905010825245,3.152590230585803,1.3048627484496669
1769250143776,128,0,-1.8714400394767308,2.8229078020572,0.9822673193666112
1769250143780,128,0,-1.9383800922488448,2.7959906346886285,0.904378323349627
1769250143784,128,0,-1.8692183649033631,2.918923590167731,0.9635953208767593
1769250143788,128,0,-1.7907116813145394,3.0887165504034595,1.032306877861852
1769250143792,128,0,-1.7760286530689895,3.0413884241434275,1.0368129730592286
1769250143796,128,0,-1.810323461897194,2.785935710085517,0.992310008174226
1769250143800,128,0,-1.8303664455807125,2.705871816913233,0.9624186780459614
1769250143804,128,0,-1.798870551482835,2.8721216563280754,0.9838827908397824
1769250143808,128,0,-1.7409480456832251,3.0424463059406426,1.0306126230490664
1769250143812,128,0,-1.7147096097426582,2.99318122486695,1.0446525703943863
1769250143816,128,0,-1.7543700644617766,2.7099234585800644,0.9934593092812176
1769250143820,128,0,-1.8363421065492656,2.627606346962385,0.902022849813702
1769250143824,128,0,-1.879404372228371,2.8352236916757887,0.8508480837237027
1769250143828,128,0,-1.7661941184706458,2.9590122407146167,0.95510696289914
1769250143832,128,0,-1.3880423142863243,3.0188364029169277,1.322242045202839
1769250143836,129,1,-0.7148391542412109,3.520247368661871,1.9832219821178685
1769250143840,130,2,0.1522012895891312,4.703983081600918,2.8384094864986165
1769250143844,131,3,1.010147363550421,5.600106503495123,3.6854073265363425
1769250143848,131,3,1.6722967288723891,6.112306773393379,4.337000317265318
1769250143852,132,4,2.088063556931946,6.777117814598174,4.742372307239417
1769250143856,132,4,2.35933249117923,6.605716212139635,5.004054040837361
1769250143860,132,4,2.6350969278435996,6.503594306974329,5.271348903863716
1769250143864,133,5,2.9796925601339628,7.620542620332892,5.6071956448248095
1769250143868,133,5,3.3292538828116607,8.06246882808034,5.945667082312081
1769250143872,133,5,3.5494384083467945,7.67316356981847,6.152405620238248
1769250143876,133,5,3.5097155789071524,7.635179124773608,6.099417859063409
1769250143880,133,5,3.1155339245763827,7.268831811884651,5.694416183820918
1769250143884,132,4,2.326782354714007,6.737544093820266,4.896915127137434
1769250143888,131,3,1.1961490847700338,5.872680739315825,3.757732216424627
1769250143892,129,1,-0.1122219470446674,3.7405597959552432,2.4401185878364746
1769250143896,128,0,-1.3813321075366765,2.4763739753100893,1.1613321457439705
1769250143900,128,0,-2.45373810687381,2.219430079054666,0.078652020533487
1769250143904,126,-2,-3.308262767613063,0.6931975302180025,-0.7875596377564942
1769250143908,125,-3,-4.046597573253049,-0.1906263793524143,-1.539041593903717
1769250143912,125,-3,-4.810709342481845,-0.2630048666700544,-2.316208683826118
1769250143916,124,-4,-5.687101770795266,-1.6760618131053668,-3.2032282173854485
1769250143920,123,-5,-6.649860085056806,-2.8011926801080893,-4.17306401069856
1769250143924,122,-6,-7.567614462946407,-3.39438785987154,-5.096345302505661
1769250143928,121,-7,-8.261617266441172,-4.217859726052844,-5.798847789419895
1769250143932,121,-7,-8.587393121511955,-4.2932995711632165,-6.139038347426708
1769250143936,121,-7,-8.520042520970932,-4.792119443080624,-6.08937459696033
1769250143940,121,-7,-8.20420771419657,-4.881712875935252,-5.787514635730772
1769250143944,122,-6,-7.899129856771705,-3.3890496395065526,-5.487672224669878
1769250143948,122,-6,-7.80561593613153,-3.381967738907112,-5.392895512363404
1769250143952,121,-7,-7.9083133359483,-4.14008261384765,-5.496732169664282
1769250143956,122,-6,-8.021241171399872,-4.1526601991975465,-5.622704935209119
1769250143960,121,-7,-8.047800977515546,-4.654500656579225,-5.676633770881879
1769250143964,121,-7,-8.199554714252088,-4.781959881557596,-5.861098435059766
1769250143968,120,-8,-8.850758780131795,-5.035918025904203,-6.533810256726831
1769250143972,120,-8,-9.967783136861229,-5.591888229913679,-7.648942607052465
1769250143976,120,-8,-10.488480173028568,-5.830850107201822,-8.148090792856094
1769250143980,122,-6,-8.288142785142824,-4.160529562391957,-5.926128615111029
1769250143984,128,0,-1.1450011530788204,2.5636051963922997,1.2176758153179612
1769250143988,139,11,11.589849654740805,13.65199790534735,13.926287309762303
1769250143992,155,27,27.674326518514405,29.48936949665848,29.969136777686025
1769250143996,172,44,42.212938707595505,46.21425162660314,44.46680333006603
1769250144000,183,55,49.78239497323428,56.23463752197886,52.00583931049428
1769250144004,179,51,47.30186477049622,54.38618499465406,49.51189095810753
1769250144008,163,35,35.67406484614476,36.28336631921,37.89431027142958
1769250144012,142,14,19.051509668785172,18.068195288615016,21.301892929093857
1769250144016,137,9,2.4733594572366986,9.276109418603983,4.750620690118252
1769250144020,120,-8,-10.317571786381375,-4.796221288690198,-8.043046057429716
1769250144024,110,-18,-17.760409407303285,-16.616603196152617,-15.520499298250044
1769250144028,108,-20,-20.226261165925752,-16.891482184305566,-18.02978777074255
1769250144032,111,-17,-19.24879118580892,-14.744314358686308,-17.081873532426613
1769250144036,114,-14,-16.64153271806037,-12.395223228602058,-14.485810597355094
1769250144040,115,-13,-13.802410017118415,-10.829395821587458,-11.647318861756627
1769250144044,117,-11,-11.464912041451544,-9.105614773894906,-9.30768958855181
1769250144048,119,-9,-9.86111528751566,-6.125723015673281,-7.703893394249912
1769250144052,121,-7,-8.971647393661144,-5.046863402920479,-6.8202941182108265
1769250144056,121,-7,-8.628520269820015,-5.0185377780998754,-6.4899167303873675
1769250144060,121,-7,-8.53985432582386,-5.384753168119388,-6.417093286553048
1769250144064,120,-8,-8.39570637285086,-5.628283347391427,-6.286236432452297
1769250144068,121,-7,-8.032034151641774,-4.683622507164582,-5.931343524003881
1769250144072,122,-6,-7.486999935050825,-3.7632206291608448,-5.393544185682305
1769250144076,123,-5,-6.88569294608277,-3.343016138275857,-4.801456040575487
1769250144080,123,-5,-6.287112523491575,-3.227233587109124,-4.21406527156537
1769250144084,123,-5,-5.657370105579305,-2.8046008511815455,-3.5949791390281356
1769250144088,124,-4,-4.968030052245748,-1.7253394299202984,-2.914669939564431
1769250144092,125,-3,-4.277254670483465,-0.8441872755273012,-2.2327856572130305
1769250144096,126,-2,-3.69599766071059,-0.4398960216921761,-1.6616955362785508
1769250144100,126,-2,-3.286737075766872,-0.1742878151777382,-1.262983421922384
1769250144104,126,-2,-3.0044225552238046,0.0219017132816849,-0.989716936237892
1769250144108,126,-2,-2.7236159327902154,0.2896144691127249,-0.716442382876636
1769250144112,127,-1,-2.3104336674196717,0.9847106123717504,-0.3114324108677555
1769250144116,128,0,-1.6862047779814389,1.5677365748315122,0.3024305916652761
1769250144120,128,0,-0.8659509661165405,1.7934791907692018,1.1112261148039275
1769250144124,129,1,0.0371140514154595,2.886328588439678,2.003951063807844
1769250144128,130,2,0.8663289107537775,4.333966247653559,2.824416459330817
1769250144132,131,3,1.5274973334735735,4.693038940989014,3.477038293562095
1769250144136,131,3,2.062659917714302,4.796063774765032,4.002913824303658
1769250144140,132,4,2.608632048910545,5.438117748162606,4.539468414104668
1769250144144,132,4,3.2696238651452587,6.153817626264862,5.191783587815478
1769250144148,133,5,4.0278581522048125,6.913613361095089,5.941768145137104
1769250144152,134,6,4.775347306589456,7.910162657104992,6.680268488888189
1769250144156,135,7,5.422278048406328,8.515855452779604,7.3170005820819
1769250144160,135,7,5.963174096965664,8.544430311830645,7.847463337536131
1769250144164,135,7,6.437372004805548,9.0370888288442,8.31228841904365
1769250144168,136,8,6.843407722586395,9.756304297828514,8.709992978630034
1769250144172,136,8,7.11792295249713,10.01334376899662,8.975996213028697
1769250144176,137,9,7.209357174716716,10.18840477101294,9.058085470052951
1769250144180,136,8,7.163444570986394,9.87081104909715,9.00284894148367
1769250144184,136,8,7.124618744662233,9.525463784620676,8.955795815523302
1769250144188,136,8,7.24935238161832,10.14036689075823,9.073017842301445
1769250144192,137,9,7.608837968126476,10.464954859020825,9.4242526343229
1769250144196,137,9,8.14831653524141,10.587489566064193,9.954074111323829
1769250144200,138,10,8.71089171164832,11.443186792646973,10.506369778238634
1769250144204,138,10,9.101021083146804,11.757117896073344,10.886659301257769
1769250144208,138,10,9.159392178935065,11.804805514148851,10.935959089564417
1769250144212,138,10,8.815504060935154,11.590699526911123,10.583687185254648
1769250144216,137,9,8.089048425349073,10.366070098584997,9.849537152851669
1769250144220,136,8,7.047755766863551,9.567146553756256,8.800895065976457
1769250144224,135,7,5.7671501056815675,8.50955951726571,7.512229126564716
1769250144228,133,5,4.325012829285439,6.881361672926544,6.060556618781043
1769250144232,132,4,2.8115686807886533,5.371425935793477,4.536936233576934
1769250144236,130,2,1.318846490296162,3.434766612380572,3.0352214135161937
1769250144240,129,1,-0.0841178728884965,2.446445155248906,1.6250566121985697
1769250144244,128,0,-1.3501220340914872,1.4584330932837917,0.3521427579174736
1769250144248,126,-2,-2.423337939970763,-0.1782546968078282,-0.7295351266001955
1769250144252,126,-2,-3.230423147619281,-0.7837438782021469,-1.5466193291626733
1769250144256,125,-3,-3.72578568465696,-1.478894483342847,-2.051706900047937
1769250144260,125,-3,-3.947460902381029,-1.7901587036016249,-2.2813506442664435
1769250144264,125,-3,-4.008307134003171,-1.3818219166819148,-2.348929988559585
1769250144268,125,-3,-4.01060229780886,-1.5276174335883823,-2.3585721725133126
1769250144272,125,-3,-3.965821686347982,-1.5918980315246785,-2.3227124267259835
1769250144276,125,-3,-3.813053821369499,-1.7831277708098725,-2.1794748346182047
1769250144280,125,-3,-3.5266737387710863,-1.6189378272582102,-1.9017680521861633
1769250144284,126,-2,-3.193731144724501,-0.6380434044263366,-1.57654310992013
1769250144288,126,-2,-2.9620721588227834,-0.4578832213323371,-1.3526929075276717
1769250144292,126,-2,-2.902093346763476,-0.8037472191277493,-1.3010714719548029
1769250144296,126,-2,-2.924871041613328,-0.7156184823030127,-1.3320038033053212
1769250144300,126,-2,-2.8423682135659982,-0.7823312383659289,-1.2567251810068951
1769250144304,126,-2,-2.5130131960347777,-0.6198381289130088,-0.9342142867168084
1769250144308,127,-1,-1.940992608562896,0.4150885198788128,-0.3700767902908681
1769250144312,128,0,-1.252634413009649,1.1084353603983432,0.3087709330148691
1769250144316,128,0,-0.59024932124589,1.3094715650599582,0.9612282598173132
1769250144320,129,1,-0.0240979134400251,1.9987079261309804,1.5188810978384115
1769250144324,129,1,0.4606140340546697,2.5584943323876725,1.9969941576098056
1769250144328,130,2,0.9217677942337836,2.99318770646766,2.4521730177014756
1769250144332,130,2,1.4084942066410786,3.468390952735718,2.9320419952851786
1769250144336,131,3,1.924064998247006,3.7334423064643567,3.439461599343199
1769250144340,131,3,2.412365621441685,4.525321270254027,3.91890272978138
1769250144344,132,4,2.7724719091988197,4.865094484184656,4.270236966872002
1769250144348,131,3,2.8944566072716076,4.541720715162944,4.383976154467623
1769250144352,132,4,2.6989158976002616,4.7871884030009655,4.180633794276605
1769250144356,131,3,2.1652509504617057,4.232894330959676,3.639329130163425
1769250144360,130,2,1.3390160992480555,2.9722549424778193,2.805657059393214
1769250144364,129,1,0.3146859920504533,2.2151671930130163,1.7743598131795573
1769250144368,128,0,-0.7944443213602912,1.1264160734568351,0.658583345398926
1769250144372,127,-1,-1.8807591764466365,-0.0482250436259183,-0.4347054547122528
1769250144376,126,-2,-2.860166116363234,-0.9625558711242777,-1.4218704218460363
1769250144380,125,-3,-3.6947735070344834,-2.047669743186317,-2.2648945051935363
1769250144384,124,-4,-4.412873483430784,-2.8044474973342144,-2.9917314793874734
1769250144388,124,-4,-5.096944644717726,-3.083741694086047,-3.684494123463328
1769250144392,123,-5,-5.830144595600192,-3.929964976008838,-4.425534817270122
1769250144396,122,-6,-6.636911575342431,-5.265166679342856,-5.238418773783018
1769250144400,121,-7,-7.459758329465941,-5.827269271032631,-6.06643393944196
1769250144404,121,-7,-8.174307622651842,-6.179485173529721,-6.788007894302055
1769250144408,120,-8,-8.626206479373536,-6.85956074359924,-7.250450622532552
1769250144412,120,-8,-8.694039575087459,-7.28044283872812,-7.329393105246668
1769250144416,120,-8,-8.370217930474011,-7.095797744892727,-7.01143907489669
1769250144420,121,-7,-7.796353828806192,-6.054534970772661,-6.436222719154868
1769250144424,122,-6,-7.196343237259091,-5.1596996819177825,-5.833901636396337
1769250144428,122,-6,-6.7613812584954776,-4.9545081331214655,-5.4063965749267675
1769250144432,122,-6,-6.6158005983644665,-5.403331296914435,-5.2835356895629255
1769250144436,121,-7,-6.883615059921979,-6.073767677597384,-5.5823981152380755
1769250144440,121,-7,-7.674540607051039,-6.227263034199446,-6.395663992587463
1769250144444,120,-8,-8.792154365481405,-7.111369479915262,-7.511630961592925
1769250144448,120,-8,-9.265508608979207,-7.132814494753427,-7.959254123798027
1769250144452,123,-5,-7.1897209663328905,-4.391495648471565,-5.852184004183861
1769250144456,128,0,-0.4069623588560169,0.7977725786111654,0.942110939802913
1769250144460,139,11,11.971420400526192,11.755208234195646,13.298863136618651
1769250144464,155,27,28.056053683199277,27.826128959179115,29.33646144629258
1769250144468,171,43,42.99568197244255,43.76885756260431,44.225471817048245
1769250144472,182,54,50.83166875268129,54.55304850588759,52.02842316614631
1769250144476,179,51,47.61999451248096,51.67114448711425,48.81232015987552
1769250144480,162,34,33.83072286567301,34.641473410412374,35.046131818900406
1769250144484,141,13,14.28596170911426,13.795234022654006,15.539030791879435
1769250144488,123,-5,-4.3952175872963775,-4.3579214189252795,-3.111785884850182
1769250144492,111,-17,-17.11713617229898,-16.3719411229757,-15.83105564596286
1769250144496,107,-21,-22.30565304792546,-20.40881384770316,-21.04971787786689
1769250144500,108,-20,-21.658841908194574,-19.42043691231683,-20.450944432368697
1769250144504,111,-17,-18.303722362462533,-16.292346229754685,-17.137048721547917
1769250144508,114,-14,-14.833810454685798,-13.525465901430604,-13.683520389029372
1769250144512,115,-13,-12.384161058063276,-12.336099022739871,-11.224358824180616
1769250144516,117,-11,-10.905269791355993,-10.568724538908231,-9.724526027835706
1769250144520,119,-9,-9.960845083865422,-8.36279718837709,-8.766911968839302
1769250144524,120,-8,-9.273417980106071,-7.530674800314262,-8.084902514951601
1769250144528,120,-8,-8.766760467544966,-7.465080204948913,-7.59843486846124
1769250144532,120,-8,-8.382652080352294,-7.532167064712832,-7.23596734121437
1769250144536,120,-8,-8.010734303266727,-7.491578679340839,-6.876360863113825
1769250144540,121,-7,-7.574646361235658,-6.543047969510465,-6.44288174374963
1769250144544,122,-6,-7.097913206067295,-5.519550861738717,-5.966452032216243
1769250144548,122,-6,-6.644599584188635,-5.649683012483372,-5.517619662098158
1769250144552,122,-6,-6.219083758683695,-5.488032825921174,-5.10109164634774
1769250144556,123,-5,-5.7540635489445,-4.662306466602535,-4.64583764911681
1769250144560,123,-5,-5.19380159321051,-4.484350848663909,-4.093417105187466
