timestamp_ms,ecg_u8_raw,ecg_counts_raw_int,ecg_counts_filt_monitor,ecg_counts_filt_diagnostic,ecg_counts_filt_st
1770447676228,128,0,1.2206590294150108,-2.542926803152308,-2.45782413256149
1770447676232,129,1,1.419622195455411,-2.152313116015087,-2.2602002561066743
1770447676236,128,0,1.4812897501563973,-2.5243990351677077,-2.200663187238335
1770447676240,128,0,1.375899171330664,-2.8295994705651832,-2.306931223064798
1770447676244,128,0,1.0721176491200026,-2.591391396079299,-2.6095275801676694
1770447676248,128,0,0.5777766087183265,-2.835343712670021,-3.1019673155944147
1770447676252,127,-1,-0.0089238695125233,-3.9028668072932606,-3.687601603819557
1770447676256,126,-2,-0.5196410594589629,-4.709991855177023,-4.1981533265615845
1770447676260,126,-2,-0.825440793275426,-4.6760565278836665,-4.504053224117622
1770447676264,126,-2,-0.9401614814598458,-4.693642225223339,-4.61910461900309
1770447676268,126,-2,-1.0128723466539111,-4.721170239200963,-4.692523619199186
1770447676272,126,-2,-1.21374477359037,-5.011495169540368,-4.893801715089098
1770447676276,125,-3,-1.6120577743256417,-5.577680969021502,-5.2911588843702955
1770447676280,125,-3,-2.1353207790947053,-5.8263964579927485,-5.812032858284222
1770447676284,124,-4,-2.624051675665301,-6.495448412876973,-6.298130556306999
1770447676288,124,-4,-2.9349811066941367,-6.916295491763505,-6.607483387493041
1770447676292,124,-4,-3.0250807144973484,-6.783673957124352,-6.6973771990436575
1770447676296,124,-4,-2.9653413392829835,-6.801277822826119,-6.638064964150226
1770447676300,124,-4,-2.879971862422801,-6.608018694967065,-6.552615616043768
1770447676304,124,-4,-2.8589876538328847,-6.658380955274271,-6.530266345025293
1770447676308,124,-4,-2.9082979150921844,-6.7828993162913145,-6.577058687541257
1770447676312,124,-4,-2.9666127438179997,-6.833690896537218,-6.632739927583353
1770447676316,124,-4,-2.9653470690661097,-6.820997535431989,-6.629822043805508
1770447676320,124,-4,-2.882591216679449,-6.499987617113202,-6.546370777151228
1770447676324,124,-4,-2.757843400826525,-6.805402747550401,-6.42061508730062
1770447676328,124,-4,-2.663353007864091,-6.570393911739018,-6.32379705806966
1770447676332,125,-3,-2.649254244852922,-6.042454291329043,-6.306714491373764
1770447676336,124,-4,-2.6998060260677375,-6.6245818769571985,-6.35524622929485
1770447676340,124,-4,-2.7453113316071662,-6.641132403647332,-6.400239883703609
1770447676344,124,-4,-2.732028399850369,-6.6918442927068895,-6.386660913912786
1770447676348,124,-4,-2.6827808390255763,-6.609326329705672,-6.335415720151792
1770447676352,125,-3,-2.6743557100896296,-6.027183879856201,-6.3223578675130305
1770447676356,124,-4,-2.7449981593737665,-6.5958187710102925,-6.386578143149988
1770447676360,124,-4,-2.8315056195991604,-6.6837111516175645,-6.467545712512935
1770447676364,124,-4,-2.8120395584300155,-6.6047715766552315,-6.446966072023431
1770447676368,124,-4,-2.614230971711221,-6.6952064162078155,-6.2542548713235835
1770447676372,125,-3,-2.259761718288426,-5.900780281895518,-5.908101832866745
1770447676376,125,-3,-1.7449274763255094,-5.714454888711175,-5.397231334375009
1770447676380,126,-2,-0.7856087208195954,-4.554032185908357,-4.430546820198279
1770447676384,129,1,1.3960178024136989,-1.7007409394583497,-2.2302651115786096
1770447676388,133,5,5.99211431203836,2.407360199038715,2.387320338829489
1770447676392,141,13,14.082993021455655,10.04864386390199,10.491115288390482
1770447676396,152,24,25.80730019525123,21.343138263165592,22.2131306952132
1770447676400,166,38,39.71240959017368,35.43082510927915,36.10295105368867
1770447676404,180,52,52.84054279704844,49.30587884291474,49.21216369188879
1770447676408,189,61,61.73104647268732,58.45460220499566,58.09110020743038
1770447676412,192,64,63.89955444873348,60.9324905183012,60.2622200237895
1770447676416,186,58,58.95573335628037,55.508293067296464,55.334834369507576
1770447676420,175,47,48.68636012708936,44.17748107231327,45.088845076525246
1770447676424,162,34,36.081274314729114,31.656143068930177,32.504167328674065
1770447676428,151,23,23.946482941560195,20.121175470323045,20.378745228359623
1770447676432,141,13,13.932441711158226,10.358749263175811,10.361205781837532
1770447676436,134,6,6.404503089452231,3.1115329893747967,2.8222948437190905
1770447676440,128,0,0.9677594480863404,-2.4158451129499525,-2.623942048797092
1770447676444,124,-4,-2.8913512495886033,-6.748544695202339,-6.484328994694163
1770447676448,121,-7,-5.483587229239373,-9.433954922366633,-9.06878422962538
1770447676452,120,-8,-6.980087825984283,-11.066355836895095,-10.553059151367512
1770447676456,119,-9,-7.613740010798632,-11.42636524302194,-11.176496041779677
1770447676460,120,-8,-7.744731868121947,-10.87634754778387,-11.30316154614879
1770447676464,119,-9,-7.733137200074092,-11.289805227890149,-11.291909315103696
1770447676468,119,-9,-7.778379778027035,-11.839067907489271,-11.33734761076277
1770447676472,119,-9,-7.891399190252346,-11.67662605224363,-11.446649340925164
1770447676476,119,-9,-7.99688606668296,-11.728612286340692,-11.545144388414348
1770447676480,119,-9,-8.038614941540517,-11.642839936602623,-11.580250575714835
1770447676484,119,-9,-8.002613133798285,-11.410927133079763,-11.540316082731165
1770447676488,119,-9,-7.886778924636116,-11.775435804930682,-11.422034190894523
1770447676492,119,-9,-7.684114936495313,-11.645812621318091,-11.21582743573041
1770447676496,120,-8,-7.393139347624795,-10.770196536402535,-10.919649855717442
1770447676500,120,-8,-7.0242338439754315,-10.589754444925392,-10.54563993893218
1770447676504,120,-8,-6.594085238898978,-10.402621534055845,-10.11185532697418
1770447676508,121,-7,-6.131468067838876,-9.810692443924928,-9.646253442196455
1770447676512,121,-7,-5.69220994579122,-9.522501338845466,-9.20290879928813
1770447676516,122,-6,-5.343577483212016,-8.929275536797434,-8.848644593220715
1770447676520,122,-6,-5.104227698664136,-8.370773579757046,-8.603275389635765
1770447676524,122,-6,-4.895890382661109,-8.606167606526345,-8.389660401331607
1770447676528,122,-6,-4.5788879943642815,-8.602365446751602,-8.068175667004951
1770447676532,123,-5,-4.06173128928191,-7.649761717235833,-7.54693345724433
1770447676536,124,-4,-3.3845572390984544,-6.859384504921469,-6.865877098078849
1770447676540,124,-4,-2.693584831311391,-6.323840903910671,-6.170839124181796
1770447676544,125,-3,-2.130098251041878,-5.7054423850447575,-5.602378300059535
1770447676548,125,-3,-1.729399784953248,-5.416832986140374,-5.19566540966059
1770447676552,126,-2,-1.4043035021509644,-4.856455489579821,-4.864466684639778
1770447676556,126,-2,-1.0204571646346547,-4.608233563634897,-4.475410390729925
1770447676560,126,-2,-0.5098519323963735,-4.546965621074606,-3.960414015308192
1770447676564,127,-1,0.0650379443310791,-3.4574364618411497,-3.38126684418868
1770447676568,128,0,0.5603874845324557,-2.625676482309524,-2.8813792542814305
1770447676572,128,0,0.8816391602336415,-2.6423674364344376,-2.5550401660870112
1770447676576,128,0,1.0763586709694544,-2.782350700200633,-2.354340542381444
1770447676580,128,0,1.3012829017545895,-2.35786626412669,-2.1227837789731647
1770447676584,129,1,1.698665998091159,-1.6078681626397109,-1.7191626145223906
1770447676588,129,1,2.290680670146555,-1.4515634330190788,-1.1220606113286684
1770447676592,130,2,2.9663759313649054,-0.7749284433397179,-0.4421026601364466
1770447676596,131,3,3.5605716460416392,0.3529312312216888,0.1563502475597307
1770447676600,131,3,3.966346873691476,0.5655796377016991,0.567023650415353
1770447676604,131,3,4.1977894564649905,0.4463053748311996,0.8044655848277866
1770447676608,131,3,4.355907786324595,0.5914856386015059,0.9696302802025928
1770447676612,132,4,4.538787629313426,1.1355680232341174,1.159570469408056
1770447676616,132,4,4.782911652067906,1.5408014228803897,1.409562572500747
1770447676620,132,4,5.070305672904018,1.3543749772178235,1.7017003634811831
1770447676624,132,4,5.364066180142626,1.7159893575426857,2.0003009612640854
1770447676628,133,5,5.6314258553935215,2.3535217969245577,2.273406344110468
1770447676632,133,5,5.849652297152635,2.366202258328478,2.4980032864473936
1770447676636,133,5,6.00105209655537,2.3953398533627555,2.6558065548119485
1770447676640,133,5,6.059764613617029,2.4709461129536647,2.7207042936014596
1770447676644,133,5,5.983620524114392,2.682604195606089,2.650522519683366
1770447676648,133,5,5.725528169176055,2.37635007271614,2.3983017854639783
1770447676652,132,4,5.256003167499676,1.3944081215419497,1.9347905031405008
1770447676656,132,4,4.576497139540013,1.3896715834930389,1.26154045549521
1770447676660,131,3,3.716311623283504,0.5107319441822691,0.4077935044559946
1770447676664,129,1,2.7174009181792336,-1.3292144337656824,-0.5845383163731754
1770447676668,129,1,1.6170538290508547,-1.5783062719174028,-1.6783250249690638
1770447676672,128,0,0.444417237432511,-2.616720075225329,-2.844685631608042
1770447676676,126,-2,-0.7675666391406044,-4.5825018291809325,-4.050548001443678
1770447676680,125,-3,-1.9757209907957467,-5.4556939889822935,-5.252274620455095
1770447676684,124,-4,-3.133939411445314,-6.364387907984107,-6.403737971717518
1770447676688,123,-5,-4.198261805055229,-7.484455649914573,-7.461360827455927
1770447676692,122,-6,-5.126277749023982,-8.696965333268498,-8.382710346290484
1770447676696,121,-7,-5.8846943672712255,-9.453484327635037,-9.134163478457848
1770447676700,121,-7,-6.460684703099716,-9.564790171327882,-9.7030903123075
1770447676704,120,-8,-6.85918477007017,-10.2119979326479,-10.094976448248651
1770447676708,120,-8,-7.092311954823921,-10.615391177604897,-10.321817442501183
1770447676712,120,-8,-7.182468129395421,-10.522169508364357,-10.405184624857212
1770447676716,120,-8,-7.174688088704747,-10.59733256442752,-10.389754229487009
1770447676720,120,-8,-7.131029241024348,-10.401681242502711,-10.338364544719331
1770447676724,120,-8,-7.101311276603287,-10.312943955848102,-10.301878834076485
1770447676728,120,-8,-7.100248392936003,-10.517961141263488,-10.294943558045665
1770447676732,120,-8,-7.11816340487341,-10.5491399282589,-10.306595873179422
1770447676736,120,-8,-7.149394184297035,-10.563896979792506,-10.330104281591504
1770447676740,120,-8,-7.194485467640193,-10.396818185259477,-10.36642258422685
1770447676744,120,-8,-7.224679696287067,-10.25928999053242,-10.388158331417378
1770447676748,120,-8,-7.157904627613258,-10.57596997300327,-10.313957201211796
1770447676752,120,-8,-6.900959665349131,-10.406678014512783,-10.050137659079745
1770447676756,121,-7,-6.4386665864584405,-9.727099965115178,-9.5808851948012
1770447676760,121,-7,-5.881576397589889,-9.155643466433345,-9.016859683928192
1770447676764,122,-6,-5.410978928048621,-8.482292067860623,-8.539628968114233
1770447676768,122,-6,-5.159917131903314,-8.311701927153441,-8.281656067901963
1770447676772,122,-6,-5.130574349055026,-8.624694488901648,-8.244031904577861
1770447676776,122,-6,-5.208329758025848,-8.521325579676477,-8.3120777222905
1770447676780,122,-6,-5.24436113570189,-8.267196587209167,-8.33849399745095
1770447676784,122,-6,-5.138582839480169,-8.389378339817025,-8.224784179256826
1770447676788,122,-6,-4.8821753865590924,-8.293203361482174,-7.962077145719882
1770447676792,123,-5,-4.553565577642289,-7.6722863163814,-7.6273142123567315
1770447676796,123,-5,-4.272293203684051,-7.405409728602785,-7.338687999502686
1770447676800,123,-5,-4.128906559294654,-7.369768429001152,-7.186568662181179
1770447676804,123,-5,-4.131688529670335,-7.230878073702212,-7.180022722204286
1770447676808,123,-5,-4.208810422606937,-7.402411958019251,-7.248131145233986
1770447676812,123,-5,-4.266353148430872,-7.553377109385029,-7.297361494144871
1770447676816,123,-5,-4.258481834483584,-7.469172604891727,-7.281701337370239
1770447676820,123,-5,-4.213613062633919,-7.294071915664484,-7.229157848562305
1770447676824,123,-5,-4.195835633987077,-7.22662851653778,-7.2033909290795926
1770447676828,123,-5,-4.238215006789082,-7.3879820836875565,-7.237144584427305
1770447676832,123,-5,-4.308547098417755,-7.521356591816977,-7.298324876975142
1770447676836,123,-5,-4.334109795666487,-7.487893895066588,-7.314859681232552
1770447676840,123,-5,-4.2593918975434,-7.224001981510003,-7.231734707184957
1770447676844,123,-5,-4.091298567190362,-7.246240241807692,-7.0554580598202055
1770447676848,123,-5,-3.901273652080632,-7.320335839795423,-6.856760164455164
1770447676852,124,-4,-3.777482017122219,-6.564798931241304,-6.723995530100721
1770447676856,124,-4,-3.753694944571282,-6.411609562731072,-6.691710999794324
1770447676860,123,-5,-3.777644166675677,-7.267430071218146,-6.707459102032862
1770447676864,123,-5,-3.761213209599128,-7.133856665852366,-6.681995449318437
1770447676868,124,-4,-3.6651357280521064,-6.402443051708932,-6.575770140408746
1770447676872,124,-4,-3.523222662153666,-6.442437406184927,-6.423802435633055
1770447676876,124,-4,-3.384947743985703,-6.5059768513162695,-6.2767336949638945
1770447676880,124,-4,-3.2545353734012776,-6.125757660952793,-6.138469923848183
1770447676884,124,-4,-3.1008060061910467,-6.222996078167929,-5.97645085992445
1770447676888,124,-4,-2.9218096447113844,-6.282168041110146,-5.787897324975915
1770447676892,125,-3,-2.7823436129082215,-5.50817505014259,-5.638265625802933
1770447676896,125,-3,-2.7709285014196605,-5.429750696160035,-5.61733183526413
1770447676900,124,-4,-2.9159121720647274,-6.126495081907188,-5.753637127861669
1770447676904,124,-4,-3.1509455541817415,-6.2010065249811,-5.9797711019443875
1770447676908,124,-4,-3.3643903335323206,-6.243377857290685,-6.18324312640881
1770447676912,124,-4,-3.4772151948047276,-6.524279307422921,-6.28543378496324
1770447676916,124,-4,-3.47650160946854,-6.368355261274081,-6.274566750390778
1770447676920,124,-4,-3.389193830647845,-6.121801215080177,-6.178197830660377
1770447676924,124,-4,-3.2388218494088656,-6.1927932163721415,-6.019315210629843
1770447676928,124,-4,-3.032542731050355,-6.164035399727449,-5.803986951307467
1770447676932,125,-3,-2.7808084835407905,-5.625173859815056,-5.54218167151604
1770447676936,125,-3,-2.511933692027928,-5.169592923046794,-5.262683357405857
1770447676940,125,-3,-2.257003613851819,-5.303694019360703,-4.997327098709441
1770447676944,125,-3,-2.0222390068999117,-4.954408254715061,-4.752747499065
1770447676948,126,-2,-1.779011697835616,-4.338486927494205,-4.5002399388889565
1770447676952,126,-2,-1.4823681199705412,-4.477177587817163,-4.194223421403928
1770447676956,126,-2,-1.1057593741408738,-4.181953604811594,-3.8073460183410024
1770447676960,127,-1,-0.6622704334080438,-3.3343890105119813,-3.352679324461163
1770447676964,127,-1,-0.1874818842414405,-2.7832912121544693,-2.8668465684414848
1770447676968,128,0,0.2983661797169219,-2.5395443396339243,-2.371054077536324
1770447676972,128,0,0.7977174747864915,-2.204717437387552,-1.8626558110416984
1770447676976,129,1,1.295294565032463,-1.4027565549830905,-1.3558464290469316
1770447676980,129,1,1.7180523815488418,-1.1058876712724053,-0.922805583679255
1770447676984,129,1,1.953815642560944,-0.8784174674414533,-0.675794596874697
1770447676988,130,2,1.9277290947667391,-0.5052239310418796,-0.6905729735752271
1770447676992,129,1,1.6709212647444995,-1.0936682056044311,-0.9368336775580066
1770447676996,129,1,1.3098468317092835,-1.57282037677978,-1.2879797203037635
1770447677000,128,0,0.9717495927065902,-1.797149868974102,-1.6158479042059084
1770447677004,128,0,0.686793181329403,-2.182791540728313,-1.8897588270041723
1770447677008,128,0,0.3816780572124325,-2.1425773214659194,-2.183646261572931
1770447677012,128,0,-0.0253927851094259,-2.3886252068222227,-2.580316833995374
1770447677016,127,-1,-0.5233200106646392,-3.2926978923903656,-3.0686109463223255
1770447677020,126,-2,-1.0057752041337544,-3.951665719463643,-3.5409205258889256
1770447677024,126,-2,-1.3686870361801633,-4.044736897530596,-3.8922161504590296
1770447677028,126,-2,-1.6009504371850725,-4.182180819823963,-4.112057881558124
1770447677032,126,-2,-1.774263593120898,-4.321457742415302,-4.273806129750694
1770447677036,126,-2,-1.9526359373454265,-4.32781249111597,-4.442252798127619
1770447677040,125,-3,-2.127081764302596,-4.817732905171235,-4.607321085590379
1770447677044,125,-3,-2.2460360283254897,-5.206708997526628,-4.715639931325298
1770447677048,125,-3,-2.299029306551416,-4.877387953822935,-4.756378107832535
1770447677052,126,-2,-2.3481270339273106,-4.672016428665948,-4.793170602693554
1770447677056,125,-3,-2.465515522240435,-4.84297725957418,-4.899694248715634
1770447677060,125,-3,-2.651109811672298,-5.304399913900889,-5.0753542981059665
1770447677064,124,-4,-2.826165551610197,-5.658453931959247,-5.239671462491412
1770447677068,125,-3,-2.9036609363857204,-5.35771199547047,-5.304972725093198
1770447677072,125,-3,-2.8516739828955315,-5.193233903407916,-5.240402025727089
1770447677076,125,-3,-2.692670872013692,-5.180448909818117,-5.069603975225317
1770447677080,125,-3,-2.465175631016523,-5.009831599562242,-4.831116282185756
1770447677084,125,-3,-2.2021309955193624,-4.809262153428688,-4.557337674069539
1770447677088,126,-2,-1.9377580255761475,-4.261446362881529,-4.282373674203242
1770447677092,126,-2,-1.716370767493054,-4.145956885965267,-4.050519180790953
1770447677096,126,-2,-1.5832199934808833,-4.233233748124956,-3.9062632074156576
1770447677100,126,-2,-1.5602696208890432,-3.860567089186509,-3.8703971079328814
1770447677104,126,-2,-1.6225173440306488,-3.930087675497517,-3.9176737845256246
1770447677108,126,-2,-1.69845896263949,-4.114205383442231,-3.9781621471379416
1770447677112,126,-2,-1.7127721421242008,-4.186881163373261,-3.979544085880185
1770447677116,126,-2,-1.6500861169882592,-4.192819358442472,-3.909123114504928
1770447677120,126,-2,-1.572432431103295,-3.778690247036139,-3.828631198486653
1770447677124,126,-2,-1.5280577232007877,-4.024389875837125,-3.7815335668400487
1770447677128,126,-2,-1.3578986944079832,-3.937147608421873,-3.60167353754078
1770447677132,128,0,-0.4964791714893408,-2.3169701096294912,-2.7194852053353555
1770447677136,130,2,2.0676803515593507,-0.0026913723364252,-0.1265032703718476
1770447677140,135,7,7.512264001655945,5.107767581917511,5.34578256568485
1770447677144,144,16,16.56707914074703,14.13205303332029,14.417434903869571
1770447677148,156,28,28.812881276253563,25.970997473060383,26.665346708157266
1770447677152,170,42,42.33624458762865,39.833389070558894,40.181015291884805
1770447677156,182,54,54.105092801550946,51.91447664718944,51.94307730667529
1770447677160,189,61,61.04857968572643,59.21438495417744,58.89027827036604
1770447677164,190,62,61.35212431544615,60.0534638291151,59.21106355656102
1770447677168,183,55,55.24485766967107,53.05216721897872,53.13078036600719
1770447677172,172,44,44.79279333554084,41.80857396718215,42.70828230874142
1770447677176,160,32,32.82619157632205,30.01252910532329,30.766573482172063
1770447677180,149,21,21.690379903653312,19.219685835358646,19.645758205745775
1770447677184,141,13,12.560019880980736,11.106587386346302,10.519646456137355
1770447677188,134,6,5.5597456938103775,4.112830014382355,3.518051469443537
1770447677192,128,0,0.3398436499836821,-2.2580734177277035,-1.6999126788404784
1770447677196,124,-4,-3.4353599573658293,-5.808521085456749,-5.4638883575444
1770447677200,122,-6,-5.954419482192433,-7.948210516034988,-7.963803377369356
1770447677204,120,-8,-7.376478208763036,-9.649100982802397,-9.365357451619372
1770447677208,120,-8,-7.959288716606304,-10.0424175127789,-9.931807527713527
1770447677212,120,-8,-8.057163262519552,-10.10443513851872,-10.01830114909806
1770447677216,120,-8,-8.004770970523401,-9.84897940960583,-9.956770283353672
1770447677220,120,-8,-7.99537284549157,-9.926626159311848,-9.93711027748364
1770447677224,119,-9,-8.054446764554452,-10.539267918634756,-9.983008746172832
1770447677228,120,-8,-8.11600246175682,-10.140680827703406,-10.02910366532844
1770447677232,120,-8,-8.115623477027953,-9.910240267591924,-10.013199256406
1770447677236,120,-8,-8.020802626256566,-10.016072763264184,-9.904463864944049
1770447677240,120,-8,-7.808825669217624,-9.693861929231227,-9.679928547030825
1770447677244,120,-8,-7.456216626731578,-9.686476902770444,-9.314881535637651
1770447677248,121,-7,-6.9648632548846345,-8.973073866031713,-8.810798199129152
1770447677252,122,-6,-6.389938975999277,-7.958101206754759,-8.22328326839066
1770447677256,122,-6,-5.833622802300363,-7.981523968522343,-7.654303051673173
1770447677260,122,-6,-5.406215169744997,-7.605699887188177,-7.213121826761951
1770447677264,123,-5,-5.172086583501134,-6.7532111686336975,-6.9639285084178795
1770447677268,123,-5,-5.099895258014261,-6.8245569556619525,-6.876736004099675
1770447677272,123,-5,-5.05670786190726,-7.045427699341053,-6.819824880083635
1770447677276,123,-5,-4.8816521842767395,-6.850109894232851,-6.631873583598431
1770447677280,123,-5,-4.502286129158506,-6.64954545956469,-6.239187796607094
1770447677284,124,-4,-3.988031438193536,-5.6808486000204095,-5.710893483326739
1770447677288,125,-3,-3.477623394243519,-4.779411388192765,-5.186420347947683
1770447677292,125,-3,-3.047024268511631,-5.080392035761095,-4.74202538163775
1770447677296,125,-3,-2.650689925730426,-4.712678374219905,-4.331668915246672
1770447677300,126,-2,-2.1881698880315987,-3.762304941032625,-3.854628444653395
1770447677304,126,-2,-1.6180793315946416,-3.4949946656209594,-3.26995221912384
1770447677308,127,-1,-1.0078315162316012,-2.8681594479897248,-2.645509480237955
1770447677312,128,0,-0.4809300590217138,-1.965660608443098,-2.1047351871433015
1770447677316,128,0,-0.1139487978751558,-1.7162257600113626,-1.7237918265546233
1770447677320,128,0,0.1267062841212043,-1.772570768989948,-1.4687175715467482
1770447677324,128,0,0.3546275620816148,-1.351685482382631,-1.2258581728813378
1770447677328,129,1,0.6695827912386014,-0.986560347422286,-0.8957404355104788
1770447677332,129,1,1.0846959016617113,-0.7464678690146282,-0.4656692559119273
1770447677336,130,2,1.534523766661772,0.1228899617151424,-0.0013378250096272
1770447677340,130,2,1.9480593051653283,0.4168644105825922,0.4263798642981466
1770447677344,130,2,2.3141957159221063,0.5696224801941918,0.8068674047787989
1770447677348,131,3,2.6793924381884717,1.115526293984975,1.1870323844904438
1770447677352,131,3,3.086877082250997,1.2758647519137454,1.609991762552759
1770447677356,132,4,3.5242257974700277,2.1114862203390157,2.062689359279608
1770447677360,132,4,3.9324443459389142,2.531010293000281,2.4856881202664
1770447677364,132,4,4.263666742164132,2.4898454097316756,2.8314359172974157
1770447677368,133,5,4.52865833228627,3.2898143053784468,3.1114810333786203
1770447677372,133,5,4.790525866484825,3.172320793849509,3.3893262417875603
1770447677376,133,5,5.1129218955374665,3.254285111745962,3.728074889533724
1770447677380,134,6,5.509014229006396,4.489170240805635,4.139860300899462
1770447677384,134,6,5.928379627588965,4.559208831170794,4.573977032799836
1770447677388,134,6,6.277317260630869,4.336939347080931,4.937581842717963
1770447677392,135,7,6.449937056685959,5.163826796952272,5.125519396185266
1770447677396,135,7,6.364134279168473,5.348608857750648,5.055385935493751
1770447677400,134,6,5.9939293397561,4.428559153274726,4.700848914311915
1770447677404,133,5,5.368896690371896,3.73022110046942,4.091949490583694
1770447677408,133,5,4.536639757079121,3.204544248822623,3.2765512525077387
1770447677412,132,4,3.533829628887988,2.3954061454523705,2.2903982947543287
1770447677416,131,3,2.3968653399360775,1.1676907875401017,1.168900426864521
1770447677420,129,1,1.1802135224361985,-0.3259882924485198,-0.0329404351076747
1770447677424,128,0,-0.059124428677558,-1.420516353250496,-1.2565900323212489
1770447677428,127,-1,-1.2940267026458798,-2.602619970994299,-2.4744114039648992
1770447677432,126,-2,-2.525641406437246,-3.691354470112635,-3.688761385923546
1770447677436,125,-3,-3.7407573731642465,-4.701306561196912,-4.887784744962909
1770447677440,123,-5,-4.881813990432838,-6.375421412947174,-6.013660059335033
1770447677444,122,-6,-5.873555188193691,-7.296432751835057,-6.989606894085457
1770447677448,122,-6,-6.6775272196216,-7.672905168160515,-7.776301471095767
1770447677452,121,-7,-7.306651316540259,-8.510277780860108,-8.387442344596785
1770447677456,121,-7,-7.78184729484661,-8.85385100054016,-8.845410214013652
1770447677460,120,-8,-8.086540701884108,-9.100480803053856,-9.134189067763153
1770447677464,120,-8,-8.180055077117169,-9.551025783290807,-9.212257125079226
1770447677468,120,-8,-8.062066356874276,-9.316107395675012,-9.078016516344071
1770447677472,121,-7,-7.814776287268155,-8.78796539719867,-8.813298327140721
1770447677476,121,-7,-7.563347750676103,-8.531800361080915,-8.544002686878823
1770447677480,121,-7,-7.382526218792877,-8.288830950890345,-8.345697734099891
1770447677484,121,-7,-7.243908665927755,-8.3725619686536,-8.19005140107361
1770447677488,121,-7,-7.063181854685953,-8.348493373448267,-7.992392845380041
1770447677492,122,-6,-6.803150589636248,-7.74001493051615,-7.71547869338594
1770447677496,122,-6,-6.529449507312069,-7.450209681218155,-7.425145794557593
1770447677500,122,-6,-6.363348512537088,-7.322655087140125,-7.242458688363489
1770447677504,122,-6,-6.374579736298166,-7.251567530976549,-7.236458348901844
1770447677508,122,-6,-6.5081092691042075,-7.419700913282879,-7.351660077149223
1770447677512,122,-6,-6.606872529756971,-7.567091204480136,-7.43138954355414
1770447677516,122,-6,-6.51571964427465,-7.574518763044542,-7.32158268341087
1770447677520,122,-6,-6.18943874486782,-7.062735575211305,-6.978082403365969
1770447677524,123,-5,-5.724598939527549,-6.506673475286124,-6.497566865714439
1770447677528,123,-5,-5.295475427361742,-6.022259148501849,-6.053017688930824
1770447677532,124,-4,-5.046987082538109,-5.952027393521362,-5.7874952077142385
1770447677536,123,-5,-5.0174187443107385,-6.062046096658857,-5.738668445075611
1770447677540,124,-4,-5.12661108435785,-5.513676410315345,-5.827752978147825
1770447677544,123,-5,-5.22566704334767,-5.993444875574269,-5.907729161673615
1770447677548,123,-5,-5.186472311931448,-6.423002287494212,-5.851012351187149
1770447677552,124,-4,-4.985967700476895,-5.528939284196684,-5.6337935986479
1770447677556,124,-4,-4.721489781339232,-5.326834694958667,-5.352612759412008
1770447677560,124,-4,-4.534729310018363,-5.251832464654468,-5.148733390972319
1770447677564,124,-4,-4.504331257511451,-5.087908826041348,-5.10041435245366
1770447677568,124,-4,-4.596220119785441,-5.345435825838589,-5.173341912213723
1770447677572,124,-4,-4.703584278206149,-5.453412607369593,-5.2611314559549225
1770447677576,124,-4,-4.731305980637251,-5.375414325235003,-5.269725886640028
1770447677580,124,-4,-4.655008297678043,-5.071451090850909,-5.175548878585833
1770447677584,124,-4,-4.52173014578873,-5.218508262394755,-5.025356786486702
1770447677588,124,-4,-4.409114461084933,-5.120415649649757,-4.895726495495886
1770447677592,125,-3,-4.3775367900759825,-4.619715761052346,-4.846224143026714
1770447677596,124,-4,-4.440206504173199,-5.108639676878742,-4.890046806085991
1770447677600,124,-4,-4.5632912611783905,-5.260647205102828,-4.993919094262609
1770447677604,124,-4,-4.691521038558221,-4.941526553900256,-5.103230339425256
1770447677608,124,-4,-4.779130443191776,-5.317850453305402,-5.172507229518829
1770447677612,124,-4,-4.808708099546108,-5.370191646451843,-5.184095802847088
1770447677616,124,-4,-4.792705088998522,-5.217216176338429,-5.15011717073488
1770447677620,124,-4,-4.7576324089840405,-5.13512357002884,-5.09706461328658
1770447677624,124,-4,-4.720286315492013,-4.902802088448155,-5.041669977771983
1770447677628,124,-4,-4.67790265843785,-5.356119850089403,-4.980759782217843
1770447677632,124,-4,-4.620863416491127,-5.198883082413297,-4.9046133128987535
1770447677636,125,-3,-4.5457971878548165,-4.3286330839582225,-4.810552364767734
1770447677640,124,-4,-4.450777920687528,-4.922832013266405,-4.697300337818824
1770447677644,124,-4,-4.329616275523083,-5.026831875824272,-4.558412867035601
1770447677648,125,-3,-4.182595094630091,-4.160927498151343,-4.393543401937181
1770447677652,125,-3,-4.025140233576402,-4.3127581295245445,-4.217875333377874
1770447677656,125,-3,-3.874095528057617,-4.133711089605236,-4.0481936841660175
1770447677660,125,-3,-3.7263353969557937,-3.993863909823907,-3.881325104564277
1770447677664,125,-3,-3.553431741769567,-3.917110034410409,-3.6893035579473583
1770447677668,126,-2,-3.314140192336148,-3.138400049420202,-3.431756573789062
1770447677672,126,-2,-2.9774613889391617,-3.3114646427618033,-3.0778049704064907
1770447677676,126,-2,-2.5508678250138965,-2.9972551732971953,-2.6338469282640906
1770447677680,127,-1,-2.0924234829883472,-2.0519817412663786,-2.15698461421115
1770447677684,127,-1,-1.6772325992691233,-1.780667997622778,-1.72271469901631
1770447677688,128,0,-1.3311705597483612,-1.1747504652129612,-1.357975912866361
1770447677692,128,0,-0.999520374844308,-1.2207472034718612,-1.0082590745903917
1770447677696,128,0,-0.5994646208079661,-0.9709950770499488,-0.5899995818605377
1770447677700,129,1,-0.1158847882450304,0.004738936800658,-0.087729489777701
1770447677704,129,1,0.3553056216452894,0.2536314032211679,0.4018675309295965
1770447677708,130,2,0.6617346853836583,0.8793621745736275,0.7255357121411974
1770447677712,130,2,0.6929786003055911,0.7990172675192704,0.7732383523940625
1770447677716,129,1,0.4323283079531999,0.1111915230752345,0.5297399496270523
1770447677720,129,1,-0.0671237359513048,7.369004352808517e-05,0.0489749780172479
1770447677724,128,0,-0.7294433587259026,-0.6304183800947745,-0.5939737693265057
1770447677728,128,0,-1.4678928218773186,-1.1728919459451272,-1.3137972056352205
1770447677732,127,-1,-2.1719487267747297,-2.033986130618822,-2.0001735388495874
1770447677736,126,-2,-2.7214036434991686,-2.984880125063233,-2.531953809781222
1770447677740,126,-2,-3.0388588049507774,-2.8030079991533667,-2.831393743989195
1770447677744,126,-2,-3.132951952931265,-2.7282686636854256,-2.9079771439804203
1770447677748,126,-2,-3.0931065540709226,-2.998743600407438,-2.85172962011505
1770447677752,126,-2,-3.048410114887382,-3.095577592418069,-2.7910580301053187
1770447677756,126,-2,-3.117729849395607,-2.854684818897474,-2.8437501943657577
1770447677760,126,-2,-3.3587001291721306,-2.834755747211742,-3.0670477975198724
1770447677764,125,-3,-3.730039324453739,-3.601169412554849,-3.419785343752305
1770447677768,125,-3,-4.10162117270986,-4.033162949980044,-3.7721804438613344
1770447677772,125,-3,-4.32119068379404,-3.970203660907136,-3.972988632973372
1770447677776,125,-3,-4.2960446397656105,-3.880441042278953,-3.930948309052623
1770447677780,125,-3,-4.041351571257972,-3.740829159667755,-3.661577755782165
1770447677784,125,-3,-3.6797268521335207,-3.547435169835058,-3.2859268244166167
1770447677788,126,-2,-3.393688686851742,-3.0560753848363396,-2.9844001019784647
1770447677792,126,-2,-3.335274678169081,-2.7868254788791504,-2.908359775760715
1770447677796,126,-2,-3.5272444615896146,-3.0458713196189544,-3.081586770486181
1770447677800,125,-3,-3.8292513188258974,-3.419841086123512,-3.365111296904768
1770447677804,125,-3,-4.019598333475236,-3.8059956805353137,-3.53800329228734
1770447677808,125,-3,-3.94915867128313,-3.6901769613076,-3.4515336374807464
1770447677812,126,-2,-3.648179896765344,-3.0451716863228353,-3.1362564548364262
1770447677816,126,-2,-3.2973853461272924,-2.7233512635642647,-2.7724173581456473
1770447677820,126,-2,-3.0898456446188667,-2.600902437390934,-2.551116424399436
1770447677824,126,-2,-3.097332625858478,-2.571776620381158,-2.541599916435141
1770447677828,126,-2,-3.2380938451755874,-2.796316922626027,-2.6614890535484133
1770447677832,126,-2,-3.3543505997856227,-2.8761657595755095,-2.756010008943096
1770447677836,126,-2,-3.3317011084191193,-2.7668229020916213,-2.7161290976355703
1770447677840,126,-2,-3.177119485741632,-2.473890214964637,-2.5523486443749963
1770447677844,126,-2,-3.002981576971017,-2.575711317433664,-2.374822219958152
1770447677848,126,-2,-2.9000029578686544,-2.727864454799614,-2.2666949613231724
1770447677852,127,-1,-2.7159308844940497,-1.8233546840627248,-2.0679439244131244
1770447677856,128,0,-1.8304633473579832,-0.7466259280107672,-1.156010955145572
1770447677860,130,2,0.8791109797468257,1.6406936467861506,1.5867089943127295
1770447677864,136,8,6.683268370148001,7.401966587378503,7.420976892326374
1770447677868,145,17,16.270951797458117,16.40322916121044,17.026642295987433
1770447677872,158,30,28.99197583463616,29.144412620574997,29.75017299080117
1770447677876,172,44,42.59193452253376,43.39553012898955,43.34215772552332
1770447677880,183,55,53.77310586002944,54.60989579708311,54.51621261741822
1770447677884,189,61,59.43791908045678,60.48991144621962,60.18595938276338
1770447677888,188,60,58.01567761141363,59.39805070305319,58.784817631123914
1770447677892,180,52,50.151061610454974,51.17064156252414,50.95258145202504
1770447677896,167,39,38.349759819662786,38.512408751526166,39.185091619422494
1770447677900,154,26,25.775788202324676,25.593193762684574,26.637182627975783
1770447677904,144,16,14.908736613103294,15.668925338536884,15.78349294576178
1770447677908,137,9,6.812951426131251,8.329660380783402,7.689340885189334
1770447677912,131,3,1.2874445171109237,2.35653261694858,2.160588920502465
1770447677916,127,-1,-2.442311231439237,-1.5725712107078045,-1.5680181925441097
1770447677920,124,-4,-5.070380322006267,-4.210185324611932,-4.184839087498293
1770447677924,122,-6,-6.949648201185374,-6.455415336035781,-6.044284301437079
1770447677928,121,-7,-8.193347008176953,-7.42264341639282,-7.266309746682382
1770447677932,121,-7,-8.886417393295883,-7.805497166783541,-7.942169189354627
1770447677936,120,-8,-9.1905962987918,-8.297887868369175,-8.235328857656857
1770447677940,120,-8,-9.300966840149831,-8.362936518743801,-8.338158090888806
1770447677944,120,-8,-9.348753356817303,-8.251195291678606,-8.377860583088157
1770447677948,120,-8,-9.360115519769556,-8.456567764731716,-8.378235038668233
1770447677952,120,-8,-9.302804167219762,-8.755372167125683,-8.307490533116905
1770447677956,120,-8,-9.162072370909048,-8.130070817072237,-8.153454858858337
1770447677960,121,-7,-8.965131077908199,-7.530391345624432,-7.945653600263341
1770447677964,120,-8,-8.74329605108744,-7.886439258507137,-7.714980755765249
1770447677968,121,-7,-8.496035873104251,-7.793096122483925,-7.458178576105296
1770447677972,121,-7,-8.199942114993028,-7.266795260764408,-7.150271107448967
1770447677976,122,-6,-7.831704395455342,-6.5222413225321905,-6.769607681857237
1770447677980,122,-6,-7.371612188417167,-6.040901798442247,-6.299055266019026
1770447677984,122,-6,-6.8154443200387025,-6.222182375009464,-5.734493316404139
1770447677988,123,-5,-6.2216907947528695,-5.429854693319772,-5.132344131219307
1770447677992,124,-4,-5.740887097474001,-4.438275807670907,-4.642024182720313
1770447677996,124,-4,-5.5526038921067435,-4.327331948459776,-4.4440361894560905
1770447678000,124,-4,-1.7100962072038688,-1.3583570785348775,-1.430933685636342
1770447678004,124,-4,-1.4724809272832275,-1.274655896337908,-1.194541740006929
1770447678008,125,-3,-0.8932796091849078,-0.343094382202777,-0.6172158470625524
1770447678012,126,-2,-0.2755729680836519,0.5618393501481541,-0.0017554431537718
1770447678016,126,-2,0.1327332218823885,0.5073463861688392,0.4048724108159404
1770447678020,126,-2,0.2927316356642825,0.683826007963417,0.5647895553898502
1770447678024,126,-2,0.348647673411426,0.6523304570394682,0.6221792618802084
1770447678028,126,-2,0.4752068133729527,0.7079666129878897,0.7504226224898671
1770447678032,127,-1,0.7438820202666584,1.5000435570113022,1.0196475450594151
1770447678036,127,-1,1.1056574510210146,1.531338900925278,1.380829177517771
1770447678040,127,-1,1.472506651420699,1.6645579076286967,1.7469380744213632
1770447678044,128,0,1.810017870390479,2.635598804561641,2.08425267983003
1770447678048,128,0,2.164432871593788,2.706799550606499,2.439078015475522
1770447678052,128,0,2.605568079532689,2.476626324236959,2.881200800034275
1770447678056,129,1,3.140355474753086,3.5305169095783264,3.4173057431374767
1770447678060,130,2,3.689885899894725,4.667107683904198,3.967822284294221
1770447678064,130,2,4.162423509896726,4.586049339018539,4.440903427755114
1770447678068,130,2,4.543012309377963,4.767483334951323,4.822618287248918
1770447678072,131,3,4.901009351054572,5.355106577852691,5.183006462785061
1770447678076,131,3,5.315497823779634,5.6529359156963706,5.599995424966446
1770447678080,132,4,5.79914188150165,6.5192455639004825,6.084505936408575
1770447678084,132,4,6.278624994846647,6.728463916787389,6.563440932384744
1770447678088,132,4,6.630103517641895,6.596850438930903,6.915170550551516
1770447678092,133,5,6.749332661554113,7.497056643413817,7.0369211178738515
1770447678096,133,5,6.633199935976611,7.48207983115233,6.924702356757094
1770447678100,132,4,6.417420026710705,6.68325120998683,6.712536373591059
1770447678104,132,4,6.308299468006106,6.548205524706808,6.606149567590336
1770447678108,132,4,6.431975017204153,6.762853837151215,6.731926285020516
1770447678112,133,5,6.725540959338303,7.27766065963212,7.026949803255955
1770447678116,133,5,6.972682518131828,7.712809103766591,7.274949647287071
1770447678120,133,5,6.951687352094236,7.415529192175659,7.255196360563879
1770447678124,132,4,6.567682830989105,6.819427984629641,6.8741401158959
1770447678128,132,4,5.87686433299538,6.448488737036443,6.188022305951281
1770447678132,131,3,5.014126856094286,5.554212278073596,5.33024843160323
1770447678136,130,2,4.094938035956813,4.436226957984982,4.414835985317245
1770447678140,129,1,3.15312371626442,3.672208923613205,3.47547270197712
1770447678144,128,0,2.1430463933025563,2.5667644919441335,2.4672847279286234
1770447678148,127,-1,0.9998686352798808,1.6392382715620903,1.3261484659360578
1770447678152,126,-2,-0.2855431964713713,0.3669998890859127,0.0434890205272548
1770447678156,124,-4,-1.6353142910838048,-1.4375741574665295,-1.3021890475063902
1770447678160,123,-5,-2.918878777337808,-2.4049676606394677,-2.580165298676044
1770447678164,122,-6,-4.015470849303554,-3.428585872757692,-3.67075729914377
1770447678168,121,-7,-4.851818638494244,-4.347897818270296,-4.5024948454659635
1770447678172,121,-7,-5.405622903804953,-4.713151564142446,-5.053856978522972
1770447678176,120,-8,-5.705308175390541,-5.347288399578162,-5.351979357504561
1770447678180,120,-8,-5.839628975022554,-5.512567064090499,-5.483375126811819
1770447678184,120,-8,-5.945311288354551,-5.348920966527362,-5.583866110500943
1770447678188,120,-8,-6.140398128214579,-5.431524565712234,-5.77279217091561
1770447678192,120,-8,-6.436369408871668,-5.706214481262848,-6.063475137011787
1770447678196,119,-9,-6.717462594089248,-6.307989024653915,-6.340404825908584
1770447678200,119,-9,-6.8319278896719275,-6.629460743200026,-6.450571418281085
1770447678204,119,-9,-6.72326565306488,-6.195670283658142,-6.336718779771935
1770447678208,120,-8,-6.4740181254323765,-5.643192080888573,-6.082197858081465
1770447678212,120,-8,-6.220000836329577,-5.518811613754617,-5.823862982145201
1770447678216,120,-8,-6.029156826117331,-5.478899867829461,-5.629222534544992
1770447678220,120,-8,-5.86861667473794,-5.530974433113506,-5.463945552269201
1770447678224,120,-8,-5.6767156336218205,-5.259705590823368,-5.265878636575486
1770447678228,121,-7,-5.444936409885231,-4.651738527598242,-5.027710962810218
1770447678232,121,-7,-5.222606672846264,-4.505469344131253,-4.800064880540537
1770447678236,121,-7,-5.057378323987698,-4.4963490754401025,-4.63030013260098
1770447678240,121,-7,-4.948074640879387,-4.574534447608835,-4.515958919616361
1770447678244,121,-7,-4.851719977492012,-4.183682118593636,-4.413627759045488
1770447678248,122,-6,-4.722218185504073,-3.824122778708445,-4.277948268872968
1770447678252,121,-7,-4.544249762677242,-4.276452568503165,-4.094220137826369
1770447678256,122,-6,-4.346379721131575,-3.796041947011988,-3.890869098304989
1770447678260,122,-6,-4.185789895408008,-3.2587050499075643,-3.7248031290241657
1770447678264,122,-6,-4.107434626681396,-3.546011356150091,-3.640898478554908
1770447678268,122,-6,-4.108988470754114,-3.495418399164222,-3.6365786493789023
1770447678272,122,-6,-4.14690818501964,-3.580486491394637,-3.667966942224371
1770447678276,122,-6,-4.176405509430314,-3.5707595712119287,-3.6905256806167537
1770447678280,122,-6,-4.182534211254825,-3.4279162107511256,-3.6901842338949553
1770447678284,122,-6,-4.1766002774492526,-3.484131613212502,-3.678779621065039
1770447678288,122,-6,-4.173992495963169,-3.5092496270392717,-3.6710737242853817
1770447678292,122,-6,-4.1824827059983125,-3.632619446830246,-3.6735780713367903
1770447678296,122,-6,-4.205026596988299,-3.5131878564969856,-3.6887994551400984
1770447678300,122,-6,-4.238368925710007,-3.49899984675877,-3.714507489644187
1770447678304,122,-6,-4.261439494299033,-3.478948298836283,-3.731034677084518
1770447678308,122,-6,-4.235942529628407,-3.4656509946369902,-3.700175324077071
1770447678312,122,-6,-4.137455937381376,-3.7873998847588095,-3.596133800583455
1770447678316,122,-6,-3.9913551251284423,-3.270354121807094,-3.443158778891719
1770447678320,123,-5,-3.8625515366577305,-2.867726498714127,-3.306639431595628
1770447678324,122,-6,-3.7933726208643574,-3.043636620615755,-3.230202254236998
1770447678328,123,-5,-3.7552960926740377,-2.987635096777506,-3.185757878374608
1770447678332,122,-6,-3.6778854953894298,-3.2497961405050497,-3.1022006291565214
1770447678336,123,-5,-3.5304945584545817,-2.837168490356638,-2.948320005343968
1770447678340,123,-5,-3.3659798587918894,-2.336671064461423,-2.777128748239833
1770447678344,123,-5,-3.275485146543083,-2.554926484319358,-2.679947794578885
1770447678348,123,-5,-3.29976413627217,-2.552032106469864,-2.697212123322788
1770447678352,123,-5,-3.3826676562523663,-2.644398908707265,-2.7725522619754774
1770447678356,123,-5,-3.4057002716167206,-2.539895189856983,-2.787895012624837
1770447678360,123,-5,-3.2741510839928023,-2.575718314063966,-2.649110684958288
1770447678364,123,-5,-2.9918020585115324,-2.4038116892323256,-2.3601002953599206
1770447678368,124,-4,-2.6687909814236024,-1.6528664439031848,-2.03083096063317
1770447678372,124,-4,-2.4504801918804704,-1.6349737693734516,-1.8065300832382367
1770447678376,124,-4,-2.4172933451718324,-1.5154991330652137,-1.767240965612733
1770447678380,124,-4,-2.534878915334198,-1.6702117411247228,-1.8777800557707869
1770447678384,123,-5,-2.690255350351654,-2.285389887501344,-2.0246940395197672
1770447678388,124,-4,-2.7690547871918074,-1.8239595193988631,-2.0945235214789673
1770447678392,124,-4,-2.6999993052528772,-1.464142579514109,-2.017669700700909
1770447678396,124,-4,-2.4495924029791456,-1.7148924687025535,-1.7611419414357044
1770447678400,124,-4,-2.0135932541604316,-1.4969777274453586,-1.3194704302671716
1770447678404,125,-3,-1.4325886841709712,-0.4544132371501211,-0.7319959101852868
1770447678408,126,-2,-0.7977515123863965,0.2820428938745403,-0.0900297027924298
1770447678412,126,-2,-0.2138317696869356,0.45694069388782,0.5009254889421532
1770447678416,127,-1,0.2557376706418495,1.2996529059915651,0.9774515424914644
1770447678420,127,-1,0.6121481052697801,1.5042142710856024,1.3414565496355468
1770447678424,127,-1,0.8980461399554343,1.4900745165908582,1.635766240625425
1770447678428,128,0,1.155022347541414,2.3344030292030773,1.900972645032239
1770447678432,128,0,1.394079357675707,2.3856755967317156,2.146869379524145
1770447678436,128,0,1.5851592350147403,2.3375160245985716,2.343436631773839
1770447678440,128,0,1.6574350881585524,2.4767667370673765,2.4211202580833517
1770447678444,128,0,1.5194171332919704,2.445615352919927,2.2895422056000143
1770447678448,128,0,1.112606982546439,2.4037353499186143,1.8903572255905992
1770447678452,127,-1,0.4723179999701192,1.2636220095857271,1.258481182624156
1770447678456,126,-2,-0.2618528548868912,0.4629201277288838,0.5328806909913336
1770447678460,126,-2,-0.9080327612520452,0.3230303491757509,-0.1055050910014104
1770447678464,125,-3,-1.3360494518856032,-0.4388916678996892,-0.5271575987258571
1770447678468,125,-3,-1.533556721311215,-0.705636324885937,-0.7192383043548943
1770447678472,125,-3,-1.6066891996976085,-0.664467486460976,-0.7866511183789298
1770447678476,125,-3,-1.708893084633512,-0.6044600700753979,-0.8822091302500232
1770447678480,125,-3,-1.9344278606609555,-0.6634439046137177,-1.100475240447583
1770447678484,124,-4,-2.2536204177093246,-1.4510936300436263,-1.4121601509341255
1770447678488,124,-4,-2.5473328265282413,-1.743290262364961,-1.6981956935929947
1770447678492,124,-4,-2.7107379735613426,-1.6109637428048549,-1.85403952328668
1770447678496,124,-4,-2.731521274993586,-1.7010225402548451,-1.8680221140797475
1770447678500,124,-4,-2.680466645808587,-1.575347266400856,-1.8111678231847448
1770447678504,124,-4,-2.640462865731058,-1.5626821889275373,-1.7656607429286313
1770447678508,124,-4,-2.6463687575263646,-1.6706313986935613,-1.7652830928619485
1770447678512,124,-4,-2.6799869246228383,-1.677508165144015,-1.79148916283159
1770447678516,124,-4,-2.7066306600831664,-1.6782768494806204,-1.8103871553944972
1770447678520,124,-4,-2.7101585389318448,-1.598387752958608,-1.8069998568843475
1770447678524,124,-4,-2.69973984715618,-1.5751663956571569,-1.790791152888004
1770447678528,124,-4,-2.6956393789736355,-1.6757096871722743,-1.7810937338976496
1770447678532,124,-4,-2.714061426867678,-1.6939645964006518,-1.7930421130589316
1770447678536,124,-4,-2.7569552497168877,-1.676472713147317,-1.8287824512498605
1770447678540,124,-4,-2.80153758058323,-1.6310598089926205,-1.8668706315338803
1770447678544,124,-4,-2.7965773001311236,-1.5473815174182144,-1.85667964194894
1770447678548,124,-4,-2.685274594146189,-1.7484309557289874,-1.739917386589794
1770447678552,124,-4,-2.4523349383615343,-1.6166844956136268,-1.4990860871932628
1770447678556,125,-3,-2.1520660295640015,-0.7965352972466057,-1.1885896879198414
1770447678560,125,-3,-1.879328986145529,-0.5107583875450308,-0.906690553116862
1770447678564,125,-3,-1.7081435671411778,-0.7010362282677008,-0.7315016771174357
1770447678568,125,-3,-1.6577209688496226,-0.6158909669934908,-0.6831255374600143
1770447678572,125,-3,-1.6877423334444497,-0.764959009083968,-0.7172338354413387
1770447678576,125,-3,-1.6452040314294745,-0.6933015220616748,-0.6739064850488333
1770447678580,126,-2,-1.1113650627452951,0.4093555925165159,-0.1291184072249833
1770447678584,128,0,0.7535144861735343,2.321059780856444,1.756373589924589
1770447678588,132,4,5.135273283858853,6.383968503381359,6.161353920992253
1770447678592,140,12,13.08580179744538,14.181778916936924,14.1277243872975
1770447678596,151,23,24.749393511504984,25.371065475982306,25.792972001740196
1770447678600,165,37,38.735294682750585,39.32308352216795,39.76730335019834
1770447678604,179,51,52.157874239105105,53.40088634599386,53.17352297936167
1770447678608,189,61,61.550318459468706,63.26401889261862,62.55579140052309
1770447678612,192,64,64.2935356374019,66.23195095520134,65.30248191653436
1770447678616,187,59,59.78302703352766,61.28082797590984,60.80952123939468
1770447678620,176,48,49.63823990394931,50.33901985538051,50.69003118111106
1770447678624,163,35,36.83883171096919,37.4168937900383,37.91391785141766
1770447678628,151,23,24.343043198660403,25.210940990751343,25.43100413713669
1770447678632,141,13,14.009451903141176,15.347046004080896,15.097006685954067
1770447678636,134,6,6.334019878852605,8.123475085147726,7.412113048198031
1770447678640,128,0,0.9128311290603754,2.5210804706463352,1.9812816794466563
1770447678644,124,-4,-2.878890651755178,-1.8281740816003984,-1.8121745281296713
1770447678648,121,-7,-5.471986700482828,-4.549269375795381,-4.396856043527711
1770447678652,120,-8,-7.080827762634783,-5.925853902452104,-5.991665651835589
1770447678656,119,-9,-7.877119225141154,-6.623731148780198,-6.7755959133976535
1770447678660,119,-9,-8.107047027036252,-6.730469492950363,-6.999327017158903
1770447678664,119,-9,-8.059273861036612,-6.636766347488886,-6.950651487404883
1770447678668,119,-9,-7.961463105621442,-6.735065190973094,-6.852857547105723
1770447678672,119,-9,-7.921321740056271,-6.802347645913586,-6.809818287990039
1770447678676,119,-9,-7.949406694066177,-6.7290502119538855,-6.831601128156892
1770447678680,119,-9,-8.01451482273174,-6.664599712784952,-6.8894757050840285
1770447678684,119,-9,-8.073946503794378,-6.711971214414634,-6.943377819804208
1770447678688,119,-9,-8.076199356461437,-6.693729535064872,-6.942150967582202
1770447678692,119,-9,-7.971718128708276,-6.866250832492563,-6.834525692859346
1770447678696,119,-9,-7.742622789220573,-6.6807775242160625,-6.601255701847473
1770447678700,120,-8,-7.418476952316119,-5.725290767843609,-6.272463161536082
1770447678704,120,-8,-7.053067748276023,-5.6749030577147845,-5.903278306277202
1770447678708,120,-8,-6.688189582916285,-5.756826840826932,-5.535559907223137
1770447678712,121,-7,-6.3442701175624725,-4.829499887196123,-5.188369191068196
1770447678716,121,-7,-6.033132020704935,-4.736336104617363,-4.872466775064814
1770447678720,121,-7,-5.757154271404437,-4.686461697661903,-4.5908326779631885
1770447678724,122,-6,-5.486012577211532,-3.726190718373203,-4.31486229280552
1770447678728,122,-6,-5.147126983060687,-3.7340157936722025,-3.972912866704025
1770447678732,122,-6,-4.66841883998074,-3.889576667088152,-3.4920002170074342
1770447678736,123,-5,-4.053041001607864,-2.674048202502277,-2.8737343912700855
1770447678740,124,-4,-3.405065743086966,-1.7899809103088642,-2.2218561215938477
1770447678744,124,-4,-2.8560177881712607,-1.6104602509331123,-1.6687887505758072
1770447678748,125,-3,-2.4505395904807465,-0.8975875692994336,-1.259797883019405
1770447678752,125,-3,-2.1050773710474764,-0.7415017195451097,-0.9108839561644329
1770447678756,125,-3,-1.684883280949389,-0.8597533374449857,-0.4866653291425605
1770447678760,126,-2,-1.1260102887526369,0.3918634920391032,0.0763796014090643
1770447678764,127,-1,-0.4860559958324892,1.2000745533501185,0.7194527593292712
1770447678768,127,-1,0.1149747373653558,1.2551209476194956,1.322242824010403
1770447678772,128,0,0.5928268579061146,2.097995718068949,1.8018153940309576
1770447678776,128,0,0.9450240851727988,2.244221572958092,2.157239052264696
1770447678780,128,0,1.2257844129083488,2.2912654729747963,2.4426737617525154
1770447678784,129,1,1.4970458980246502,3.2823743432753165,2.7184279649515384
1770447678788,129,1,1.7995879254499918,3.163431792867949,3.023920736191846
1770447678792,129,1,2.1457823303177843,3.1426333986136994,3.3718180576710983
1770447678796,130,2,2.518810439615173,4.196119874031366,3.746660952117175
1770447678800,130,2,2.8805024835586264,4.285175080376382,4.111188796346864
1770447678804,130,2,3.1947868098707106,4.32063520105053,4.42904680553559
1770447678808,131,3,3.4547255071912972,5.073388513375162,4.692262358586203
1770447678812,131,3,3.690006384403162,5.228921412859469,4.929897256914861
1770447678816,131,3,3.9416673861926994,5.050377331389678,5.1835551855217314
1770447678820,131,3,4.218695968652797,5.440271973819831,5.463235653801454
1770447678824,132,4,4.480536260714347,6.137941641601996,5.728384809533092
1770447678828,132,4,4.67390024109885,6.250926340329738,5.924691843268412
1770447678832,132,4,4.78718907137688,6.023857721509679,6.039965238716417
1770447678836,132,4,4.855271388776684,6.199956057946885,6.109680220319065
1770447678840,132,4,4.903737875580399,6.309151211162232,6.160412383290929
1770447678844,132,4,4.895068439419516,6.2102991774932725,6.1548211618272175
1770447678848,132,4,4.739415032525456,6.225781009016228,6.002183840275053
1770447678852,132,4,4.364633793097745,5.962097464261864,5.629362109445851
1770447678856,131,3,3.776429665978585,5.269673421359322,5.042245243079101
1770447678860,130,2,3.043898850713871,4.1910603799762445,4.3113462335381225
1770447678864,129,1,2.223719787076993,3.3259476087610857,3.494255347904296
1770447678868,129,1,1.310185681136015,3.1120589604083984,2.584276634191429
1770447678872,128,0,0.2706988661716156,2.025531528970924,1.5470973271079185
1770447678876,126,-2,-0.8818996357784337,0.2010829400434177,0.3953760422956511
1770447678880,125,-3,-2.074929817128848,-0.7925307586901851,-0.7967699054124711
1770447678884,124,-4,-3.233619304027367,-1.6810979745938344,-1.9534799778175156
1770447678888,123,-5,-4.333853987484156,-2.907485390208264,-3.050973765723965
1770447678892,122,-6,-5.388641472811893,-3.9643272508088785,-4.103199891547712
1770447678896,121,-7,-6.389774081258007,-4.842908152476639,-5.102407300710965
1770447678900,120,-8,-7.271065007926499,-5.785893249005562,-5.982152293117983
1770447678904,119,-9,-7.934266016273556,-6.687282584613457,-6.643649002027161
1770447678908,119,-9,-8.318041245155698,-6.930827145669561,-7.025368425760485
1770447678912,119,-9,-8.446802880261124,-6.934392976022594,-7.1521496270815375
1770447678916,119,-9,-8.412079678209345,-6.9306745871408015,-7.116045425840544
1770447678920,119,-9,-8.30445869022699,-6.699876842235438,-7.007422755793787
1770447678924,119,-9,-8.161622273942317,-6.81746767815386,-6.863047099223825
1770447678928,119,-9,-7.975145958201605,-6.788312358263615,-6.674088992030451
1770447678932,120,-8,-7.733393766050716,-6.118672013201458,-6.429832450544063
1770447678936,120,-8,-7.448619689834027,-5.756220464805634,-6.14371168444267
1770447678940,120,-8,-7.152147361383797,-5.9150319717261075,-5.84677781893163
1770447678944,120,-8,-6.880407630663959,-5.613470862534958,-5.573980041368249
1770447678948,121,-7,-6.662928556301185,-5.001298254739197,-5.354171773954197
1770447678952,121,-7,-6.502772168501608,-4.947649795403501,-5.191401744998386
1770447678956,121,-7,-6.3611682557995,-4.917125442165525,-5.048137909123129
1770447678960,121,-7,-6.179187333695284,-4.825448868906607,-4.865457477417231
1770447678964,121,-7,-5.933466360370325,-4.672377412050415,-4.619076132682948
1770447678968,122,-6,-5.6699003456458,-4.010811899077015,-4.354252013161496
1770447678972,122,-6,-5.4694130723734995,-3.901744884755453,-4.152002998812385
1770447678976,122,-6,-5.371238910554795,-4.038172570267387,-4.051961977114712
1770447678980,122,-6,-5.32781276632046,-3.688779110748846,-4.006842054592086
1770447678984,122,-6,-5.237639136297847,-3.8640006557968354,-3.9152076910386975
1770447678988,122,-6,-5.030887674416139,-3.8208879347229225,-3.7071676709631647
1770447678992,123,-5,-4.733727338533463,-3.1001086830746942,-3.408885093341307
1770447678996,123,-5,-4.452955400717025,-2.8808428233655974,-3.127202900465824
1770447679000,123,-5,-4.292847542108106,-2.8491556429385723,-2.9662684763152116
1770447679004,123,-5,-4.277617122723971,-2.753920512593589,-2.949965461855384
1770447679008,123,-5,-4.344115769106808,-2.92810283581442,-3.0149196284435216
1770447679012,123,-5,-4.403044990288327,-3.0276881471986217,-3.071967997898413
1770447679016,123,-5,-4.409577709525347,-2.9541545269470983,-3.0767397215647065
1770447679020,123,-5,-4.383364986633095,-2.8196302262203976,-3.0493477938549503
1770447679024,123,-5,-4.368966125348258,-2.7893784547524234,-3.034373881913151
1770447679028,123,-5,-4.383393835178445,-2.927879216438982,-3.04826036463785
1770447679032,123,-5,-4.404089898164766,-3.0325809691272188,-3.0678143054122207
1770447679036,123,-5,-4.402503832208183,-2.9798629309987237,-3.0645638883973776
1770447679040,123,-5,-4.379861355144426,-2.8141681748285436,-3.0405218971585395
1770447679044,123,-5,-4.365906998895335,-2.8156663685194423,-3.0259405200925316
1770447679048,123,-5,-4.386875154264791,-2.92718185292658,-3.046532173353174
1770447679052,123,-5,-4.438029379827322,-3.037788751961857,-3.0966093018714687
1770447679056,123,-5,-4.481294078780959,-3.0195149683462184,-3.1379612451262195
1770447679060,123,-5,-4.4616508937131725,-2.7737151619056157,-3.116430693308891
1770447679064,123,-5,-4.3325778414938405,-2.900582448575435,-2.9862495823911424
1770447679068,123,-5,-4.086936372760198,-2.8393981865095688,-2.7401649697682022
1770447679072,124,-4,-3.777495433305752,-2.1577907778897383,-2.4304477479870332
1770447679076,124,-4,-3.5004936564125737,-1.919975562217294,-2.1531038573577597
1770447679080,124,-4,-3.341802232129804,-1.8946881792771617,-1.9938736739452951
1770447679084,124,-4,-3.325473238896033,-1.8046882908206665,-1.9764600190388713
1770447679088,124,-4,-3.405121035945339,-1.9499994316228897,-2.054261236008733
1770447679092,124,-4,-3.4986662895027565,-2.0737366377293407,-2.1457028310863775
1770447679096,124,-4,-3.533589785094076,-2.023619513664335,-2.179319223967046
1770447679100,124,-4,-3.4730346104820193,-1.8103651505730032,-2.1187830066697932
1770447679104,124,-4,-3.319382816337354,-1.9125689533574577,-1.965696522987344
1770447679108,124,-4,-3.105651160058654,-1.85491471316733,-1.7517292046981527
1770447679112,125,-3,-2.874130949446416,-1.200961150115272,-1.51879373986486
1770447679116,125,-3,-2.6401332515908784,-0.9110419629272274,-1.2830250460365558
1770447679120,125,-3,-2.3677947388630463,-0.9489376248440672,-1.0093146980816423
1770447679124,125,-3,-1.995981423298106,-0.7885147386587863,-0.6365561398178388
1770447679128,126,-2,-1.5022707545923877,-0.0049828270340214,-0.1423152889188287
1770447679132,127,-1,-0.9406909895698736,0.9269920683634744,0.419177612849527
1770447679136,127,-1,-0.4144032039411587,0.9424962653440008,0.9451260832727651
1770447679140,127,-1,-0.012294205511425,1.1796094870712983,1.34756217252612
1770447679144,128,0,0.2419789284516706,2.055440605581155,1.6031206102688569
1770447679148,128,0,0.4048252684087496,2.132990665929032,1.7676244700777972
1770447679152,128,0,0.5805879304236972,1.7536960656213418,1.9449813832133145
1770447679156,128,0,0.8477049887910608,2.1193700132613102,2.2135252143034108
1770447679160,129,1,1.1928623120115254,2.9647354594906146,2.5593703265568446
1770447679164,129,1,1.5122877527945455,3.25586169429085,2.87807588853638
1770447679168,129,1,1.673933916104462,2.918264982055413,3.038174922264787
1770447679172,129,1,1.579972637360336,2.9192006333112563,2.943506231078534
1770447679176,129,1,1.197303420942467,2.9748100289051687,2.561958887235524
1770447679180,128,0,0.5707583299308476,2.032618900085453,1.9377692336583192
1770447679184,127,-1,-0.1743836096437208,1.2271233813869946,1.1948725333276025
1770447679188,127,-1,-0.8612979508813599,0.8736794084052842,0.5091954452067665
1770447679192,126,-2,-1.3309194792175856,-0.0135931754774195,0.0397703772105848
1770447679196,126,-2,-1.5214051963167996,-0.1540811773723309,-0.1510842879226978
1770447679200,126,-2,-1.5046544367364096,0.1836951437827749,-0.1348664078728469
1770447679204,126,-2,-1.446600071041921,0.0174364862554927,-0.0773412115079911
1770447679208,126,-2,-1.512822748936456,0.0991380837011446,-0.143863839146024
1770447679212,126,-2,-1.7835955469993925,-0.2945687926735121,-0.4143411126101637
1770447679216,125,-3,-2.2297324344993426,-0.884412312098362,-0.8594569100298679
1770447679220,125,-3,-2.748462872972435,-1.103898664177557,-1.3767908260284385
1770447679224,124,-4,-3.220652838282311,-1.7276533895275188,-1.847728867768208
1770447679228,124,-4,-3.5537516161803446,-2.144424606938081,-2.180021608807438
1770447679232,124,-4,-3.699068869030586,-2.1153029168880586,-2.325104072955481
1770447679236,124,-4,-3.650665134147097,-2.039837322603544,-2.277109928125941
1770447679240,124,-4,-3.4401941092505206,-2.0230919451437863,-2.0675237082503095
1770447679244,124,-4,-3.1352634680421767,-1.7682123512584815,-1.763421273224513
1770447679248,125,-3,-2.8305285793577046,-1.174951643987748,-1.4588422946454718
1770447679252,125,-3,-2.6158690931765687,-1.0720861236060335,-1.2433621562689317
1770447679256,125,-3,-2.5302686638639993,-1.1312425350490765,-1.1562584720646736
1770447679260,125,-3,-2.534993689892793,-0.9452894928394292,-1.1597053577814225
1770447679264,125,-3,-2.5341522131362604,-0.8579833417768117,-1.1587084394108191
1770447679268,125,-3,-2.4401732285299236,-1.1168246410185576,-1.065740326150391
1770447679272,125,-3,-2.243235334857732,-1.140960965304615,-0.8702316064081395
1770447679276,126,-2,-2.0220172157672236,-0.0943443851111078,-0.6500058371436872
1770447679280,126,-2,-1.872108425040516,-0.0019648690490011,-0.4997156567202999
1770447679284,125,-3,-1.8159625041690255,-0.8070564840120332,-0.4408712303198087
1770447679288,126,-2,-1.7882026903483836,-0.2139109644406231,-0.4087546795121407
1770447679292,126,-2,-1.70948347841572,-0.0325614988109647,-0.3275977647771365
1770447679296,126,-2,-1.5701770754565796,-0.2810550822330606,-0.1920257876338202
1770447679300,126,-2,-1.4399830192093317,0.2323505130774357,-0.0719209430563088
1770447679304,126,-2,-1.3706343839184556,-0.1055734668457917,-0.0130385712342648
1770447679308,126,-2,-1.208159502147929,0.0774674480345736,0.1470092510899141
1770447679312,128,0,-0.3893900718352707,1.6669838436951638,0.9754339828932408
1770447679316,130,2,2.1209983434962956,3.9421734780054183,3.503355645203054
1770447679320,135,7,7.5651869890824095,9.089465216159372,8.962902154042448
1770447679324,144,16,16.750579592289615,17.931520682803672,18.15210238066564
1770447679328,156,28,29.28817858572871,30.122529710784175,30.679063090591324
1770447679332,171,43,43.21060442908408,44.50232264336973,44.581553336891055
1770447679336,183,55,55.38082109324396,57.16703004815584,56.73258756191221
1770447679340,191,63,62.64954308785308,64.76393816866239,63.992152267091306
1770447679344,191,63,63.1924317279176,65.25011755554189,64.53955316468478
1770447679348,185,57,57.26328169701994,58.721088167730045,58.62521115004718
1770447679352,174,46,46.925007616950225,47.848165782310154,48.3040770346452
1770447679356,162,34,34.96108414437001,35.85727993725625,36.35145361053005
1770447679360,151,23,23.665464938672745,25.044109460755465,25.056742664944775
1770447679364,142,14,14.200301138632833,16.05094774716885,15.58285922055055
1770447679368,135,7,6.732033120342564,8.836682851536134,8.101582474400884
1770447679372,129,1,1.0043524117877585,2.754632161384445,2.3637553327905056
1770447679376,124,-4,-3.1940760253202294,-2.1277090821595657,-1.8369222549028577
1770447679380,121,-7,-5.956225047671819,-4.937534907157334,-4.59375739117431
1770447679384,120,-8,-7.446351942689374,-6.008249105648122,-6.076586551007549
1770447679388,120,-8,-8.028281183692583,-6.103129433676195,-6.655596103881283
1770447679392,120,-8,-8.168830677163278,-6.361032108862401,-6.799340995802408
1770447679396,119,-9,-8.23125795558294,-7.031906582425577,-6.867194267010843
1770447679400,119,-9,-8.362812820283397,-7.060918663540418,-7.0013625241136905
1770447679404,119,-9,-8.541424128312569,-6.899704852494158,-7.178445591802319
1770447679408,119,-9,-8.689923458107982,-7.219285941330541,-7.323953747653268
1770447679412,119,-9,-8.751749586282997,-7.29663885069539,-7.3845687601703025
1770447679416,119,-9,-8.703220926295904,-7.081581871161212,-7.33757357589637
1770447679420,119,-9,-8.53764299804245,-7.088992470266154,-7.174889662453145
1770447679424,119,-9,-8.257946992901239,-6.82169627745651,-6.897376257287606
1770447679428,120,-8,-7.884405092831774,-6.375336165739312,-6.524231725993172
1770447679432,120,-8,-7.45724280312869,-6.116290525826094,-6.096304925361595
1770447679436,121,-7,-7.016456867637024,-5.32412146200279,-5.655183969198726
1770447679440,121,-7,-6.5730778198110515,-4.853782931788942,-5.212810262203234
1770447679444,121,-7,-6.108680571053173,-5.061691210841655,-4.750117575412723
1770447679448,122,-6,-5.612041849513086,-4.190922080564031,-4.25465914700937
1770447679452,123,-5,-5.1094353641686014,-3.2612991344495508,-3.7523438519286647
1770447679456,123,-5,-4.645733263381677,-3.295503454484656,-3.288604470702387
1770447679460,123,-5,-4.235389742661228,-2.7987887027960214,-2.878517480133713
1770447679464,124,-4,-3.840379532652993,-2.2292128958754787,-2.4843008625116525
1770447679468,124,-4,-3.401392642804944,-1.9711528857969207,-2.046505048523242
1770447679472,125,-3,-2.895733260139976,-1.550009070177066,-1.5420125740072286
1770447679476,125,-3,-2.3695664407060733,-1.0174165103668806,-1.0166785581680102
1770447679480,126,-2,-1.9079794782971708,-0.0824084515653658,-0.555692077916283
1770447679484,126,-2,-1.5615263533703416,0.0092934551566919,-0.2097794722133048
1770447679488,126,-2,-1.2980242284630088,-0.1978931456158585,0.0533039166958448
1770447679492,127,-1,-1.0284900122280447,0.6160263151803551,0.3224513936588993
1770447679496,127,-1,-0.6807349358639221,0.8179890652064145,0.6694219150385479
1770447679500,127,-1,-0.2526147557454195,1.0508007486158322,1.0962473075664636
1770447679504,128,0,0.1944114695104277,1.8657684125650336,1.5420638159780125
1770447679508,128,0,0.5899802393405835,1.9399342309530048,1.937061605174292
1770447679512,129,1,0.9163622632259832,2.406519414217424,2.2632248464163776
1770447679516,129,1,1.2301161963644325,3.060886899635869,2.576474045213039
1770447679520,129,1,1.6179852692176464,2.7293444118495924,2.9635803671825864
1770447679524,129,1,2.1131701518377577,3.2238621079335092,3.458190086770343
1770447679528,131,3,2.649125529583663,4.539800537744446,3.9935258963828058
1770447679532,131,3,3.107133724629335,4.7597518983768,4.4502066789908
1770447679536,131,3,3.415698442950135,4.735307304542658,4.7570389318752815
1770447679540,131,3,3.6002249804528277,4.963411990467053,4.940656217340769
1770447679544,131,3,3.743686167592712,5.058163126650959,5.084431310033802
1770447679548,132,4,3.91741769548673,5.5877914528905395,5.258590349909017
1770447679552,132,4,4.150169387865633,5.784707880295819,5.49081290807032
1770447679556,132,4,4.436903564276294,5.602171932647655,5.776381109537152
1770447679560,132,4,4.752137416534841,6.148698594223083,6.090673642080475
1770447679564,133,5,5.056340574470602,6.804273934166611,6.394174051820221
1770447679568,133,5,5.302675479820188,6.832768231133423,6.63957006710405
1770447679572,133,5,5.437738334668109,6.539763382103413,6.77357904746288
1770447679576,133,5,5.393965155139352,6.775892971988459,6.7290879136554915
1770447679580,133,5,5.09907239321743,7.020021218631971,6.433758195470338
1770447679584,132,4,4.515728080539608,5.835591413790504,5.849971481700081
1770447679588,131,3,3.675504822660857,4.854119270609407,5.009385560071307
1770447679592,131,3,2.666657458752378,4.435723139223195,4.0003858240361
1770447679596,129,1,1.5854054093739576,2.9029234012371457,2.918913338449004
1770447679600,128,0,0.4916983790578388,1.8332033372871717,1.824552232440087
1770447679604,127,-1,-0.6031398792726574,1.0460040915088211,0.728625411588014
1770447679608,126,-2,-1.7147175351034538,-0.4201927510539924,-0.384149573722202
1770447679612,125,-3,-2.847274612562683,-1.270176876810162,-1.5175934142137213
1770447679616,124,-4,-3.967218001205912,-2.452697189745444,-2.637781205071541
1770447679620,122,-6,-5.008130792545979,-3.8055906688692858,-3.678331638806759
1770447679624,122,-6,-5.900136562429145,-4.347954469636047,-4.56998760235687
1770447679628,121,-7,-6.597707564977295,-5.039029975852379,-5.267992001119274
1770447679632,121,-7,-7.0903606694526005,-5.674335095258167,-5.761870153116067
1770447679636,120,-8,-7.402088321891706,-6.078077291764604,-6.07472935913664
1770447679640,120,-8,-7.584253944500997,-6.185007291100486,-6.257240321117183
1770447679644,120,-8,-7.693873066623918,-6.0223745324777695,-6.366761490627795
1770447679648,120,-8,-7.761390640163712,-6.329490659414948,-6.434518269774317
1770447679652,120,-8,-7.776808603255947,-6.478929999061091,-6.450630006585358
1770447679656,120,-8,-7.712996072541968,-6.212882198227508,-6.387337602998397
1770447679660,120,-8,-7.563544591531082,-6.164280004863697,-6.237751351301977
1770447679664,120,-8,-7.354307857401256,-5.975278846832208,-6.028066205998195
1770447679668,121,-7,-7.117302583113561,-5.465861361958679,-5.791112620117267
1770447679672,121,-7,-6.859611622879223,-5.309039745866455,-5.534239690090006
1770447679676,121,-7,-6.5691284363956655,-5.447676972922492,-5.244686234546261
1770447679680,121,-7,-6.255387927707023,-4.935651227840622,-4.931320345728482
1770447679684,122,-6,-5.9727713144487025,-4.220447846091356,-4.6486811464835895
1770447679688,122,-6,-5.787423977624642,-4.256135936247459,-4.463347144355224
1770447679692,122,-6,-5.7191164434442054,-4.501179157750872,-4.395005559870364
1770447679696,122,-6,-5.719488017906091,-4.335588439810135,-4.395145308801873
1770447679700,122,-6,-5.702964594807471,-4.020669586483047,-4.378583085642906
1770447679704,122,-6,-5.59890163158069,-4.204685455502236,-4.274942676795497
1770447679708,122,-6,-5.391733545715549,-4.236444578949384,-4.068109407751843
1770447679712,123,-5,-5.12747163030907,-3.573384110287062,-3.803544794543637
1770447679716,123,-5,-4.8753278990523485,-3.277215191611501,-3.550919694948676
1770447679720,123,-5,-4.669256446918398,-3.113639391122386,-3.3449839823412755
1770447679724,123,-5,-4.489731683968952,-3.127864526690957,-3.1660518925776744
1770447679728,123,-5,-4.313268523250937,-3.31963437648576,-2.9898255490691854
1770447679732,124,-4,-4.173082902591132,-2.5256865254238723,-2.8494273035165936
1770447679736,124,-4,-4.149665827901266,-2.33584134816224,-2.8260000854880745
1770447679740,123,-5,-4.291500139749369,-3.0998868107116295,-2.9680703980636363
1770447679744,123,-5,-4.551367002650988,-3.140496073500748,-3.2275850464798994
1770447679748,123,-5,-4.803429716095522,-3.329312031657034,-3.4783932080850644
1770447679752,123,-5,-4.919621649989393,-3.5567439078207,-3.593396140869589
1770447679756,123,-5,-4.840782516767177,-3.290116292606887,-3.514542209151323
1770447679760,123,-5,-4.601955762492463,-3.2184393968978937,-3.2767368199575992
1770447679764,123,-5,-4.308302556527291,-2.9803392429197273,-2.9840059720670737
1770447679768,124,-4,-4.07652610395491,-2.5661095515813033,-2.752283534265984
1770447679772,124,-4,-3.9694325473410497,-2.30021337058653,-2.644524788101809
1770447679776,124,-4,-3.9648346494309727,-2.601928889721889,-2.638950431510449
1770447679780,123,-5,-3.986074767487408,-2.9124909098404324,-2.6591433547863104
1770447679784,124,-4,-3.9686040420039226,-2.3059396329522315,-2.640933176212408
1770447679788,124,-4,-3.9016404204316126,-2.2691049958978313,-2.573921392895865
1770447679792,124,-4,-3.816898522377374,-2.6042525089652107,-2.489553168960335
1770447679796,124,-4,-3.751569544459603,-2.3354791955651364,-2.4243081310641843
1770447679800,124,-4,-3.7200898542996583,-2.1890077248248185,-2.3924148826528207
1770447679804,124,-4,-3.705838531180595,-2.067365410176146,-2.377591840418889
1770447679808,124,-4,-3.675054226656667,-2.5023247672826177,-2.3462115698339203
1770447679812,124,-4,-3.6061394904353223,-2.4199745175666587,-2.276586671004987
1770447679816,125,-3,-3.505998250253231,-1.5134817690917357,-2.1757981185062514
1770447679820,124,-4,-3.3937343143350267,-2.0624074591694868,-2.063149922543029
1770447679824,124,-4,-3.274936176883533,-2.1944458905787325,-1.9440598222002925
1770447679828,125,-3,-3.139385539491507,-1.3983151413510215,-1.8081972282915213
1770447679832,125,-3,-2.9774336719618058,-1.5533794294304235,-1.6461085868544731
1770447679836,125,-3,-2.791594865946362,-1.3971587497229168,-1.4601441870965948
1770447679840,125,-3,-2.596856333765498,-1.1978461349010403,-1.2646175201208067
1770447679844,125,-3,-2.410658651421788,-1.090418756127386,-1.0769036353512718
1770447679848,126,-2,-2.2304572983959674,-0.5066524386416943,-0.8955722173682498
1770447679852,126,-2,-2.01531047211702,-0.4803729865991076,-0.6806233602379054
1770447679856,126,-2,-1.705677936946349,-0.4893377800484546,-0.3717902150066717
1770447679860,126,-2,-1.2811387364382556,-0.1173274669852839,0.0529452676500346
1770447679864,127,-1,-0.7938991421176151,0.784963646387601,0.5417216658773316
1770447679868,128,0,-0.3233499525787815,1.6295211968033851,1.0139307250995395
1770447679872,128,0,0.1073013008563217,1.3344147307802818,1.4453724963685533
1770447679876,128,0,0.5501711374914531,1.6954614970518729,1.8883939714077809
1770447679880,129,1,1.0552959898342795,2.6558366068665515,2.3935932055628517
1770447679884,129,1,1.5789434588359166,2.9926533452403272,2.917357928374062
1770447679888,130,2,1.9750944147280904,3.413958303998073,3.3137207939887094
1770447679892,130,2,2.0821710578139028,3.529172759850924,3.4213243997771663
1770447679896,130,2,1.8355340609136443,3.4714268848421943,3.1755207516435875
1770447679900,129,1,1.318485839590398,2.853677455779671,2.6593468588894185
1770447679904,128,0,0.7085467659540503,1.7616697931155312,2.0502498887860665
1770447679908,128,0,0.1580277252302964,1.6469454452692194,1.5006603067244626
1770447679912,128,0,-0.2916151126860027,1.274879644709377,1.0519163022740026
1770447679916,127,-1,-0.6911166354375964,0.6999240009624735,0.652905892737097
1770447679920,127,-1,-1.0898003420068767,0.6072838019331335,0.2541787562147184
1770447679924,126,-2,-1.465647853412032,-0.038011476225196,-0.1217549092293213
1770447679928,126,-2,-1.7479776163751704,-0.5393028981603716,-0.4034901537538049
1770447679932,126,-2,-1.90448613980562,-0.5901144020497193,-0.5587253837064502
1770447679936,126,-2,-1.9954848520696873,-0.414376716863122,-0.648768404538818
1770447679940,126,-2,-2.132641705701714,-0.356257242728055,-0.7860429210201623
1770447679944,125,-3,-2.3849041426441966,-1.0431085292280946,-1.0387714061848523
1770447679948,125,-3,-2.727620012420025,-1.6052410243377486,-1.3809442808494523
1770447679952,125,-3,-3.0715438404187347,-1.502425062372184,-1.7232814912970005
1770447679956,125,-3,-3.324499453168568,-1.5495627887708432,-1.9749236174943152
1770447679960,124,-4,-3.4336068027816755,-2.2349827238110027,-2.083704277031204
1770447679964,124,-4,-3.399988824749843,-2.1778888706713495,-2.0500907521905383
1770447679968,125,-3,-3.2693844688354208,-1.5054475383468553,-1.9191926148301517
1770447679972,125,-3,-3.0961437045431106,-1.610695117883635,-1.745687151274676
1770447679976,125,-3,-2.903625490142395,-1.4731644295395103,-1.5532773583756776
1770447679980,125,-3,-2.683234124063016,-1.3189990110011984,-1.3328001893878405
1770447679984,125,-3,-2.435027670474838,-1.1385490044913211,-1.0835309937817803
1770447679988,126,-2,-2.199425035981855,-0.5392232866184326,-0.8461802173120115
1770447679992,126,-2,-2.0376572724188877,-0.6305090952324073,-0.6834124265926204
1770447679996,126,-2,-1.980292953903112,-0.4325381904305871,-0.626939368753336
1770447680000,126,-2,-2.00290636872079,-0.422649716067589,-0.6516637062185788
1770447680004,125,-3,-2.058796290476561,-1.0243090746751424,-0.7085516657192009
1770447680008,126,-2,-2.1302755167840184,-0.7115007902771678,-0.7780307924868288
1770447680012,126,-2,-2.2311601346841288,-0.4412553956551355,-0.8744856110371542
1770447680016,126,-2,-2.3522552923648874,-0.6658760969312516,-0.9915009393121506
1770447680020,125,-3,-2.4269051640070183,-1.191096585325394,-1.0654814462346218
1770447680024,125,-3,-2.381147261238368,-1.2943837903737658,-1.0240667088294997
1770447680028,126,-2,-2.214296688801459,-0.4744290178393989,-0.8655024314873694
1770447680032,126,-2,-1.977715799576349,-0.6702894650257936,-0.6368193956826376
1770447680036,126,-2,-1.5890941859958156,-0.4775802305315029,-0.2498157324108472
1770447680040,128,0,-0.5783130597785617,1.6287056852156458,0.7689145813829011
1770447680044,130,2,2.013924458398238,3.833870031086624,3.376182981480738
1770447680048,135,7,7.369668750639539,8.37580174642637,8.746556218784818
1770447680052,144,16,16.24445026541513,17.492206954463782,17.627051314143486
1770447680056,156,28,28.23847639523654,29.33908069771511,29.613252057531824
1770447680060,169,41,41.47313164357973,42.79724856948307,42.829361056515985
1770447680064,181,53,53.00137919916816,54.66132401611802,54.337908076907695
1770447680068,188,60,59.86401517097756,61.42916288639046,61.19023679086856
1770447680072,189,61,60.29863650854455,62.482381295982755,61.62870461401716
1770447680076,183,55,54.46562260804108,56.20736021326454,55.81046221704752
1770447680080,171,43,44.28405560475266,44.982512050784976,45.646545600980375
1770447680084,160,32,32.478149509273514,33.40684112516867,33.852962062212484
1770447680088,149,21,21.410321613853924,22.700739903062072,22.787049863848523
1770447680092,141,13,12.3601899089992,14.24247415103678,13.728460283236094
1770447680096,134,6,5.527966563519502,7.406523325040176,6.882809605545457
1770447680100,128,0,0.5290541956360686,1.837127600587194,1.8732954719175885
1770447680104,125,-3,-3.083305105156027,-1.5808738489983185,-1.7417663603624165
1770447680108,122,-6,-5.579433823727351,-4.247407931312469,-4.2333645831546205
1770447680112,121,-7,-7.105353484221291,-5.916455360680665,-5.752360864424049
1770447680116,120,-8,-7.835079654905321,-6.359292989356823,-6.4777395948706
1770447680120,120,-8,-8.035939038908959,-6.46709621165597,-6.678962626544136
1770447680124,120,-8,-7.998976982907741,-6.313404551771736,-6.645854748471795
1770447680128,120,-8,-7.926479921791036,-6.518696068028581,-6.577506835924954
1770447680132,120,-8,-7.892777638837104,-6.718599784884694,-6.545457292939016
1770447680136,120,-8,-7.898058244571774,-6.490485904752152,-6.5495416477363
1770447680140,120,-8,-7.934777470636463,-6.418814055645248,-6.584322263106858
1770447680144,120,-8,-7.993585880842364,-6.362728643563723,-6.642784863226562
1770447680148,120,-8,-8.027789666991795,-6.501322346006375,-6.678499092509872
1770447680152,120,-8,-7.950489616189652,-6.784278569497878,-6.602905772416825
1770447680156,120,-8,-7.690681289132309,-6.370022497543466,-6.3437474997483525
1770447680160,121,-7,-7.252199398494353,-5.632050510198447,-5.9055110324807645
1770447680164,121,-7,-6.711949327742619,-5.113694938074233,-5.366419150148192
1770447680168,122,-6,-6.165739737808519,-4.828767260582566,-4.82219427779685
1770447680172,122,-6,-5.6797952249298955,-4.455472533509084,-4.337667021469303
1770447680176,123,-5,-5.276845825915499,-3.6925356685398865,-3.934825431234835
1770447680180,123,-5,-4.93918845453402,-3.3855579199384542,-3.5968086399765253
1770447680184,123,-5,-4.614944959672929,-3.300605793028498,-3.2729983094396227
1770447680188,124,-4,-4.239320029536877,-2.7831635306384452,-2.8988460808934224
1770447680192,124,-4,-3.773583542053565,-2.3938016479971793,-2.4348376041157387
1770447680196,125,-3,-3.233806070835139,-1.8900412825905544,-1.8962538480014692
1770447680200,125,-3,-2.6793456066809274,-1.0990612997393925,-1.3424407566288077
1770447680204,126,-2,-2.166979175612743,-0.6890869672665211,-0.830806039724172
1770447680208,126,-2,-1.712059007635967,-0.3947580652062117,-0.3772295349099035
1770447680212,127,-1,-1.2935211188590916,0.2136785406295842,0.0395078086406395
1770447680216,127,-1,-0.8962593654687923,0.4321050613390205,0.4351947267262817
1770447680220,127,-1,-0.5441227106128428,0.648431706415153,0.7863892196340561
1770447680224,128,0,-0.2807513922325451,1.435336546642776,1.0490511140925782
1770447680228,128,0,-0.108305567283589,1.5561775611362758,1.2203931900672549
1770447680232,128,0,0.0505624800943693,1.1441510338068626,1.377820980660046
1770447680236,128,0,0.3145158026536165,1.570296746316841,1.6405196102529014
1770447680240,129,1,0.7571917168087279,2.4291441913799634,2.0821869223965424
1770447680244,129,1,1.3538336518729,2.6710327560278557,2.6775935466688265
1770447680248,130,2,2.0042065878508506,3.27768378017117,3.326202217247122
1770447680252,131,3,2.6025372587833813,4.398500518247758,3.922429317496888
1770447680256,131,3,3.094243064538083,4.322058366114783,4.412116071276183
1770447680260,131,3,3.4815614665656427,4.604121493406743,4.79777799895907
1770447680264,132,4,3.789133250690424,5.552989179174621,5.104022075478678
1770447680268,132,4,4.033379797765738,5.267915976667946,5.347127053241723
1770447680272,132,4,4.22458279728564,5.502046519514227,5.537312192534185
1770447680276,133,5,4.390690271044241,6.094131523066127,5.702354069586049
1770447680280,132,4,4.589644927769124,5.898062804015986,5.8998371120504824
1770447680284,133,5,4.884329403804892,6.173361407092214,6.192461118014129
1770447680288,133,5,5.287253126025364,6.656702485461286,6.5929668608968885
1770447680292,134,6,5.7206334199328674,7.093797598675297,7.0239923071670365
1770447680296,134,6,6.038031609517709,7.450513791867036,7.339386458612167
1770447680300,134,6,6.103381414941799,7.588107696427929,7.40314052602456
1770447680304,134,6,5.8685827482472,7.362999951592996,7.167047714885313
1770447680308,133,5,5.386506326437415,6.547888270932564,6.683724031820463
1770447680312,133,5,4.75024728336304,6.077104674462294,6.045851008190759
1770447680316,132,4,4.013539025281909,5.536850657595439,5.30687435092679
1770447680320,131,3,3.1594900314095913,4.432516874357216,4.4501840959413155
1770447680324,130,2,2.137842937582504,3.5032990987774166,3.426211246382191
1770447680328,129,1,0.9357137219947328,2.419601633940414,2.2223996585779187
1770447680332,128,0,-0.3759116391085459,1.10044519045999,0.909417284797253
1770447680336,126,-2,-1.6623544581551912,-0.3913864674305487,-0.3785242074749226
1770447680340,125,-3,-2.80468686456502,-1.7777948613165684,-1.5227842376245349
1770447680344,124,-4,-3.773698588538855,-2.198034696313563,-2.494329697092091
1770447680348,124,-4,-4.630752185108589,-2.986943296781078,-3.3543452166818266
1770447680352,122,-6,-5.4570315422178615,-4.469206385392936,-4.183275783006983
1770447680356,122,-6,-6.276913848255598,-4.84415005524716,-5.004932684388442
1770447680360,121,-7,-7.033275020650886,-5.376881280068996,-5.762589400058061
1770447680364,120,-8,-7.624605596296011,-6.567812359411911,-6.355577227579655
1770447680368,120,-8,-7.976794970156021,-6.713554866221128,-6.7100730102969965
1770447680372,120,-8,-8.098844324600455,-6.673376120967392,-6.834809571932917
1770447680376,120,-8,-8.074115419019144,-6.7531255205651375,-6.812867199170297
1770447680380,120,-8,-7.990453217659883,-6.399546549354714,-6.731831984932985
1770447680384,120,-8,-7.873540985127109,-6.637808828945894,-6.617022380885696
1770447680388,120,-8,-7.685445792395261,-6.632844212610935,-6.430456143278446
1770447680392,121,-7,-7.383437470405999,-5.779481549266572,-6.130059692961093
1770447680396,121,-7,-6.979586665323663,-5.6845315025183,-5.728700609848085
1770447680400,121,-7,-6.552182504685735,-5.454225132423932,-5.304680223121548
1770447680404,122,-6,-6.205974863907748,-4.63455182331501,-4.961943897099976
1770447680408,122,-6,-6.011170709985736,-4.646960611837373,-4.769844538155803
1770447680412,122,-6,-5.961640029255616,-4.79776939867002,-4.722015916149516
1770447680416,122,-6,-5.98052348603899,-4.677517077254304,-4.742148385490681
1770447680420,122,-6,-5.967991622313721,-4.485055974440938,-4.731300756213261
1770447680424,122,-6,-5.859366437463179,-4.614995623773842,-4.625258907720812
1770447680428,122,-6,-5.6603942984130455,-4.708657245336639,-4.429614471953212
1770447680432,123,-5,-5.4378805921606315,-3.7386031155126833,-4.210791648007254
1770447680436,123,-5,-5.26873774859536,-3.7726321715208657,-4.045141621438056
1770447680440,122,-6,-5.186444873970256,-4.3953393838795165,-3.965386249566997
1770447680444,123,-5,-5.166203984191221,-3.7318863639216056,-3.9465875901958736
1770447680448,123,-5,-5.1463958491235005,-3.625344558853213,-3.928147430029809
1770447680452,123,-5,-5.0594266514814015,-3.834249348371323,-3.843557658385672
1770447680456,123,-5,-4.864343850661092,-3.701978988693632,-3.6517538425981426
1770447680460,123,-5,-4.577342461476596,-3.4660293569391247,-3.3681449458178356
1770447680464,124,-4,-4.272431059039466,-2.7140648286042137,-3.066476859974234
1770447680468,124,-4,-4.036241167180819,-2.635602639774628,-2.8334963945891913
1770447680472,124,-4,-3.912791660521061,-2.8827900106326485,-2.7129139784205365
1770447680476,124,-4,-3.888322655951954,-2.6342904106356264,-2.6905816005674272
1770447680480,124,-4,-3.918061683522605,-2.578470800163331,-2.7221928820768495
1770447680484,124,-4,-3.95738888356335,-2.6215756140241036,-2.7641257935290193
1770447680488,124,-4,-3.976518722404131,-2.738202142452208,-2.786802372322728
1770447680492,124,-4,-3.966995795761518,-2.8243585891022978,-2.780860377128956
1770447680496,124,-4,-3.9438591254211057,-2.681289686773158,-2.760514450168769
1770447680500,124,-4,-3.932444488476282,-2.5801990486158077,-2.7513948899983034
1770447680504,124,-4,-3.942065503666337,-2.6237647009424174,-2.7637451027087545
1770447680508,124,-4,-3.954154712814616,-2.7696718903945534,-2.779324594640652
1770447680512,124,-4,-3.94464314498975,-2.8108881102801875,-2.7734452050863823
1770447680516,124,-4,-3.918701502992171,-2.7109327761413944,-2.7505780885538087
1770447680520,124,-4,-3.9131907855763792,-2.5800210638696695,-2.7476539478353694
1770447680524,124,-4,-3.954261984996661,-2.6311988923725194,-2.791464379113604
1770447680528,124,-4,-4.011803772510511,-2.804223615967652,-2.8522240521453024
1770447680532,124,-4,-4.004764023170749,-2.7760165670915167,-2.848460061733793
1770447680536,124,-4,-3.863149076678536,-2.7921305831383565,-2.709606529294546
1770447680540,124,-4,-3.592058209095728,-2.493530355113146,-2.4409908466503225
1770447680544,125,-3,-3.2751407569458544,-1.7573479112535493,-2.12726454967192
1770447680548,125,-3,-3.013955361459654,-1.684866077543531,-1.8704812830880524
1770447680552,125,-3,-2.8649089929957228,-1.925573509357452,-1.7261391881301371
1770447680556,125,-3,-2.8286963410189547,-1.6741663931666892,-1.6935517135496638
1770447680560,125,-3,-2.8776571858672195,-1.6108812186160113,-1.7448109309945754
1770447680564,125,-3,-2.969095436144381,-1.697717953760821,-1.838216036433933
1770447680568,125,-3,-3.032735297112746,-1.7060086789944695,-1.9044246436010472
1770447680572,125,-3,-2.971078187562616,-1.9888734946516424,-1.8460505376515095
1770447680576,125,-3,-2.6995659320172196,-1.5844183567299144,-1.5783151321836348
1770447680580,126,-2,-2.2014722305922017,-0.7578489425494743,-1.0844030926646877
1770447680584,126,-2,-1.5511793931220552,-0.5527902200500023,-0.4384570946192802
1770447680588,127,-1,-0.8853107523137442,0.1441890576917421,0.2233808251353658
1770447680592,128,0,-0.3352074736997728,1.10578587471128,0.769983519510431
1770447680596,128,0,0.0424866185093812,1.3300623894443582,1.1445442102709031
1770447680600,128,0,0.2884594467338051,1.258748914953568,1.3876442420736708
1770447680604,128,0,0.4933721748523099,1.4644247885659791,1.5898047698239384
1770447680608,129,1,0.7195036924643912,2.064344821701437,1.812714051031625
1770447680612,129,1,0.9592790760747204,2.2017978371472227,2.048247120081538
1770447680616,129,1,1.1540456120109646,2.176077464534912,2.2381700469613737
1770447680620,129,1,1.2400493838232518,2.4140438031857925,2.319807821458578
1770447680624,129,1,1.184740622159547,2.27505849968045,2.261012595765809
1770447680628,129,1,1.0025604947797675,2.2426559145659346,2.075569473051724
1770447680632,129,1,0.7480621679637696,2.0012532002297663,1.8174482522569115
1770447680636,128,0,0.4836062345616225,1.346406178855865,1.549310616057702
1770447680640,128,0,0.238765737663229,1.2282454704525647,1.3011048049080738
1770447680644,128,0,-0.0002974119616725,1.434233050495591,1.058473797565357
1770447680648,128,0,-0.2589486377121843,1.0753577133759875,0.7953330750369179
1770447680652,127,-1,-0.5413820549804451,0.1409586358589059,0.5078113235279234
1770447680656,127,-1,-0.8388997748317886,0.1851014526314696,0.2056396734553979
1770447680660,127,-1,-1.1583581917729866,0.3563604259948668,-0.1175617147574843
1770447680664,126,-2,-1.5208272878681814,-0.7012956633992024,-0.4832284782880711
1770447680668,126,-2,-1.9258655233735984,-0.8199924845419095,-0.8915675062911861
1770447680672,126,-2,-2.3231671016673143,-0.9497179485152828,-1.2928219579912026
1770447680676,125,-3,-2.626594701423727,-1.80969480306931,-1.600984376656996
1770447680680,125,-3,-2.76847390676334,-1.610129459733455,-1.747806823171337
1770447680684,125,-3,-2.755219836315856,-1.8081108017872136,-1.738888471480875
1770447680688,125,-3,-2.6719966308130667,-1.686517805422452,-1.6593387630319745
1770447680692,126,-2,-2.6196260796008373,-1.1140495173095692,-1.6108563875545177
1770447680696,125,-3,-2.634639407400581,-1.6949765880328278,-1.6306414978460295
1770447680700,125,-3,-2.671936190736641,-1.7170223359012735,-1.6730896063596166
1770447680704,125,-3,-2.6706928280691615,-1.7603781058714274,-1.6763611193998018
1770447680708,125,-3,-2.631281844837926,-1.708611204461752,-1.6407256794911282
1770447680712,126,-2,-2.6144625593980257,-1.1392849198712982,-1.6278840232243508
1770447680716,125,-3,-2.6623015012620463,-1.6751163072200776,-1.6804984279466233
1770447680720,125,-3,-2.7321084542578813,-1.7833707538691288,-1.755218478392145
1770447680724,125,-3,-2.7211865547176584,-1.7020169980996749,-1.7483808189776198
1770447680728,125,-3,-2.5590680181208993,-1.791751663871071,-1.5898476321096615
1770447680732,126,-2,-2.272672670817836,-1.0634927358772874,-1.3081666540567205
1770447680736,126,-2,-1.9630556713798488,-0.7763772518590102,-1.005263263426546
1770447680740,126,-2,-1.725939839576768,-0.7110008046659764,-0.7751190720287509
1770447680744,126,-2,-1.597077552410776,-0.8032768129408341,-0.6502460288340769
1770447680748,126,-2,-1.559418532212666,-0.6987361592689042,-0.6125618270485363
1770447680752,127,-1,-1.5775897487475143,-0.189352132955751,-0.6301728752166449
1770447680756,126,-2,-1.6176249227641628,-0.6470532393183455,-0.6748283249699231
1770447680760,126,-2,-1.6521891885086748,-0.8864504604903686,-0.721921551937236
1770447680764,126,-2,-1.654635998414188,-0.648854573731537,-0.7411310877911701
1770447680768,126,-2,-1.5390230604709552,-0.8568652865369182,-0.6381365044853282
1770447680772,127,-1,-1.0029424963968725,-0.0890319213471249,-0.1034905985338301
1770447680776,129,1,0.6612620581941298,2.3077937756268647,1.5704138194469517
1770447680780,133,5,4.57325341829272,6.057562358055901,5.495618453502181
1770447680784,139,11,11.862991956040515,12.453316404303596,12.791911442730813
1770447680788,150,22,22.888554201118893,22.990317325731688,23.810605959252705
1770447680792,164,36,36.5022124437854,37.04870304805708,37.40382032824853
1770447680796,178,50,49.96520680684812,51.21032624584669,50.83946165888131
1770447680800,188,60,59.79242138733316,61.03559891283918,60.64329004589153
1770447680804,191,63,63.18708338182839,64.51959799822711,64.02801350516488
1770447680808,188,60,59.2858458672392,60.75606207599384,60.13256668093547
1770447680812,177,49,49.502629883275205,50.31149729052536,50.36469703165956
1770447680816,164,36,36.78335265558805,36.898325693835574,37.65983400209395
1770447680820,151,23,24.230480406435596,24.366933836950285,25.111314718115192
1770447680824,142,14,13.906991671640023,15.223189510582625,14.77837334866097
1770447680828,135,7,6.428242997502874,8.007052428149562,7.279730242755704
1770447680832,129,1,1.3562526890152036,2.097390174398009,2.1862961671003234
1770447680836,126,-2,-2.0835641014649093,-0.9576576865214887,-1.2675011973081274
1770447680840,123,-5,-4.4829801397826,-3.758511912925834,-3.670170641585377
1770447680844,121,-7,-6.129835460580095,-5.7314000167426675,-5.3134520577156845
1770447680848,121,-7,-7.15333234889555,-6.008960597329517,-6.3337672587672555
1770447680852,120,-8,-7.688610961282598,-6.951701091972687,-6.871412486334013
1770447680856,120,-8,-7.915262277250474,-6.89631817989194,-7.106204325244951
1770447680860,120,-8,-7.994189619353199,-6.860763298676995,-7.195358689860494
1770447680864,119,-9,-8.010184305363335,-7.6607317938994814,-7.219567030754039
1770447680868,120,-8,-7.98134683894309,-7.092363094947629,-7.195581326722151
1770447680872,120,-8,-7.904852817780119,-6.8881333213978,-7.122340571619025
1770447680876,120,-8,-7.781458745669169,-6.983547315563993,-7.003055337394539
1770447680880,120,-8,-7.609845110076295,-6.7819891593612205,-6.837193743098241
1770447680884,120,-8,-7.381291400189541,-6.78036559151431,-6.61519009767218
1770447680888,121,-7,-7.089281898840756,-6.000659760305013,-6.329521582788119
1770447680892,121,-7,-6.742130040975204,-5.968210993011033,-5.9881424127623255
1770447680896,121,-7,-6.366565411641686,-5.962566269958629,-5.617982579295871
1770447680900,122,-6,-5.998206006978606,-4.774904842966216,-5.255133761077989
1770447680904,122,-6,-5.661106141314812,-4.859178440616217,-4.923921147313275
1770447680908,122,-6,-5.352143373818255,-4.932564819531718,-4.620903744162719
1770447680912,123,-5,-5.046838398453457,-4.028339138122616,-4.321100046263924
1770447680916,123,-5,-4.718612967171444,-3.969950697345309,-3.9979886082063696
1770447680920,123,-5,-4.349973604859239,-3.720927036838467,-3.634701087905156
1770447680924,124,-4,-3.9309726029094665,-3.0164884594343806,-3.2217841996345573
1770447680928,124,-4,-3.4571914672378625,-2.726978146610225,-2.7545728272949557
1770447680932,125,-3,-2.9358756285692347,-2.3146837203576363,-2.239418603550302
1770447680936,125,-3,-2.3938511359404284,-1.644102648164672,-1.70250536117742
1770447680940,126,-2,-1.871364555848112,-1.1071315971244542,-1.1845899649520164
1770447680944,126,-2,-1.397867005448496,-0.647787121129219,-0.7164769261655979
1770447680948,127,-1,-0.9726820680751054,-0.098453613462796,-0.2981656697257622
1770447680952,127,-1,-0.5791836625767306,-0.0128349559101155,0.0879784485495642
1770447680956,127,-1,-0.2235786928996368,0.1181320168174298,0.4374316822549187
1770447680960,128,0,0.0544585406646247,1.0093762945317488,0.7109140136127128
1770447680964,128,0,0.2335371037826841,1.312661672789846,0.8857950764712701
1770447680968,128,0,0.3767914089217075,0.8231809176424194,1.023924435726122
1770447680972,128,0,0.6230411754882039,1.125847490325116,1.2639926920953235
1770447680976,129,1,1.085555335013021,1.909306887430993,1.7199347536046097
1770447680980,129,1,1.7466062411690555,2.21617240230087,2.374676654954565
1770447680984,130,2,2.449462594679969,3.0885143925672542,3.071727947998913
1770447680988,131,3,3.0036051860917774,4.011243763397119,3.620314964492568
1770447680992,131,3,3.320367940018194,3.936566795352941,3.931353466656184
1770447680996,131,3,3.465786301280421,4.052647536218279,4.070881668047599
1770447681000,131,3,3.585736579400612,4.070010260235518,4.185231460177212
1770447681004,131,3,3.7748560166687337,4.18971367574227,4.369261305526902
1770447681008,132,4,4.013424680581274,4.92106575833939,4.60281190140012
1770447681012,132,4,4.225267594831362,4.986135469695248,4.809138008086786
1770447681016,132,4,4.384790096240161,4.9980233418566655,4.962700646250457
1770447681020,132,4,4.554247109497773,5.083324546456254,5.126288634984252
1770447681024,132,4,4.811501907668636,5.160401057111103,5.3779559600007705
1770447681028,133,5,5.1444956799140655,5.923961339571139,5.705270512361806
1770447681032,133,5,5.419964679919127,5.991885894217423,5.974708379600313
1770447681036,133,5,5.4602949196548485,5.938488529256272,6.009003452089072
1770447681040,133,5,5.165680004787759,6.1507528509742375,5.708968035143276
1770447681044,132,4,4.581308909744664,5.025820995313208,5.120036169294622
1770447681048,131,3,3.853739813036576,4.066294829834321,4.3882426192959425
1770447681052,131,3,3.113422594296728,3.835440848161666,3.642931329636572
1770447681056,130,2,2.382748327191485,3.056607530477954,2.905865471664513
1770447681060,129,1,1.578550320531848,2.0442312738462283,2.094732148876469
1770447681064,128,0,0.593476632956832,1.0545469067139832,1.10377109421971
1770447681068,127,-1,-0.6087246701647953,0.0738139080235114,-0.1028649033510902
1770447681072,126,-2,-1.9447229910521973,-1.2449599705413563,-1.443046691715883
1770447681076,124,-4,-3.245179391079441,-2.8287495332874206,-2.748542179904647
1770447681080,123,-5,-4.358475123408612,-4.133121312632648,-3.8674812578327895
1770447681084,122,-6,-5.247664377380294,-4.781130975970541,-4.76211617824411
1770447681088,122,-6,-5.989359265549368,-5.093725918974111,-5.5089478338944335
1770447681092,121,-7,-6.669356155525089,-6.1326616362037125,-6.194158388618588
1770447681096,120,-8,-7.278585603823056,-6.892228858590258,-6.8086772221377245
1770447681100,120,-8,-7.715484692526228,-7.18029954851417,-7.250547918278936
1770447681104,119,-9,-7.889978367963906,-7.685973815635201,-7.429618124502935
1770447681108,120,-8,-7.823445090405067,-7.273716204261747,-7.367743552680311
1770447681112,120,-8,-7.648593569855322,-6.907565856415731,-7.198113297330829
1770447681116,120,-8,-7.51219615907459,-7.159607177469097,-7.067406685143043
1770447681120,120,-8,-7.470619128251456,-6.955282516568233,-7.031400465886645
1770447681124,120,-8,-7.465937409211433,-6.904853510801041,-7.031559148652603
1770447681128,120,-8,-7.394269395091099,-7.144549197991429,-6.963765630828961
1770447681132,120,-8,-7.200734018645047,-6.948387226616852,-6.773636655862009
1770447681136,121,-7,-6.916559999891367,-6.228469377480313,-6.493608652460005
1770447681140,121,-7,-6.611659514392868,-5.83436772671478,-6.194399163176829
1770447681144,121,-7,-6.324382292951736,-6.123916404137645,-5.913520924206643
1770447681148,121,-7,-6.049761294635767,-5.909429343581795,-5.644203606430814
1770447681152,122,-6,-5.78657121362036,-5.199285508216583,-5.38457432509
1770447681156,122,-6,-5.568866639765268,-5.007743611693769,-5.169905348683858
1770447681160,122,-6,-5.43905485551761,-5.04967672500323,-5.044131967097023
1770447681164,122,-6,-5.401873463965382,-4.98348741344265,-5.012233977111116
1770447681168,122,-6,-5.417901857707461,-5.032522577376895,-5.0338171111463454
1770447681172,122,-6,-5.441696002909954,-5.122719197622966,-5.0623572244879025
1770447681176,122,-6,-5.459416759225514,-5.067927401714857,-5.083733220055686
1770447681180,122,-6,-5.484195053758101,-5.029350176203344,-5.111751008368739
1770447681184,122,-6,-5.513712601076049,-5.035925555387236,-5.14507070394653
1770447681188,122,-6,-5.499017612049469,-4.994367847214231,-5.135000597356983
1770447681192,122,-6,-5.370402537265908,-5.190521442014501,-5.011087394996549
1770447681196,122,-6,-5.107150488060913,-4.99100523615237,-4.751881915558783
1770447681200,123,-5,-4.77928178133332,-4.148990345042481,-4.427755731452038
1770447681204,123,-5,-4.5069104318322255,-3.934727034345597,-4.159715702906055
1770447681208,123,-5,-4.370734699365518,-4.125818089819357,-4.028407805240456
1770447681212,123,-5,-4.361637738859519,-4.073731408366065,-4.023557733210269
1770447681216,123,-5,-4.410014637834531,-4.116080005975173,-4.074813113081361
1770447681220,123,-5,-4.4506703125970155,-4.066274698194748,-4.117735337953732
1770447681224,123,-5,-4.45855216942986,-4.017850195692008,-4.128784489413383
1770447681228,123,-5,-4.439972349413205,-4.092898241309771,-4.11492770536536
1770447681232,123,-5,-4.410725364118388,-4.094009126209163,-4.091089412443094
1770447681236,123,-5,-4.3886590798305,-4.134614848604118,-4.073592428222452
1770447681240,123,-5,-4.39412407609964,-4.065806320986965,-4.0820567223732365
1770447681244,123,-5,-4.436625923525012,-4.036788887646577,-4.126675578436274
1770447681248,123,-5,-4.489054551907055,-4.1133698955903135,-4.181671417147789
1770447681252,123,-5,-4.481958116259676,-4.061301960734042,-4.178197774757336
1770447681256,123,-5,-4.344588160491437,-4.216820363117464,-4.04491810959113
1770447681260,123,-5,-4.0701215109728714,-3.9832535626365466,-3.774205064893132
1770447681264,124,-4,-3.7409321105291222,-3.1617464427736715,-3.4484713626872536
1770447681268,124,-4,-3.4768793592079903,-2.997096371192678,-3.188066348175296
1770447681272,124,-4,-3.349398434141614,-3.1937138737346604,-3.064256384773691
1770447681276,124,-4,-3.3420351447563195,-3.1134964483780285,-3.0598592304031462
1770447681280,124,-4,-3.384953812535075,-3.1041329180278265,-3.104962949172345
1770447681284,124,-4,-3.416714217393852,-3.0835192626843373,-3.1390562168345912
1770447681288,124,-4,-3.4171974817831914,-3.065192195483122,-3.1428259382544153
1770447681292,124,-4,-3.40076229158439,-3.160660342807319,-3.1303086383645593
1770447681296,124,-4,-3.3923452290509264,-3.153920184654756,-3.1254694980958413
1770447681300,124,-4,-3.405524113609055,-3.1036870300991612,-3.1414976451984953
1770447681304,124,-4,-3.427812031699041,-3.1094903343756624,-3.1664007115336124
1770447681308,124,-4,-3.4189941821786363,-3.0419041214031783,-3.160412799445522
1770447681312,124,-4,-3.3303569968573012,-3.209683137596716,-3.0745636894312347
1770447681316,124,-4,-3.134596993962296,-3.1155571900364056,-2.8812297335155095
1770447681320,125,-3,-2.8356902228256735,-2.190444415351465,-2.584763411485853
1770447681324,125,-3,-2.4466656666178146,-2.0233929947253513,-2.198695612040658
1770447681328,125,-3,-1.9680231859930375,-2.166896883695861,-1.7232529001447705
1770447681332,126,-2,-1.40013078535417,-1.0650511014611077,-1.1582117218188142
1770447681336,127,-1,-0.7706727651038703,-0.3237955806512371,-0.5312867341454496
1770447681340,127,-1,-0.1357873443934352,0.0165533802959195,0.1010302047036939
1770447681344,128,0,0.446590445668154,0.7303622087547212,0.6809394466610545
1770447681348,128,0,0.939106984224436,1.0813626720095249,1.1714402942383917
1770447681352,129,1,1.3256293130787622,1.6546340399642092,1.5561394157172637
1770447681356,129,1,1.597087056256095,1.9441406168247128,1.8251953954153683
1770447681360,129,1,1.7336140586887,1.704628880776296,1.9583894199725305
1770447681364,129,1,1.694451325674966,2.033646525895657,1.9155300593289395
1770447681368,129,1,1.4310570464888313,1.7672115931401309,1.6491386894625504
1770447681372,128,0,0.9273039670631352,0.9314094073139167,1.143753648516484
1770447681376,128,0,0.2435625030520387,0.6750030913164595,0.4593661472571585
1770447681380,127,-1,-0.4743148944047886,-0.0996638668177543,-0.2593513146141992
1770447681384,126,-2,-1.046755874871004,-1.130279420193134,-0.8337920830124133
1770447681388,126,-2,-1.3563463687573305,-1.134874250579459,-1.1465512222937602
1770447681392,126,-2,-1.4239353567642945,-1.1227727079430092,-1.2177076191907856
1770447681396,126,-2,-1.3985150895094831,-1.360316938196002,-1.1954090713130892
1770447681400,126,-2,-1.455737758966318,-1.03103219080785,-1.2549331346527068
1770447681404,126,-2,-1.6762117177000373,-1.2655476536367551,-1.4769555535348091
1770447681408,125,-3,-1.9987160178964805,-2.000640220755735,-1.800432329238458
1770447681412,125,-3,-2.287140326222061,-2.2544971641772005,-2.0896393728507388
1770447681416,125,-3,-2.451258681740259,-2.309920091918446,-2.255250854151071
1770447681420,125,-3,-2.514059722100731,-2.0251174658756494,-2.3210385723003193
1770447681424,125,-3,-2.5765904290959467,-2.376347782675654,-2.3874908260361867
1770447681428,124,-4,-2.7276120330605185,-2.824680726940397,-2.541617214344071
1770447681432,125,-3,-2.975223599944325,-2.5153359662036756,-2.7903842865444064
1770447681436,124,-4,-3.2374694565777973,-3.0428865500666924,-3.0525061169686554
1770447681440,124,-4,-3.3879372094532467,-3.3229104677051824,-3.2032130031154624
1770447681444,124,-4,-3.332504663239946,-3.107234272192382,-3.1495041180105163
1770447681448,124,-4,-3.0745425356446203,-3.072746652659046,-2.894758438526034
1770447681452,125,-3,-2.7217891939164716,-2.3458296531240777,-2.5457995715159334
1770447681456,125,-3,-2.4247741047489604,-2.169227187743465,-2.2517569968613573
1770447681460,125,-3,-2.2890611160916663,-2.2980284884884603,-2.117193654143246
1770447681464,125,-3,-2.3189967541887606,-2.0733260885844396,-2.1469695733188803
1770447681468,125,-3,-2.4207644626359457,-2.189672815394319,-2.2491957606260864
1770447681472,125,-3,-2.4577748911152373,-2.2061207971932713,-2.2886533259692325
1770447681476,125,-3,-2.3328030544504976,-2.3556479732416324,-2.1671276098297723
1770447681480,125,-3,-2.052690658991426,-2.128865040255472,-1.88895886189387
1770447681484,126,-2,-1.7231840615982947,-1.2500434804490148,-1.558662090952367
1770447681488,126,-2,-1.466446989917264,-1.0489566545018496,-1.3000306395468133
1770447681492,126,-2,-1.3329886241521585,-1.3416853109182787,-1.166991769995792
1770447681496,126,-2,-1.2927363426498837,-1.2857904741894286,-1.132152394105918
1770447681500,126,-2,-1.2943485976392486,-1.1708486562020544,-1.1437350322477866
1770447681504,126,-2,-1.2803171356954022,-1.299156331245778,-1.1397587332563357
1770447681508,126,-2,-1.0636434549917066,-0.9182151601018518,-0.9267157960552984
1770447681512,128,0,-0.1122979051382051,0.4059925997941473,0.0312997053006449
1770447681516,130,2,2.558232247515746,3.043882691156443,2.7161791410922103
1770447681520,136,8,8.150840552914937,8.386037172556629,8.322393277948576
1770447681524,144,16,17.451597362844836,17.203771383476358,17.626940884254807
1770447681528,157,29,30.05903088100769,29.53999971854247,30.22435798556253
1770447681532,171,43,43.98816853216829,43.932356124922165,44.133164010668935
1770447681536,184,56,56.068268962029805,56.52817436344817,56.19163146060523
1770447681540,191,63,63.09829697317513,63.77091288986804,63.20853228684876
1770447681544,191,63,63.19774511056579,63.87677256711724,63.309026290066086
1770447681548,184,56,56.595972993589314,56.68746335648093,56.72112658794241
1770447681552,172,44,45.41775434851376,44.88789753740819,45.56177147816315
1770447681556,160,32,32.63590528691824,32.431586636899915,32.79345436944508
1770447681560,148,20,20.833687968072724,20.998885019467597,20.992422687838634
1770447681564,139,11,11.432774157917876,11.563260338567629,11.580672684329222
1770447681568,132,4,4.650364463787646,5.078871711966988,4.782224422068462
1770447681572,128,0,-0.0153920983066466,0.4220851984414278,0.1036002093452284
1770447681576,124,-4,-3.2042343262085007,-3.118891771393912,-3.0899456434325794
1770447681580,122,-6,-5.364614145608807,-5.460595852787187,-5.247155769774945
1770447681584,120,-8,-6.746304066667464,-7.031665003113652,-6.622269131975689
1770447681588,120,-8,-7.53971112711724,-7.287643996724411,-7.411321462893449
1770447681592,120,-8,-7.952660178091804,-7.310671950298804,-7.825235678209955
1770447681596,119,-9,-8.171299089673852,-8.331498295522636,-8.048743907799452
1770447681600,119,-9,-8.298918783439994,-8.372024017110455,-8.181039481311412
1770447681604,119,-9,-8.35755696116768,-8.019548093491547,-8.241428936532898
1770447681608,119,-9,-8.337536529589233,-8.448395681979019,-8.22093443061311
1770447681612,119,-9,-8.235311585900671,-8.040612335226824,-8.118540256581394
1770447681616,120,-8,-8.056966356002917,-7.736136902442743,-7.94176433814484
1770447681620,119,-9,-7.809722430867642,-7.918585873662336,-7.697007781943473
1770447681624,120,-8,-7.504701334346264,-7.519306425798487,-7.39377057333825
1770447681628,120,-8,-7.162779694513793,-6.984447615169197,-7.05259919849995
1770447681632,121,-7,-6.803204549432274,-6.465184172447772,-6.693829336830937
1770447681636,121,-7,-6.425149801043149,-6.423439023314801,-6.3174003681165845
1770447681640,121,-7,-6.014830784625129,-6.151193959746446,-5.90899842309225
1770447681644,122,-6,-5.577341258848601,-5.413070910696405,-5.472895146904438
1770447681648,122,-6,-5.148987854544924,-5.019780623062607,-5.04544459955329
1770447681652,123,-5,-4.764997194454186,-4.504663904602133,-4.662440456604719
1770447681656,123,-5,-4.417796135109237,-4.384588269753357,-4.31644551742493
1770447681660,123,-5,-4.0574032248980325,-4.200317607871779,-3.957235760913574
1770447681664,124,-4,-3.635532136658626,-3.43740644687712,-3.5365951797035855
1770447681668,124,-4,-3.1470253631717977,-2.942873762738329,-3.04963778156654
1770447681672,125,-3,-2.633004630192465,-2.6631430954220905,-2.537244666189065
1770447681676,125,-3,-2.1511516320968553,-2.196431940143534,-2.0565233818569895
1770447681680,126,-2,-1.736889884047797,-1.437398932483838,-1.6429505088931184
1770447681684,126,-2,-1.3776478812330888,-1.2453392469269469,-1.2846863888375113
1770447681688,126,-2,-1.0213504549378822,-1.0985189920350396,-0.9299938534925724
1770447681692,127,-1,-0.6221508611353657,-0.587068739505082,-0.5324673980922909
1770447681696,127,-1,-0.1856917075013349,-0.2296518822337434,-0.097098348414112
1770447681700,128,0,0.2367329173951584,0.5195378303578887,0.3247190889161945
1770447681704,128,0,0.6065537441159532,0.7932006900408025,0.6938069770858712
1770447681708,128,0,0.9484652579999372,0.8616295792605559,1.0345214492817445
1770447681712,129,1,1.33503819828428,1.396064729278431,1.419604666108302
1770447681716,129,1,1.816113092328967,1.8221656845191052,1.8992264874197644
1770447681720,130,2,2.3626209267555405,2.3770391320076776,2.4444792948395353
1770447681724,130,2,2.8823678919744595,2.969868665261828,2.963147789291691
1770447681728,131,3,3.2972528012807754,3.6366881928885544,3.3771299624571323
1770447681732,131,3,3.6110821582222705,3.613640524340123,3.6903397771918858
1770447681736,131,3,3.902490584271445,3.5869239882830564,3.981281428948995
1770447681740,132,4,4.249259782081518,4.563800687116563,4.3271260108741885
1770447681744,132,4,4.654988336387291,4.786102479815906,4.731053185376153
1770447681748,132,4,5.039488677131194,4.7961257845800205,5.113434169116065
1770447681752,133,5,5.296560546531851,5.439386832305661,5.369084507447312
1770447681756,133,5,5.377835882261824,5.7435998879126196,5.449992722078247
1770447681760,133,5,5.341271960332273,5.35262410888129,5.4137228413217295
1770447681764,132,4,5.314730530616395,5.006943218440416,5.387531046267082
1770447681768,133,5,5.3897263648403175,5.544474255670846,5.46218988280858
1770447681772,133,5,5.5313893561241585,5.679896148288967,5.602103587563641
1770447681776,133,5,5.581919034203497,5.489662753247866,5.64957353584733
1770447681780,133,5,5.352846308392081,5.551561712347727,5.417504867162546
1770447681784,132,4,4.735775952926929,4.8206828955756125,4.799279975418463
1770447681788,131,3,3.760794267750918,3.680624562283727,3.8255821116216575
1770447681792,130,2,2.5761930063940035,2.5506992623517006,2.6432669331345724
1770447681796,129,1,1.3716446390211434,1.588667814714114,1.4395274094872588
1770447681800,128,0,0.2870534942312186,0.4117395235035519,0.3530351147965145
1770447681804,126,-2,-0.6559372429931769,-1.0198343743168214,-0.5933920832993143
1770447681808,126,-2,-1.5638136313110786,-1.546293965308884,-1.5040902111558645
1770447681812,125,-3,-2.594415284941914,-2.182921383106283,-2.5358781738859673
1770447681816,124,-4,-3.82273279450456,-3.753663896107744,-3.764078508023963
1770447681820,122,-6,-5.150123517283152,-5.238479142821878,-5.090637102237751
1770447681824,121,-7,-6.342725550741602,-6.398873154712583,-6.282178222271716
1770447681828,120,-8,-7.1745643963482655,-7.206182166302036,-7.113491955316606
1770447681832,120,-8,-7.56214933962692,-7.4918107779428915,-7.501901834031943
1770447681836,120,-8,-7.596601599186239,-7.518981577266085,-7.538561441803744
1770447681840,120,-8,-7.46892036842155,-7.437851030476023,-7.4134881228860765
1770447681844,120,-8,-7.355397658088771,-7.28090646715429,-7.301720468607748
1770447681848,120,-8,-7.339255211347606,-7.3013771627639805,-7.2858353848019
1770447681852,120,-8,-7.404468820286752,-7.4501662408411615,-7.3500800982514
1770447681856,120,-8,-7.484538385406555,-7.547367441320121,-7.428948788907701
1770447681860,120,-8,-7.517483259377859,-7.461156977696473,-7.46163430113799
1770447681864,120,-8,-7.469768136288098,-7.253214924792729,-7.415073223127646
1770447681868,120,-8,-7.332656183070284,-7.3792518108298335,-7.279756752413326
1770447681872,120,-8,-7.1169424153032566,-7.356050515363858,-7.065200853379457
1770447681876,121,-7,-6.8518355257542005,-6.693830415762284,-6.800218384139175
1770447681880,121,-7,-6.572255391710779,-6.306763975268011,-6.520409351203099
1770447681884,121,-7,-6.297690332553233,-6.4573085614125985,-6.245875327793141
1770447681888,121,-7,-6.029487670266688,-6.177401764663589,-5.977921002628147
1770447681892,122,-6,-5.772225472487895,-5.581606130040069,-5.721018288603328
1770447681896,122,-6,-5.550632623762354,-5.498537981719129,-5.500065374488455
1770447681900,122,-6,-5.401472222369316,-5.500320927629635,-5.351787390942089
1770447681904,122,-6,-5.350568601957542,-5.31429859153822,-5.301545475512787
1770447681908,122,-6,-5.393012492088119,-5.314302665101184,-5.3440338486286985
1770447681912,122,-6,-5.485398863476493,-5.488180593700596,-5.435937785847655
1770447681916,122,-6,-5.555364861272824,-5.594970756700158,-5.505350561216082
1770447681920,122,-6,-5.529781135445502,-5.429301313251943,-5.479588049205333
1770447681924,122,-6,-5.371068442456819,-5.409504851985941,-5.321244261915522
1770447681928,122,-6,-5.101142339817983,-5.232857133727912,-5.052139534776295
1770447681932,123,-5,-4.794762494599944,-4.59847400812277,-4.746773263025394
1770447681936,123,-5,-4.541873691879314,-4.494652225886337,-4.49464378396744
1770447681940,123,-5,-4.402272948371502,-4.55649741888105,-4.355036279405309
1770447681944,123,-5,-4.381093110103267,-4.304976644924985,-4.333020640851585
1770447681948,123,-5,-4.434215680422508,-4.35429785518224,-4.385138882200546
1770447681952,123,-5,-4.49525367843422,-4.511096735752017,-4.4458208220679385
1770447681956,123,-5,-4.5125428648104124,-4.574818452192486,-4.463616769020937
1770447681960,123,-5,-4.47934702463635,-4.5238870835908145,-4.431363914800687
1770447681964,123,-5,-4.43463580978941,-4.335683652185824,-4.387422134637397
1770447681968,123,-5,-4.428121080545974,-4.3637324380521605,-4.3810004688323865
1770447681972,123,-5,-4.475651778041427,-4.5129769446992904,-4.427754487970554
1770447681976,123,-5,-4.541755997656981,-4.587243186316157,-4.492685061089601
1770447681980,123,-5,-4.561379403228673,-4.545679438354788,-4.511779106972489
1770447681984,123,-5,-4.483360822087726,-4.320506250339991,-4.434421702168613
1770447681988,123,-5,-4.310199929139429,-4.4146094294424,-4.262303482293358
1770447681992,123,-5,-4.109968908414107,-4.466619259683402,-4.062252056725486
1770447681996,124,-4,-3.978373330934449,-3.6635694636997247,-3.9299769869016146
1770447682000,124,-4,-3.9610514791149503,-3.482954647961252,-3.9121703816833593
1770447682004,123,-5,-4.003848420137912,-4.4133264211149745,-3.954978101484648
1770447682008,123,-5,-3.996130514429755,-4.3372048786788255,-3.9469867143911967
1770447682012,124,-4,-3.873817408514057,-3.5670703611932884,-3.823834947525414
1770447682016,124,-4,-3.6747205755923256,-3.5837901015787264,-3.6241533653788984
1770447682020,124,-4,-3.4957370499076243,-3.5725777165852484,-3.445504454063729
1770447682024,124,-4,-3.408972374145778,-3.3482391620374905,-3.359624006723207
1770447682028,124,-4,-3.418024452141648,-3.4295466790932174,-3.369261276112136
1770447682032,124,-4,-3.4771285722177896,-3.503239720857178,-3.428116971403512
1770447682036,124,-4,-3.5379683427618103,-3.648954358761171,-3.4878955369287654
1770447682040,124,-4,-3.575223749494038,-3.5497329750491193,-3.5238182936676172
1770447682044,124,-4,-3.5704498638463695,-3.343254447504698,-3.518214308563341
1770447682048,124,-4,-3.4816905783569028,-3.526637790535659,-3.4295146164785004
1770447682052,124,-4,-3.24717030055239,-3.3578904516256003,-3.195584213494616
1770447682056,125,-3,-2.8343398198414715,-2.8807116541788433,-2.7831611095689164
1770447682060,125,-3,-2.287436255768282,-2.2749324805050124,-2.236091071504944
1770447682064,126,-2,-1.7174955443115905,-1.6687309656438352,-1.6655990794146835
1770447682068,126,-2,-1.231781578574485,-1.2264911726156047,-1.1794580698160886
1770447682072,127,-1,-0.8592260297831005,-0.6548423969972494,-0.8068837219694008
1770447682076,127,-1,-0.5376398293476989,-0.6605463607794948,-0.485339089745413
1770447682080,127,-1,-0.1770267172775761,-0.4337996453858355,-0.1241668527817256
1770447682084,128,0,0.2572640641080803,0.3907051378240646,0.3113509187635518
1770447682088,128,0,0.7183700646732465,0.7681306052720507,0.773504298401493
1770447682092,129,1,1.1261924584364795,1.2602916423913977,1.181321359810886
1770447682096,129,1,1.4292894639472196,1.4553524898411971,1.4835132869198795
1770447682100,129,1,1.612392638824757,1.3997252741880477,1.6658246261869034
1770447682104,129,1,1.653145582737396,1.5519587870604228,1.7065699213719312
1770447682108,129,1,1.4964276319841106,1.5824650440741554,1.5503346829606195
1770447682112,129,1,1.0938307078514704,1.4163637206587172,1.1482547344562837
1770447682116,128,0,0.4730622331577438,0.2958602389461837,0.5282757807910954
1770447682120,127,-1,-0.2397959520338246,-0.4782152570292861,-0.1832416815811262
1770447682124,127,-1,-0.8736783367297347,-0.5746699542259821,-0.815983722866727
1770447682128,126,-2,-1.3001087538972529,-1.3302035716032583,-1.242598756975336
1770447682132,126,-2,-1.4986481808528562,-1.668989088121072,-1.442498573117897
1770447682136,126,-2,-1.566141113722373,-1.649629389398224,-1.5111124583058306
1770447682140,126,-2,-1.65626069630847,-1.5419091690514977,-1.6011418080349746
1770447682144,126,-2,-1.8726522104344347,-1.5522074595766333,-1.8165739218733163
1770447682148,125,-3,-2.191169742417212,-2.3534100515558394,-2.134060583004162
1770447682152,125,-3,-2.484385445081,-2.6896203482386594,-2.426557547353852
1770447682156,125,-3,-2.6335472654919663,-2.618843516194796,-2.5754486815616784
1770447682160,125,-3,-2.6267296536358584,-2.623000652152711,-2.5689484404272713
1770447682164,125,-3,-2.5571863509090154,-2.4650058282981213,-2.5001156350655505
1770447682168,125,-3,-2.5330438538322335,-2.4762962682255294,-2.476397662510778
1770447682172,125,-3,-2.5843426284022852,-2.581227831870237,-2.5273008624644913
1770447682176,125,-3,-2.644134735068062,-2.747291889068269,-2.586143684846659
1770447682180,125,-3,-2.612103730100017,-2.5331533172295275,-2.553419992659019
1770447682184,125,-3,-2.4451473050649963,-2.5387605312490504,-2.386546505015567
1770447682188,125,-3,-2.2017711720297717,-2.4697078877090277,-2.1439169094962693
1770447682192,126,-2,-2.001892785756409,-1.540938620883785,-1.94497106475636
1770447682196,126,-2,-1.9317278053215057,-1.8883890227815976,-1.8752586362705483
1770447682200,125,-3,-1.975681978669583,-2.339637767964363,-1.918568852108583
1770447682204,126,-2,-2.035248950805588,-1.8184174294706623,-1.9765761381055744
1770447682208,125,-3,-2.0123457844882924,-2.154424185305478,-1.952539669163209
1770447682212,126,-2,-1.8814745928188623,-1.9147654655898192,-1.82241534526579
1770447682216,126,-2,-1.699149506769252,-1.5058393349133812,-1.642649055890948
1770447682220,126,-2,-1.5563803080779872,-1.7551801681637218,-1.5022379379730375
1770447682224,126,-2,-1.514681587625301,-1.4416284730388167,-1.4601869774414
1770447682228,126,-2,-1.5661070727352917,-1.502266779505075,-1.5077926710001792
1770447682232,126,-2,-1.6399636178807242,-1.6667182522616235,-1.5766201523898655
1770447682236,126,-2,-1.6553802578806622,-1.666635008859397,-1.5901829692182612
1770447682240,126,-2,-1.588360961401202,-1.73161239571598,-1.5280123221524915
1770447682244,126,-2,-1.4940202087832772,-1.3805975443794534,-1.444369850465968
1770447682248,126,-2,-1.42721581218321,-1.6633179233103494,-1.3878380061581304
1770447682252,126,-2,-1.2531785597855736,-1.478082518652578,-1.2156291017273269
1770447682256,128,0,-0.426455681624402,0.1193531669981624,-0.3789016552807318
1770447682260,130,2,2.086256639079367,2.43167090325654,2.1509324960991525
1770447682264,135,7,7.537386362705609,7.500438742804887,7.6162859674180226
1770447682268,144,16,16.73835925692255,16.36770310871782,16.81996309936118
1770447682272,156,28,29.2839712082206,28.57135854617282,29.354837434113428
1770447682276,171,43,43.18162890759403,42.9596951193923,43.23367695417969
1770447682280,183,55,55.29470894741877,55.65985162661578,55.32886665361787
1770447682284,191,63,62.525389256985605,63.14976584337472,62.55039929588113
1770447682288,191,63,63.128837050172635,63.71838889078914,63.15683257708886
1770447682292,185,57,57.39374449351153,57.142813635759026,57.43492448525421
1770447682296,174,46,47.31101116220744,46.34009663156364,47.36909995815745
1770447682300,163,35,35.5124496375713,35.319994088786224,35.58266204178652
1770447682304,152,24,24.182432035152313,24.45392441128388,24.2538578692889
1770447682308,142,14,14.522780215614368,14.478077502208434,14.584785409308278
1770447682312,135,7,6.861228281469284,7.32962713580866,6.909715061313722
1770447682316,129,1,1.0780032397669297,1.1491138226115405,1.1169458951943472
1770447682320,124,-4,-3.0433928342884364,-3.534137552651913,-3.0058548900953035
1770447682324,122,-6,-5.715637390682802,-5.681539978767192,-5.673210879572309
1770447682328,120,-8,-7.208786130695437,-7.407606193318769,-7.160778743716529
1770447682332,120,-8,-7.8887394513046605,-7.804815962063353,-7.839244393396365
1770447682336,120,-8,-8.146621125636422,-7.753961127298533,-8.100282771927654
1770447682340,119,-9,-8.280163571611386,-8.661394655390158,-8.238226751436091
1770447682344,119,-9,-8.43142280597502,-8.580856190231026,-8.391355422281372
1770447682348,119,-9,-8.610350003526017,-8.48259036904104,-8.568903431130103
1770447682352,119,-9,-8.754860139750244,-8.812724323161476,-8.711176151925402
1770447682356,119,-9,-8.78169569336224,-8.699762722927211,-8.73758367847128
1770447682360,119,-9,-8.627527875512609,-8.818734798936159,-8.585392559016894
1770447682364,119,-9,-8.28751593412023,-8.373787693882797,-8.248391647858046
1770447682368,120,-8,-7.831949468964968,-7.737986717965986,-7.795140393757536
1770447682372,120,-8,-7.376354341403997,-7.5625292351994045,-7.340424746196291
1770447682376,121,-7,-7.0129704824766,-6.975544701933845,-6.977023266668973
