timestamp_ms,ecg_u8_raw,ecg_counts_raw_int,ecg_counts_filt_monitor,ecg_counts_filt_diagnostic,ecg_counts_filt_st
1770451879748,130,2,6.224559293056692,2.734029703345188,3.055588421975389
1770451879752,129,1,5.313936273705556,1.795740669255509,2.073031304177305
1770451879756,128,0,4.2344944102494875,0.8214512037888166,0.9214619725518892
1770451879760,127,-1,3.168965956717749,-0.4128395347202334,-0.2184922960323447
1770451879764,126,-2,2.2424678706756733,-1.433512219974745,-1.2218572230537652
1770451879768,125,-3,1.490916546731614,-2.3750693637766185,-2.0510208009478688
1770451879772,124,-4,0.8615727727394806,-3.122286825391501,-2.757008998571182
1770451879776,124,-4,0.2596959939999053,-3.2511650499966604,-3.4341836888592665
1770451879780,123,-5,-0.3763973208211943,-4.357461470506102,-4.144915857026812
1770451879784,122,-6,-1.0267286939740017,-5.503746647415251,-4.870080563582996
1770451879788,122,-6,-1.606574610404918,-5.300229473824859,-5.525428501172022
1770451879792,121,-7,-2.0319892815672778,-6.206494730062151,-6.0268099645924895
1770451879796,120,-8,-2.2823166702580275,-7.1804185602613355,-6.352961625594845
1770451879800,121,-7,-2.4111364447660626,-6.409794647338141,-6.557465767285019
1770451879804,121,-7,-2.490329833737612,-6.499459378230322,-6.712920346292869
1770451879808,120,-8,-2.5357342275122576,-7.271617196210533,-6.835102256702142
1770451879812,120,-8,-2.496810901030617,-7.272167129626997,-6.872087603124003
1770451879816,120,-8,-2.325378270216113,-7.094005158843551,-6.774877401460098
1770451879820,121,-7,-2.0407823150274296,-6.536633548092268,-6.56417764308126
1770451879824,121,-7,-1.71785654586916,-6.341865373624987,-6.3170098356099045
1770451879828,121,-7,-1.425564576231329,-6.467687015953128,-6.102631244059115
1770451879832,121,-7,-1.196508834249737,-6.0547736106104635,-5.951416554325286
1770451879836,121,-7,-1.050382372740465,-6.3366052950412115,-5.880647268993339
1770451879840,121,-7,-1.014044755384231,-6.316599107338823,-5.9172978121162085
1770451879844,122,-6,-1.0846297753924563,-5.5261053202550166,-6.060967754697684
1770451879848,121,-7,-1.172671963720359,-6.33068815584336,-6.223970240585859
1770451879852,120,-8,-1.122885289469056,-7.156602944959369,-6.2501918485981145
1770451879856,121,-7,-0.8340266577737783,-6.276716068923002,-6.036696363516698
1770451879860,122,-6,-0.3635259619192816,-5.386342525632942,-5.640760865196142
1770451879864,122,-6,0.1013184052146125,-5.424458813288233,-5.25060075012509
1770451879868,122,-6,0.3799178619588117,-5.4725191446987145,-5.046972696638414
1770451879872,122,-6,0.4143322735149168,-4.972712719109166,-5.087078455466935
1770451879876,122,-6,0.278252098340304,-5.542592087869173,-5.296626006387352
1770451879880,121,-7,0.0948506656501435,-6.091725430295642,-5.552478449253339
1770451879884,122,-6,-0.0577653703015326,-5.713472169880035,-5.77713096464578
1770451879888,121,-7,-0.1783809664998399,-6.203957202808853,-5.970264205128049
1770451879892,121,-7,-0.2994444395317417,-6.196466004312387,-6.164855433811333
1770451879896,121,-7,-0.4287665117774597,-6.4189018582246735,-6.368211245741336
1770451879900,120,-8,-0.5434471781872703,-7.146892603865741,-6.556143965813252
1770451879904,121,-7,-0.6358182580129412,-6.72453764144326,-6.720105695882634
1770451879908,120,-8,-0.7466068425951864,-7.117416043520906,-6.901270372715302
1770451879912,120,-8,-0.9342835058906962,-7.347805655607099,-7.159436426959537
1770451879916,120,-8,-1.2061406927395508,-7.255015057963195,-7.502643070505464
1770451879920,119,-9,-1.48840274030532,-8.335999345973336,-7.856389697431041
1770451879924,119,-9,-1.6773324791544957,-8.545177547514593,-8.115622570856301
1770451879928,119,-9,-1.7235225999751893,-8.244113525579575,-8.23073261496585
1770451879932,119,-9,-1.6610406828197757,-8.289451607696332,-8.236934226161933
1770451879936,119,-9,-1.5572884702076797,-8.26845935375035,-8.202498137202294
1770451879940,119,-9,-1.4506064880172045,-8.391731159404065,-8.165174446122188
1770451879944,119,-9,-1.346776468158857,-8.44479606367761,-8.129618238387412
1770451879948,119,-9,-1.2654589734866306,-8.371151259451636,-8.115504697033955
1770451879952,119,-9,-1.268584394630814,-8.139697547705582,-8.185919972416366
1770451879956,119,-9,-1.4314662948496126,-8.462731836601376,-8.416681352549785
1770451879960,118,-10,-1.7874242905796731,-9.181520292239997,-8.839924638488077
1770451879964,118,-10,-2.2978236250429713,-9.682043728129562,-9.415568475308818
1770451879968,117,-11,-2.8587394866612685,-10.113167568462243,-10.039974288661634
1770451879972,117,-11,-3.3260858287362662,-10.404071629634112,-10.570727189592771
1770451879976,116,-12,-3.559169453050924,-11.220359938941304,-10.868060584171324
1770451879980,116,-12,-3.4891505063479324,-11.411584845093698,-10.862570320196577
1770451879984,117,-11,-3.1748211524932968,-10.48843692520763,-10.612294563915686
1770451879988,117,-11,-2.7841452837753633,-10.263570582257902,-10.285081803818295
1770451879992,117,-11,-2.5003291879517167,-10.293962640632843,-10.063993057627236
1770451879996,117,-11,-2.426676011029446,-10.306272541696083,-10.051814269805938
1770451880000,117,-11,-2.556110072302529,-10.374481977492223,-10.241328095867146
1770451880004,117,-11,-2.804211282939493,-10.515593424625871,-10.548646774073925
1770451880008,116,-12,-3.066484822313719,-11.226597816968136,-10.869770518640664
1770451880012,116,-12,-3.265592064545914,-11.344770786628828,-11.127458983011897
1770451880016,116,-12,-3.367228548953797,-11.23640039284036,-11.287540395512435
1770451880020,116,-12,-3.362537780871123,-11.500693867462228,-11.34133521165984
1770451880024,116,-12,-3.2447445183789334,-11.35765122693604,-11.281594262327072
1770451880028,116,-12,-3.013032291642865,-11.4002122936651,-11.106367923648085
1770451880032,116,-12,-2.697657917869516,-11.16219291551954,-10.845391314430076
1770451880036,117,-11,-2.3643014702616423,-10.423379589218912,-10.565398523552954
1770451880040,117,-11,-2.078346928532868,-10.351336291918424,-10.33345969181382
1770451880044,117,-11,-1.867102846060971,-10.482276034914303,-10.177267479044074
1770451880048,117,-11,-1.7277554949920977,-10.300481821485338,-10.092519792824534
1770451880052,117,-11,-1.6690355126667114,-10.231832133387517,-10.086051220241467
1770451880056,117,-11,-1.7238564203820208,-10.396648916877272,-10.1903506394133
1770451880060,117,-11,-1.9001368393653937,-10.36252494522877,-10.414779568233309
1770451880064,117,-11,-2.1184150544889366,-10.493972805108932,-10.681707233244795
1770451880068,116,-12,-2.2244681392408414,-11.2741816002792,-10.837330721361406
1770451880072,116,-12,-2.1027158860344892,-11.259184881618534,-10.764972505756251
1770451880076,117,-11,-1.7990824425373542,-10.391995637521488,-10.509440720115556
1770451880080,117,-11,-1.5224593985247286,-10.358089958314336,-10.27957378474737
1770451880084,117,-11,-1.496434138756531,-10.51514106231586,-10.299526160777988
1770451880088,117,-11,-1.7777997681742947,-10.24182852670123,-10.626069378751394
1770451880092,116,-12,-2.1993852661733326,-11.292041123724305,-11.090939867148649
1770451880096,115,-13,-2.491441053684369,-12.409979268242068,-11.423582728008352
1770451880100,116,-12,-2.4741197480434822,-11.284924855939227,-11.445594822729772
1770451880104,117,-11,-2.1506810752593095,-10.653003226406163,-11.16313447557414
1770451880108,116,-12,-1.649007133088666,-11.027476691015355,-10.704810144504068
1770451880112,117,-11,-1.118642038752275,-10.560165607777646,-10.217290722800378
1770451880116,117,-11,-0.6881509656249198,-10.149069572563365,-9.826034806863026
1770451880120,118,-10,-0.4592950620955984,-9.549955469054495,-9.63308414086834
1770451880124,118,-10,-0.4697197623336064,-9.409902508283942,-9.678697524665685
1770451880128,117,-11,-0.6428888477593702,-10.20059709070571,-9.887523503483918
1770451880132,117,-11,-0.8028981783796476,-10.470240473702203,-10.082372946084805
1770451880136,117,-11,-0.7645561281477837,-10.184856555981703,-10.076864743638222
1770451880140,118,-10,-0.4189396377362073,-9.610928774978262,-9.762940620533303
1770451880144,118,-10,0.2486616482975829,-9.244258998543495,-9.127503262291038
1770451880148,119,-9,1.1838772689893695,-8.421889123801733,-8.224945538105938
1770451880152,120,-8,2.2755689214094676,-7.203595625280605,-7.164706229404726
1770451880156,121,-7,3.3519653072760978,-6.532745656323851,-6.117220237308304
1770451880160,122,-6,4.2061662589119155,-5.244825468042536,-5.2900249800994725
1770451880164,123,-5,4.671479088482658,-4.595218696034166,-4.851486411587572
1770451880168,122,-6,4.69596512073071,-5.0722278722383765,-4.853862006152578
1770451880172,122,-6,4.342597411984206,-5.531886678214061,-5.232596483443915
1770451880176,121,-7,3.715030217057519,-6.297316921781215,-5.882888234205436
1770451880180,121,-7,2.895910167469699,-6.426045384953719,-6.723318148922814
1770451880184,120,-8,1.9615119607782416,-7.444111741977926,-7.67970640792641
1770451880188,118,-10,1.026097317233822,-9.149993456647287,-8.637784987236358
1770451880192,118,-10,0.2273714382346516,-9.51752234981209,-9.457548542655442
1770451880196,117,-11,-0.3488126353756419,-10.313488825344631,-10.051404988383611
1770451880200,117,-11,-0.7171474032076093,-10.45934571154935,-10.434977435222914
1770451880204,117,-11,-0.9594691383836528,-10.324058828628402,-10.692606931909276
1770451880208,116,-12,-1.1572124917986346,-11.304731491294568,-10.907152233256872
1770451880212,116,-12,-1.3728348251284448,-11.333636939417012,-11.140251037922717
1770451880216,116,-12,-1.6866883101759786,-11.591761580115644,-11.470217805681957
1770451880220,115,-13,-2.2100560887094653,-12.152212331073349,-12.006604325436324
1770451880224,115,-13,-3.0131949579996036,-12.61562561583507,-12.81904060322351
1770451880228,113,-15,-4.010885972041292,-13.973910758885102,-13.823094091771376
1770451880232,113,-15,-4.920887716374985,-14.70330187760698,-14.738625849482704
1770451880236,112,-16,-5.375377963956828,-15.267266925492498,-15.20014603988158
1770451880240,112,-16,-5.146893937463606,-15.468794836660171,-14.98097500080206
1770451880244,113,-15,-4.33888681613888,-14.28274029745138,-14.182938958458973
1770451880248,114,-14,-3.380080541306511,-13.228885671309753,-13.231834566335706
1770451880252,115,-13,-2.785709508044006,-12.544418643084686,-12.640873213382855
1770451880256,115,-13,-2.831649221721153,-12.41024870633896,-12.686312356779675
1770451880260,114,-14,-3.376937406456447,-13.395276194550217,-13.229689717788863
1770451880264,113,-15,-3.969820054376076,-14.28817371064844,-13.822073247498142
1770451880268,113,-15,-4.14782513091073,-14.1952413828364,-14.001946453094495
1770451880272,114,-14,-3.683422677546243,-13.617076409139088,-13.539648425995775
1770451880276,115,-13,-2.580569734637373,-12.351096304536936,-12.43500065649893
1770451880280,117,-11,-0.8514096902978334,-10.475636954126935,-10.697467962250398
1770451880284,119,-9,1.6969736745255268,-8.180037059919982,-8.13605613501282
1770451880288,123,-5,5.423122264019076,-4.252849682161241,-4.397852198733161
1770451880292,128,0,10.505742658519468,0.3720443656537036,0.6913948631665959
1770451880296,133,5,16.50832180515014,5.678322897755876,6.695758170365338
1770451880300,140,12,22.22850715874507,12.430684586449829,12.41735899836852
1770451880304,144,16,26.081873628606505,17.005354784693615,16.27616061306859
1770451880308,145,17,26.8719150840737,17.513652738371317,17.07780777277479
1770451880312,142,14,24.43371236581519,14.618371455661991,14.657506777990127
1770451880316,137,9,19.67894872668178,9.33157942209926,9.925174996172949
1770451880320,131,3,14.0255704576603,3.790094290608266,4.294916232462532
1770451880324,126,-2,8.658659506859033,-1.2927392823640538,-1.0525970020538375
1770451880328,122,-6,4.134171589120536,-5.163828603902665,-5.562992178276353
1770451880332,119,-9,0.4896785937917354,-8.665673909322237,-9.195343889628674
1770451880336,115,-13,-2.3863172989015,-12.506290746011343,-12.055290620564284
1770451880340,113,-15,-4.497199719357076,-14.325761649068218,-14.14341452334179
1770451880344,112,-16,-5.758825572234356,-15.205854505948553,-15.37855242455504
1770451880348,111,-17,-6.1909623774260005,-16.14313262064019,-15.7856521056928
1770451880352,112,-16,-6.065708223114359,-15.75292749266718,-15.638450013404157
1770451880356,112,-16,-5.866816622590215,-15.421273377078103,-15.417489324804125
1770451880360,112,-16,-6.058165266681955,-15.500541442746073,-15.582531255287464
1770451880364,111,-17,-6.804499561969634,-15.941223077391086,-16.297520539408644
1770451880368,110,-18,-7.854553279441536,-17.409503960771467,-17.31401278468272
1770451880372,109,-19,-8.70945063753725,-18.475903510182636,-18.136573377674804
1770451880376,109,-19,-8.984546585662887,-18.749889026743727,-18.38175640986957
1770451880380,109,-19,-8.695576017651035,-18.22139901840192,-18.063769229181357
1770451880384,110,-18,-8.23494856409359,-17.12982303499349,-17.57231915913215
1770451880388,110,-18,-8.049728614424946,-17.22083107368538,-17.35274071654071
1770451880392,110,-18,-8.281239939015428,-17.644319183303466,-17.546883592250822
1770451880396,110,-18,-8.657038560568914,-17.679489168127233,-17.88425391401251
1770451880400,109,-19,-8.718837548303409,-18.30297836420958,-17.90752134373739
1770451880404,109,-19,-8.199056786291472,-18.00769856290777,-17.34815528692208
1770451880408,111,-17,-7.230441079732558,-16.27458159162454,-16.338265558225523
1770451880412,113,-15,-6.201896963402242,-14.608617184800696,-15.26833677119847
1770451880416,114,-14,-5.39350908163076,-13.783045460740398,-14.420053385809428
1770451880420,113,-15,-4.7543960842718205,-14.223343454650696,-13.740739583701512
1770451880424,113,-15,-4.053642329576814,-14.072590909580962,-12.99563010868453
1770451880428,115,-13,-3.2304741456712707,-12.131624819167296,-12.12337159039583
1770451880432,117,-11,-2.5422075302355447,-10.776009572915816,-11.38568218505774
1770451880436,117,-11,-2.338375168766293,-10.65467875493513,-11.136240348410016
1770451880440,116,-12,-2.7138367702384523,-11.380500321949082,-11.468083215961672
1770451880444,114,-14,-3.4163978347462676,-12.910673179399923,-12.122845761059104
1770451880448,114,-14,-4.082812932289787,-13.24048688252553,-12.73431371944952
1770451880452,115,-13,-4.52374637382867,-12.66747424282928,-13.117592044212095
1770451880456,115,-13,-4.7730873423858045,-12.798858281682746,-13.313584645033448
1770451880460,114,-14,-4.924968128549343,-13.243937940514718,-13.417574460202204
1770451880464,113,-15,-5.006583006203579,-14.05309980301531,-13.450437959208353
1770451880468,113,-15,-5.020193794500206,-14.060678448143234,-13.40820210245866
1770451880472,115,-13,-5.025291264620246,-12.853911487423233,-13.351612885075465
1770451880476,115,-13,-5.089061429740601,-12.6288040964855,-13.354516083080782
1770451880480,114,-14,-5.156909462493843,-13.428753697609462,-13.36572501105779
1770451880484,113,-15,-5.051209461852123,-13.865100499110737,-13.203984219376869
1770451880488,114,-14,-4.653595729451469,-13.230460168617071,-12.745890556472864
1770451880492,116,-12,-4.067215436054376,-11.694117439065275,-12.09501492875273
1770451880496,117,-11,-3.557968143795966,-10.7782316618333,-11.52204175654907
1770451880500,116,-12,-3.348098605624489,-11.299643828054364,-11.251466244958806
1770451880504,115,-13,-3.5163663956015077,-11.993347623102787,-11.358797356424336
1770451880508,115,-13,-4.1086007463518275,-12.10107112451156,-11.885719449137206
1770451880512,115,-13,-5.286416436576761,-12.840186988777251,-12.994392599688858
1770451880516,113,-15,-7.2965448817888,-14.60482675837545,-14.936148985817026
1770451880520,110,-18,-10.268373638539003,-17.485754883467262,-17.84332280410665
1770451880524,105,-23,-14.05089254149714,-21.81858813577532,-21.562461700981483
1770451880528,101,-27,-18.245998815055223,-26.269181882638684,-25.69016378140081
1770451880532,98,-30,-22.36777321738425,-29.71520946508934,-29.738115858128815
1770451880536,95,-33,-25.938062763290315,-32.64413901436205,-33.23113979116778
1770451880540,92,-36,-28.456283733786176,-35.510324032741096,-35.67384169646392
1770451880544,90,-38,-29.38172534905378,-36.714415260479214,-36.52817821607405
1770451880548,92,-36,-28.273754868117756,-35.46752958944077,-35.35200839763487
1770451880552,95,-33,-25.033777754702,-32.46320971454139,-32.04286527574695
1770451880556,101,-27,-20.025717395494286,-26.904473704517372,-26.96130281504567
1770451880560,107,-21,-13.918774105319349,-20.221705640653767,-20.77568634054765
1770451880564,113,-15,-7.344559373179101,-14.002229015147618,-14.11980768133838
1770451880568,120,-8,-0.6526040143575802,-7.248580545063744,-7.3470585080021715
1770451880572,127,-1,6.01128069456983,-0.649502322531053,-0.6059803641790551
1770451880576,133,5,12.358656543884608,5.2345161087255745,5.815701956075827
1770451880580,138,10,17.66629093442221,10.733178521389917,11.198102141928022
1770451880584,142,14,20.874716963000367,14.969251381510214,14.484325969034428
1770451880588,143,15,21.112396403815865,15.80961794726798,14.802768221330686
1770451880592,140,12,18.276813435633542,12.21269768265123,12.049855407910776
1770451880596,134,6,13.182858784018158,6.425699926455584,7.040371844799333
1770451880600,128,0,7.128865826211263,0.5216756244388816,1.072694794715524
1770451880604,122,-6,1.2341258498489518,-4.784457018916259,-4.735376493974691
1770451880608,118,-10,-3.9291682792893017,-9.440473864858005,-9.814063187758151
1770451880612,114,-14,-8.201403198300218,-13.54662645881667,-14.004653640525062
1770451880616,111,-17,-11.451576815598749,-16.765546813839173,-17.17424262129034
1770451880620,108,-20,-13.368639002095502,-19.349352444688385,-19.008434909432612
1770451880624,107,-21,-13.61617111368465,-19.83870669960795,-19.16886394989754
1770451880628,110,-18,-12.15441789158943,-17.47912620651637,-17.616917438248343
1770451880632,113,-15,-9.377515341511314,-14.408064860723684,-14.749802490707992
1770451880636,117,-11,-5.918927773053424,-10.966821574112432,-11.2031410499474
1770451880640,120,-8,-2.312622565194756,-7.105273870828977,-7.510509814593835
1770451880644,123,-5,1.1789144269071548,-4.117891099930006,-3.932378529691558
1770451880648,126,-2,4.446954562513792,-1.2510042581773302,-0.5760770457126423
1770451880652,130,2,7.301939198408972,2.448871430166297,2.368485476854734
1770451880656,133,5,9.402556101068368,5.099067035516202,4.559269330115548
1770451880660,133,5,10.442150478314794,5.932188177501855,5.690547299348138
1770451880664,133,5,10.405648670583853,5.741474954756301,5.748929546719208
1770451880668,132,4,9.632909643000009,4.91142723860574,5.0731751218756
1770451880672,132,4,8.60674337558778,4.286769004683361,4.141317713865485
1770451880676,131,3,7.617607283533109,3.2631206622428413,3.239960328830608
1770451880680,129,1,6.550218550059862,1.8448005597155068,2.2559930154632015
1770451880684,128,0,4.970860148195673,0.7340666015881561,0.7627708290954538
1770451880688,126,-2,2.519828990849453,-1.0249022487312134,-1.593909848183618
1770451880692,124,-4,-0.6168166549017686,-3.858656456252407,-4.628581725319501
1770451880696,120,-8,-3.5303812781947217,-7.491280736033418,-7.437800107847403
1770451880700,118,-10,-4.9511126709091675,-9.44515550343496,-8.757417865793018
1770451880704,119,-9,-3.986912170574307,-7.947826732336653,-7.698390547030793
1770451880708,123,-5,-0.7274068675176062,-4.378470774161205,-4.350059122852123
1770451880712,128,0,3.7453800324277657,0.5261409013538487,0.2087595795323249
1770451880716,133,5,7.961759887983087,5.15969262734194,4.51302615427956
1770451880720,135,7,10.855429768522198,7.872298411351338,7.500320721304396
1770451880724,136,8,12.20549541641996,8.717536212228005,8.950979627935375
1770451880728,136,8,12.492934665047333,8.880085796816745,9.343802287808687
1770451880732,137,9,12.380348311912314,9.34339602721366,9.336535641088568
1770451880736,137,9,12.253991111362922,9.335539249511427,9.310259210261044
1770451880740,137,9,12.122081087151267,9.76722322321515,9.270983396025928
1770451880744,137,9,11.81588359380397,9.741926427130476,9.052894834997126
1770451880748,135,7,11.218257073771168,7.851768029778992,8.545371894134963
1770451880752,135,7,10.325567127697962,7.364764473426866,7.749709518882482
1770451880756,135,7,9.194890479748867,7.365605597230826,6.722125554858277
1770451880760,133,5,7.934801005251954,5.757452097436734,5.566037154990584
1770451880764,132,4,6.761555666819748,4.7100983444829225,4.493568919826108
1770451880768,131,3,5.987213382066898,3.875807168261608,3.816607607789503
1770451880772,131,3,5.857340379433208,3.3110975990601705,3.782689492823228
1770451880776,132,4,6.343869696121381,4.4902701639979785,4.3648563235576265
1770451880780,133,5,7.0873738568418,5.6585248452377686,5.2036238189095405
1770451880784,133,5,7.5689148701361075,5.7533451109778815,5.780611593232454
1770451880788,133,5,7.398889361679267,5.851241825870073,5.707901573262076
1770451880792,133,5,6.525520877156001,5.251836417752708,4.9348492352505
1770451880796,131,3,5.237377239357629,3.655711666686247,3.749079831121944
1770451880800,130,2,3.975388318244094,2.473171749925114,2.5889357436188956
1770451880804,129,1,3.082873464534917,1.9452042428860816,1.7953042043154226
1770451880808,129,1,2.6469263887306123,1.6354242451006074,1.454729324837287
1770451880812,129,1,2.5091470490074324,1.4309442396068095,1.4105726408156176
1770451880816,129,1,2.4095203679670796,1.5689973063511,1.4055958537481743
1770451880820,129,1,2.1586290331522298,1.5230722392970324,1.2522183693068076
1770451880824,128,0,1.7375532176984456,0.9264371911216732,0.9313841300937692
1770451880828,128,0,1.27986020868827,0.5818100553589118,0.5748639186704514
1770451880832,128,0,0.9634044041134724,0.494482443477988,0.3581951204647983
1770451880836,128,0,0.8885682712997218,0.5580567974934155,0.3803084244210547
1770451880840,128,0,1.0141757169222436,0.5332968181239843,0.600305638475968
1770451880844,128,0,1.1797952234816855,0.9364755087021048,0.8595002701214716
1770451880848,129,1,1.1972897769954316,1.4916730122610469,0.9718987771837312
1770451880852,128,0,0.9591697052720584,0.6209109832089335,0.8312808752886585
1770451880856,128,0,0.5024110060977198,0.4298823989056941,0.4739564151245123
1770451880860,128,0,-0.0045053303062188,0.7280398288667398,0.0660178474873969
1770451880864,127,-1,-0.345149994574311,-0.3153210343575213,-0.1781563034563986
1770451880868,127,-1,-0.3779553740789403,-0.2588756493714629,-0.1168577011024918
1770451880872,128,0,-0.1351958587102397,0.3541158069977592,0.2192832457082905
1770451880876,128,0,0.1834828588437631,0.7359518745161931,0.631743581905252
1770451880880,129,1,0.3434156099202701,1.4582037524948812,0.8859498187170144
1770451880884,128,0,0.2373682063655835,0.9281121993867004,0.8747417756083847
1770451880888,128,0,-0.057709922337328,0.457696794331715,0.6753248593267189
1770451880892,128,0,-0.3671723131666966,0.6379984892555713,0.4617029653281385
1770451880896,128,0,-0.5545057918471961,0.4834419524931289,0.3687082470174537
1770451880900,128,0,-0.5899409999403413,0.7452716765803123,0.4251943189921042
1770451880904,128,0,-0.5231396652423164,0.6488420538076352,0.5827561077353169
1770451880908,128,0,-0.4119443180313156,0.6552380155444197,0.7857341879964701
1770451880912,129,1,-0.264312441031147,1.482586480213934,1.026852029859566
1770451880916,129,1,-0.0225201519505187,1.619966603194973,1.3625063455782709
1770451880920,129,1,0.397011834960665,1.6996668251982472,1.8745453357522113
1770451880924,130,2,1.0216709238269717,2.6385149213846617,2.5895692347928323
1770451880928,131,3,1.7585857525430022,3.657764616673125,3.415064851560651
1770451880932,132,4,2.412719245541224,4.439133974685004,4.157416559940576
1770451880936,132,4,2.783084510756642,4.730869288287007,4.617480895449008
1770451880940,132,4,2.7679048984954093,4.606906410911074,4.693841170205419
1770451880944,132,4,2.415311192407896,4.713470152401869,4.432297690848404
1770451880948,132,4,1.897745369814271,4.560755267240082,4.002525875161588
1770451880952,131,3,1.41463346623135,3.4825094140827484,3.604538874022507
1770451880956,130,2,1.0662912676526826,2.8047837646887057,3.3423401356718863
1770451880960,131,3,0.8043304732930188,3.479677417563449,3.169384163929664
1770451880964,131,3,0.5434244270642696,3.920000838215956,2.997514888293659
1770451880968,131,3,0.349857435535335,3.2255885377428033,2.8893584559971615
1770451880972,130,2,0.4805589725368975,2.8824140368968454,3.1026960129488916
1770451880976,131,3,1.16749201152214,3.4023443297024007,3.8738830175399017
1770451880980,132,4,2.3430493021479606,4.910124731021577,5.136887844285991
1770451880984,135,7,3.617248574387106,7.525785641016385,6.497552951249476
1770451880988,136,8,4.563237178572044,8.518447089709673,7.524317469148707
1770451880992,135,7,5.01622243963468,7.673125170967717,8.053984499344477
1770451880996,135,7,5.073502581406476,7.524514976745067,8.190571262769797
1770451881000,135,7,4.843147337625753,7.91261457923462,8.04564486121118
1770451881004,136,8,4.283392823606058,8.417659974837967,7.573158702797328
1770451881008,135,7,3.329271496030813,7.720519117068454,6.701413724455966
1770451881012,133,5,2.1117540572915225,5.384650687964552,5.560244593944507
1770451881016,131,3,0.9487121534374436,3.875088833379999,4.472331873531637
1770451881020,131,3,0.0819299949561989,3.543338590305418,3.683354116805196
1770451881024,131,3,-0.5390579862136504,3.782381661127351,3.1416053887041295
1770451881028,131,3,-1.1774534045561635,3.415289757803682,2.5808428985995753
1770451881032,129,1,-2.0266377449243733,1.6213744161161272,1.8075755612169035
1770451881036,128,0,-3.0198441458985847,0.71180919684924,0.8905809748903439
1770451881040,128,0,-3.892717297466656,0.6081489344091107,0.0944754022333573
1770451881044,127,-1,-4.407169444232409,-0.1871830600940832,-0.3445331329990708
1770451881048,127,-1,-4.54225131247335,-0.6665211896296941,-0.4066378572544731
1770451881052,127,-1,-4.516110090739294,-0.217945568546573,-0.3093120237360752
1770451881056,128,0,-4.62007153530598,0.4758431824696851,-0.3427358231844588
1770451881060,127,-1,-4.981497886985663,-0.1240501240600542,-0.6331578582673765
1770451881064,126,-2,-5.453625745432372,-1.4739667574661084,-1.0325161334288466
1770451881068,126,-2,-5.736005062158054,-1.3482850341994026,-1.240378000005047
1770451881072,127,-1,-5.610040239499881,-0.5278925861399666,-1.041148827562152
1770451881076,127,-1,-5.072988800831254,-0.2320204670376591,-0.4362354327531693
1770451881080,128,0,-4.278370204941506,0.5953848060789833,0.4199648744566704
1770451881084,129,1,-3.371172694767333,1.808119988516061,1.3869359982305212
1770451881088,130,2,-2.3533017146983717,2.382421028246572,2.469488212840294
1770451881092,131,3,-1.03631546235261,3.735740309883023,3.8589158860709807
1770451881096,134,6,0.9371681350852754,6.518078255401194,5.9081906132615565
1770451881100,137,9,4.007014961361071,9.81406769814279,9.049102793442394
1770451881104,141,13,8.490798751497573,13.656710966307864,13.595057965039723
1770451881108,146,18,14.262824190940934,18.486588755328835,19.42317525237369
1770451881112,153,25,20.516518080218564,25.682857480650465,25.732223244431992
1770451881116,160,32,25.90077998723629,32.523654477885046,31.173743181638947
1770451881120,162,34,29.073123465986892,34.831709183223175,34.405327942010494
1770451881124,162,34,29.320331715042386,34.640651231235346,34.71378969273037
1770451881128,160,32,26.806469398249323,32.472832914824174,32.26296250718923
1770451881132,155,27,22.326265637978647,27.70151978932802,27.845613085362608
1770451881136,150,22,16.822036668158773,22.477884366673138,22.401393028347712
1770451881140,144,16,11.027725292332628,16.96117200950123,16.663400488550767
1770451881144,139,11,5.421736992242506,11.486601612127874,11.111525840710588
1770451881148,134,6,0.3987598365864944,6.667415255842181,6.142388706376496
1770451881152,130,2,-3.5862142006303728,2.459242261210309,2.2116821188414573
1770451881156,127,-1,-6.089547042648586,-0.2709995072573475,-0.2374200497979761
1770451881160,126,-2,-6.9327752896901815,-1.235845940654573,-1.0273012219407125
1770451881164,127,-1,-6.406267305198815,-0.3332508665456222,-0.4492521243603936
1770451881168,129,1,-5.1993567230985525,1.5322640455160454,0.8067462151511207
1770451881172,130,2,-4.062349134157268,2.522022506787773,1.990963286394947
1770451881176,130,2,-3.4462098940293138,2.696549069078245,2.6545146245439732
1770451881180,130,2,-3.379661863790879,2.7855923052825897,2.7706876944658565
1770451881184,130,2,-3.623292948306107,2.673034751624107,2.578747580593494
1770451881188,130,2,-3.916956819643936,2.520053972764672,2.33628790704274
1770451881192,130,2,-4.113743216916889,2.5312760224310575,2.1871931748084408
1770451881196,130,2,-4.1503780555763665,2.6853596450113084,2.19371535331866
1770451881200,130,2,-3.965742489030775,2.819118468633799,2.4190185736613725
1770451881204,130,2,-3.4990945771334285,2.6474963086879493,2.9273155764123193
1770451881208,131,3,-2.772932020693242,3.5465452387390495,3.6975616217405127
1770451881212,133,5,-1.9393367934132475,5.492587879614197,4.57552075847125
1770451881216,133,5,-1.2020198188654032,5.741120135804892,5.354314862768905
1770451881220,133,5,-0.6823105925776245,5.75799326107167,5.912211380190355
1770451881224,134,6,-0.368576617411438,6.748781834878483,6.263502669645087
1770451881228,134,6,-0.1855214663826982,6.3978356651815735,6.485957445040046
1770451881232,134,6,-0.0865413673372994,6.660292152521368,6.625629765604671
1770451881236,135,7,-0.0676701608122651,7.586417082614685,6.683550722995515
1770451881240,134,6,-0.1143344891351239,6.915323385554905,6.672342706416378
1770451881244,134,6,-0.1835955799012762,6.622549652009848,6.636158419920458
1770451881248,134,6,-0.2773788288867957,6.4924551412380245,6.575630282963341
1770451881252,134,6,-0.5245446425678439,6.554379011182829,6.3624193636897
1770451881256,134,6,-1.14725314278811,6.735838521108004,5.772668123073249
1770451881260,132,4,-2.315637060048041,4.754326143611614,4.635371951008868
1770451881264,130,2,-4.031535470514536,2.821307729150414,2.9501273668017634
1770451881268,129,1,-6.147535525684265,1.246847172125911,0.8658541236646022
1770451881272,126,-2,-8.478750817462798,-1.207249786428874,-1.4334109434683664
1770451881276,124,-4,-10.89381488600341,-3.4565214809593474,-3.818738917642557
1770451881280,121,-7,-13.33038766807538,-6.054794765391409,-6.229182787664134
1770451881284,119,-9,-15.758946197482988,-8.318185280899284,-8.634221907007653
1770451881288,117,-11,-18.135788882165944,-10.701061742815158,-10.987668315427165
1770451881292,114,-14,-20.362754414327313,-13.203216809368197,-13.189384619396773
1770451881296,113,-15,-22.25520225706779,-14.498070937021255,-15.05471527751789
1770451881300,111,-17,-23.532056012750616,-15.91746856613149,-16.304349284551765
1770451881304,111,-17,-23.863656301001384,-16.50173209100212,-16.610734418640995
1770451881308,112,-16,-22.99700532043747,-15.51063450456648,-15.722035443332729
1770451881312,114,-14,-20.910569009514653,-13.414415501800809,-13.616526508639751
1770451881316,117,-11,-17.896162673938406,-10.264474216531672,-10.58475799758679
1770451881320,120,-8,-14.490193266005834,-7.0912426130068,-7.16165560045785
1770451881324,124,-4,-11.268219980695848,-3.363992826768967,-3.92206805423687
1770451881328,127,-1,-8.6109904110447,-0.6489642258971973,-1.2468755051371627
1770451881332,128,0,-6.582684984463384,0.6784003991568368,0.7995830358601606
1770451881336,130,2,-4.99297044968605,2.6809910351343804,2.407700687816408
1770451881340,131,3,-3.578788070794769,4.01008981943571,3.8400176286533703
1770451881344,133,5,-2.1598005414828485,5.505860799231951,5.275377690229
1770451881348,135,7,-0.6749046272333667,7.512044103760629,6.773495441961764
1770451881352,136,8,0.8667246241802471,8.44555028079468,8.325445868828101
1770451881356,137,9,2.4240963284354544,9.990907765985552,9.892189030369218
1770451881360,139,11,3.912762554012206,11.698860849305191,11.391185085253278
1770451881364,140,12,5.196053144169938,12.831733478058858,12.685931815663238
1770451881368,142,14,6.142156983828284,14.171947766405337,13.643241700041996
1770451881372,142,14,6.725266374497994,14.753818491896938,14.236171064384566
1770451881376,142,14,7.0729490492546905,14.733945301738853,14.592634704065995
1770451881380,142,14,7.391527060958225,14.947276689902663,14.919893918473772
1770451881384,143,15,7.817054055851676,15.634264043146723,15.353610898873953
1770451881388,144,16,8.317335226655725,16.299676604345613,15.859705616530372
1770451881392,144,16,8.72088217905322,16.676067689486246,16.26563284975543
1770451881396,144,16,8.830390416268292,16.784794183066303,16.375828872776466
1770451881400,143,15,8.525489383707967,15.958003272161504,16.073127152041316
1770451881404,143,15,7.8124513630166,15.595511556082668,15.365023697400025
1770451881408,143,15,6.841158617239398,15.33215722712481,14.399437278800123
1770451881412,141,13,5.891032268727362,13.649421353670004,13.453223321719076
1770451881416,140,12,5.282292606250743,12.81333693079976,12.846060473953704
1770451881420,140,12,5.213159726226643,12.998164606523703,12.776883695705656
1770451881424,141,13,5.627769815286088,13.492698938371891,13.189691868395665
1770451881428,142,14,6.2292326654738615,14.489025687183156,13.786930350370383
1770451881432,142,14,6.631024135543332,14.441959825631992,14.182937225388471
1770451881436,141,13,6.532769366778718,14.069611762195544,14.079749426567847
1770451881440,141,13,5.827515059163926,13.752456989261226,13.371834912817455
1770451881444,140,12,4.63149658501821,12.702169104879005,12.174423910857495
1770451881448,139,11,3.2521336975531367,11.325575710116835,10.79316133011398
1770451881452,137,9,2.0840940337371645,9.550584395402652,9.622023192800905
1770451881456,136,8,1.4458760787134302,9.050482176874048,8.979099626816305
1770451881460,137,9,1.4390044803275492,9.723406541491627,8.964425262581063
1770451881464,137,9,1.9169389651404103,9.78360621298648,9.430284615628684
1770451881468,138,10,2.5651702799799603,10.205095564196268,10.063938426182178
1770451881472,138,10,3.0309459135521677,10.69531751639872,10.51694317217932
1770451881476,138,10,3.061710008229018,10.913661682216947,10.53986265565342
1770451881480,138,10,2.6320494315308975,10.84854420130471,10.10623632670772
1770451881484,137,9,1.998186594482561,9.704029304312954,9.467742022595502
1770451881488,137,9,1.596259974024262,9.224860171640056,9.055916545250902
1770451881492,137,9,1.7853249829566356,9.742094443885012,9.228700712851207
1770451881496,137,9,2.5780448275946637,9.836874538693127,10.002090749318786
1770451881500,138,10,3.566869203749574,10.95572220578286,10.973366112878258
1770451881504,140,12,4.1575061078754985,12.632311675098103,11.550162257250166
1770451881508,140,12,3.990831018676622,12.222724990317536,11.371365979099805
1770451881512,138,10,3.23137766771175,10.827009067448197,10.598829678944188
1770451881516,137,9,2.4527101761942305,9.671825973100344,9.805542342139969
1770451881520,136,8,2.1878241641583713,9.200750329530967,9.52503702800314
1770451881524,138,10,2.5319243538819864,10.363072096053116,9.851916434596529
1770451881528,139,11,3.141663251474093,11.520906749277346,10.441651411583711
1770451881532,139,11,3.594003267396151,11.541467053939291,10.87206566137747
1770451881536,138,10,3.7398931195051777,10.93296825146993,10.997187107971682
1770451881540,138,10,3.7411296525705735,10.956031426295295,10.980668598339353
1770451881544,139,11,3.819342683188847,11.592689772235682,11.042215614504425
1770451881548,139,11,3.997656881765991,11.33181517414506,11.201204796993853
1770451881552,139,11,4.06457688595657,11.737390368110166,11.244602100764125
1770451881556,139,11,3.758415862565368,11.748215742223074,10.91280872119114
1770451881560,137,9,2.994382238860286,10.110312834930038,10.12445931978187
1770451881564,137,9,1.953041980605256,9.452095363380828,9.061620645264988
1770451881568,136,8,0.9812419820514152,8.491779169722257,8.06967337203331
1770451881572,135,7,0.3964889082668297,7.589254078770351,7.463552665157215
1770451881576,135,7,0.3287198005241067,7.927259216813017,7.371888818348659
1770451881580,135,7,0.6812976925857839,7.892816822139351,7.698334667757992
1770451881584,136,8,1.20939464789641,8.692789578836738,8.19867938135185
1770451881588,137,9,1.6481019477845518,9.262327855002855,8.608433623799215
1770451881592,136,8,1.8047433425238504,8.828919162269347,8.735924995184817
1770451881596,136,8,1.5769516816923612,8.708099696881188,8.480506712387593
1770451881600,135,7,0.938681842451385,8.071087221513011,7.817010409085371
1770451881604,135,7,-0.0377549226448294,7.545829679303335,6.8164750372319185
1770451881608,134,6,-1.1322369347579726,6.402074350968039,5.696546358937837
1770451881612,132,4,-1.998568509907146,4.7480468666418645,4.801832691217891
1770451881616,132,4,-2.3221838943819075,4.746540953358875,4.447071216401957
1770451881620,132,4,-2.0309895803045053,5.069314951819855,4.705647111873933
1770451881624,133,5,-1.3825328989366743,5.505547894795533,5.32149178090494
1770451881628,134,6,-0.8262370950540385,6.51280682309178,5.846158071737519
1770451881632,134,6,-0.7196442896239097,6.634760842079187,5.922216526173727
1770451881636,133,5,-1.1050332909209812,5.8439622884675835,5.506828366531357
1770451881640,132,4,-1.7163881314820677,4.978452853927363,4.865250526477805
1770451881644,132,4,-2.2037357167813387,4.562603954300506,4.346774526661264
1770451881648,132,4,-2.38473441647172,4.529348834835748,4.133302188152713
1770451881652,132,4,-2.323598235543574,4.623554389152526,4.160620481907534
1770451881656,132,4,-2.199569354552416,4.858664801088754,4.24996758855216
1770451881660,132,4,-2.108558106356586,4.951365344613597,4.306231116746833
1770451881664,132,4,-1.986056001380409,4.565072468701707,4.394673993646313
1770451881668,132,4,-1.714549116917771,4.584926452873976,4.632821936714919
1770451881672,133,5,-1.2977587534132118,5.569675835833321,5.015787545277464
1770451881676,133,5,-0.9204297327248638,5.93996532999909,5.357388204940788
1770451881680,133,5,-0.8307733008394476,5.827999343754142,5.4094302395437355
1770451881684,133,5,-1.155812696133138,5.706141153178804,5.046762120640867
1770451881688,132,4,-1.810598879395218,4.452977343954117,4.356238015044417
1770451881692,131,3,-2.5596583207570336,3.725898895830595,3.573131915153441
1770451881696,131,3,-3.1568028953646565,3.806346991279979,2.941477900500461
1770451881700,130,2,-3.454377121298803,2.9194478165525393,2.6071741733300047
1770451881704,130,2,-3.43482722684304,2.6583882468561835,2.5879668230879944
1770451881708,131,3,-3.179334508302021,3.480268707872838,2.8039177163921587
1770451881712,131,3,-2.8052604317983727,3.7632318106386577,3.138612708891377
1770451881716,131,3,-2.410855147603716,3.7280346224658394,3.494422851215306
1770451881720,131,3,-2.061629814690255,4.034362368501903,3.806173812723062
1770451881724,132,4,-1.809421460657631,4.493847868015035,4.021313844466258
1770451881728,132,4,-1.698248400555069,4.707823914107488,4.094156048081473
1770451881732,132,4,-1.742130243491717,4.526978782707817,4.0098382558759145
1770451881736,131,3,-1.913461201445258,3.994517460800631,3.797171462778107
1770451881740,131,3,-2.1680544650372875,3.737242335095911,3.502317683083273
1770451881744,131,3,-2.4723010887669625,3.801375673347437,3.1594169305400666
1770451881748,131,3,-2.788580946345585,3.4128938174606636,2.804804185847815
1770451881752,130,2,-3.039002544169985,2.86130348535092,2.5147651545667684
1770451881756,130,2,-3.1098404591856212,2.6604713769475143,2.4023694481919406
1770451881760,130,2,-2.9138412421439517,3.0491646463456363,2.5554181870850896
1770451881764,131,3,-2.4555082229074885,3.507682145491212,2.97097541198226
1770451881768,131,3,-1.833559093746389,3.6961984239789705,3.5520204030164857
1770451881772,132,4,-1.1654891512333352,4.66712009895246,4.1811371444529675
1770451881776,133,5,-0.4837523218915216,5.778270817126282,4.823758398252567
1770451881780,133,5,0.3023542698145705,6.004006208482909,5.568417267717977
1770451881784,134,6,1.3089891306680963,6.451625016141248,6.5314387878160955
1770451881788,135,7,2.498169049225744,7.876104124436171,7.676741768108818
1770451881792,137,9,3.5917677028139297,9.435281852762332,8.727379489785417
1770451881796,137,9,4.203839886531441,10.070648003381258,9.29706726770355
1770451881800,137,9,4.105125931865363,9.678721713626796,9.15598203680642
1770451881804,136,8,3.3893074089550184,8.742850169908479,8.39797752395451
1770451881808,135,7,2.3948824552574832,7.660724968004003,7.361971825523407
1770451881812,134,6,1.456705740270838,6.600390897253437,6.3826266276894605
1770451881816,133,5,0.700343567532318,6.0098519036012,5.584533807616372
1770451881820,133,5,0.0361001985965923,5.661924330175067,4.876910570637037
1770451881824,132,4,-0.676732589655848,4.794671603057507,4.118935809400941
1770451881828,131,3,-1.4701948750688734,3.6197463646612498,3.279942641185483
1770451881832,130,2,-2.2592757759997086,2.625601740144675,2.4468419839387217
1770451881836,129,1,-2.963287210702033,2.0703958587150875,1.7009423815338316
1770451881840,129,1,-3.603880711747837,1.506982929361263,1.0191755335030623
1770451881844,128,0,-4.26659570314677,1.0383846523236735,0.3138664674322944
1770451881848,128,0,-4.9724827408880845,0.3226863890040183,-0.4366830985680494
1770451881852,126,-2,-5.60964911836289,-1.023863869573684,-1.1190085302413153
1770451881856,126,-2,-6.010625005239958,-1.2669027176664598,-1.563585331607388
1770451881860,126,-2,-6.101563282359219,-1.1994823612174563,-1.6964286471299326
1770451881864,126,-2,-5.97109181873594,-1.1825514364974108,-1.6082351892705722
1770451881868,127,-1,-5.794404029761554,-0.5229124155943956,-1.4761752174225924
1770451881872,126,-2,-5.698865690054463,-1.0581868258862774,-1.4270929469345952
1770451881876,126,-2,-5.704996285123556,-1.3419616536986814,-1.478737691677047
1770451881880,126,-2,-5.77778539930267,-1.0235801405348852,-1.59394677766273
1770451881884,126,-2,-5.898606394297596,-1.4490035988841727,-1.755064908007585
1770451881888,126,-2,-6.06009962198434,-1.1640115725232487,-1.958227768828499
1770451881892,126,-2,-6.194152300452216,-1.4173554233591883,-2.138027201309132
1770451881896,125,-3,-6.131045807449658,-2.006829685473999,-2.1237694326191825
1770451881900,126,-2,-5.650277799719236,-1.3060674932702372,-1.6907035825321095
1770451881904,127,-1,-4.567109693567091,-0.2518625295786978,-0.6500918967635236
1770451881908,129,1,-2.751454346284177,1.77324771783697,1.1283021615577735
1770451881912,132,4,-0.0692045119227717,4.574262833554413,3.7743640277488866
1770451881916,135,7,3.630767466802291,8.090497100023311,7.433890787869522
1770451881920,140,12,8.355960767785767,12.508968388450093,12.112316554040495
1770451881924,144,16,13.684404586870189,16.986204612605725,17.390153526134746
1770451881928,150,22,18.615910121984527,22.534335312076408,22.271319365541615
1770451881932,154,26,21.826057086951813,26.84673067410922,25.433887358265657
1770451881936,154,26,22.28372537933211,26.830175061057247,25.84764023092129
1770451881940,151,23,19.827386469645795,23.698525725412953,23.351653459320588
1770451881944,146,18,15.261598561858309,18.841316576415043,18.74987705328674
1770451881948,141,13,9.904170283639262,13.628835581887964,13.356740362185262
1770451881952,136,8,4.926956488139197,8.87597835580626,8.339567953918213
1770451881956,132,4,0.9238431866234884,4.772776937863085,4.290432760333391
1770451881960,129,1,-2.096225073236435,1.7954152520937956,1.220682507277289
1770451881964,127,-1,-4.402757796636384,-0.2969557987783306,-1.134826697438016
1770451881968,125,-3,-6.2032214828071535,-2.208476498292936,-2.980206283647449
1770451881972,123,-5,-7.507113544099091,-4.258216216721669,-4.3240867694862715
1770451881976,122,-6,-8.232594542591771,-5.0662337877186685,-5.086681793239748
1770451881980,123,-5,-8.38751863857977,-4.385233390919568,-5.279969424911769
1770451881984,123,-5,-8.130633046411699,-4.117528254699804,-5.065818429952333
1770451881988,123,-5,-7.68668275029976,-4.382901259182626,-4.668063513520361
1770451881992,123,-5,-7.239592867134096,-4.039144716801984,-4.266634923527535
1770451881996,124,-4,-6.896377915421758,-3.282024415714755,-3.9656514706003407
1770451882000,124,-4,-6.697619019518011,-3.1812223497409917,-3.806288669795661
1770451882004,124,-4,-6.621583714446065,-3.3260478128712707,-3.7693315318317766
1770451882008,124,-4,-6.585222124391563,-3.1528779105034443,-3.7734753969107966
1770451882012,124,-4,-6.47382121165939,-3.243690648059726,-3.704065301471005
1770451882016,124,-4,-6.199319862540326,-3.0531605204720473,-3.4721366886911453
1770451882020,125,-3,-5.749112036382856,-2.442391950381937,-3.0641116179458816
1770451882024,125,-3,-5.187034032151941,-2.034192111083958,-2.5432093967814557
1770451882028,126,-2,-4.603900869400019,-1.4653923671364582,-2.000189201830698
1770451882032,126,-2,-4.054186494482046,-0.854759041641862,-1.4901265839778872
1770451882036,127,-1,-3.5270587620017775,-0.4794386170236526,-1.003067680266689
1770451882040,127,-1,-2.9759739342514377,0.007425051188783,-0.4927923109176089
1770451882044,128,0,-2.385296974773282,0.4989077840910731,0.0569649887823788
1770451882048,128,0,-1.8151931236256449,1.0156805766127786,0.5869479854076165
1770451882052,129,1,-1.374254760783404,1.724664321231697,0.9887098445993352
1770451882056,129,1,-1.1315426958993635,1.9048051957274192,1.192448053022329
1770451882060,129,1,-1.0458006487811704,1.6645671387331116,1.238726267226547
1770451882064,129,1,-0.986041614252811,1.7846914935945546,1.2587187678847989
1770451882068,129,1,-0.8339933763686718,1.7966522466266577,1.3715168678041918
1770451882072,129,1,-0.5748388643791886,1.9437572748260692,1.5923422029524597
1770451882076,130,2,-0.2869078991595737,2.714329801007571,1.8422513987388884
1770451882080,130,2,-0.0376765587303618,2.854576635622424,2.052857087251284
1770451882084,130,2,0.2082307076103782,2.555041094457983,2.259593796477904
1770451882088,130,2,0.5696487920919646,3.09575728912169,2.582463548785684
1770451882092,131,3,1.133036262078122,3.614063032872458,3.1088789131911625
1770451882096,131,3,1.8570765957253847,4.116676377293474,3.796941469921642
1770451882100,133,5,2.5947853052283723,5.407171847276521,4.497831918279616
1770451882104,133,5,3.209839977124982,6.017242563430849,5.074126736599684
1770451882108,133,5,3.6661469871875543,5.651985436212314,5.490972708356984
1770451882112,133,5,4.0028998052417055,6.0498156408868,5.790061602061982
1770451882116,134,6,4.243588283054363,6.755402371116517,5.995806007589524
1770451882120,134,6,4.36404526584803,6.683478932639706,6.082334294021092
1770451882124,134,6,4.361531793384979,6.838972402220488,6.044618804966457
1770451882128,134,6,4.329619072100903,6.7522172461827825,5.975894502137717
1770451882132,133,5,4.425333836899863,6.047290834726606,6.034800172968035
1770451882136,134,6,4.739727793624662,6.711619718013755,6.3136293129268735
1770451882140,135,7,5.204423300245312,7.766881550027393,6.743420440201173
1770451882144,135,7,5.637776283945888,7.746133124021922,7.141397422924657
1770451882148,135,7,5.886717446314146,7.860506839681497,7.354672861633122
1770451882152,135,7,5.930170123801193,7.970598178814307,7.363352772859668
1770451882156,135,7,5.866558439021379,7.761133166680628,7.26633940695316
1770451882160,135,7,5.820388392913704,7.7528636605631025,7.18735890650297
1770451882164,135,7,5.854234085177968,7.751816574281831,7.187969900956116
1770451882168,135,7,5.945026875843451,7.880093319659776,7.244871483375189
1770451882172,135,7,6.023766054222146,7.978246005964964,7.289553062728957
1770451882176,135,7,6.033525821883573,7.729590795971967,7.26556742022431
1770451882180,135,7,5.9581546003370915,7.814584518093301,7.156874618914352
1770451882184,135,7,5.806409524717416,7.682597200857568,6.972342977251997
1770451882188,134,6,5.574040014474178,6.974396270751064,6.708029880344601
1770451882192,134,6,5.225964712323009,6.909119702064677,6.328744241318899
1770451882196,134,6,4.726003844777158,6.7783889562576976,5.797475814706663
1770451882200,133,5,4.088676585919325,5.798530735995378,5.1282247888473895
1770451882204,132,4,3.3862630418185544,4.679361020224811,4.393908276039066
1770451882208,131,3,2.6860247390194116,4.028839614283063,3.6625342841791992
1770451882212,131,3,1.9839955675986216,3.8342242088645655,2.929656221626665
1770451882216,130,2,1.2163502528101289,2.893479506328851,2.1305653233622968
1770451882220,129,1,0.3378156356564232,1.656625534996744,1.2205198275157578
1770451882224,128,0,-0.6176468817351739,0.867761638566491,0.2351790013859351
1770451882228,127,-1,-1.5468625351398892,-0.1841952695603295,-0.7216974002925687
1770451882232,126,-2,-2.33551566875963,-0.9048571843620592,-1.5375372182695235
1770451882236,126,-2,-2.916628970674882,-1.385950562975084,-2.14782974922188
1770451882240,125,-3,-3.307651334148258,-2.0290105534466503,-2.5705365995064526
1770451882244,125,-3,-3.621794631465775,-2.4542842764265775,-2.916759564455055
1770451882248,124,-4,-4.035853825602416,-2.844540310955395,-3.3607297397314673
1770451882252,124,-4,-4.6949765175886276,-3.229892890376961,-4.047089569854099
1770451882256,123,-5,-5.5873975765426005,-4.065087841855648,-4.965613653201999
1770451882260,122,-6,-6.488868990278418,-5.312207662618389,-5.893483082496455
1770451882264,121,-7,-7.058324874949565,-6.199725390448885,-6.489664246480685
1770451882268,121,-7,-7.041019178210418,-6.050559225678746,-6.499022782097493
1770451882272,122,-6,-6.423834345049032,-5.041100183110679,-5.908901279622334
1770451882276,123,-5,-5.4224625426518624,-4.207646048627295,-4.935772849893725
1770451882280,124,-4,-4.332141635155054,-3.174398680744178,-3.874513012995884
1770451882284,125,-3,-3.3799328842725984,-2.3273528472838247,-2.950524703675484
1770451882288,125,-3,-2.678517872645993,-1.930535419201406,-2.2750794926784135
1770451882292,126,-2,-2.264018755962194,-1.1430323399057505,-1.884595839015184
1770451882296,126,-2,-2.1339024107621065,-1.0870878047356465,-1.7782641326791833
1770451882300,126,-2,-2.238419184526755,-1.2767664504340122,-1.9077275749088436
1770451882304,126,-2,-2.4589502659539453,-1.2244641762516313,-2.1540171549184066
1770451882308,125,-3,-2.6338930306986152,-2.029065361850943,-2.3539826766120626
1770451882312,125,-3,-2.638364191482578,-2.0404015986409023,-2.382105806126489
1770451882316,126,-2,-2.453019079135761,-1.1510213275667631,-2.220424856062536
1770451882320,126,-2,-2.160478299179983,-1.2043945901624844,-1.9532429326944316
1770451882324,126,-2,-1.8851324337162272,-1.289647227301172,-1.704424755253055
1770451882328,126,-2,-1.7380373347949891,-0.960683088943262,-1.5825620882547298
1770451882332,126,-2,-1.7871222988865434,-1.1129782254221738,-1.6540478516487247
1770451882336,126,-2,-2.0260551022586344,-1.0520202575660536,-1.913614649837506
1770451882340,126,-2,-2.3439420718718393,-1.2637830335902311,-2.252545128825679
1770451882344,125,-3,-2.5494772385218214,-2.259933903521522,-2.4804856732383387
1770451882348,125,-3,-2.475429284663551,-1.9494804624550437,-2.429660388565468
1770451882352,126,-2,-2.0956906869367593,-1.1596123081328016,-2.073207475673983
1770451882356,126,-2,-1.5509005285203958,-0.9504219022038818,-1.551371331769448
1770451882360,127,-1,-1.0568674175206754,-0.3410084967416291,-1.0796090257266011
1770451882364,127,-1,-0.7713787109063851,-0.1954402327141657,-0.8154918190994724
1770451882368,127,-1,-0.7170517078438213,-0.0011425412630008,-0.7818760966461
1770451882372,127,-1,-0.8048238364772209,-0.1337601193097382,-0.8900786503465388
1770451882376,126,-2,-0.9287977626576,-0.9190396832283394,-1.0343842404611063
1770451882380,127,-1,-1.048592842954639,-0.3609261875588538,-1.1746965883642406
1770451882384,127,-1,-1.1842166091482578,-0.1617336507281339,-1.3313159449341532
1770451882388,126,-2,-1.336856941052726,-1.0374786657225727,-1.5048580135336491
1770451882392,126,-2,-1.4312612470577144,-1.121892192213768,-1.6187987985861936
1770451882396,126,-2,-1.3462977307670891,-0.848693991135907,-1.551797371264632
1770451882400,127,-1,-0.9995334788623732,-0.483063261784757,-1.2230636278598088
1770451882404,127,-1,-0.4092660452000893,0.0642023097930954,-0.6526163394576452
1770451882408,128,0,0.3007162802389553,0.6406738708906876,0.0360735381166155
1770451882412,128,0,0.9437454174052288,1.2725886844793892,0.6583949401373815
1770451882416,129,1,1.3434515158190687,1.7371335490769293,1.0395521656755222
1770451882420,129,1,1.4164741054938166,1.9660284951269704,1.0958594281787415
1770451882424,129,1,1.2210567702201138,1.64608569524545,0.8840672078480443
1770451882428,128,0,0.9248033609908348,1.0113738346106136,0.5706802903196537
1770451882432,128,0,0.697327853466908,0.953462897193939,0.3252417307824653
1770451882436,128,0,0.6031367259358718,1.031321708270728,0.2128189113544649
1770451882440,128,0,0.578052211476568,0.7457164473308096,0.169811572647013
1770451882444,128,0,0.503710493117615,0.8485248299667572,0.0780305641673018
1770451882448,128,0,0.3153695453898222,0.8230079195967488,-0.1274569315920077
1770451882452,127,-1,0.0542672888104484,0.1235248086332561,-0.405402358039145
1770451882456,127,-1,-0.1770939043324658,-0.1086571761688799,-0.652797916917836
1770451882460,127,-1,-0.3127630306890415,-0.083746082500367,-0.803435236941245
1770451882464,127,-1,-0.3788823979687782,-0.3083745197452141,-0.8843991989791695
1770451882468,127,-1,-0.4523690279315741,-0.0247399751784147,-0.9742076323046692
1770451882472,127,-1,-0.570101114697156,-0.0229505602739328,-1.1099116227045471
1770451882476,126,-2,-0.69274848168306,-0.9606348768106504,-1.2499378424418204
1770451882480,126,-2,-0.7636178395844844,-1.1766411037586608,-1.3352418285521097
1770451882484,127,-1,-0.7801390275132213,-0.2332204759113132,-1.3639380633827896
1770451882488,127,-1,-0.7771468461184501,-0.0688733825829333,-1.3739474558038869
1770451882492,126,-2,-0.7506355294864796,-1.0015867195836856,-1.362932786636572
1770451882496,126,-2,-0.6454911909009643,-0.9449310643426752,-1.2744326096227567
1770451882500,127,-1,-0.4418831651807451,-0.1801103008682925,-1.0865831276591154
1770451882504,127,-1,-0.2302356879283887,-0.2222916820357925,-0.8893468129773836
1770451882508,127,-1,-0.1687574274898836,-0.0570185386266524,-0.8415204311479363
1770451882512,127,-1,-0.3527952835762298,-0.0236768158503775,-1.0386558808708817
1770451882516,126,-2,-0.7198908377922596,-0.895953204760187,-1.4181395959337997
1770451882520,126,-2,-1.078940347671732,-1.2276334527905322,-1.7894032663368131
1770451882524,126,-2,-1.2396106173175765,-1.1504709251812044,-1.9633744022979196
1770451882528,126,-2,-1.1389032532333123,-1.119524636148237,-1.8774560835823315
1770451882532,126,-2,-0.8755988699801214,-0.9550706745835824,-1.6289407157782236
1770451882536,126,-2,-0.6339121644116695,-0.9277333409981292,-1.4002343920300024
1770451882540,127,-1,-0.5428884730955008,-0.2326844733093933,-1.320568367256873
1770451882544,127,-1,-0.5641392411803083,-0.0670441602912728,-1.353293191364196
1770451882548,126,-2,-0.5084472137799082,-1.2670154482931686,-1.3099879213820138
1770451882552,126,-2,-0.1937830953390873,-0.725618589460987,-1.0078885738784689
1770451882556,128,0,0.3902743016981106,0.8049173509577687,-0.4360153985438064
1770451882560,128,0,1.0765456039962569,1.070118730716907,0.238232291954235
1770451882564,129,1,1.6756725253250293,1.6575607983551577,0.8256203525826724
1770451882568,129,1,2.12752465706744,1.9919934383223836,1.2665681488473168
1770451882572,129,1,2.5041251283980657,2.0527127373760266,1.632714691416509
1770451882576,130,2,2.8794865362328013,2.985269825846706,1.996673259931791
1770451882580,130,2,3.1965374522929593,2.9735140526349526,2.3008521336480534
1770451882584,130,2,3.249126376792541,2.705267635277895,2.3404737006620717
1770451882588,130,2,2.806810196306986,3.0330746360857326,1.886800494196391
1770451882592,129,1,1.8065694199297535,1.936218171906804,0.8770137712347336
1770451882596,127,-1,0.4650338872763925,0.1547574511959832,-0.4732463481983897
1770451882600,126,-2,-0.8053874619650354,-1.1894267311166211,-1.7524055327137629
1770451882604,125,-3,-1.6415502871352785,-2.120790223556652,-2.597754393450972
1770451882608,125,-3,-1.950020197671932,-2.0931798352584345,-2.916459817203494
1770451882612,125,-3,-1.928146237975789,-1.9695881797359664,-2.9064426313977867
1770451882616,125,-3,-1.8840686887816451,-1.897176918996735,-2.8753256654566837
1770451882620,125,-3,-2.0206173515168486,-2.1426216007423475,-3.023999958125895
1770451882624,124,-4,-2.3521555560511938,-3.1432009107122467,-3.364984572713219
1770451882628,124,-4,-2.775853792631807,-3.0705213048890125,-3.795691282830222
1770451882632,124,-4,-3.182742612181316,-2.974887894841549,-4.209250628942741
1770451882636,123,-5,-3.5062343956540434,-3.889604176089141,-4.540619685609624
1770451882640,123,-5,-3.715918661280708,-4.110830619566494,-4.759215258136275
1770451882644,123,-5,-3.8150679626008106,-4.177390381671129,-4.868058624052509
1770451882648,123,-5,-3.8539451679985697,-4.029284226378361,-4.918294523131556
1770451882652,123,-5,-3.92961449118544,-3.995977966494205,-5.007086123046902
1770451882656,122,-6,-4.1575163416896626,-4.869437167961606,-5.24701301222911
1770451882660,122,-6,-4.615815662986972,-5.085336017484737,-5.712364405657565
1770451882664,122,-6,-5.25987731175515,-5.22748094540458,-6.358379890962978
1770451882668,121,-7,-5.838865485729972,-5.940698128252693,-6.93939161360504
1770451882672,121,-7,-5.914729914243139,-6.105263786336614,-7.0233594283273355
1770451882676,121,-7,-5.064047708506405,-5.699922378595931,-6.1876746869924055
1770451882680,123,-5,-3.1730522901817215,-4.271589709904395,-4.313120805403955
1770451882684,126,-2,-0.565162521242839,-1.0080502735233074,-1.7164517702620865
1770451882688,130,2,2.234393931226312,2.8487299127711756,1.079291534162908
1770451882692,132,4,4.961382620032443,5.100402618217029,3.806640086743923
1770451882696,134,6,7.875366020192654,7.148472710838039,6.719752849536349
1770451882700,138,10,11.498588154267605,10.824257878439276,10.336824396393803
1770451882704,142,14,15.975636626457831,14.96637122149963,14.80158017816675
1770451882708,147,19,20.5936362138935,19.829045903701303,19.403672210669892
1770451882712,151,23,23.935561506656647,24.2223600992696,22.730619123693927
1770451882716,152,24,24.64539311377819,24.97774191361976,23.43048346776952
1770451882720,149,21,22.270421385445808,22.01475578018636,21.05184774417288
1770451882724,144,16,17.55191797901257,16.73968823875117,16.333618130324776
1770451882728,138,10,11.9567364275293,11.057501487046672,10.738096628809137
1770451882732,133,5,6.824801873884514,6.078307154013636,5.60161860456339
1770451882736,129,1,2.766221592087148,2.1244817884311513,1.5338288500237942
1770451882740,127,-1,-0.3073124588705243,-0.068753229089709,-1.5514650786454411
1770451882744,125,-3,-2.6611629586870773,-2.233531600272836,-3.916678106582883
1770451882748,122,-6,-4.251689483251802,-4.935060251959096,-5.515512630492556
1770451882752,121,-7,-4.718403577235925,-5.923116440432786,-5.986343102304748
1770451882756,122,-6,-3.817308188993384,-4.828913094684807,-5.087204183853455
1770451882760,125,-3,-1.8307516012498128,-2.1083749984392037,-3.105036139519993
1770451882764,128,0,0.4653111380970078,0.8097742937142745,-0.8186411928586768
1770451882768,129,1,2.242803575600618,2.0297514917879,0.946632881414632
1770451882772,129,1,3.062442754745866,2.1154561176173727,1.7576279467107967
1770451882776,129,1,2.9670555676059385,2.149843590451489,1.6598828866612363
1770451882780,129,1,2.2441614587454337,1.9114170052811732,0.9368645265372816
1770451882784,128,0,1.1290814082664862,0.8070411708477396,-0.18235011974326
1770451882788,126,-2,-0.3283098604340662,-0.9385676758565572,-1.649394829567406
1770451882792,124,-4,-2.1997948151367046,-2.904685252290683,-3.531872079707779
1770451882796,122,-6,-4.505946701040079,-4.82294851836727,-5.845727712524697
1770451882800,120,-8,-7.054114257886182,-7.105151760542038,-8.397615550222381
1770451882804,117,-11,-9.405831951465226,-10.173066481326396,-10.751555760341706
1770451882808,115,-13,-11.03218074039491,-11.910144186106962,-12.381126899738268
1770451882812,115,-13,-11.57660975025629,-11.941357205331418,-12.930743021922884
1770451882816,115,-13,-11.037131821354652,-11.75036663616971,-12.398315967318467
1770451882820,117,-11,-9.73048514097292,-10.19071476143112,-11.100076935529238
1770451882824,119,-9,-8.075524083747544,-8.044577871175903,-9.4537526411967
1770451882828,120,-8,-6.373774075530456,-7.040725075898116,-7.758795015797674
1770451882832,121,-7,-4.748023779599326,-5.803142385034254,-6.136293744913496
1770451882836,123,-5,-3.238164390070414,-3.869946889296773,-4.6273546069048885
1770451882840,125,-3,-1.9088102570780487,-2.095122213038617,-3.3007677303723284
1770451882844,126,-2,-0.8545568170539993,-1.065094638300045,-2.254126184718768
1770451882848,126,-2,-0.1392165333075469,-1.0485027066354484,-1.5492648877480213
1770451882852,126,-2,0.2356777902129143,-0.7518746669645413,-1.1825569277805963
1770451882856,127,-1,0.3277377667663834,0.0444595737192612,-1.093549640415682
1770451882860,127,-1,0.2768625566418405,0.0278704691842013,-1.1443841570180862
1770451882864,127,-1,0.3413312170447052,-0.1677655815309471,-1.0809890664214783
1770451882868,127,-1,0.8446471156218898,0.0937608439132633,-0.582298204026678
1770451882872,128,0,1.9922310665304976,1.0866622121264728,0.5576603556967934
1770451882876,130,2,3.6757538279423994,3.21489789418914,2.2328806057591706
1770451882880,132,4,5.444644416899329,4.8800390230910295,3.9950777901834966
1770451882884,133,5,6.710071078039927,6.001305033403965,5.256038909255896
1770451882888,134,6,7.063754684571815,6.976256335563192,5.605967979454295
1770451882892,133,5,6.493038404412038,6.135131181721077,5.0304598433581535
1770451882896,131,3,5.33249266906427,4.220533647799725,3.864649783164845
1770451882900,130,2,3.993771761128491,2.8290536438811427,2.522429625240778
1770451882904,129,1,2.715873795137388,2.168209856806853,1.2431572366259869
1770451882908,129,1,1.5618842890740985,1.7688474029074963,0.0871700179158136
1770451882912,127,-1,0.6202512667549608,0.4026021556997075,-0.8595637038366941
1770451882916,126,-2,0.130685071107901,-1.105722410279688,-1.3563157813286706
1770451882920,126,-2,0.3449704748182541,-0.8051302404790257,-1.1483173948358407
1770451882924,128,0,1.2592473634331232,0.8381411487793637,-0.2382338721671544
1770451882928,129,1,2.5236011854628604,2.1125871841980497,1.0226822078567903
1770451882932,130,2,3.6545966985652742,3.110353134120324,2.1495042042317793
1770451882936,131,3,4.370355194648829,4.112906048924726,2.8604590892552286
1770451882940,131,3,4.75730520547698,4.032705280729756,3.243205646748049
1770451882944,131,3,5.1375915077331396,3.96787694092182,3.620793429120427
1770451882948,132,4,5.768224616779379,5.0799323002012695,4.249722647152859
1770451882952,133,5,6.639438551444938,6.118201319722527,5.118363657694199
1770451882956,134,6,7.533805557484979,7.123004007269653,6.007606019523303
1770451882960,135,7,8.258640294315907,8.015931500261468,6.725282411136563
1770451882964,135,7,8.81057294770444,7.996464944164203,7.271086865040018
1770451882968,135,7,9.318764292322626,8.10120124337201,7.777187382182086
1770451882972,136,8,9.848208258070349,9.094772012809589,8.307953683817228
1770451882976,137,9,10.280276494657873,10.155186781284872,8.740219291472807
1770451882980,137,9,10.380223087698475,9.989996221658464,8.835121523251019
1770451882984,136,8,9.946463321165538,9.038299018260592,8.39189684163705
1770451882988,135,7,8.875875485945777,8.094042452931888,7.312645911709696
1770451882992,133,5,7.128093612654789,6.098672179892608,5.561482618830055
1770451882996,131,3,4.717684480026474,4.149708850203642,3.1525004205130616
1770451883000,129,1,1.8119783697413263,2.0283906124181748,0.2486690655327874
1770451883004,125,-3,-1.173366177843965,-1.9986907595789756,-2.737838217347403
1770451883008,122,-6,-3.6649206937215526,-4.821632263149916,-5.233351976970155
1770451883012,121,-7,-5.225086920836691,-5.993326133397454,-6.798127290449435
1770451883016,120,-8,-5.823970156449854,-6.759330240722268,-7.401437349927167
1770451883020,121,-7,-5.836871354134178,-6.011685897464352,-7.419319908183161
1770451883024,121,-7,-5.75334308210216,-5.9547512493377335,-7.341225813235481
1770451883028,120,-8,-5.842039199559482,-6.828082758132612,-7.433809356652619
1770451883032,120,-8,-6.033346261084006,-7.022192897094843,-7.625819258582001
1770451883036,120,-8,-6.063025522991246,-6.71938326538723,-7.654221230708009
1770451883040,121,-7,-5.709240366817314,-6.029250692263514,-7.300122933191086
1770451883044,121,-7,-4.942214843674118,-5.8850767658340235,-6.535270127814521
1770451883048,122,-6,-3.928087245870738,-4.880085224812698,-5.5251750106975575
1770451883052,124,-4,-2.9283742957319183,-2.9953115902275,-4.530379381254411
1770451883056,124,-4,-2.1768414080739373,-2.7389671520746326,-3.783937797501972
1770451883060,124,-4,-1.8186558555861692,-2.9998004918740837,-3.429687174598082
1770451883064,124,-4,-1.9328989538597792,-2.8479311840867436,-3.545400809703602
1770451883068,124,-4,-2.558519888075041,-2.9258070822822075,-4.170616351019991
1770451883072,123,-5,-3.643742728318229,-3.9554627243735463,-5.255742917634412
1770451883076,121,-7,-4.968334022701639,-5.7723001185536225,-6.581783712058601
1770451883080,120,-8,-6.170531754119152,-6.952730133864959,-7.786138599017841
1770451883084,119,-9,-6.91524626148353,-7.830375082638775,-8.532585709247126
1770451883088,119,-9,-7.07734512622887,-7.95162768442941,-8.696483080621908
1770451883092,120,-8,-6.780627167651539,-6.921218787181176,-8.402930878507366
1770451883096,120,-8,-6.267805897352178,-6.796350306737152,-7.894310430194385
1770451883100,120,-8,-5.727184863639122,-6.92669052914383,-7.356627450253295
1770451883104,121,-7,-5.209084247524016,-5.790741385732647,-6.838652161154956
1770451883108,122,-6,-4.6527495212365615,-5.021404646929611,-6.280838027468575
1770451883112,122,-6,-3.9653715422127207,-4.827363978655925,-5.592831026921937
1770451883116,123,-5,-3.1040346214780157,-3.886061849532112,-4.732800456237902
1770451883120,124,-4,-2.1301896025865457,-2.8202949636853876,-3.761605323434492
1770451883124,125,-3,-1.2023540286414374,-1.850678843953144,-2.8368856405809293
1770451883128,126,-2,-0.498632848747052,-0.9746981264087876,-2.1361201789538873
1770451883132,126,-2,-0.11920382746169,-0.8517979938909974,-1.758571914990498
1770451883136,126,-2,-0.0398759701168537,-0.8762605228188467,-1.6789827055251425
1770451883140,126,-2,-0.1402128335501882,-0.7879449130320197,-1.776985707532459
1770451883144,126,-2,-0.2699182754453576,-0.8712681228671011,-1.904236570458796
1770451883148,126,-2,-0.3096903894066812,-0.9269077193954004,-1.9440284900521556
1770451883152,126,-2,-0.2157704061747055,-0.9028142085954872,-1.8535137787218416
1770451883156,126,-2,-0.0504027153806987,-0.8153961102961231,-1.6930770180533574
1770451883160,126,-2,0.0247454881949299,-0.8277005650962694,-1.6211763743353012
1770451883164,126,-2,-0.1706993325565534,-0.8062919065654586,-1.8163171169975172
1770451883168,126,-2,-0.692365544402217,-0.973598577048215,-2.3348833280125874
1770451883172,125,-3,-1.364522187684044,-1.8614496435203665,-3.0033130207690037
1770451883176,124,-4,-1.8347241010986528,-2.8387726396006676,-3.4709490698120007
1770451883180,124,-4,-1.8010258728524198,-2.8031833175755834,-3.436940123667088
1770451883184,125,-3,-1.2531122952662246,-1.7756530010246294,-2.8916674055174676
1770451883188,126,-2,-0.5251000494884026,-1.0088911893936077,-2.168673564040271
1770451883192,126,-2,-0.1033946181962426,-0.7938013742937042,-1.7515504910853714
1770451883196,126,-2,-0.3238723857752781,-0.9242626104381492,-1.9724971480725209
1770451883200,125,-3,-1.1598721199718225,-1.7066573545342587,-2.803474308678913
1770451883204,124,-4,-2.227364404167832,-2.841224419174218,-3.863075333726099
1770451883208,123,-5,-3.000084914746152,-3.9343664443597786,-4.6301091145125906
1770451883212,123,-5,-3.1094119823694086,-3.830577344073798,-4.739837407191668
1770451883216,124,-4,-2.554560635501029,-2.9009552547478186,-4.190987889661171
1770451883220,124,-4,-1.7002263926469126,-2.6977143267133195,-3.3433187106149584
1770451883224,125,-3,-1.058379501210316,-1.840924858194164,-2.7032565947764224
1770451883228,126,-2,-0.96838886565578,-0.9075766786762204,-2.6085852552439452
1770451883232,125,-3,-1.364669198277922,-1.854634464636621,-2.9968636560586757
1770451883236,124,-4,-1.808569306796232,-2.881829126347399,-3.4341935298287583
1770451883240,124,-4,-1.8028440239781136,-2.683807340163431,-3.426444856635624
1770451883244,125,-3,-1.1749185982585546,-1.8566012657906033,-2.801220891114511
1770451883248,126,-2,-0.228521532735848,-0.830777768781656,-1.8596019330887783
1770451883252,127,-1,0.465660284002916,0.0602756051380741,-1.168134345287098
1770451883256,127,-1,0.486372752539925,0.2176293300135849,-1.1450422290876603
1770451883260,126,-2,-0.1265228540756169,-0.790602149256205,-1.7508866294420669
1770451883264,125,-3,-0.8961733947558735,-1.7370881908750475,-2.5126082314909852
1770451883268,125,-3,-1.2506482566473327,-1.9134674685122577,-2.8625846714434293
1770451883272,125,-3,-0.9331079590008842,-1.8365514271759664,-2.5454313166770492
1770451883276,126,-2,-0.1832169053355059,-0.8721758401450077,-1.798544448775294
1770451883280,127,-1,0.4411720513161203,0.3121684837585334,-1.175998234449824
1770451883284,127,-1,0.4691333745189816,0.1598801947606678,-1.1463022562256169
1770451883288,126,-2,-0.1580721169397163,-0.7817469781136466,-1.7683382611124938
1770451883292,125,-3,-1.086303652502732,-1.9553524267449809,-2.6900843394591
1770451883296,124,-4,-1.85254121726976,-2.759158611520459,-3.451175446269227
1770451883300,124,-4,-2.2291556256115683,-2.7603667757587647,-3.825522718822042
1770451883304,124,-4,-2.332372127494862,-2.7764901998969624,-3.928710796977626
1770451883308,124,-4,-2.4365359031108498,-2.7793323604689735,-4.032697791666374
1770451883312,124,-4,-2.681150660208406,-2.980351121813792,-4.274696256840237
1770451883316,123,-5,-2.92733272689497,-3.715772005921087,-4.515514989765634
1770451883320,123,-5,-2.873590247447045,-3.8016705421437207,-4.45570005361955
1770451883324,124,-4,-2.315763237504262,-2.725519490648608,-3.893699288280092
1770451883328,125,-3,-1.327873742877752,-1.7529586726742197,-2.904137292216155
1770451883332,126,-2,-0.2260563846817169,-1.0521619875754649,-1.8011844201153162
1770451883336,127,-1,0.64507006797343,0.4268605635842293,-0.9272717145908238
1770451883340,128,0,1.1408571232912192,0.984172988476427,-0.4269067976798196
1770451883344,127,-1,1.3902159116535255,0.5572389406812386,-0.172480444988039
1770451883348,128,0,1.6543331490884454,0.9802421781208586,0.0964242061279102
1770451883352,128,0,2.084808649094225,1.221890558097602,0.531508417642592
1770451883356,129,1,2.5951333033619703,2.185991849439265,1.0461578159269769
1770451883360,130,2,2.961954223666321,3.190926404003143,1.41660826723322
1770451883364,129,1,3.0483219133335604,2.4180717479994107,1.506265972247498
1770451883368,129,1,2.9215238424534604,2.1022342268951637,1.383532405433611
1770451883372,129,1,2.757579952036571,2.151969089174372,1.2247762141980174
1770451883376,129,1,2.646792214935692,2.215261794695797,1.1193664039902944
1770451883380,129,1,2.4957242721002437,2.212465652504582,0.9731244069875647
1770451883384,128,0,2.1046600204585313,1.405057245795574,0.5867365710051149
1770451883388,128,0,1.3397120938778646,1.146620169926709,-0.1731972585041603
1770451883392,127,-1,0.2538393936815054,0.1151861624970518,-1.2540610195672497
1770451883396,125,-3,-0.943345653511484,-1.7655982801519077,-2.4465357440280746
1770451883400,124,-4,-2.0479305798675407,-2.77099059277247,-3.546162473677807
1770451883404,123,-5,-3.0128146827044944,-3.5889268681735684,-4.505374271762554
1770451883408,123,-5,-3.9351717501454946,-3.833058067991384,-5.421789534427657
1770451883412,122,-6,-4.885871088615108,-4.885651586007468,-6.36670996648046
1770451883416,120,-8,-5.7617588345033495,-6.781081709946195,-7.236523772039565
1770451883420,120,-8,-6.325311607445648,-6.742822253546147,-7.793346813527054
1770451883424,120,-8,-6.399950842474564,-6.57039754487703,-7.861451082850631
1770451883428,120,-8,-6.037674439262156,-6.862424893613646,-7.494077380202205
1770451883432,121,-7,-5.5107339671961,-5.774486061639752,-6.963512576565554
1770451883436,122,-6,-5.131726049479548,-4.969033372780297,-6.580693374126486
1770451883440,121,-7,-5.042254512336616,-5.484318970544368,-6.484774469351237
1770451883444,121,-7,-5.1351758592003875,-5.864640703985007,-6.567478837580257
1770451883448,121,-7,-5.161006658770075,-5.4935999955194985,-6.581616722615622
1770451883452,122,-6,-4.913019441633709,-5.154394125302505,-6.3253619289944245
1770451883456,122,-6,-4.343405653563675,-4.575906870335885,-5.75386905863491
1770451883460,123,-5,-3.5506482732946827,-3.851311626915859,-4.962772518889212
1770451883464,123,-5,-2.6671030512145553,-3.5153482805733858,-4.0775576927476695
1770451883468,125,-3,-1.696105779353998,-1.7651909241241015,-3.0968770409124775
1770451883472,127,-1,-0.366068227742589,0.0727175733511251,-1.7507193262623129
1770451883476,128,0,1.8730639266592048,1.2667499395029966,0.5050453835382999
1770451883480,132,4,5.593345371006409,5.254553745100411,4.237166114575847
1770451883484,137,9,10.930018203796246,10.472493845835396,9.579191586611676
1770451883488,143,15,17.20801383217054,16.19159201437406,15.857473333414388
1770451883492,150,22,22.982915856964084,23.223170583751685,21.63030178919683
1770451883496,154,26,26.579239987736383,27.04526220164385,25.225541236945656
1770451883500,153,25,26.842739372730517,26.518639066178103,25.49302902108713
1770451883504,150,22,23.6492529700774,23.180869489614032,22.31169335469326
1770451883508,144,16,17.894588129432684,17.48873564591439,16.5762150419313
1770451883512,138,10,11.05044643115598,10.970721776959875,9.752316562971366
1770451883516,131,3,4.589019557106938,4.309345412503317,3.305167236289186
1770451883520,126,-2,-0.4562572482668035,-0.6875937078738388,-1.7349446059223856
1770451883524,123,-5,-3.6801237113620946,-3.628252695266083,-4.960154695539727
1770451883528,121,-7,-5.257507927897443,-5.646313471796156,-6.539063992255547
1770451883532,121,-7,-5.7300102826996975,-5.922969106350793,-7.007399840275108
1770451883536,121,-7,-5.716400328626077,-5.71091104691583,-6.982260931522128
1770451883540,121,-7,-5.647363001472039,-5.731773186231161,-6.897718811656152
1770451883544,121,-7,-5.633408542237328,-5.506892163489573,-6.869868987647479
1770451883548,121,-7,-5.538127447999008,-5.830492426584691,-6.765598187052267
1770451883552,121,-7,-5.214397269283436,-5.665438287280005,-6.436461252127572
1770451883556,122,-6,-4.727447974819174,-4.97505222497387,-5.943675534449251
1770451883560,122,-6,-4.366204983121594,-4.433086480408414,-5.573616260164615
1770451883564,123,-5,-4.405209927589645,-3.800180621582892,-5.601686596610139
1770451883568,122,-6,-4.819277339122743,-4.536370261371556,-6.004919460604
1770451883572,121,-7,-5.238001606477912,-5.933136198102921,-6.413573594178139
1770451883576,121,-7,-5.225656421912823,-5.7099888650538,-6.39110360701203
1770451883580,122,-6,-4.650399329578237,-4.640542187924707,-5.805612016684609
1770451883584,123,-5,-3.8014071722477185,-3.6202583311888223,-4.947598244681988
1770451883588,124,-4,-3.149124366914271,-2.642179019114786,-4.288215213748393
1770451883592,124,-4,-2.9772133327132395,-2.86912971861153,-4.1095636573201855
1770451883596,123,-5,-3.2093874504501323,-3.735806468881065,-4.332674260166012
1770451883600,123,-5,-3.5415366912516655,-3.6221893567512433,-4.652377242707001
1770451883604,123,-5,-3.707220129173742,-3.610758632771424,-4.803953794049229
1770451883608,123,-5,-3.62639646263798,-3.6177215923526673,-4.7102923017241825
1770451883612,124,-4,-3.3495954419773137,-2.875264206072816,-4.423621984703601
1770451883616,124,-4,-2.91744156078765,-2.7301698753706125,-3.9839303874938414
1770451883620,124,-4,-2.310236388962231,-2.6166154186740624,-3.369331005122431
1770451883624,125,-3,-1.5354272857023123,-1.6096226473983442,-2.58536817551141
1770451883628,126,-2,-0.7333536259819142,-0.5681844520920936,-1.772117910249988
1770451883632,127,-1,-0.1504525077999349,0.0699141365966533,-1.1772042015606905
1770451883636,127,-1,0.0323508897563896,0.3619247971263588,-0.982856936225874
1770451883640,127,-1,-0.133238767712736,0.2582853946584851,-1.1375680950038574
1770451883644,126,-2,-0.3683906794529603,-0.4442358513064843,-1.3615557099961897
1770451883648,126,-2,-0.3648928373413662,-0.7209480449514118,-1.345941658565753
1770451883652,127,-1,-0.0116557323340535,0.2564080339669032,-0.9806963071495536
1770451883656,128,0,0.5489656397762142,1.1916803261782212,-0.4100704463970412
1770451883660,128,0,1.0704365406755325,1.4276442290840077,0.1194318319500165
1770451883664,128,0,1.399241132926771,1.4019947520818423,0.4570308242270793
1770451883668,128,0,1.5502915238722037,1.4577019520486785,0.6200920233155088
1770451883672,129,1,1.6462047027369633,2.0716032426611983,0.7303931735219295
1770451883676,129,1,1.822833866892908,2.440374752577556,0.9207835930537542
1770451883680,129,1,2.1721135979152977,2.1317059534558864,1.2815840495341966
1770451883684,129,1,2.717316896224973,2.778940351689405,1.836969203335681
1770451883688,131,3,3.408829167975264,4.034195274758497,2.5387945553846727
1770451883692,131,3,4.149696789809191,4.557064243138693,3.2906467278327103
1770451883696,132,4,4.839142126071546,4.957172480568262,3.991709089090196
1770451883700,132,4,5.400278293804145,5.622479987039839,4.564880870837887
1770451883704,133,5,5.785758678174261,6.322717057827843,4.962314586958858
1770451883708,133,5,5.982657490349942,6.45849312010516,5.170811014489965
1770451883712,133,5,6.019549359485045,6.211551174649304,5.219563200622852
1770451883716,133,5,5.959754999572349,6.265231165121507,5.172650280114169
1770451883720,133,5,5.882973365749086,6.381582429368298,5.109275886874944
1770451883724,133,5,5.870542407808308,6.524404573298166,5.109333086086299
1770451883728,133,5,5.987194065384877,6.313047036252088,5.237012963036844
1770451883732,133,5,6.244030219610684,6.350730840024683,5.504493748449197
1770451883736,134,6,6.568213103082387,7.166957942036537,5.840242377196201
1770451883740,134,6,6.831813609870313,7.475763319965785,6.116502346558601
1770451883744,134,6,6.9407849692711245,7.448587869814345,6.238585659545127
1770451883748,134,6,6.908424968192565,7.406104247371033,6.219316326221057
1770451883752,134,6,6.838849678276759,7.267096713699526,6.162704787443072
1770451883756,134,6,6.829636169489441,7.284234694926528,6.1662126063057165
1770451883760,134,6,6.877274331417494,7.348712960044759,6.22613652233841
1770451883764,134,6,6.863715805441817,7.621480390219549,6.224499241819547
1770451883768,134,6,6.630301868732108,7.217855426964061,6.00308565375927
1770451883772,133,5,6.076101001579418,6.502528446558193,5.461303785356069
1770451883776,133,5,5.2088726985995795,6.035659210440982,4.606731373352253
1770451883780,131,3,4.123301567139306,4.627615099124908,3.533753237596982
1770451883784,130,2,2.9354717095490037,3.35012112765982,2.3586909141682777
1770451883788,129,1,1.7300185091041973,2.5102488026214944,1.1667123864803342
1770451883792,128,0,0.5618754686958314,1.2379084441995818,0.0126894465063277
1770451883796,127,-1,-0.5003365538213134,0.294632941901948,-1.0356269694399958
1770451883800,126,-2,-1.353431962266129,-0.5879274742771883,-1.875883294124776
1770451883804,125,-3,-1.911543027802157,-1.4520733960147254,-2.4221517385447577
1770451883808,125,-3,-2.200814910888482,-1.6403808401138962,-2.6998092455071436
1770451883812,125,-3,-2.3989620360013353,-1.6100223451712878,-2.8859748545619746
1770451883816,125,-3,-2.7491464865155644,-1.835987422705922,-3.223721704802423
1770451883820,124,-4,-3.3919069318835913,-2.443503141493342,-3.8534741203453233
1770451883824,123,-5,-4.2493992119490045,-3.583057754454746,-4.696948213579538
1770451883828,122,-6,-5.063000476364208,-4.512015424840249,-5.495437417537336
1770451883832,122,-6,-5.555758518773029,-4.685393958863178,-5.97299009411673
1770451883836,122,-6,-5.593330760813153,-4.7888738531109185,-5.996823294516761
1770451883840,122,-6,-5.236597076784462,-4.408778134374619,-5.628505598691307
1770451883844,123,-5,-4.6767472895485716,-3.665140135581293,-5.05828178459057
1770451883848,123,-5,-4.121842156101106,-3.3673678365933983,-4.492308811456968
1770451883852,124,-4,-3.711461614659361,-2.858251372712565,-4.068743080229834
1770451883856,124,-4,-3.491480041072243,-2.5707688007295895,-3.8335531093287543
1770451883860,124,-4,-3.4336561434974935,-2.618943508374901,-3.760032420524807
1770451883864,124,-4,-3.4698597529166793,-2.4450255367746534,-3.781897719125732
1770451883868,124,-4,-3.5252091490529778,-2.555629621901808,-3.8249872936152705
1770451883872,124,-4,-3.5494630955752533,-2.6897013517368507,-3.838016165490027
1770451883876,124,-4,-3.540667445868346,-2.674134703061001,-3.8171254418641647
1770451883880,124,-4,-3.539973282404804,-2.545922869428347,-3.802504222570234
1770451883884,124,-4,-3.585599952422202,-2.4519043257587616,-3.8332630333516295
1770451883888,124,-4,-3.6562862042072712,-2.584710479589943,-3.889849875999484
1770451883892,124,-4,-3.664828093092406,-2.6060491552064105,-3.885710702763874
1770451883896,124,-4,-3.5278871854219016,-2.7699754616284875,-3.736558947799293
1770451883900,124,-4,-3.255609724016596,-2.414636952705899,-3.451409001159203
1770451883904,125,-3,-2.9630057065248385,-1.5645463210125343,-3.1453703737555574
1770451883908,125,-3,-2.7720287639303245,-1.4765535045247034,-2.941174175496879
1770451883912,125,-3,-2.6935253485774764,-1.6653200850342973,-2.849597098691999
1770451883916,125,-3,-2.6113733418101504,-1.7445727901473038,-2.7536386550293748
1770451883920,125,-3,-2.3869264583340817,-1.371212020051395,-2.514590111703617
1770451883924,126,-2,-1.9796302199444549,-0.6444878710005968,-2.0932619150435907
1770451883928,126,-2,-1.4766273972994957,-0.3221739741305076,-1.5780475848970372
1770451883932,127,-1,-1.024606276666648,0.1544336985648611,-1.115100582062157
1770451883936,127,-1,-0.7373708303958593,0.4727818855412926,-0.8162811822890778
1770451883940,127,-1,-0.6453988457413407,0.4114419768079433,-0.7106600688959465
1770451883944,127,-1,-0.6994491476975847,0.5788177629843236,-0.7494561136361033
1770451883948,127,-1,-0.8053225040622136,0.5096309841704145,-0.8402432201092216
1770451883952,127,-1,-0.8691254934712129,0.2982315130574946,-0.8905452368350953
1770451883956,127,-1,-0.843365566827536,0.3838913258497514,-0.8528748098166969
1770451883960,127,-1,-0.7584564557991111,0.4776388590513776,-0.7565935852893682
1770451883964,127,-1,-0.7150541004255972,0.5416672786167882,-0.701302015732481
1770451883968,127,-1,-0.8284981572377339,0.5873545510715714,-0.801948207703644
1770451883972,127,-1,-1.15401704285719,0.197309482626705,-1.114003048571552
1770451883976,126,-2,-1.643587357110344,-0.4482288395452158,-1.5899545690382384
1770451883980,126,-2,-2.166127211438227,-0.7501079607431884,-2.099093278592387
1770451883984,125,-3,-2.5778532441778905,-1.1456749755121003,-2.4975977577645794
1770451883988,125,-3,-2.796287971875797,-1.7506058541978344,-2.702816220108917
1770451883992,125,-3,-2.828932666693218,-1.4135855366961247,-2.7225899602505437
1770451883996,126,-2,-2.7394755217441324,-0.8294059181534834,-2.621261683088591
1770451884000,125,-3,-2.5892322309371716,-1.390502667379013,-2.4599322972240665
1770451884004,125,-3,-2.41452350355934,-1.432805812412984,-2.2736479370542724
1770451884008,126,-2,-2.2478349302687173,-0.5127119996769656,-2.094060018124381
1770451884012,126,-2,-2.12807499281921,-0.5510220690940999,-1.9606375199775865
1770451884016,126,-2,-2.0687171455603877,-0.7640867925622468,-1.8878910009637888
1770451884020,126,-2,-2.02488961323459,-0.3659848909390675,-1.831303749216684
1770451884024,126,-2,-1.913373301703837,-0.507602172156008,-1.7074117872195171
1770451884028,126,-2,-1.6818670783736285,-0.3780051408763984,-1.4637954194046767
1770451884032,127,-1,-1.370009352438832,0.3282450887674244,-1.1403586228486793
1770451884036,127,-1,-1.1061898930177805,0.3552350683086156,-0.8656685388391867
1770451884040,127,-1,-1.0357239871072024,0.5532708465462008,-0.7844910206140581
1770451884044,127,-1,-1.2319787506253632,0.55759931205412,-0.968986776953598
1770451884048,126,-2,-1.6535593219250513,-0.408768885930745,-1.377035940353709
1770451884052,126,-2,-2.1693839605579823,-0.6233648277815851,-1.878561494342526
1770451884056,126,-2,-2.622336646120041,-0.6854255655330816,-2.31872919471347
1770451884060,125,-3,-2.8918897135301407,-1.374072085104506,-2.578212868341887
1770451884064,125,-3,-2.938637508844664,-1.5266240227217065,-2.6161542593262523
1770451884068,125,-3,-2.816561660938848,-1.270403292604659,-2.483890327401282
1770451884072,126,-2,-2.627162755538527,-0.7840696587153779,-2.2818485972849265
1770451884076,126,-2,-2.425646460355793,-0.4703583486831397,-2.0664569879798016
1770451884080,126,-2,-2.1602251181028036,-0.5979798133132999,-1.7878509045176263
1770451884084,126,-2,-1.7260013315501774,-0.2928505786429389,-1.3422591578827
1770451884088,127,-1,-1.107502812316608,0.5436978454379235,-0.714295154225481
1770451884092,128,0,-0.4797298429684498,1.3550980725598898,-0.0781384453628489
1770451884096,128,0,-0.1578955433734712,1.510126899258752,0.2525202779747033
1770451884100,128,0,-0.4106506599053028,1.3166594276802943,0.0103411708800587
1770451884104,127,-1,-1.2631877859508334,0.9268530570682664,-0.829835382097903
1770451884108,126,-2,-2.4350280403657645,-0.792036747789961,-1.988661628182273
1770451884112,124,-4,-3.4730390725133375,-2.182022044720596,-3.014264485399125
1770451884116,125,-3,-3.998389164569664,-2.0033487091631588,-3.528510719785413
1770451884120,124,-4,-3.893648442645953,-2.102463923282407,-3.4140270948745375
1770451884124,125,-3,-3.30593465523663,-1.654026909128144,-2.8175177073397255
1770451884128,126,-2,-2.492367565992246,-0.213905341391229,-1.9954595575691567
1770451884132,127,-1,-1.6495422158040796,0.2965354532641178,-1.1436935109213566
1770451884136,127,-1,-0.8591165931169975,0.4654677898322958,-0.3433090205353788
1770451884140,128,0,-0.1588190087471241,1.5372700661289378,0.3675967176748529
1770451884144,129,1,0.3769433972607929,2.613774476800476,0.9133432831731478
1770451884148,129,1,0.6559844354606039,2.63835483056418,1.2012207217900244
1770451884152,129,1,0.6662253953187058,2.369688528014428,1.2204693326990297
1770451884156,129,1,0.5414175922263638,2.4833657214993377,1.106385613410986
1770451884160,129,1,0.5239891934986101,2.477338360126325,1.1007996008967498
1770451884164,129,1,0.8460947714916753,2.7195513170388215,1.433426409393376
1770451884168,130,2,1.5968046387472414,3.54913397458431,2.191801021995978
1770451884172,131,3,2.644476586093976,4.4674629362968545,3.245361576720363
1770451884176,132,4,3.666846310027246,5.427995331437118,4.274187349460952
1770451884180,133,5,4.298745684953165,6.5034849964408075,4.914214326534373
1770451884184,133,5,4.328544340800812,6.7451866718046345,4.95319470376227
1770451884188,132,4,3.810054199060041,5.508046798750929,4.444159565621397
1770451884192,131,3,2.9976875987284366,4.544445434865188,3.641379454198052
1770451884196,131,3,2.159961266511891,4.367375447738426,2.81305864103528
1770451884200,130,2,1.43212291164428,3.549047286139068,2.093631166995005
1770451884204,129,1,0.8105087778367066,2.7780421620303017,1.4790887889054438
1770451884208,129,1,0.2455955927823075,2.42577674007021,0.9205731016942064
1770451884212,128,0,-0.2798561894521626,1.72068204542188,0.4017378363018244
1770451884216,128,0,-0.7525214690493015,1.114870167941346,-0.0638653762140711
1770451884220,127,-1,-1.1838947169020937,0.8882782829298415,-0.4881176043113231
1770451884224,127,-1,-1.6437273855306094,0.4158459544625978,-0.941105779382845
1770451884228,126,-2,-2.221142745993526,-0.1767480674806569,-1.511818961622971
1770451884232,126,-2,-2.9357933814716106,-0.6380377283858385,-2.2194412100219787
1770451884236,125,-3,-3.6776255245590073,-1.583582682416118,-2.953522950350242
1770451884240,124,-4,-4.242853410892199,-2.3163481768977148,-3.5104190167195792
1770451884244,124,-4,-4.457617443602863,-2.44060679463548,-3.71732349256155
1770451884248,124,-4,-4.300934391106187,-2.220548644148658,-3.5548964790312505
1770451884252,125,-3,-3.9313385620349246,-1.6295708205727877,-3.182467034013876
1770451884256,125,-3,-3.597174517698432,-1.560999448864954,-2.846830032851169
1770451884260,125,-3,-3.495442102590588,-1.3298640095547123,-2.7414462851025156
1770451884264,125,-3,-3.6663073599907894,-1.4242481481505296,-2.903720782529445
1770451884268,124,-4,-3.9707908662735414,-2.1881658171974108,-3.1959041357534086
1770451884272,125,-3,-4.148535200644013,-1.681504300433891,-3.36309962340179
1770451884276,125,-3,-3.930376119316922,-1.4530074366980703,-3.141492965781421
1770451884280,125,-3,-3.1757971665922944,-1.4771092456122052,-2.390296588086467
1770451884284,126,-2,-1.9715307364095849,-0.1932995203168452,-1.1898300443218657
1770451884288,128,0,-0.5793539934719436,1.5391790069538445,0.2049104834162232
1770451884292,130,2,0.8216328527251218,3.6613940759521366,1.6160447245242595
1770451884296,132,4,2.4428234030213014,5.17650011873207,3.250641449638694
1770451884300,133,5,4.9231313908819665,6.924671343565797,5.742379744282227
1770451884304,137,9,8.91484050470389,10.425954409125298,9.740687265498302
1770451884308,142,14,14.443899905182136,15.907284837042145,15.270665881042383
1770451884312,150,22,20.555576599778004,23.380893896885116,21.37798815720404
1770451884316,155,27,25.591963296106822,28.39951369245003,26.4075328465996
1770451884320,156,28,27.95734339547229,29.805677920321568,28.768858900837376
1770451884324,156,28,26.86992069898846,29.41363457990117,27.68452026754673
1770451884328,151,23,22.65823140847675,25.03252650382023,23.48290143664389
1770451884332,145,17,16.50267846203071,18.147919925394632,17.340220137708283
1770451884336,138,10,9.852810397539836,11.800798809680655,10.70101663759537
1770451884340,133,5,3.887635022277499,6.342121901743917,4.740929088945611
1770451884344,128,0,-0.7230782453297984,1.9484735206174193,0.129112362674074
1770451884348,125,-3,-3.7643593229634114,-1.5065243084139843,-2.9170600406540848
1770451884352,123,-5,-5.3271084680928364,-3.3144402528473433,-4.484404806536687
1770451884356,123,-5,-5.719089105779695,-3.651253217196955,-4.877648354106017
1770451884360,123,-5,-5.413637295727707,-3.255951103695048,-4.569898146634625
1770451884364,124,-4,-4.932761495831592,-2.381193267234592,-4.084938055396954
1770451884368,124,-4,-4.65278773845142,-2.234465014076678,-3.800841031927334
1770451884372,124,-4,-4.652399680446148,-2.5278325357011204,-3.797103767437317
1770451884376,124,-4,-4.733219378346431,-2.4449343252436275,-3.875743890024004
1770451884380,124,-4,-4.617391273764896,-2.4244786226235973,-3.759263479241647
1770451884384,124,-4,-4.186208398779588,-2.2145667428308755,-3.3289237983483546
1770451884388,125,-3,-3.5858639983786067,-1.3741769710079763,-2.730333289134894
1770451884392,126,-2,-3.1194066493382624,-0.3855716072950708,-2.2656723184578085
1770451884396,126,-2,-3.0095857090455316,-0.5435056132804359,-2.156661582490555
1770451884400,125,-3,-3.2276635259208497,-1.3392552425479305,-2.3737135022449567
1770451884404,125,-3,-3.5261052321801603,-1.2649253456015317,-2.6696138070823703
1770451884408,125,-3,-3.632880995530426,-1.3437798577631872,-2.774223228923756
1770451884412,125,-3,-3.4397632738506654,-1.3644014993630988,-2.5814442214118003
1770451884416,126,-2,-3.049862276314085,-0.5515921901862209,-2.1948554009052272
1770451884420,126,-2,-2.6769494939682983,-0.2997881359192718,-1.826500095126094
1770451884424,126,-2,-2.49200577492202,-0.3212514337427343,-1.6447252677575055
1770451884428,126,-2,-2.5259406335508316,-0.2621763025774619,-1.6789545294495014
1770451884432,126,-2,-2.6733106688462627,-0.4485106562176586,-1.8245797915352435
1770451884436,126,-2,-2.767644365806725,-0.4095680278327913,-1.9175667090484705
1770451884440,126,-2,-2.6720114813873175,-0.4477926328692048,-1.823075732733307
1770451884444,126,-2,-2.3432146494525656,-0.1452332447812208,-1.4981858924146474
1770451884448,127,-1,-1.8486598387053448,0.5425792734843475,-1.0087880524060469
1770451884452,127,-1,-1.330068184885866,0.7973076658901912,-0.4945169642877632
1770451884456,128,0,-0.926417809651534,1.3437364463752246,-0.0931597130066107
1770451884460,128,0,-0.6908060427122633,1.8469228602442345,0.1417627462181374
1770451884464,128,0,-0.5503222247186252,1.5385658003110636,0.2816132243123183
1770451884468,128,0,-0.3447973174346354,1.8671153210005929,0.4851281909665748
1770451884472,129,1,0.0680014997969293,2.516807047926952,0.8942574379591917
1770451884476,129,1,0.7062715598078686,2.6151009953017152,1.5280617142979385
1770451884480,130,2,1.4354711329014431,3.6474728608909346,2.25288865480835
1770451884484,131,3,2.0498679233461,4.69707078308701,2.863004526260705
1770451884488,131,3,2.4122135411599355,4.731696269705928,3.2208924373891414
1770451884492,131,3,2.5389684491415685,4.6804159594010475,3.343555196497561
1770451884496,131,3,2.5603594757643027,4.446050582970555,3.3619924380910873
1770451884500,131,3,2.606855088397483,4.885791158902639,3.406127423670042
1770451884504,132,4,2.738154745475607,5.407547969456024,3.534006221235855
1770451884508,131,3,2.9599508711288065,5.086581919688896,3.7505878103184926
1770451884512,132,4,3.2682872884797507,5.304428774482522,4.052911802536625
1770451884516,132,4,3.656428810404312,5.868789714181003,4.435416799958194
1770451884520,133,5,4.093816522998635,6.480048410432216,4.86756857973255
1770451884524,133,5,4.521762709185207,6.789452091047461,5.290256356539753
1770451884528,133,5,4.878171462263866,6.784363535842167,5.6415190372420225
1770451884532,134,6,5.133144461073184,7.526992471496536,5.891733653686099
1770451884536,134,6,5.315876958744022,7.786720749539282,6.069789888878313
1770451884540,134,6,5.511509809649644,7.448819179846407,6.2602617372213825
1770451884544,134,6,5.81255498796722,7.954218167219389,6.555431267137946
1770451884548,135,7,6.2487774258583215,8.534601375654397,6.985141462618234
1770451884552,135,7,6.753625238186552,8.856505340349615,7.483034048855393
1770451884556,136,8,7.20124484192047,9.458334305884398,7.923620953784196
1770451884560,136,8,7.487537969730929,9.780333430798231,8.20329424345713
1770451884564,136,8,7.593440556671241,9.671483086430133,8.3032811210038
1770451884568,136,8,7.584793189293016,9.764299496418058,8.289218372948891
1770451884572,136,8,7.55224658724902,9.72285226518794,8.251078604155843
1770451884576,136,8,7.537906274479805,9.531313296474348,8.230176148806223
1770451884580,136,8,7.501376377680558,9.810048694010264,8.185747456501172
1770451884584,136,8,7.344735077325637,9.580670616178814,8.020327122624753
1770451884588,135,7,6.972640981075413,8.911123445739786,7.63967147374284
1770451884592,135,7,6.346645063349559,8.57230864557954,7.006255154755382
1770451884596,134,6,5.508412324108107,7.699841149169115,6.161828881034587
1770451884600,133,5,4.566667362215935,6.681178721776747,5.214460002260887
1770451884604,132,4,3.652520806809085,5.692674169275687,4.294233826168982
1770451884608,131,3,2.8613509991920276,4.837498243951081,3.4954057313357514
1770451884612,131,3,2.2123231846899754,4.638956760569521,2.836637662368407
1770451884616,130,2,1.6453487207195088,3.6769269874248662,2.258907659000224
1770451884620,129,1,1.0520948874996336,2.711071798470816,1.6560448730243325
1770451884624,129,1,0.3346204030655384,2.6743280637383497,0.9312757092397472
1770451884628,128,0,-0.518029862332086,1.871151641201985,0.0726908550466274
1770451884632,127,-1,-1.3825711102464893,0.6009435491016544,-0.798199575193258
1770451884636,126,-2,-2.050219992135212,-0.2257329112651724,-1.473533831793998
1770451884640,126,-2,-2.3674682563530993,-0.4060171082372776,-1.799816702264115
1770451884644,126,-2,-2.3630890099823314,-0.1694564657029,-1.805575199223318
1770451884648,126,-2,-2.250075732466199,-0.2853775894927732,-1.7033222867967446
1770451884652,126,-2,-2.293942441840183,-0.2303790184922043,-1.7576928946956207
1770451884656,126,-2,-2.643411858329608,-0.3434526096442574,-2.116435512705793
1770451884660,125,-3,-3.242576109843651,-1.327697617361654,-2.723133554836942
1770451884664,124,-4,-3.8800738821674967,-2.1826878370515943,-3.3669741610229007
1770451884668,124,-4,-4.327672131535927,-2.314516258288634,-3.8214974570238978
1770451884672,124,-4,-4.460711545027065,-2.1316793290397733,-3.963872195081424
1770451884676,124,-4,-4.2916379138359195,-2.4374826779034517,-3.8065277262858745
1770451884680,124,-4,-3.9312268974189424,-2.2272153180543244,-3.458150249708236
1770451884684,125,-3,-3.5237053911995537,-1.2437347029363162,-3.0608754489794983
1770451884688,125,-3,-3.1820847499315903,-1.3048884281540047,-2.7275265327786693
1770451884692,125,-3,-2.9427083647972982,-1.0439654759783337,-2.4958993158240537
1770451884696,126,-2,-2.765548436624309,-0.5698682386834504,-2.3274486620108936
1770451884700,125,-3,-2.586827339066485,-1.0251644452211095,-2.1588182722738445
1770451884704,126,-2,-2.3862024940910627,-0.4875333202077399,-1.9691381789929805
1770451884708,126,-2,-2.2097948959065548,-0.0182752562256491,-1.8036596605781223
1770451884712,126,-2,-2.1254779731134046,-0.3201589480328128,-1.7294374124746814
1770451884716,126,-2,-2.1504870605298887,-0.2645181275257022,-1.763379087340009
1770451884720,126,-2,-2.216650034892458,-0.3098844932251383,-1.8379965121367767
1770451884724,126,-2,-2.2043380314538843,-0.2279521176435706,-1.834982827285864
1770451884728,126,-2,-2.0254954989848653,-0.2325967265667463,-1.666895690877432
1770451884732,126,-2,-1.7023001471441377,-0.1033848764315656,-1.355192971680621
1770451884736,127,-1,-1.3780527506514129,0.5630760277570426,-1.0421010355484417
1770451884740,127,-1,-1.2313941555743806,0.8660623281864754,-0.9059056151246648
1770451884744,127,-1,-1.3463292571499288,0.5885246848152592,-1.030759024222038
1770451884748,126,-2,-1.646739058761563,-0.0253788648591117,-1.3405907808239332
1770451884752,126,-2,-1.9560471532325792,-0.2938178275827083,-1.6590309775789256
1770451884756,126,-2,-2.1274989548211467,-0.2209195642098529,-1.8400867612284295
1770451884760,126,-2,-2.1326089467509455,-0.32316341621515,-1.8559655801969777
1770451884764,126,-2,-2.0483809440955967,-0.2423585698424069,-1.7833548838358515
1770451884768,126,-2,-1.9758495392559612,-0.1468003000032243,-1.7221680377843378
1770451884772,126,-2,-1.964167498667942,-0.192144782123373,-1.7208262353233132
1770451884776,126,-2,-1.991419816441796,-0.2594351690466205,-1.7577857756269426
1770451884780,126,-2,-2.0029754895861283,-0.3069397987260562,-1.7793560009106044
1770451884784,126,-2,-1.9684260218439,-0.2248141860609074,-1.7555277794117754
1770451884788,126,-2,-1.910957857936592,-0.1698247183109171,-1.7088863376147427
1770451884792,126,-2,-1.8889642904113448,-0.1371543471902732,-1.697004737937446
1770451884796,126,-2,-1.9469276318864843,-0.2928483871740126,-1.7645685036894898
1770451884800,126,-2,-2.0754857123066097,-0.2678057989301274,-1.903467020225333
1770451884804,126,-2,-2.218459042614061,-0.2477051991607677,-2.0581692415469077
1770451884808,125,-3,-2.333368333684717,-1.145532996659429,-2.185057562146088
1770451884812,125,-3,-2.4550040256571313,-1.1303096435281137,-2.3173234476645224
1770451884816,126,-2,-2.6800936630693584,-0.282305784044873,-2.5517298586643844
1770451884820,125,-3,-3.0581478671732705,-1.257447010291456,-2.939171767768204
1770451884824,124,-4,-3.4953666973059137,-2.267054980310202,-3.3866314706991933
1770451884828,124,-4,-3.7923304254524086,-2.084934272841164,-3.6943220576651457
1770451884832,124,-4,-3.7983129406001193,-2.221274535024328,-3.711038535084552
1770451884836,124,-4,-3.5393079235824443,-2.1087639208825633,-3.462810309416473
1770451884840,125,-3,-3.2017195301230372,-1.4622528684703493,-3.136278291210632
1770451884844,125,-3,-2.985719364775911,-1.0087466345377187,-2.9314825909072004
1770451884848,125,-3,-2.955893818801309,-1.374737195847711,-2.9122862873590956
1770451884852,124,-4,-3.0176667855552464,-1.8991609030732863,-2.9835168099218943
1770451884856,125,-3,-3.028607465496342,-1.4129943570336383,-3.0034175978999875
1770451884860,125,-3,-2.928366607080709,-1.1417486910547128,-2.913244655104884
1770451884864,125,-3,-2.772584799593443,-1.2948965468996354,-2.769165857688686
1770451884868,125,-3,-2.665544819746053,-1.110529137116112,-2.673961331424308
1770451884872,125,-3,-2.668230234123623,-1.118336328149787,-2.686819704650131
1770451884876,125,-3,-2.750705785862822,-1.2168905812432582,-2.777973426060395
1770451884880,125,-3,-2.810771348157405,-1.2713250423398217,-2.84716988103217
1770451884884,125,-3,-2.74450999046992,-1.1874173832717654,-2.7917988323291114
1770451884888,125,-3,-2.528946271715591,-1.1774075141191398,-2.587934453380029
1770451884892,125,-3,-2.2582055566473116,-1.066984863996792,-2.3277666216981294
1770451884896,126,-2,-2.0876626197109607,-0.2325566174109155,-2.1662376735675566
1770451884900,126,-2,-2.1112179544340357,-0.2427156643566448,-2.198710724849283
1770451884904,125,-3,-2.2792586293931985,-1.1899695031929909,-2.3769506633463213
1770451884908,125,-3,-2.4500837351527083,-1.1849721969437166,-2.559061091394715
1770451884912,125,-3,-2.5348363423585845,-1.0303707391848411,-2.654937132523451
1770451884916,125,-3,-2.5878101966094698,-1.2820620609704547,-2.717860117566073
1770451884920,125,-3,-2.742298905854169,-1.1198237017454002,-2.881088461576145
1770451884924,125,-3,-3.047103361365097,-1.333673078310515,-3.194295116014583
1770451884928,124,-4,-3.3640795575308973,-2.014842722574846,-3.520311797096944
1770451884932,124,-4,-3.4444063689426976,-2.2138994101968894,-3.610531823003987
1770451884936,124,-4,-3.1397646300990267,-2.0732337800108165,-3.3161984710374863
1770451884940,125,-3,-2.562812431462035,-1.2898859308908524,-2.7497528122825377
1770451884944,126,-2,-2.034489931534208,-0.1449048471173286,-2.232264893337061
1770451884948,126,-2,-1.845724639232261,-0.1982138913067794,-2.0541865078624233
1770451884952,125,-3,-2.039302834792341,-1.040400137277489,-2.2570473095472536
1770451884956,125,-3,-2.396853509398818,-1.231326839086501,-2.6219999088744865
1770451884960,125,-3,-2.620779624732129,-1.1025482263634316,-2.8528408365690057
1770451884964,125,-3,-2.5431122524198435,-1.302321370817043,-2.783518269971201
1770451884968,125,-3,-2.2086961250029953,-1.0266197884079924,-2.4593210882914565
1770451884972,126,-2,-1.803156666996767,-0.2133177749251853,-2.064808139610495
1770451884976,126,-2,-1.504294041261225,-0.0566994024693401,-1.776584352313665
1770451884980,126,-2,-1.3735114699228452,-0.2396983309512856,-1.65551366795315
1770451884984,126,-2,-1.3590950507798172,-0.1538671432775396,-1.6498227558217442
1770451884988,126,-2,-1.3832425130993256,-0.1447632094503785,-1.6818098739978409
1770451884992,126,-2,-1.4161153803109474,-0.1221876141667013,-1.721889139930353
1770451884996,126,-2,-1.4687124093215689,-0.1057235557559641,-1.7817212366658537
1770451885000,126,-2,-1.5267614898310922,-0.1925924019966856,-1.8481308218342705
1770451885004,126,-2,-1.5090598174140188,-0.1470434441704609,-1.8406225303644923
1770451885008,126,-2,-1.3111203492102923,-0.166108885748283,-1.6538851272349495
1770451885012,126,-2,-0.9055104593941344,-0.08662176955443,-1.2583699736652505
1770451885016,127,-1,-0.3916946792744027,0.8621393654042082,-0.7520989420495574
1770451885020,128,0,0.0860808764527949,1.876374938454091,-0.2799988918154467
1770451885024,128,0,0.4962910163661795,1.8084464301073209,0.1244285763248749
1770451885028,128,0,0.9850296387424576,1.8815228002810729,0.6057836281257054
1770451885032,129,1,1.7467123007105538,2.8670540918561276,1.35821402896957
1770451885036,130,2,2.795626917982758,3.9035436509099486,2.3967803164342194
1770451885040,131,3,3.850352252431658,4.894078556274906,3.44142622801771
1770451885044,132,4,4.4610341103411795,5.800656234291052,4.0433841436044595
1770451885048,132,4,4.307666687254876,5.914597336625035,3.8827250479516353
1770451885052,131,3,3.4414395948023007,4.796391925098595,3.0101821095155517
1770451885056,129,1,2.261472653948857,2.9939961104633404,1.8246946027112816
1770451885060,128,0,1.229317336169573,1.834926180151898,0.7873296098868705
1770451885064,128,0,0.558480311607286,1.8907022947153955,0.1099092687365844
1770451885068,128,0,0.1381829210142579,1.86506524808109,-0.3198944951690896
1770451885072,127,-1,-0.279322656456885,0.8007463209139054,-0.7487374558574083
1770451885076,126,-2,-0.8344794813178041,0.0383181931697693,-1.31360642753882
1770451885080,126,-2,-1.4674539202806622,-0.2360394664481817,-1.9523255834580715
1770451885084,125,-3,-2.0029033960742177,-0.9667883400524953,-2.490763290515283
1770451885088,125,-3,-2.2967683338949354,-1.2821765502220157,-2.7882799829730667
1770451885092,125,-3,-2.329245239521962,-1.0443183995636307,-2.8275285636474745
1770451885096,125,-3,-2.2056595932203864,-1.0985459336252092,-2.713568181200313
1770451885100,125,-3,-2.093854015567158,-1.1209533263021254,-2.611949461695491
1770451885104,125,-3,-2.146114122909486,-0.9874379594263064,-2.67261273650159
1770451885108,125,-3,-2.437122399781906,-1.3245605175599744,-2.969305905396333
1770451885112,124,-4,-2.9319068520534497,-1.9167755818741683,-3.467672863126539
1770451885116,124,-4,-3.4942394985989145,-2.304112092635229,-4.032974612181836
1770451885120,123,-5,-3.9404768724612858,-2.830627380776664,-4.483273502246402
1770451885124,123,-5,-4.121919208117051,-3.2899071186901856,-4.6714178052435225
1770451885128,123,-5,-3.9886062880165674,-2.978425450820213,-4.54825265751578
1770451885132,124,-4,-3.5800185685506385,-2.264798582559455,-4.152056636533333
1770451885136,124,-4,-2.9298602972515915,-1.964024195738692,-3.512554691732908
1770451885140,125,-3,-1.9370215812934677,-1.1326474097412729,-2.52392146331254
1770451885144,127,-1,-0.2861039295093728,1.0193763581981612,-0.8697411047370507
1770451885148,130,2,2.5089223817643855,3.753774527486057,1.93102802437234
1770451885152,134,6,6.8907527741579955,7.98488164364764,6.313389292598029
1770451885156,140,12,12.896781367369432,13.823868086927945,12.310608832917088
1770451885160,146,18,19.81382164069679,20.068065834534387,19.21189360311878
1770451885164,153,25,26.13537631731568,26.87289320824238,25.516765491272565
1770451885168,158,30,30.021908045680412,31.8885398969162,29.390684900920295
1770451885172,158,30,30.12214782581348,31.854341278501582,29.48481326172864
1770451885176,153,25,26.266749965549984,26.939778579180754,25.630304660417423
1770451885180,146,18,19.562201458509215,19.94311509058768,18.931633262280386
1770451885184,139,11,11.83507257081715,13.033727119906738,11.21026713714683
1770451885188,132,4,4.816994746820985,5.753547571514865,4.192345296109222
1770451885192,126,-2,-0.4489377063784463,0.0471375199108567,-1.080873998710818
1770451885196,124,-4,-3.73664432490485,-2.245357208976805,-4.380703913143184
1770451885200,122,-6,-5.372658115681253,-3.858875330883186,-6.029098961730916
1770451885204,121,-7,-5.85479813599209,-5.160133164966972,-6.519939740894038
1770451885208,121,-7,-5.620507357213845,-5.028842581173711,-6.28915508050436
1770451885212,122,-6,-5.025597337919846,-4.142183656585033,-5.694318543918559
1770451885216,123,-5,-4.391517052938534,-3.0848567114485355,-5.060496119967255
1770451885220,123,-5,-3.979861697345609,-2.9561650519378215,-4.651579946495507
1770451885224,123,-5,-3.90467566460853,-3.13766142331548,-4.581019749438654
1770451885228,123,-5,-4.087975572213139,-2.9253095686801363,-4.768852695858901
1770451885232,123,-5,-4.321216261652874,-3.3477136077862153,-5.0053625896729645
1770451885236,122,-6,-4.400933947102068,-3.752612248893274,-5.08740709299133
1770451885240,123,-5,-4.248571796498906,-3.3769293353111935,-4.937728891378116
1770451885244,123,-5,-3.932949344700687,-2.623745149265534,-4.626315808753241
1770451885248,124,-4,-3.590619895600644,-2.4652119235645764,-4.289387904000975
1770451885252,123,-5,-3.325539895962616,-2.781459998542432,-4.028979950277337
1770451885256,124,-4,-3.1682661516840067,-2.288405569994851,-3.874179674726791
1770451885260,124,-4,-3.0919844151646037,-1.8905887565399424,-3.798908735633822
1770451885264,124,-4,-3.0365670967913725,-2.014332473919549,-3.744918975408996
1770451885268,124,-4,-2.9279452540675224,-2.1389225039372377,-3.638905837352702
1770451885272,124,-4,-2.7099388101307538,-2.0022492961455773,-3.4240478306323077
1770451885276,125,-3,-2.377272474207434,-1.1467328325505153,-3.094412986593384
1770451885280,125,-3,-1.9774882744545297,-0.9567420487067846,-2.6974568789028677
1770451885284,125,-3,-1.5811852165715974,-0.9741700847432622,-2.303749508187309
1770451885288,126,-2,-1.250520868769569,-0.1309151805176305,-1.9753246519001273
1770451885292,126,-2,-1.023251251982241,-0.0021751492492838,-1.7500132197326408
1770451885296,126,-2,-0.9090928039136834,-0.1606166037844012,-1.6377337140819914
1770451885300,126,-2,-0.8937131454234495,0.0919850056636666,-1.6242526741646544
1770451885304,126,-2,-0.945098561256847,-0.0206265065267357,-1.677583038180926
1770451885308,126,-2,-1.01512265800797,-0.0630542800316757,-1.74950982308442
1770451885312,126,-2,-1.0397843556875517,-0.0288525374181185,-1.7756556688277725
1770451885316,126,-2,-0.9509405529722116,-0.1848230746334849,-1.6875247091518188
1770451885320,126,-2,-0.700674373028289,0.1971382510118871,-1.4376111838805283
1770451885324,127,-1,-0.2819315056921549,0.8195953310406721,-1.0200295874404035
1770451885328,127,-1,0.2663618830752058,1.1904043935401585,-0.474363807151384
1770451885332,128,0,0.8639031123699267,1.6724589339481355,0.1199887778428466
1770451885336,128,0,1.401654369328082,2.1590962555689006,0.6556840149871761
1770451885340,129,1,1.780163713682979,2.829753888122802,1.0340029315678132
1770451885344,129,1,1.975879763270148,3.223819173186005,1.2306554521676745
1770451885348,129,1,2.085847607408388,2.8106830679860644,1.3415011385661062
1770451885352,129,1,2.2883427476251663,3.047028911666365,1.5440815737017566
1770451885356,130,2,2.72563958889826,3.818699511049428,1.9804299845535205
1770451885360,130,2,3.395159235488141,4.130776520331102,2.648138580639971
1770451885364,131,3,4.137175953810438,5.006560380822174,3.388116387593686
1770451885368,132,4,4.7335393851330085,5.994242162862885,3.9830844411554183
1770451885372,132,4,5.048625378644476,5.929908794587528,4.298056827555298
1770451885376,132,4,5.111357943245323,5.871875872973131,4.361960577942181
1770451885380,132,4,5.082104121383569,6.142457868027593,4.334445496820936
1770451885384,132,4,5.136151917670349,5.96602144291718,4.389807705602842
1770451885388,132,4,5.351448895668554,6.110428714911187,4.60537848889307
1770451885392,133,5,5.674871553497476,6.796879758403698,4.928035391610381
1770451885396,133,5,5.979396305276803,7.0122918331201065,5.231264136262968
1770451885400,133,5,6.1589185034552845,7.011470221021418,5.409832824232735
1770451885404,133,5,6.1873579136099535,7.105367077175907,5.4385419890145
1770451885408,133,5,6.111505323776583,7.016516583056587,5.36445452694847
1770451885412,133,5,6.007024500102358,6.884397064164703,5.262544730473094
1770451885416,133,5,5.944436975979278,6.935091711656995,5.202077759243219
1770451885420,133,5,5.9801467744265695,7.095619197919173,5.2386457974141205
1770451885424,133,5,6.149361907569341,7.032356391487134,5.407842618513348
1770451885428,133,5,6.438820245950048,7.1417877748052945,5.697512075888853
1770451885432,134,6,6.758866708828784,7.732937074431183,6.018512261805792
1770451885436,134,6,6.960085825976187,8.126379676258203,6.220921918126963
1770451885440,134,6,6.902330916682076,7.872420552587051,6.1641049970470485
1770451885444,133,5,6.524500078215679,7.309976327435633,5.787372332376575
1770451885448,133,5,5.860651123530161,6.867197888053029,5.125557115419238
1770451885452,132,4,5.002032330784251,6.017074028389787,4.269966599535341
1770451885456,131,3,4.04506100015441,4.860397868816641,3.316107956538821
1770451885460,130,2,3.058521360576526,4.1162094440043955,2.3315909437561
1770451885464,129,1,2.075549458264788,3.1417108730189844,1.3491763897449838
1770451885468,128,0,1.09695660214008,1.9914679558738304,0.3707011860972918
1770451885472,127,-1,0.0952258196923265,0.9739216442766044,-0.6296884793950408
1770451885476,126,-2,-0.9701121245063148,-0.1666535269569404,-1.69192617023111
1770451885480,125,-3,-2.1092773491106493,-0.7885991745830512,-2.8274540319367976
1770451885484,124,-4,-3.2538488895664583,-1.9643447241472023,-3.969217266654505
1770451885488,122,-6,-4.264452943796014,-3.8693551663555024,-4.9776984550550925
1770451885492,122,-6,-5.014821215896462,-4.150509686725646,-5.7256895432400405
1770451885496,122,-6,-5.479282207651071,-4.064014757490665,-6.187440080273978
1770451885500,121,-7,-5.734963638326179,-4.848912392917501,-6.440703072516238
1770451885504,121,-7,-5.88424328607248,-4.9050417306155,-6.5878451309985095
1770451885508,121,-7,-5.982076401799354,-4.8766037905612345,-6.683068991206158
1770451885512,121,-7,-6.028237148828064,-5.179973128496078,-6.72579414746733
1770451885516,121,-7,-6.011063081320235,-5.007777415843943,-6.704966205157795
1770451885520,121,-7,-5.950355386612505,-4.898840070528633,-6.641234809520869
1770451885524,121,-7,-5.901443825403743,-4.8361817084856265,-6.589956884703038
1770451885528,121,-7,-5.9222127994227,-4.892467001637547,-6.608148566520512
1770451885532,121,-7,-6.031377867921369,-5.2172242567696,-6.713855240428001
1770451885536,121,-7,-6.184216991713519,-4.921179419130443,-6.862663339201943
1770451885540,121,-7,-6.281777864567191,-5.007366210436256,-6.95620280101255
1770451885544,120,-8,-6.221109738716531,-5.675287165970161,-6.891478615230743
1770451885548,121,-7,-5.96438669682252,-5.032163473305174,-6.630615874062825
1770451885552,122,-6,-5.568543745720328,-4.102150489744101,-6.231352105694753
1770451885556,122,-6,-5.1419557415942645,-4.002554476335609,-5.802654312013755
1770451885560,122,-6,-4.773932317661833,-3.948649838294607,-5.432688813373534
1770451885564,122,-6,-4.505220407966561,-3.656984862463705,-5.160271788954762
1770451885568,123,-5,-4.338830981762042,-3.0889352555292895,-4.988155842240055
1770451885572,123,-5,-4.242363015072703,-3.0026029419419116,-4.885737083839519
1770451885576,123,-5,-4.136663599847038,-3.127629510375559,-4.775480068051446
1770451885580,123,-5,-3.9184949816246553,-2.796562701415564,-4.553854503535966
1770451885584,123,-5,-3.533623015428238,-2.7565242639045477,-4.165340047745575
1770451885588,124,-4,-3.039707262102101,-2.042683659943509,-3.667317686860879
1770451885592,125,-3,-2.584824338603323,-0.9472372998596446,-3.2087478669139733
1770451885596,125,-3,-2.309280287851903,-1.299184262154326,-2.9301272459954224
1770451885600,124,-4,-2.260791336643615,-1.4787099811718345,-2.8778068937200176
1770451885604,125,-3,-2.390575309367916,-1.1724587252599967,-3.001838115473413
1770451885608,124,-4,-2.6042445933893243,-1.5242893307108476,-3.208734023087505
1770451885612,125,-3,-2.803632111539442,-1.5247155246057211,-3.4024354884443793
1770451885616,124,-4,-2.904886870653552,-1.6728536378897516,-3.499921500836766
1770451885620,124,-4,-2.860708517157673,-2.092138639859874,-3.4526477446653896
1770451885624,124,-4,-2.6882343321506648,-1.572766205874956,-3.276178725753939
1770451885628,125,-3,-2.462707569916683,-1.0486762968942078,-3.045582899316407
1770451885632,125,-3,-2.259727811301427,-1.0897569870883572,-2.837238573165759
1770451885636,125,-3,-2.0952216499916676,-0.9771118570925688,-2.667394364634445
1770451885640,125,-3,-1.9260405668972411,-0.8962704214292208,-2.4926884477062914
1770451885644,125,-3,-1.7083348165561765,-0.6467093825412773,-2.2695248974393447
1770451885648,126,-2,-1.4499379715817098,-0.0514763651108927,-2.006486585805463
1770451885652,126,-2,-1.2093556709321878,-0.0112411437861945,-1.7620707165923073
1770451885656,126,-2,-1.0541474954777623,-0.0813674293138726,-1.6025786390480776
1770451885660,126,-2,-1.018231494862397,0.2366246204457511,-1.56079969377118
1770451885664,126,-2,-1.0795614112209988,0.2297208647885722,-1.6151668316386152
1770451885668,126,-2,-1.1650074827517125,0.067351357252924,-1.6941708903757629
1770451885672,126,-2,-1.1902876570791507,-0.0833209551436473,-1.7145397177035004
1770451885676,126,-2,-1.124073728431875,-0.0379796296617729,-1.6444588088682728
1770451885680,126,-2,-1.028610006473016,0.2483411357340483,-1.5448877221370572
1770451885684,126,-2,-1.028039000591775,0.1870919796876484,-1.539098452228247
1770451885688,126,-2,-1.212699893246414,0.1551684558682557,-1.7175247831922429
1770451885692,126,-2,-1.5528713300542203,-0.1760485420028064,-2.0511588557970506
1770451885696,125,-3,-1.9005862342515143,-0.9321669304846942,-2.392674700212517
1770451885700,125,-3,-2.0888966320258184,-0.8414109996288892,-2.57529742918801
1770451885704,125,-3,-2.052449953180811,-0.7244889608428302,-2.533487678921553
1770451885708,125,-3,-1.870536233843132,-0.8965297142462312,-2.346406427566145
1770451885712,126,-2,-1.6960510626289191,-0.1323631525125383,-2.167052149934652
1770451885716,126,-2,-1.6300363649898273,0.0609498987997065,-2.096268086486829
1770451885720,125,-3,-1.6521217885005302,-0.8620439025108673,-2.1127958783199965
1770451885724,125,-3,-1.665544914500955,-0.6671396980249393,-2.1193386027530003
1770451885728,126,-2,-1.5978554150629722,0.0477827164412976,-2.044517536309272
1770451885732,126,-2,-1.44853909998717,-0.0623207468693758,-1.8894763783797064
1770451885736,126,-2,-1.2550924067885276,0.02574394510845,-1.6916248621330296
1770451885740,126,-2,-1.0438539978725254,0.1499940284983667,-1.4754039477591545
1770451885744,126,-2,-0.8210201980926914,0.3505952785720017,-1.245881732303384
1770451885748,127,-1,-0.5900055712834036,1.0203882497488534,-1.0076986237526204
1770451885752,127,-1,-0.3629646349717268,1.0092749816291215,-0.774964154541873
1770451885756,127,-1,-0.1676069629455123,0.9468908781067942,-0.5755414255502713
1770451885760,127,-1,-0.0579188828041501,1.2585705549730608,-0.4616545332394555
1770451885764,127,-1,-0.105471159327473,1.2100985447323267,-0.5033454255472912
1770451885768,127,-1,-0.3457882936229997,1.2068130007808708,-0.7363547045566339
1770451885772,127,-1,-0.711580711472579,0.8223557898918066,-1.0946843600919367
1770451885776,126,-2,-1.0307679220934691,0.1664106057785503,-1.407161419256408
1770451885780,126,-2,-1.124781351789005,0.0317168901776692,-1.4953845765070426
1770451885784,126,-2,-0.9404872810689704,0.4328148351860381,-1.30619042756257
1770451885788,127,-1,-0.601073864408638,1.01976000376857,-0.9625594585440296
1770451885792,127,-1,-0.3280393637987173,1.0105695819242158,-0.6851476819349819
1770451885796,127,-1,-0.2965628762978454,1.0302657722153714,-0.6480524344786815
1770451885800,127,-1,-0.53066757865627,1.112572966387722,-0.8751175095628847
1770451885804,126,-2,-0.9030083158637828,0.3992392902921806,-1.2399931783667468
1770451885808,126,-2,-1.2304833830747477,0.0221999596387751,-1.560756372791381
1770451885812,126,-2,-1.3961638933114262,0.0852633825787356,-1.7209173260677924
1770451885816,126,-2,-1.4095865009911477,-0.0560133214689377,-1.729714648499701
1770451885820,126,-2,-1.3628423327278352,0.195615387512273,-1.6786127893977687
1770451885824,126,-2,-1.3246298364860607,0.3429235982661804,-1.6355105789176376
1770451885828,126,-2,-1.2672588830366005,0.0355115807889196,-1.5719047351133033
1770451885832,126,-2,-1.090172939315995,0.1820924817073921,-1.3871474480105264
1770451885836,127,-1,-0.7129458583474781,0.7732462722305986,-1.0021711778174622
1770451885840,127,-1,-0.1505758580597844,1.4441986514416305,-0.4340548643928806
1770451885844,128,0,0.4861680796352114,2.033244784316832,0.2057158996750245
1770451885848,128,0,1.0483082333066889,2.3988004941543046,0.7699585150701871
1770451885852,129,1,1.4164224553088374,2.8365224008666083,1.1421243963777643
1770451885856,129,1,1.5554167101195406,3.106761765496991,1.2884200245803537
1770451885860,129,1,1.5504423746058884,3.155764243881949,1.292639965773725
1770451885864,129,1,1.598675974383128,3.255277402814394,1.349357647255086
1770451885868,129,1,1.9229240193164472,3.279921926338051,1.67968967498416
1770451885872,130,2,2.6242361139229207,3.890501196181906,2.384703746041338
1770451885876,131,3,3.568465875414489,5.1510489730310205,3.331297271939553
1770451885880,132,4,4.412584177285529,6.040511389832353,4.177753437901627
1770451885884,132,4,4.7815422208071805,6.419798151290349,4.550385453843466
1770451885888,132,4,4.4841523383711674,6.113126152517791,4.259023139035942
1770451885892,131,3,3.621452797496332,5.059663713475782,3.4045106699354033
1770451885896,130,2,2.520666253624447,4.026366509483898,2.3123338077644617
1770451885900,129,1,1.547328289036335,3.1188644307704325,1.3458446239246074
1770451885904,128,0,0.9165034632501152,2.4044478304574692,0.719203821118575
1770451885908,128,0,0.6093438533354841,2.1080057258441505,0.4145227469796775
