timestamp_ms,ecg_u8_raw,ecg_counts_raw_int,ecg_counts_filt_monitor,ecg_counts_filt_diagnostic,ecg_counts_filt_st
1770448684996,175,47,46.91544672667246,48.63312827309943,48.36063662802363
1770448685000,166,38,37.592606201225856,39.92406807911016,39.0632367856968
1770448685004,153,25,25.47329014157561,26.95695851817883,26.96780752923187
1770448685008,140,12,13.785169859711452,14.212745556380275,15.29238944901677
1770448685012,132,4,4.940528828572415,5.865634629886526,6.447228939807629
1770448685016,128,0,-0.2767599601830381,1.9539750543662848,1.2197423315727116
1770448685020,126,-2,-2.584297068286156,-0.3632955728893554,-1.1011222312285502
1770448685024,124,-4,-3.356309836498249,-1.7509699347531211,-1.8818479516598696
1770448685028,124,-4,-3.7196209736470776,-2.0785889722027813,-2.243718317767031
1770448685032,123,-5,-4.135290706897976,-2.861077425926245,-2.648255201356482
1770448685036,123,-5,-4.541420367787393,-3.304115323710783,-3.039987031313368
1770448685040,123,-5,-4.7485284333811055,-3.0922158451479613,-3.237119202772395
1770448685044,123,-5,-4.7244884858305465,-2.992194643201469,-3.2110330440422543
1770448685048,123,-5,-4.615403098645802,-2.838075102798365,-3.1053797980679194
1770448685052,123,-5,-4.593242807608404,-3.0937531624993224,-3.0865409353659867
1770448685056,123,-5,-4.7143176227666785,-3.079860323590351,-3.206668325423925
1770448685060,123,-5,-4.898477618045059,-3.279772638863298,-3.3854685401840885
1770448685064,122,-6,-5.011074712210097,-3.798248951724048,-3.491393947133711
1770448685068,123,-5,-4.958608107811056,-3.010044378677158,-3.434430246579157
1770448685072,123,-5,-4.728613934198572,-2.9244483936763337,-3.2032464396758704
1770448685076,123,-5,-4.3727239681383185,-3.245364506372623,-2.847657735839332
1770448685080,124,-4,-3.9707965198123354,-2.0940215751307285,-2.444814841988956
1770448685084,124,-4,-3.596469702904823,-1.9489404153001404,-2.0673815780090297
1770448685088,124,-4,-3.283839203341497,-1.8925545245047648,-1.7507443698399583
1770448685092,125,-3,-3.007729249641429,-0.9718655879614452,-1.4715082733448273
1770448685096,125,-3,-2.702049269250386,-1.2714404164927102,-1.1639028924280506
1770448685100,125,-3,-2.316221665910412,-0.981347598105968,-0.776200639851611
1770448685104,126,-2,-1.864831151557541,-0.0802993190594907,-0.3221761284931352
1770448685108,126,-2,-1.41568060893117,0.2530722709496187,0.1296768794291511
1770448685112,127,-1,-1.0202077122973372,0.9131191632595584,0.5268834816068406
1770448685116,127,-1,-0.661683537015844,0.8070445024041761,0.8865543585961119
1770448685120,127,-1,-0.2831248739617327,0.9973063344661608,1.2671270240008905
1770448685124,128,0,0.1391529331463554,1.9246636220893123,1.692720618812547
1770448685128,128,0,0.568571420760835,2.2827230668615752,2.1253902886941396
1770448685132,129,1,0.9601669512162054,2.8830100785117603,2.518798232545498
1770448685136,129,1,1.321460329330418,2.845005032107175,2.880961166285064
1770448685140,129,1,1.702850521527726,2.9723061810355755,3.263909888134859
1770448685144,130,2,2.1321123366519537,3.954224106654248,3.695877964871589
1770448685148,130,2,2.5786767859730126,4.286452523574118,4.145040218438543
1770448685152,131,3,2.9896498785473247,4.8668193180429,4.557520865352766
1770448685156,131,3,3.3463452567403027,4.903217264227391,4.91543712933121
1770448685160,131,3,3.673588921497194,4.879710242778304,5.244930112321804
1770448685164,132,4,4.004461329257577,6.089471613517741,5.578812116276348
1770448685168,132,4,4.351543206640493,6.154421863829584,5.928138020761785
1770448685172,132,4,4.703949667785187,6.011405658720227,6.281417436783972
1770448685176,133,5,5.029287446079321,6.79016075508882,6.607313990232304
1770448685180,133,5,5.276196571197883,6.958430697082559,6.855714813340014
1770448685184,133,5,5.39776192305913,7.051175937254652,6.979758986246749
1770448685188,133,5,5.392394447448719,7.196254392596693,6.976961185861286
1770448685192,133,5,5.322339829480354,6.992977026176601,6.9088547732936
1770448685196,133,5,5.278562137256557,6.817121826227016,6.866510450003506
1770448685200,133,5,5.3112582492115425,6.919863800888882,6.90064898867608
1770448685204,133,5,5.385559002227144,7.119400966689129,6.976548200147002
1770448685208,133,5,5.40594503445857,7.127629114844429,6.998308493850762
1770448685212,133,5,5.2895669362647,7.112878814527415,6.882851355480272
1770448685216,133,5,5.020937609040034,6.659476902879379,6.615191646282721
1770448685220,132,4,4.640106960208094,6.114587606119278,6.2361747765975215
1770448685224,132,4,4.184965259330759,5.898855853003264,5.783691769831705
1770448685228,131,3,3.6523700410666065,5.402160908678427,5.253501115811655
1770448685232,131,3,3.013626769261794,4.8441362505516,4.615832034653598
1770448685236,130,2,2.254162525840687,3.9333849686469926,3.856344957130247
1770448685240,129,1,1.3859848011252571,2.8452311389492357,2.98838753663848
1770448685244,128,0,0.4268471080534575,2.153831323999066,2.0306927412093403
1770448685248,127,-1,-0.6131843232401519,1.2073274351277763,0.9930368225130032
1770448685252,126,-2,-1.7118648727464016,0.0220754787451733,-0.1033470960065545
1770448685256,125,-3,-2.8072751229765434,-1.19460803222249,-1.1972633363776026
1770448685260,124,-4,-3.804612187297983,-2.083043881211363,-2.1939380504738217
1770448685264,123,-5,-4.6228856801793965,-2.862991339651651,-3.0118195860049184
1770448685268,122,-6,-5.2451606490883735,-3.791632497906117,-3.6331900124070255
1770448685272,122,-6,-5.727792731458327,-3.913971647579508,-4.114099816268622
1770448685276,122,-6,-6.153331653385433,-4.284714500600942,-4.537769055363832
1770448685280,121,-7,-6.560660043758953,-4.983318419605982,-4.944145206380722
1770448685284,121,-7,-6.915258477593369,-4.968150286107715,-5.298818048750395
1770448685288,120,-8,-7.153428124415893,-5.652296544544126,-5.536798226846588
1770448685292,120,-8,-7.259751528517037,-6.036042053079447,-5.641458093120367
1770448685296,121,-7,-7.289700439742839,-5.149250021742758,-5.668877475770926
1770448685300,121,-7,-7.299402091945033,-5.129553909491494,-5.676922356525146
1770448685304,120,-8,-7.260647150818487,-5.819809891358559,-5.637849604379165
1770448685308,120,-8,-7.076220414245068,-5.760479192363482,-5.453186881862411
1770448685312,121,-7,-6.694852418516165,-4.931909685258776,-5.0708035361428365
1770448685316,122,-6,-6.197802513158042,-4.223126284518747,-4.572643643689905
1770448685320,122,-6,-5.759831772240441,-4.074487059235702,-4.134278154920635
1770448685324,122,-6,-5.526257559286745,-3.8521074052678186,-3.900603279476912
1770448685328,122,-6,-5.519978816564598,-3.718226173879815,-3.893557907697208
1770448685332,122,-6,-5.644451460135524,-3.9614030369543665,-4.016410539983056
1770448685336,122,-6,-5.763057470664057,-4.179982329834322,-4.133266078180476
1770448685340,122,-6,-5.78632186444045,-4.121080568766105,-4.155460968760954
1770448685344,122,-6,-5.704473025829732,-3.7815849243459767,-4.0733398510719745
1770448685348,122,-6,-5.554295527992766,-3.785960989726727,-3.922987415951563
1770448685352,122,-6,-5.364603142117538,-3.860835707706713,-3.732492311136967
1770448685356,123,-5,-5.131678397252682,-3.299374395473455,-3.498366691252675
1770448685360,123,-5,-4.837573413935202,-2.967534686786183,-3.203585680781489
1770448685364,123,-5,-4.490246943581367,-2.960040143466978,-2.8563504276745157
1770448685368,123,-5,-4.153423834523386,-2.548496496360227,-2.5195019902615754
1770448685372,124,-4,-3.93301657914088,-2.1224171591620844,-2.2981980630321543
1770448685376,124,-4,-3.9100032477653506,-2.006440257670618,-2.2738508965007904
1770448685380,124,-4,-4.065302223568561,-2.269580577786903,-2.4282925233008665
1770448685384,123,-5,-4.273784132446227,-2.648063558275931,-2.6364364988986377
1770448685388,123,-5,-4.392429263086408,-2.829325516271126,-2.7544784260811404
1770448685392,123,-5,-4.369843164983039,-2.851207886824968,-2.7308002406180476
1770448685396,124,-4,-4.2706284720394985,-2.2434538276047866,-2.630916340654164
1770448685400,124,-4,-4.191101552019717,-2.0478544947265047,-2.551805404831743
1770448685404,123,-5,-4.159491873270839,-2.8380859955353612,-2.520768762232788
1770448685408,123,-5,-4.12507897038855,-2.6487478905559416,-2.485631481112506
1770448685412,124,-4,-4.030830631745436,-1.999294579337945,-2.3894866261296337
1770448685416,124,-4,-3.8762492228686742,-2.116674784247957,-2.2335019024086993
1770448685420,124,-4,-3.71236711582705,-2.1198600973623805,-2.0698504264607154
1770448685424,124,-4,-3.5945576787183624,-1.7995756211120035,-1.953291218459243
1770448685428,124,-4,-3.544387408488511,-1.6345445755970005,-1.9037528054931183
1770448685432,124,-4,-3.543196034987094,-2.054536859776956,-1.9014881527166565
1770448685436,124,-4,-3.5474569829584857,-2.0030646097449845,-1.9035516200090996
1770448685440,125,-3,-3.5029146397217845,-1.259790488073005,-1.8574932906457071
1770448685444,124,-4,-3.3529339587873648,-1.611542729537213,-1.7077382791526714
1770448685448,124,-4,-3.0622874093163364,-1.8437127705408425,-1.418219778684275
1770448685452,125,-3,-2.6548361343005076,-0.8220989346748286,-1.011399523354633
1770448685456,126,-2,-2.215284386750328,-0.2274819056739185,-0.5717215649190592
1770448685460,126,-2,-1.826641337068844,-0.0341042581405566,-0.1826160433772141
1770448685464,126,-2,-1.4983202898872068,0.209882766248872,0.1466208040845997
1770448685468,126,-2,-1.1621580997899892,0.2976943436296202,0.4843072026165798
1770448685472,127,-1,-0.7380691443330665,1.0705197928615005,0.9095582604193176
1770448685476,128,0,-0.2035981589649378,1.877377381023556,1.4435457581418452
1770448685480,128,0,0.3804594850924447,1.878679596853868,2.025884769126447
1770448685484,128,0,0.8880211828070128,2.3356870491820505,2.532438852871376
1770448685488,129,1,1.1815576781626045,3.137575435144032,2.826653078819288
1770448685492,129,1,1.1936437359205647,3.258477210394163,2.839994285679136
1770448685496,129,1,0.9856476896191796,2.68635515920431,2.632521784367005
1770448685500,128,0,0.7130709221999398,2.094028243630226,2.359979101896483
1770448685504,128,0,0.5059190956709041,2.1517022912458756,2.153241431326639
1770448685508,128,0,0.3736020578856014,2.2793175194579773,2.021523902810941
1770448685512,128,0,0.2264399963463281,2.180328776612649,1.8741971024982051
1770448685516,128,0,-0.0200839137129666,1.716479040792097,1.626627421400242
1770448685520,127,-1,-0.3726152965925851,1.1509881116923593,1.2732039596284164
1770448685524,127,-1,-0.7808042473900678,1.0368968252065331,0.865163974400013
1770448685528,126,-2,-1.2072978242556718,0.4420471803417658,0.4395631342485799
1770448685532,126,-2,-1.662620638716507,-0.0068597536811676,-0.015189928066807
1770448685536,126,-2,-2.1719405262667775,-0.0574391437646681,-0.5248512393082048
1770448685540,125,-3,-2.716576736140647,-1.0546981310530614,-1.070151251098053
1770448685544,124,-4,-3.2176672547667406,-1.7779651882430123,-1.5711932310850891
1770448685548,124,-4,-3.5806701165187684,-1.707230732192614,-1.93335892920655
1770448685552,124,-4,-3.7553700843491753,-1.8943314173540815,-2.1074884904285875
1770448685556,124,-4,-3.7614427710275806,-2.0990486343281605,-2.11408163345782
1770448685560,124,-4,-3.673321106208953,-2.0285118373811715,-2.0272342377616845
1770448685564,124,-4,-3.583417397639733,-1.7846440568520272,-1.9384634745919964
1770448685568,124,-4,-3.559063096880338,-1.7133479728913326,-1.9145249863700111
1770448685572,124,-4,-3.610645204110131,-1.8828966155311344,-1.965630679108283
1770448685576,124,-4,-3.692275043430018,-2.0708246907318735,-2.0460751882964936
1770448685580,124,-4,-3.7351888487928098,-2.058847495574597,-2.087955606197088
1770448685584,124,-4,-3.6860171172019256,-1.73292590964684,-2.039153731459029
1770448685588,124,-4,-3.5265784150905435,-1.7887763400103944,-1.8817761199762757
1770448685592,124,-4,-3.2781396938867475,-1.7790430155260275,-1.6355460483633366
1770448685596,125,-3,-2.997119676771111,-1.1600263449319872,-1.3546276007014817
1770448685600,125,-3,-2.7541020984870235,-0.9492821773139152,-1.1088568535801613
1770448685604,125,-3,-2.5967446110399175,-0.8460919657764003,-0.94778244010568
1770448685608,125,-3,-2.526935939683473,-0.6742063482841332,-0.8768022527855965
1770448685612,125,-3,-2.5207629445892636,-0.8885998372294297,-0.8746011243305716
1770448685616,125,-3,-2.5674138019473216,-1.0229592797485103,-0.9297208633308748
1770448685620,125,-3,-2.649295540101553,-1.0720744856256392,-1.0203009632917035
1770448685624,125,-3,-2.60335805116745,-0.7239214776253546,-0.977476884806472
1770448685628,126,-2,-1.9186704386903888,0.2117766967010801,-0.2863593701455733
1770448685632,128,0,0.3382411464128987,2.2252961722977505,1.9855812116771552
1770448685636,133,5,5.266636372524319,6.907625888165018,6.930673623649782
1770448685640,141,13,13.527632044049843,14.998276939571152,15.199624269127966
1770448685644,152,24,24.660618399843983,26.238740691475893,26.324258375072947
1770448685648,164,36,36.75108661615414,38.23588268034635,38.39186790392044
1770448685652,174,46,46.783818969172984,48.22219191295914,48.39906481772504
1770448685656,180,52,51.68526404618965,53.893769840769174,53.286788842414246
1770448685660,178,50,49.64920500079242,52.00259264486222,51.256026809740334
1770448685664,169,41,41.069803237444425,43.19367270480403,42.69658453118777
1770448685668,156,28,28.494475970882483,30.291944838650117,30.144183843461764
1770448685672,142,14,15.512866754596637,16.171583916855298,17.177342098500617
1770448685676,132,4,5.160501047005277,6.0130562379629104,6.8261174163795
1770448685680,127,-1,-1.2395309994573085,0.9211001286504884,0.4144722670408685
1770448685684,124,-4,-4.169435511223798,-1.6804146483403906,-2.533765866915578
1770448685688,123,-5,-5.068418098579414,-2.8409640057252528,-3.448712936854818
1770448685692,122,-6,-5.266869181967106,-3.686137845921811,-3.652945035472942
1770448685696,122,-6,-5.4057590382662255,-4.168154059503224,-3.7859388130420903
1770448685700,122,-6,-5.522124212776685,-3.873033287012853,-3.8905693787798863
1770448685704,122,-6,-5.475945834464183,-3.8712183555837143,-3.835309415463909
1770448685708,122,-6,-5.275826788774678,-3.646273892691361,-3.6338565755190784
1770448685712,123,-5,-5.094621544769888,-2.838985188845137,-3.4583083297697805
1770448685716,123,-5,-5.078711342983514,-3.079938701097228,-3.450126562019378
1770448685720,122,-6,-5.200997538487193,-3.890905225505421,-3.5768039250353256
1770448685724,122,-6,-5.305907615219614,-3.899102062785612,-3.680570775608416
1770448685728,122,-6,-5.269345734511613,-3.535735394138796,-3.6398504572657657
1770448685732,123,-5,-5.08810221536114,-3.0016491168367305,-3.456191931658715
1770448685736,123,-5,-4.826083169836187,-2.8595387356187523,-3.1959096939853793
1770448685740,123,-5,-4.518525632547798,-3.156157660555685,-2.8923723623485964
1770448685744,123,-5,-4.1561096658781125,-2.583813819337375,-2.5327641155587073
1770448685748,124,-4,-3.7433585599813144,-1.8581672396560371,-2.1202152826624605
1770448685752,124,-4,-3.3340390465502296,-1.6643141635659815,-1.709879218070136
1770448685756,125,-3,-2.991503938698346,-1.1785530378987294,-1.367069313625013
1770448685760,125,-3,-2.7206427573219276,-0.8546394960901971,-1.0971727924226546
1770448685764,125,-3,-2.4506008852392145,-0.8529801683638918,-0.8283710288475468
1770448685768,125,-3,-2.0922770150355934,-0.6029391199378384,-0.4706541546370046
1770448685772,126,-2,-1.6161299336675912,0.123522570244285,0.0052053926955464
1770448685776,127,-1,-1.0755219098399005,1.0092793400566402,0.5449029260623652
1770448685780,127,-1,-0.5609077276305443,1.003087398829302,1.0578670741532898
1770448685784,127,-1,-0.1370382701164765,1.2513210651364104,1.4801999526744245
1770448685788,128,0,0.187564098565422,2.3442161850905214,1.8040301760748856
1770448685792,128,0,0.4536057245117408,2.153992189847697,2.069992337525386
1770448685796,128,0,0.7211267685144276,2.0063405417800597,2.337747952110001
1770448685800,129,1,1.034245402197936,3.0211052768128193,2.650839497049371
1770448685804,129,1,1.4044931555731348,3.2115563163142915,3.0200785131388295
1770448685808,129,1,1.8206074010177815,3.429826282388656,3.434140624981173
1770448685812,130,2,2.2613582626586815,4.044595269899535,3.872890021779119
1770448685816,130,2,2.6936130125071056,4.161588011366998,4.304402547500364
1770448685820,131,3,3.0740140225321113,4.835258664246366,4.6851723651945445
1770448685824,131,3,3.3755997108665623,5.438466989462403,4.986888516592931
1770448685828,131,3,3.6173656204622184,5.1824745224726545,5.227667610834108
1770448685832,131,3,3.8513480191343463,5.325057954138606,5.460062108506811
1770448685836,132,4,4.106682459916481,5.886299208863389,5.714198222808468
1770448685840,132,4,4.349920465295782,6.096962293331838,5.95684781906068
1770448685844,132,4,4.510305804337561,6.221841787168437,6.116705320684181
1770448685848,132,4,4.547583355919331,6.367010631882881,6.153053369471712
1770448685852,132,4,4.49449871750873,6.196713972795695,6.098806895665328
1770448685856,132,4,4.432214133767403,5.9755946645875575,6.035672384706565
1770448685860,132,4,4.422757731340814,6.049090858469164,6.02587276827323
1770448685864,132,4,4.463996694740717,6.255458536696396,6.066793890337156
1770448685868,132,4,4.507346968787745,6.363001357723771,6.109290732665438
1770448685872,132,4,4.510957255300025,6.208887131852794,6.111629767196826
1770448685876,132,4,4.467502456420716,5.955621589951094,6.067049715151449
1770448685880,132,4,4.383424630547976,6.091240467180231,5.982153400168677
1770448685884,132,4,4.242701187640353,6.195403539560426,5.840625899322641
1770448685888,131,3,3.995481637856379,5.478025806781675,5.59255843351691
1770448685892,131,3,3.579979979945347,5.061700544145033,5.176370792476563
1770448685896,131,3,2.962374895477285,5.147351768131465,4.5581620593838466
1770448685900,130,2,2.167479653545941,3.861072561448545,3.7625225752737848
1770448685904,128,0,1.268315735200065,2.462760398696324,2.8625648399620607
1770448685908,128,0,0.3347198597510554,2.2243554932399583,1.9282147198437751
1770448685912,127,-1,-0.609136031776575,1.309872805889158,0.9834203354449038
1770448685916,126,-2,-1.575556075057563,-0.0695053723734266,0.0158589720002511
1770448685920,125,-3,-2.5689364315434213,-0.9521500678306444,-0.978453124911077
1770448685924,124,-4,-3.551180954126468,-1.6799549096724626,-1.961204447010764
1770448685928,123,-5,-4.442301778691203,-2.6500693931778385,-2.852640981486309
1770448685932,122,-6,-5.15725390363052,-3.777163458301688,-3.5679628464148063
1770448685936,122,-6,-5.657588494106483,-3.997647969989639,-4.068891736238572
1770448685940,122,-6,-5.975867469151847,-4.009854808786527,-4.388285604887752
1770448685944,121,-7,-6.18757504965118,-4.614796116498055,-4.601682276427355
1770448685948,121,-7,-6.356286433542728,-4.703736445919487,-4.7720074739819545
1770448685952,121,-7,-6.500227038280254,-4.706401141679386,-4.9165833135240415
1770448685956,121,-7,-6.598409206929418,-5.073171424624706,-5.014273238639257
1770448685960,121,-7,-6.617411135088588,-4.937691013206556,-5.032622494872685
1770448685964,121,-7,-6.534113884404199,-4.648081118763717,-4.949750789705963
1770448685968,121,-7,-6.349073560469027,-4.70254773987886,-4.766437942274557
1770448685972,121,-7,-6.098010845164461,-4.631838797111625,-4.517413507516493
1770448685976,122,-6,-5.854083694424011,-4.222676023054091,-4.274833960394464
1770448685980,122,-6,-5.698611809384615,-3.7157537924339143,-4.119914157139552
1770448685984,122,-6,-5.666122053621287,-3.9127430785681394,-4.087461366029393
1770448685988,121,-7,-5.713472565752276,-4.384206068890241,-4.134416808303221
1770448685992,122,-6,-5.749765611647319,-3.962300818605089,-4.170291975277765
1770448685996,122,-6,-5.70135520468011,-3.8884931140502497,-4.122477077838432
1770448686000,122,-6,-5.557889639187821,-4.044420899995851,-3.981126751128554
1770448686004,122,-6,-5.3750327830191775,-3.5664042970519167,-3.80077212164034
1770448686008,122,-6,-5.241295894988444,-3.714957449857813,-3.6680836829201584
1770448686012,122,-6,-5.2219571862973515,-3.6318615095594655,-3.647955285834653
1770448686016,123,-5,-5.3008650089619875,-3.213956531206423,-3.7258846532084458
1770448686020,122,-6,-5.363875197645187,-3.723483522178094,-3.789373814150645
1770448686024,122,-6,-5.264329945044937,-3.858062692356919,-3.691332536151881
1770448686028,122,-6,-4.943159390119574,-3.4211420065641587,-3.3709986744390785
1770448686032,123,-5,-4.496956234492026,-2.9046026870637984,-2.924656174906896
1770448686036,124,-4,-4.109718664503525,-1.9701138727268548,-2.5379442387063236
1770448686040,124,-4,-3.9006699814252546,-1.9105887311336471,-2.331092239278111
1770448686044,123,-5,-3.8426889926596304,-2.721565116444111,-2.275361974174395
1770448686048,123,-5,-3.832762432364715,-2.4808308580567697,-2.2653980865231165
1770448686052,124,-4,-3.819030624116828,-1.9082003074136231,-2.249627134814824
1770448686056,124,-4,-3.830347576542377,-1.911767228531689,-2.2597240358766917
1770448686060,124,-4,-3.890865296403998,-1.9784907266868887,-2.3216425106727616
1770448686064,123,-5,-3.949822874168674,-2.6276609662460837,-2.3833053006563314
1770448686068,123,-5,-3.924295807186688,-2.586678715108682,-2.3593366670577787
1770448686072,124,-4,-3.7981414376897544,-1.792438249102699,-2.2330106297990793
1770448686076,124,-4,-3.6512991903491887,-2.028062413769597,-2.0856842356541594
1770448686080,124,-4,-3.5841283441363276,-1.8259879076689116,-2.018905700437034
1770448686084,124,-4,-3.622029209472641,-1.7774810096386142,-2.0577362697820454
1770448686088,123,-5,-3.6972753227174815,-2.445418077566133,-2.13352844894875
1770448686092,124,-4,-3.71644281757489,-1.940390883663108,-2.1528117922967596
1770448686096,124,-4,-3.640456330621456,-1.8478823558692357,-2.0772840765544203
1770448686100,124,-4,-3.506286015329512,-2.012646261719471,-1.9442032710163533
1770448686104,124,-4,-3.3834533663359423,-1.5285751065751536,-1.8223423291495648
1770448686108,124,-4,-3.310125214493959,-1.7665619975432103,-1.749116482969033
1770448686112,124,-4,-3.257194466782104,-1.56846217407882,-1.695755875213527
1770448686116,125,-3,-3.1444247573948223,-1.249271118361646,-1.5830153201516382
1770448686120,124,-4,-2.901882548756048,-1.5500388817777204,-1.341333101970282
1770448686124,125,-3,-2.53581579784907,-1.0007000179686845,-0.976471694229486
1770448686128,125,-3,-2.138798882230727,-0.2965013897426698,-0.580571453332305
1770448686132,126,-2,-1.8179345918109169,-0.0394717866362297,-0.2606825604434113
1770448686136,126,-2,-1.5956647239152326,0.2124609589932911,-0.0388742240965029
1770448686140,126,-2,-1.3795945165717045,0.0699109771911548,0.1779594882142499
1770448686144,126,-2,-1.0358273938325664,0.3015666730432806,0.5233943095131335
1770448686148,127,-1,-0.4966326814399013,1.4936166635437418,1.06322068874719
1770448686152,128,0,0.1899069134734938,2.0642856039337616,1.7477754422428986
1770448686156,128,0,0.8861902989804094,2.219539616789647,2.440555364579751
1770448686160,129,1,1.4232138762093396,3.0275249524293315,2.975451108551318
1770448686164,129,1,1.6637296979914815,3.3695263184701156,3.216583592703484
1770448686168,129,1,1.570181565779185,3.4133257869585987,3.124847777108399
1770448686172,129,1,1.245684144568731,3.12879414207576,2.8011272945049672
1770448686176,128,0,0.8883263806891697,2.2015844293896443,2.443222265452863
1770448686180,128,0,0.6596448579289347,2.045938798093742,2.2139217952563093
1770448686184,128,0,0.5702333048255384,2.362042583792735,2.1242671559971127
1770448686188,128,0,0.4923633968186041,2.4225027500368257,2.0455555599806026
1770448686192,128,0,0.2860862276622078,2.0939588595587773,1.8373260381227756
1770448686196,127,-1,-0.090442197406817,1.3123225053733705,1.458986641581315
1770448686200,127,-1,-0.5840905144149202,0.8711049159841384,0.965272298467596
1770448686204,126,-2,-1.1269651385784272,0.619391711328658,0.4238586603418146
1770448686208,126,-2,-1.6869562627230943,0.083038788816486,-0.1350680728404589
1770448686212,125,-3,-2.2448939737443343,-0.4940070051695433,-0.6937061999300447
1770448686216,125,-3,-2.752921202074202,-1.110308936218564,-1.203510047195842
1770448686220,124,-4,-3.141364776628931,-1.7015046399749418,-1.5930863602845289
1770448686224,124,-4,-3.369296259461394,-1.7780008330417028,-1.8208901931058576
1770448686228,124,-4,-3.456684340839506,-1.5765257297138646,-1.9079426088687503
1770448686232,124,-4,-3.461915836624745,-1.748927250766946,-1.913775308914917
1770448686236,124,-4,-3.4361304193013487,-1.9103687983935416,-1.8892741797627224
1770448686240,124,-4,-3.4047538159606243,-1.827023653336834,-1.858749083050499
1770448686244,124,-4,-3.3807312128459586,-1.719148214985863,-1.834738202193817
1770448686248,124,-4,-3.375781237296901,-1.5923417298762064,-1.8296097851289077
1770448686252,124,-4,-3.3935593554925476,-1.7370935277094146,-1.847653017708732
1770448686256,124,-4,-3.4227104080944,-1.9004504424455195,-1.877454052601382
1770448686260,124,-4,-3.4445806867415873,-1.8225310852017376,-1.900158111794355
1770448686264,124,-4,-3.442868162383808,-1.7505844261671784,-1.899562351717084
1770448686268,124,-4,-3.400815716258059,-1.5424147736107527,-1.8585861211068424
1770448686272,124,-4,-3.298307044921336,-1.770399845010087,-1.75584832518906
1770448686276,124,-4,-3.126600560518404,-1.862697283138836,-1.5818055135899
1770448686280,125,-3,-2.907787582771572,-0.8315727473307084,-1.360140669309391
1770448686284,125,-3,-2.693575586499251,-0.7866170619834794,-1.1459572360112595
1770448686288,124,-4,-2.5467951955102857,-1.461651991115401,-1.00428444992914
1770448686292,125,-3,-2.514832180713809,-0.8694211413667365,-0.981250722469365
1770448686296,125,-3,-2.5623767857800415,-0.718257259518456,-1.0370246811970016
1770448686300,125,-3,-2.431613273512346,-1.0029005083748703,-0.9081155156855628
1770448686304,126,-2,-1.4929620671899375,0.4017857983883486,0.038528822750675
1770448686308,129,1,1.251027985887449,3.3550752741062757,2.7983933665088347
1770448686312,134,6,6.8590342365342725,8.320644760266601,8.422208479411449
1770448686316,143,15,15.853021699179289,17.1459383207268,17.421646789312554
1770448686320,155,27,27.58282708295818,29.10239345771632,29.140429119804573
1770448686324,167,39,39.96298093454321,41.336223367045285,41.496616692387136
1770448686328,177,49,49.89830018764026,51.38269086339525,51.407627300986846
1770448686332,182,54,54.37469596674067,56.31313375215693,55.87303629918231
1770448686336,180,52,51.77799309058675,54.10932908570365,53.283874805792145
1770448686340,171,43,42.75190900287424,45.128203624748295,44.2779830445237
1770448686344,157,29,30.027137294989487,31.29024466729697,31.57475779818011
1770448686348,143,15,17.198882211794874,17.456399376345733,18.75984592976246
1770448686352,134,6,7.118470929757938,8.282484705012497,8.679771276364665
1770448686356,129,1,0.8576303972601242,3.2001859204052887,2.406548873889388
1770448686360,126,-2,-2.2137566084436475,0.0541875210096529,-0.6840944488968868
1770448686364,124,-4,-3.5037030035976064,-1.618610093419356,-1.990166086461792
1770448686368,123,-5,-4.199570072445495,-2.6749248663136016,-2.6904604143280393
1770448686372,122,-6,-4.809185092821463,-3.5946683258576626,-3.2919059511996984
1770448686376,122,-6,-5.309194173938051,-3.907189577519354,-3.7786055895643553
1770448686380,122,-6,-5.547990016784008,-3.82554761005568,-4.008825571170078
1770448686384,122,-6,-5.520094487369131,-3.709318179488404,-3.98203664812735
1770448686388,122,-6,-5.376847938048786,-3.618561338247634,-3.846853027421016
1770448686392,122,-6,-5.285461069805859,-3.643100364268038,-3.763418517464775
1770448686396,122,-6,-5.312153026448415,-3.8563993336309847,-3.792522990134552
1770448686400,122,-6,-5.408410261783815,-3.8553827899016673,-3.8855991569346866
1770448686404,122,-6,-5.465660275212356,-3.646053379416996,-3.938399424735905
1770448686408,122,-6,-5.376492545001085,-3.727946384166655,-3.8479378657342247
1770448686412,122,-6,-5.081498972505322,-3.496330803911861,-3.5556933189173576
1770448686416,123,-5,-4.606178102344259,-3.035161119302741,-3.084474191531434
1770448686420,123,-5,-4.070690907286063,-2.6204717442520837,-2.551247071469298
1770448686424,124,-4,-3.638546669647507,-1.880342346663089,-2.1188030512564655
1770448686428,124,-4,-3.410948152073377,-1.5164613072238913,-1.890173490812584
1770448686432,124,-4,-3.3436572525205515,-1.6782139234206248,-1.822976771835649
1770448686436,124,-4,-3.2735328912246486,-1.906642204647239,-1.7539457543524688
1770448686440,124,-4,-3.0495459820162916,-1.6497687551883442,-1.5306879156618085
1770448686444,125,-3,-2.651405386336412,-0.918529249392547,-1.1324928245279513
1770448686448,125,-3,-2.1806177774540583,-0.4066348078497408,-0.6619910315359312
1770448686452,126,-2,-1.738661624406871,0.1504764321489418,-0.2215995329506093
1770448686456,126,-2,-1.3262976863564473,0.2997213591713872,0.1887636900820828
1770448686460,126,-2,-0.870189403985179,0.1593471158028858,0.6440857661004791
1770448686464,127,-1,-0.3348233539280401,1.253664541090631,1.1799568548937172
1770448686468,128,0,0.2184319973755484,2.471718352460325,1.733307164108034
1770448686472,128,0,0.6900115668777809,2.2165101723853207,2.203598803549774
1770448686476,128,0,1.039865487127242,2.2853658425885044,2.5519039897274527
1770448686480,129,1,1.3174896183970903,3.1621694092833357,2.8290855879725587
1770448686484,129,1,1.6133067581702043,3.245084419552601,3.1252040038308895
1770448686488,129,1,1.9916456311824453,3.520214099351449,3.503290180365193
1770448686492,130,2,2.4515696913409117,4.131401332647808,3.9620656197173902
1770448686496,130,2,2.928110192211513,4.413166582862869,4.437340743894859
1770448686500,131,3,3.3317811594706024,5.018304996305192,4.8402053060513275
1770448686504,131,3,3.606639753278919,5.393104831307428,5.11446231792544
1770448686508,131,3,3.764329173911112,5.40288720169055,5.271435534765892
1770448686512,131,3,3.8600744439217225,5.2067513295795145,5.366587105937578
1770448686516,131,3,3.9310588516864007,5.403140322537716,5.43730428837766
1770448686520,132,4,3.963348164819474,5.965730041353754,5.469228144269353
1770448686524,131,3,3.923542503373786,5.519967126014319,5.428528905742549
1770448686528,131,3,3.814382120662023,5.229881130650915,5.318275239003833
1770448686532,131,3,3.689490537951483,5.4173949292125485,5.19271703963337
1770448686536,131,3,3.6155261791784663,5.177622709409926,5.118561666613573
1770448686540,131,3,3.6229352692402106,5.1913534989572945,5.125774135032949
1770448686544,131,3,3.68604348563469,5.333752357476788,5.188312347430221
1770448686548,131,3,3.74172060355506,5.385125801896378,5.24303954826182
1770448686552,131,3,3.7282877147626814,5.301231716778866,5.228437410795301
1770448686556,131,3,3.615730927493305,5.260502306813345,5.114748851637105
1770448686560,131,3,3.4070129773960796,5.133497357334914,4.905381769311391
1770448686564,130,2,3.1139909488375257,4.400938676934265,4.612496540799064
1770448686568,130,2,2.7357824320580457,4.313114535704337,4.234720072573629
1770448686572,130,2,2.2657598900190576,4.395391687516494,3.764410517648925
1770448686576,129,1,1.7138625922152122,3.1421539895495028,3.211287118584871
1770448686580,128,0,1.1022012609942309,2.277742337029032,2.598366981502827
1770448686584,128,0,0.4300690210805109,2.258749055082121,1.9255806742268455
1770448686588,127,-1,-0.3402751847386422,1.456657948235588,1.154751904322041
1770448686592,126,-2,-1.2469254676113797,0.2668621910586553,0.2473378101919809
1770448686596,125,-3,-2.2791077238626434,-0.7398210461004049,-0.7854887592000499
1770448686600,124,-4,-3.365276139217536,-1.8244629631285747,-1.8717216549481248
1770448686604,123,-5,-4.400235491431544,-2.6487098359756,-2.906473116108262
1770448686608,122,-6,-5.284782517034049,-3.604695569656603,-3.791086966630692
1770448686612,121,-7,-5.9613533177924305,-4.691097477879312,-4.468078657882491
1770448686616,121,-7,-6.433747186081085,-4.752159403556466,-4.941176499587792
1770448686620,121,-7,-6.754921319602791,-4.835870654328328,-5.263489056106759
1770448686624,120,-8,-6.987681866066353,-5.610601242306202,-5.497693856113588
1770448686628,120,-8,-7.171510080240599,-5.650171902358423,-5.682540505458669
1770448686632,120,-8,-7.316448428874185,-5.621923326903304,-5.827463388631827
1770448686636,120,-8,-7.409484345380227,-5.8506285767527455,-5.919701816922785
1770448686640,120,-8,-7.416648290611706,-5.698373991438962,-5.92612925237088
1770448686644,120,-8,-7.29015969474963,-5.776717671812201,-5.79965709089482
1770448686648,120,-8,-6.995479481066024,-5.44315669344994,-5.505901573689032
1770448686652,121,-7,-6.548789756527527,-4.847881337764909,-5.060668841127585
1770448686656,121,-7,-6.034763239842412,-4.614486140485903,-4.547937956855154
1770448686660,122,-6,-5.581178335158288,-3.931079295945643,-4.0949207725462
1770448686664,122,-6,-5.2961447509222905,-3.542214213891021,-3.809706746005856
1770448686668,122,-6,-5.206472906559087,-3.660995748262862,-3.719568715089874
1770448686672,122,-6,-5.245408768331282,-3.6445734989227514,-3.75824678391399
1770448686676,122,-6,-5.305207486436271,-3.7947014005476167,-3.818208857161682
1770448686680,122,-6,-5.315476882128879,-3.77916927362423,-3.829010706988961
1770448686684,122,-6,-5.283755342869575,-3.642192341915656,-3.798011380505084
1770448686688,122,-6,-5.26681414662926,-3.5978530493866474,-3.7817587822002463
1770448686692,122,-6,-5.301319339412865,-3.659831548521251,-3.8166999007273583
1770448686696,122,-6,-5.356463047890801,-3.825040854445503,-3.8718821973376145
1770448686700,122,-6,-5.3498858137614995,-3.710956589539858,-3.864942885566626
1770448686704,122,-6,-5.212787810456344,-3.726423504403484,-3.7272953643416287
1770448686708,122,-6,-4.948531780609783,-3.4871181605837194,-3.4628080035741036
1770448686712,123,-5,-4.634964735102729,-2.773375229705658,-3.1498893259495713
1770448686716,123,-5,-4.370966244764311,-2.7150858302241665,-2.8873554866748523
1770448686720,123,-5,-4.217810609430456,-2.8155767391428035,-2.735493838022168
1770448686724,123,-5,-4.181928246699257,-2.619532402660911,-2.6996854643065604
1770448686728,123,-5,-4.233526597721655,-2.582243314856078,-2.7501769661798767
1770448686732,123,-5,-4.324163131130682,-2.6765167060028325,-2.8396002936295286
1770448686736,123,-5,-4.390245155050135,-2.80962817647265,-2.9053120304831026
1770448686740,123,-5,-4.3632360747962355,-2.7193341357434484,-2.8787684406853766
1770448686744,123,-5,-4.201579487594563,-2.71162430025146,-2.7177757489121537
1770448686748,123,-5,-3.92475897595082,-2.4787957807792047,-2.4414486713587253
1770448686752,124,-4,-3.6128213404823977,-1.7779910008768578,-2.130006732505607
1770448686756,124,-4,-3.3615060941940453,-1.7034212883309534,-1.8792335475992648
1770448686760,124,-4,-3.2276632304820603,-1.8281456265832583,-1.7454457343985332
1770448686764,124,-4,-3.2074727669891674,-1.59939170743829,-1.7244255335776546
1770448686768,124,-4,-3.2530488857247057,-1.581411656020633,-1.7688708460511195
1770448686772,124,-4,-3.3038166783019283,-1.6793086756614537,-1.8192774909901883
1770448686776,124,-4,-3.31606330878053,-1.7800073587374357,-1.832215874668897
1770448686780,124,-4,-3.285091330179161,-1.7729630364445583,-1.802182703530626
1770448686784,124,-4,-3.2471571118310996,-1.629316095734871,-1.7645314611959124
1770448686788,124,-4,-3.249025993227805,-1.567546551992593,-1.7659607773618011
1770448686792,124,-4,-3.300811752901316,-1.666084713068817,-1.8171967470018184
1770448686796,124,-4,-3.353650766593649,-1.8075688043925384,-1.8698197892938069
1770448686800,124,-4,-3.3294955683111227,-1.7290422216583403,-1.845580275657869
1770448686804,124,-4,-3.182734523260931,-1.691357264361968,-1.6984505595632626
1770448686808,124,-4,-2.938425434016389,-1.474672292508819,-1.453684089271119
1770448686812,125,-3,-2.66763003534893,-0.7784500662099245,-1.1831426069721247
1770448686816,125,-3,-2.4205027559119365,-0.6551611196822753,-0.9371741470999232
1770448686820,125,-3,-2.1848482020732054,-0.9284061484989028,-0.7023795528156791
1770448686824,125,-3,-1.9103126386103135,-0.4443087424531899,-0.4270100777699301
1770448686828,126,-2,-1.560453559644427,0.233375345179998,-0.074914847668106
1770448686832,126,-2,-1.1291115233629534,0.5723696946150734,0.3581705121097041
1770448686836,127,-1,-0.6185364161084337,0.9619136074503304,0.8685137535793546
1770448686840,127,-1,-0.03247959694416,1.4836283155549546,1.4527525094444975
1770448686844,128,0,0.5908131316663701,2.11257908067786,2.074383440155005
1770448686848,128,0,1.1482362360822804,2.695953961305082,2.631759436016686
1770448686852,129,1,1.501828963935519,3.1223395944793237,2.9868896494847568
1770448686856,129,1,1.5681644547812237,3.4054626975552784,3.0549946659817984
1770448686860,129,1,1.3930844722777245,3.0678755097657997,2.88059861061069
1770448686864,128,0,1.129680633742414,2.4676267005517705,2.6167299009143146
1770448686868,128,0,0.9193683232919436,2.4099736000109875,2.4058116638379077
1770448686872,128,0,0.7770671950051375,2.3547920086869967,2.263583077878968
1770448686876,128,0,0.5916918195801453,2.2516451959373622,2.0787806993248967
1770448686880,128,0,0.2473421047268145,2.1673764144568395,1.7348320493729428
1770448686884,127,-1,-0.2502743222462362,1.3893450719352212,1.2373208369880824
1770448686888,126,-2,-0.7679984897574008,0.476050930740358,0.7199370942176648
1770448686892,126,-2,-1.1668482351031533,0.2894139877652044,0.3218373087720003
1770448686896,126,-2,-1.4287429887508951,0.3649228336694019,0.0603970429533609
1770448686900,126,-2,-1.664585519203495,0.0107436162890404,-0.1759080715463041
1770448686904,125,-3,-2.003272267403503,-0.4110516458357063,-0.5154370728593922
1770448686908,125,-3,-2.470549299625731,-0.7711697380681937,-0.9826958246648818
1770448686912,124,-4,-2.9607485951186914,-1.4361162062987107,-1.471505108074321
1770448686916,124,-4,-3.314250422007202,-1.887549738014462,-1.8231208498758824
1770448686920,124,-4,-3.4303224145100986,-1.769601290740639,-1.9382502752027992
1770448686924,124,-4,-3.329639187765144,-1.567364145705029,-1.8381283833982536
1770448686928,124,-4,-3.1317946777732324,-1.7047268857856128,-1.6415127042011726
1770448686932,124,-4,-2.9764481941150436,-1.4054287828014167,-1.486816250932049
1770448686936,125,-3,-2.9438491676792076,-0.991588425508529,-1.4538157009752863
1770448686940,124,-4,-3.0224793257511355,-1.5968227399013668,-1.5313175798802925
1770448686944,124,-4,-3.141685374857029,-1.7872718814685156,-1.6492328574288493
1770448686948,124,-4,-3.2386776363402277,-1.4682212677769906,-1.7454140719912297
1770448686952,124,-4,-3.2987404966193266,-1.6380040270672174,-1.8056643572761244
1770448686956,124,-4,-3.338309316423371,-1.7579090207951875,-1.8462041402145095
1770448686960,124,-4,-3.360403854719485,-1.8008184515166965,-1.8689324744758984
1770448686964,124,-4,-3.331378790998889,-1.6213143226771445,-1.838927695634335
1770448686968,124,-4,-3.2000547425338284,-1.6083845246788306,-1.7046330120078823
1770448686972,124,-4,-2.944978118108903,-1.5189239807401789,-1.4458457969111445
1770448686976,125,-3,-2.6144178159108806,-0.8408103380619969,-1.1136310314405264
1770448686980,125,-3,-2.3222025312744625,-0.7243286839807559,-0.8246117437799345
1770448686984,125,-3,-2.182766314801478,-0.7054269679628047,-0.6933351148676197
1770448686988,125,-3,-2.195562940414149,-0.5220150372084857,-0.7149982656893754
1770448686992,125,-3,-2.107689760147485,-0.6167708034258954,-0.6297247926895313
1770448686996,126,-2,-1.305955819500038,0.2904953737338527,0.1804216454282592
1770448687000,129,1,1.1729811369152046,3.138053874020764,2.676598807318765
1770448687004,134,6,6.402826853649817,8.443507642031014,7.9234568152814
1770448687008,142,14,15.049349671283233,16.328545943895737,16.576389087705465
1770448687012,153,25,26.721914178956016,27.540315969586473,28.239900682555636
1770448687016,167,39,39.579584988865214,41.16111577516629,41.07699584701576
1770448687020,178,50,50.60688998190726,52.24846705486443,52.08287402427362
1770448687024,184,56,56.64818953929965,58.33104590743599,58.11308268518514
1770448687028,184,56,55.77667857854062,58.384487456711064,57.245982838497454
1770448687032,176,48,48.24779109507191,50.469495405054815,49.73399915546729
1770448687036,163,35,36.4259950839718,37.21488067271936,37.93336957957965
1770448687040,150,22,23.667009501901457,24.21812100976788,25.19059127660784
1770448687044,140,12,12.816890602191592,14.403033841018852,14.344727898164855
1770448687048,133,5,5.218624471715936,7.324421553928555,6.737183136144061
1770448687052,128,0,0.6871300110462246,2.596220783268282,2.1886688953463196
1770448687056,126,-2,-1.7850310599633827,0.0520596984374504,-0.2979392185307956
1770448687060,124,-4,-3.211520737036186,-1.6011907462698325,-1.728486967400542
1770448687064,123,-5,-4.172723530305232,-2.8210374599348182,-2.683160253235323
1770448687068,122,-6,-4.839860177900512,-3.443019257240394,-3.3394496189626324
1770448687072,122,-6,-5.232299042143478,-3.6071335614446784,-3.723968328565834
1770448687076,122,-6,-5.418916941365013,-3.767576112243821,-3.9090729723976905
1770448687080,122,-6,-5.531349232212711,-3.755227563286674,-4.025084211433198
1770448687084,122,-6,-5.658925209588543,-3.720657440206277,-4.157242794114058
1770448687088,121,-7,-5.78076536411622,-4.501134638519345,-4.280881986500847
1770448687092,121,-7,-5.814059339588704,-4.5654010103927245,-4.312254160237126
1770448687096,122,-6,-5.7154274346465925,-3.7741509790912673,-4.210326579551139
1770448687100,122,-6,-5.521119088320431,-3.778494199760801,-4.014501695760417
1770448687104,122,-6,-5.2991761397005135,-3.68949637424272,-3.7935694484581575
1770448687108,122,-6,-5.088182849610969,-3.5386486348964152,-3.584091924569111
1770448687112,122,-6,-4.887663916146246,-3.508706564232663,-3.383540240194993
1770448687116,123,-5,-4.684232790413795,-2.842829185948042,-3.1786919879641444
1770448687120,123,-5,-4.465528922265178,-2.6802939093775886,-2.958763419936111
1770448687124,123,-5,-4.214636771315808,-2.84518137048501,-2.7076234654644264
1770448687128,123,-5,-3.910784180804156,-2.3132787593968924,-2.4039067407159913
1770448687132,124,-4,-3.542016673132317,-1.7992431103719624,-2.034881534965172
1770448687136,124,-4,-3.110177854971478,-1.482112956329166,-1.6023454468841636
1770448687140,125,-3,-2.6215083460076087,-1.0870508996735375,-1.113004191651454
1770448687144,125,-3,-2.0784209393382924,-0.4244283543042155,-0.5696321546743484
1770448687148,126,-2,-1.485151325097308,0.2748357521973772,0.0236834645677319
1770448687152,126,-2,-0.8636764145869189,0.5812342394689001,0.6455174572591993
1770448687156,127,-1,-0.2635923067517445,1.2082258996170667,1.2464610393902706
1770448687160,128,0,0.2532268785668994,2.1371815828109613,1.763959979485842
1770448687164,128,0,0.650634004672769,2.4401800759853103,2.1611995622647022
1770448687168,128,0,0.941501757444004,2.315543199055916,2.4516252118658177
1770448687172,128,0,1.1658979363380555,2.6271614925537925,2.6765932320375634
1770448687176,129,1,1.3509067012381728,3.112553592154077,2.8633751730248544
1770448687180,129,1,1.505630186155693,3.2507509782135005,3.019705921379156
1770448687184,129,1,1.653467027695603,3.3460213142341635,3.167724840316974
1770448687188,129,1,1.846012116493892,3.356569876987072,3.3594390358322546
1770448687192,129,1,2.123986500513553,3.6598525474399057,3.6371417187218658
1770448687196,130,2,2.464441865656436,4.008616772753572,3.9787003449196927
1770448687200,130,2,2.783739083799804,4.420281860952324,4.299550400360805
1770448687204,131,3,3.0087112213407226,5.133370622235935,4.525108956046649
1770448687208,130,2,3.144024734410425,4.592132682455221,4.660103195430146
1770448687212,130,2,3.256543777621349,4.411170765243211,4.772844836889389
1770448687216,131,3,3.3919019624575455,5.262588571881529,4.909616166480276
1770448687220,131,3,3.5226136573769975,5.166906197378607,5.041714938150949
1770448687224,131,3,3.5868994848500795,5.394330300812005,5.106056954245852
1770448687228,131,3,3.5640006986806747,5.334398291148208,5.082566452785296
1770448687232,130,2,3.494049073304916,4.655452493276976,5.0132581234991545
1770448687236,131,3,3.4294516325276883,5.021742977702465,4.950858079747372
1770448687240,131,3,3.3878680651380333,5.4046205975326185,4.911067250516364
1770448687244,131,3,3.355119161830307,5.180176635162647,4.8781850034525025
1770448687248,130,2,3.3044164660087105,4.5296522869194895,4.826582241338771
1770448687252,130,2,3.189519813634067,4.4867931323565475,4.712124576989476
1770448687256,131,3,2.9406512140665804,5.122161957449245,4.465076380057026
1770448687260,130,2,2.505908120822278,4.389496199310623,4.031860498943475
1770448687264,129,1,1.9001679508265168,3.1241112173963774,3.426633493456184
1770448687268,128,0,1.189662743749372,2.670099862256833,2.7164443321383698
1770448687272,128,0,0.4239510116571954,2.26129145727798,1.951497492387606
1770448687276,127,-1,-0.4015532035565745,1.37546456196175,1.1269837215236298
1770448687280,126,-2,-1.314470268834977,0.15760863058569,0.2150600519266867
1770448687284,125,-3,-2.309204663132432,-0.6729123939775445,-0.7785938749424548
1770448687288,124,-4,-3.3219586682951094,-1.4618563522229842,-1.790300377718968
1770448687292,123,-5,-4.2550108567591725,-2.7234267038635016,-2.7225649121830067
1770448687296,122,-6,-5.032938984670228,-3.5411799545245364,-3.4997745377935923
1770448687300,122,-6,-5.649157068095832,-4.000947901441831,-4.114985469063409
1770448687304,121,-7,-6.15821797981573,-4.4280715991846185,-4.622869173317138
1770448687308,121,-7,-6.612926925872249,-4.75618724561062,-5.076623843788829
1770448687312,120,-8,-7.005974922692233,-5.431693378734385,-5.468845256125247
1770448687316,120,-8,-7.278715273337981,-5.832339725272183,-5.7403473846282145
1770448687320,120,-8,-7.389298057682152,-5.721980487371053,-5.849217971523228
1770448687324,120,-8,-7.367749372469245,-5.65212969619089,-5.826244533690737
1770448687328,120,-8,-7.30229546277498,-5.578336750921905,-5.760326575576967
1770448687332,120,-8,-7.274922098327099,-5.5843883394678855,-5.733041877005467
1770448687336,120,-8,-7.308520425946763,-5.726313751398402,-5.766066489457751
1770448687340,120,-8,-7.36399407184823,-5.792009647106475,-5.81954249342838
1770448687344,120,-8,-7.374435643773756,-5.580891740997074,-5.827070217866392
1770448687348,120,-8,-7.281938992349096,-5.640254831353216,-5.732100682405937
1770448687352,120,-8,-7.058755340953987,-5.546257612045487,-5.507951478118257
1770448687356,121,-7,-6.715538287915506,-4.764882245556125,-5.165110895946337
1770448687360,121,-7,-6.3034464846822695,-4.754609365992204,-4.753315360483512
1770448687364,121,-7,-5.9066705096519705,-4.593777062320163,-4.355333265634334
1770448687368,122,-6,-5.610812924077041,-3.6310621234113425,-4.056899874370836
1770448687372,122,-6,-5.446812586168921,-3.5752269192990744,-3.89044216906484
1770448687376,122,-6,-5.354595928102554,-3.7415229866302897,-3.796756689516567
1770448687380,122,-6,-5.22210996964832,-3.772495501971147,-3.6630909514145458
1770448687384,122,-6,-4.983528254966249,-3.558126023021551,-3.4228138884506256
1770448687388,123,-5,-4.6809177491737906,-2.6737078852490748,-3.118534874897497
1770448687392,123,-5,-4.422785747257539,-2.531915677301111,-2.859702880871579
1770448687396,123,-5,-4.286829036551234,-2.809889012742804,-2.723550371023139
1770448687400,123,-5,-4.268511600855786,-2.6819261098597114,-2.703977900594473
1770448687404,123,-5,-4.310105315223977,-2.652764082712787,-2.742678782362373
1770448687408,123,-5,-4.356276318038748,-2.5798368643313503,-2.7855871280652713
1770448687412,123,-5,-4.378818434359485,-2.6164195873999248,-2.8061325989630537
1770448687416,123,-5,-4.370845380298123,-2.757052991868167,-2.7976491212994117
1770448687420,123,-5,-4.340769626504717,-2.7033840574014967,-2.767342995018088
1770448687424,123,-5,-4.3136711756088095,-2.6504715871943807,-2.739087691533738
1770448687428,123,-5,-4.321370463436104,-2.568199295293166,-2.7445814748237507
1770448687432,123,-5,-4.373411605682643,-2.6312766886348236,-2.7941161671912913
1770448687436,123,-5,-4.432205055959163,-2.7642744842223013,-2.8507600981777155
1770448687440,123,-5,-4.42381070606417,-2.6696024341752964,-2.840524055834735
1770448687444,123,-5,-4.287095492413645,-2.7106786348126097,-2.70182131663569
1770448687448,123,-5,-4.02481604812783,-2.475557181560214,-2.4373951770532276
1770448687452,124,-4,-3.710555366879221,-1.7526714868120878,-2.1215091733553493
1770448687456,124,-4,-3.4428161397758226,-1.6308035964936471,-1.8531190748460071
1770448687460,124,-4,-3.288443376282461,-1.8115460589650405,-1.69835696293978
1770448687464,124,-4,-3.2612450951112524,-1.572545348801078,-1.6696928705003955
1770448687468,124,-4,-3.333261503018358,-1.5924060922094885,-1.7386640344713822
1770448687472,124,-4,-3.4445567330869187,-1.680659266382794,-1.8461622483135225
1770448687476,124,-4,-3.5037401770316423,-1.644479515800242,-1.9020482630615776
1770448687480,124,-4,-3.4077024973034784,-1.8674655521202377,-1.8039059791740373
1770448687484,124,-4,-3.0956580722559033,-1.4486931023748977,-1.4909548762519322
1770448687488,125,-3,-2.604142963324084,-0.7707553778297629,-0.9992896236825102
1770448687492,125,-3,-2.0692350191477105,-0.4705468027036246,-0.4641421841464312
1770448687496,126,-2,-1.656959796704283,0.1330188224566564,-0.0504968800355554
1770448687500,126,-2,-1.4585978457315765,0.3471601029886031,0.1509076420498933
1770448687504,126,-2,-1.4195346267497388,0.3466768288752231,0.1941803554853205
1770448687508,126,-2,-1.358384137538625,0.4153218992987595,0.2593994647947646
1770448687512,126,-2,-1.0780042959854643,0.3578769986185408,0.5424050969216121
1770448687516,127,-1,-0.5004387599775213,1.2947326609891874,1.120706413197698
1770448687520,128,0,0.2688099644715644,2.1935284405437985,1.8897061687508092
1770448687524,128,0,0.993760110568526,2.49849874403795,2.6151837515078986
1770448687528,129,1,1.4430737950222496,3.2510876978683263,3.0668287057541512
1770448687532,129,1,1.5218490411407295,3.536194368485245,3.149007259284907
1770448687536,129,1,1.3154142848990005,3.0812543003067505,2.9456245603557134
1770448687540,128,0,1.009025687615166,2.4457455668195767,2.6415578973172527
1770448687544,128,0,0.7388314832391623,2.209277164680644,2.373550916972004
1770448687548,128,0,0.5011325743474315,2.5671789579742166,2.1381021915029352
1770448687552,128,0,0.2024491412678366,2.20444198087776,1.8412861186054343
1770448687556,127,-1,-0.2084883684820209,1.4164378451859556,1.43179287357815
1770448687560,127,-1,-0.6685632529862595,1.1119037703983563,0.9734553013708898
1770448687564,126,-2,-1.0581464399852996,0.5304416062516271,0.5864158123911138
1770448687568,126,-2,-1.320729400994339,0.2431521977792732,0.3266941220128545
1770448687572,126,-2,-1.520060791642241,0.5411478658260545,0.1295694548252792
1770448687576,126,-2,-1.781445350952656,0.0742480370491907,-0.1304961431553848
1770448687580,125,-3,-2.17816961468861,-0.547618210208475,-0.5259139032847218
1770448687584,125,-3,-2.667556666799883,-0.8134146048083273,-1.0130338625084967
1770448687588,124,-4,-3.123729394842681,-1.4411273590668945,-1.4660191373674594
1770448687592,124,-4,-3.428130225005552,-1.7364992547400258,-1.7672370407751177
1770448687596,124,-4,-3.5431624384159557,-1.6767005089020677,-1.8798804422011388
1770448687600,124,-4,-3.521155686282132,-1.7608779622859665,-1.8562961813128611
1770448687604,124,-4,-3.4546577726049947,-1.6515102848720575,-1.788535962912813
1770448687608,124,-4,-3.4131763470004137,-1.5715007167703572,-1.745654944237247
1770448687612,124,-4,-3.412793429313292,-1.6411816536409265,-1.743460850615565
1770448687616,124,-4,-3.4333547575632357,-1.729600856337997,-1.761565165440234
1770448687620,124,-4,-3.4574292341391244,-1.7431252399097596,-1.782568975528822
1770448687624,124,-4,-3.487080005195355,-1.6535130009997063,-1.80924932066748
1770448687628,124,-4,-3.5196226864434186,-1.599828141406357,-1.8399151176205892
1770448687632,124,-4,-3.5145555129413726,-1.5858682051672544,-1.8340206193965376
1770448687636,124,-4,-3.404574771640493,-1.8009229521920496,-1.7226248114131253
1770448687640,124,-4,-3.1574546203892155,-1.6547336734040503,-1.4718535039006198
1770448687644,125,-3,-2.827048047997571,-0.7756411348894692,-1.1361808733549403
1770448687648,125,-3,-2.531010395660519,-0.4618908142072206,-0.8362308769960007
1770448687652,125,-3,-2.371880061381053,-0.7315362529785756,-0.6773266166978256
1770448687656,125,-3,-2.3726595841510623,-0.6496451840259243,-0.6825286893934219
1770448687660,125,-3,-2.45136534992186,-0.8012841894603984,-0.7667385147046444
1770448687664,125,-3,-2.382342707030577,-0.680877024589317,-0.6994881402078215
1770448687668,126,-2,-1.707318676817295,0.5047603831587795,-0.0184583970769978
1770448687672,128,0,0.328739209241208,2.243554067530617,2.0318526131890695
1770448687676,132,4,4.656779861119757,6.452644033252961,6.377448117446983
1770448687680,140,12,11.97959157900933,14.030824448133483,13.712148572379288
1770448687684,149,21,22.18902749843919,23.52495996527888,23.920156897147727
1770448687688,161,33,33.921256229283394,35.27345190797116,35.63730390154901
1770448687692,172,44,44.624441698677494,46.504707490816,46.32018915456721
1770448687696,179,51,51.31475922617012,53.163839292495794,52.997186340233846
1770448687700,180,52,51.7915733453586,54.27671454718117,53.47570998812153
1770448687704,174,46,45.70740431511098,48.25827183885002,47.407492377931575
1770448687708,162,34,34.840125418610405,36.47689087921068,36.5624150564532
1770448687712,149,21,22.31912455080755,23.377899469926295,24.06005283415612
1770448687716,138,10,11.20845431946134,12.249865782592035,12.95741676260411
1770448687720,131,3,3.2820676519353955,5.280222789426426,5.026501467716425
1770448687724,127,-1,-1.3308736037017637,1.2237173956844294,0.4003828659719666
1770448687728,124,-4,-3.5923837857844134,-1.4441450360933494,-1.874561741096016
1770448687732,123,-5,-4.646890084055361,-2.7305435102901288,-2.934540111198966
1770448687736,122,-6,-5.20143489090884,-3.6545161624708298,-3.483991569997593
1770448687740,122,-6,-5.459979213649,-3.8437039602384706,-3.731272559700636
1770448687744,122,-6,-5.423631132634695,-3.646701459200176,-3.6848310517598546
1770448687748,122,-6,-5.1837527367524325,-3.5606862226551184,-3.440805600158428
1770448687752,123,-5,-4.967735640924813,-2.6262239206927553,-3.226341213358408
1770448687756,123,-5,-4.970203760543352,-2.7496742484564773,-3.2321562326011053
1770448687760,122,-6,-5.1862151833916155,-3.810523101992056,-3.4490863908202054
1770448687764,122,-6,-5.424061429920175,-3.630654406612439,-3.683997255753475
1770448687768,122,-6,-5.476966068053098,-3.6085832947767713,-3.7322387166909055
1770448687772,122,-6,-5.285447314309781,-3.5465826251606263,-3.537695432195018
1770448687776,123,-5,-4.957225762864586,-2.8415063626599397,-3.2094816489901574
1770448687780,123,-5,-4.656256496578743,-2.751757116450986,-2.9099146321553184
1770448687784,123,-5,-4.473601578884187,-2.669944581838734,-2.7272435049017463
1770448687788,123,-5,-4.379287510071379,-2.5905513435373138,-2.630344323449149
1770448687792,123,-5,-4.266604881945484,-2.535939674671864,-2.5140745478504485
1770448687796,124,-4,-4.030970765496798,-1.8808763126276735,-2.276243999940587
1770448687800,124,-4,-3.6280864863288143,-1.7099133318513031,-1.8729903837771975
1770448687804,124,-4,-3.0943861110139426,-1.7235595286368983,-1.3390491856860385
1770448687808,125,-3,-2.525604855455886,-0.5385103117240964,-0.7689728625908088
1770448687812,126,-2,-2.012398868234155,0.4386866103013132,-0.2542851423974399
1770448687816,126,-2,-1.5736076788930722,0.0960024330505864,0.1850473581779619
1770448687820,126,-2,-1.1587659546081848,0.3488770770219318,0.6000886479675143
1770448687824,127,-1,-0.7259731804265679,1.165026591613726,1.0340804238187695
1770448687828,127,-1,-0.3012809179235793,1.6014518184215798,1.4609711927668032
1770448687832,128,0,0.0596573022570379,2.30174537923796,1.823865250271102
1770448687836,128,0,0.3625770255663787,2.2192562042838473,2.127777753148577
1770448687840,128,0,0.7026108095650805,2.229315293734858,2.468297316476231
1770448687844,129,1,1.185857582776734,3.2423129089567433,2.9521505663940735
1770448687848,129,1,1.8214071688918183,3.5602640712028775,3.5884077440908513
1770448687852,130,2,2.491617560151636,4.317610469405739,4.259111268740957
1770448687856,131,3,3.031451624876204,5.24891799629476,4.79927154634837
1770448687860,131,3,3.3498287002924307,5.132127292918461,5.118288160326936
1770448687864,131,3,3.491724356939637,5.356888657819779,5.261541538488705
1770448687868,131,3,3.5923896160213062,5.426264124534853,5.3640454557502935
1770448687872,131,3,3.767435376141695,5.467823144342304,5.540543488034864
1770448687876,132,4,4.031646279446019,6.1145613920245845,5.805103564855568
1770448687880,132,4,4.304733459442115,6.2314175941063255,6.077677405114141
1770448687884,132,4,4.4851093012051315,6.254238237158971,6.257685741095525
1770448687888,132,4,4.526528872306251,6.515725879587754,6.2995880019678925
1770448687892,132,4,4.465125807327671,6.397731280560739,6.239307057468663
1770448687896,132,4,4.386579980783046,6.178017272391863,6.161928047706027
1770448687900,132,4,4.361680890521956,6.163344139769363,6.13796800981835
1770448687904,132,4,4.39931879318909,6.292872706892574,6.176308759490238
1770448687908,132,4,4.453053597187918,6.482757589410593,6.230411225102097
1770448687912,132,4,4.469410972361679,6.4445293024539065,6.246688115797223
1770448687916,132,4,4.426523958236372,6.123383282125985,6.2034071542634805
1770448687920,132,4,4.32744016152295,6.2124504159759155,6.103994045102722
1770448687924,132,4,4.164974321861757,6.211972880972879,5.941741032132867
1770448687928,131,3,3.9025701810033144,5.56809782405713,5.680389731031054
1770448687932,131,3,3.4956015476655176,5.379569432172872,5.274890723258485
1770448687936,131,3,2.937415300334102,5.171662759176403,4.717447354991327
1770448687940,130,2,2.2830243389052143,4.172128961655149,4.062437876207666
1770448687944,129,1,1.6088192031225323,3.193353210083374,3.387125206075618
1770448687948,128,0,0.9297757726468624,2.6362334480094023,2.707846288890306
1770448687952,128,0,0.1632663439308384,2.2664116871705655,1.9420178433983972
1770448687956,127,-1,-0.7998401840467091,1.351838165345301,0.9793199323879024
1770448687960,126,-2,-1.9744447174959356,-0.0889337127519094,-0.1957530363471549
1770448687964,124,-4,-3.2356402233776453,-1.5116662765043904,-1.4574834382879072
1770448687968,123,-5,-4.397953916479755,-2.7119515687706484,-2.619416920276974
1770448687972,122,-6,-5.3385550874111205,-3.339838915136487,-3.5589824511765435
1770448687976,122,-6,-6.047625040899568,-4.042318985055361,-4.267568203733744
1770448687980,121,-7,-6.575900743892529,-4.719076918990728,-4.796631151247618
1770448687984,121,-7,-6.951713443882045,-4.874035236102083,-5.173927882391328
1770448687988,120,-8,-7.154967981263949,-5.412404831888776,-5.37807381761762
1770448687992,120,-8,-7.164325863017013,-5.564037357578399,-5.387058306124397
1770448687996,121,-7,-7.015566964932043,-4.878280084107601,-5.237380145678231
1770448688000,121,-7,-6.80174984943767,-4.820807502604334,-5.0235155503222275
1770448688004,121,-7,-6.613754957613122,-4.867406490340296,-4.836919975871365
1770448688008,121,-7,-6.484192810367392,-4.37451739500064,-4.709194544338136
1770448688012,121,-7,-6.3880907070049835,-4.628285285985932,-4.613696694279513
1770448688016,121,-7,-6.288967602825986,-4.803211191969632,-4.513454413344715
1770448688020,122,-6,-6.172445153488845,-3.8725301913982566,-4.395602193923456
1770448688024,122,-6,-6.033237965122858,-3.894315496040962,-4.2568175762859415
1770448688028,121,-7,-5.850549734123974,-4.2943930977979825,-4.076329110477416
1770448688032,122,-6,-5.607023418669636,-3.761102914934823,-3.834839077766114
1770448688036,122,-6,-5.336790170901867,-3.6184835220396057,-3.5650936156102206
1770448688040,123,-5,-5.126778535853363,-3.097613337480833,-3.354787007408244
1770448688044,123,-5,-5.043774427026369,-2.670340663549693,-3.2721691767422247
1770448688048,122,-6,-5.061758268917239,-3.5309635418642142,-3.2911973707769486
1770448688052,122,-6,-5.077757275364078,-3.538406892660875,-3.307722599778983
1770448688056,123,-5,-5.002906402362958,-2.810863516198342,-3.2326761268512465
1770448688060,123,-5,-4.831160138951805,-2.94250831335825,-3.0612700612636106
1770448688064,123,-5,-4.626157809444129,-2.8159389206127163,-2.858040410198045
1770448688068,123,-5,-4.460640146025906,-2.394322038375646,-2.694917543183173
1770448688072,123,-5,-4.372711286166929,-2.7050283692075148,-2.608427543158446
1770448688076,123,-5,-4.3599716227165,-2.604920260481387,-2.595704233560052
1770448688080,124,-4,-4.389720132917734,-2.196505227195461,-2.6251336815108313
1770448688084,123,-5,-4.4078715232897965,-2.535944109683106,-2.6438087570133386
1770448688088,123,-5,-4.3569926063451465,-2.706557280617558,-2.594235897722835
1770448688092,123,-5,-4.210050644986131,-2.387621185376946,-2.4486206049448462
1770448688096,124,-4,-3.9927415402099458,-1.927275363552929,-2.232483453663257
1770448688100,124,-4,-3.765713164267489,-1.8782502612720284,-2.006917334589416
1770448688104,124,-4,-3.5817889100829423,-1.8600419403411357,-1.8248222354317556
1770448688108,124,-4,-3.459757439059179,-1.3962959585882635,-1.7043160314435566
1770448688112,124,-4,-3.3919318760846675,-1.7030837524232123,-1.637038169003337
1770448688116,124,-4,-3.3653373923072074,-1.627020385023649,-1.6103066961513912
1770448688120,125,-3,-3.368898992602122,-1.15228330766911,-1.6143053154456704
1770448688124,124,-4,-3.3848971399817405,-1.6357959473065549,-1.632272633163026
1770448688128,124,-4,-3.3898555609364687,-1.5774790112835828,-1.6401919880480968
1770448688132,124,-4,-3.3774754635819653,-1.5936486399321603,-1.6302017378651046
1770448688136,124,-4,-3.373822066616288,-1.6769505364266606,-1.6274808380269636
1770448688140,125,-3,-3.4072305242982477,-1.165727824940734,-1.660965067067397
1770448688144,124,-4,-3.4500512325086303,-1.562584645509117,-1.7041362258219743
1770448688148,124,-4,-3.4016566936313275,-1.7291764995824148,-1.6568341955788148
1770448688152,124,-4,-3.1527365774861584,-1.3934978141069307,-1.4096637860574748
1770448688156,125,-3,-2.681003504286924,-0.9299149183495912,-0.9403507972098204
1770448688160,126,-2,-2.086104898102114,0.1133493303379276,-0.3483620814842263
1770448688164,126,-2,-1.5289901284776164,0.1696931710342171,0.2062995821792039
1770448688168,126,-2,-1.126157219923538,0.4726596315315632,0.608080097714871
1770448688172,127,-1,-0.8748777812169413,1.4664389205359176,0.8593193119496649
1770448688176,127,-1,-0.6567050983329161,1.1073773293601097,1.077060703697998
1770448688180,127,-1,-0.3241941395926875,1.170784988341983,1.4079446461269594
1770448688184,128,0,0.1787227503862367,2.0469942849474103,1.908388466216624
1770448688188,128,0,0.7566151952007605,2.616158075535332,2.4836341456674336
1770448688192,129,1,1.2226571618280964,3.2991691643600345,2.9472556213508994
1770448688196,129,1,1.4321128697523609,3.2547682597638623,3.154729097562031
1770448688200,129,1,1.374640667986473,3.053303051166185,3.0957207302015703
1770448688204,129,1,1.1548348681898843,3.1191800991652583,2.8745282624635253
1770448688208,128,0,0.891237465804041,2.575433286386116,2.6093987083253873
1770448688212,128,0,0.6249644254452227,2.2774138047548576,2.341428743709166
1770448688216,128,0,0.3122411204965472,2.3216892461960232,2.026839781651425
1770448688220,128,0,-0.0989643765871115,1.9551633859628383,1.613461664004502
1770448688224,127,-1,-0.5866331304860444,1.2194872955395182,1.1234304101082095
1770448688228,126,-2,-1.0548114774573,0.4792800796810232,0.6531131174897982
1770448688232,126,-2,-1.4192936313906757,0.3077224124229056,0.2867554488057635
1770448688236,126,-2,-1.688412405253686,0.3607187040796353,0.0155206051725587
1770448688240,126,-2,-1.955377212461196,-0.1551784485969651,-0.2540158170006403
1770448688244,125,-3,-2.3123011491583845,-0.6047580755744404,-0.6134491695765969
1770448688248,125,-3,-2.7656159749690215,-0.7690756111242676,-1.068698669800784
1770448688252,124,-4,-3.220739851642939,-1.4367049953444373,-1.5253603373065387
1770448688256,124,-4,-3.5457896288197532,-1.9013820058729425,-1.852080480370366
1770448688260,124,-4,-3.6671100649174737,-1.8958173215149217,-1.9755009156899357
1770448688264,124,-4,-3.6227459238273263,-1.8437241181690591,-1.9337181581062253
1770448688268,124,-4,-3.528982244722095,-1.5823188672466624,-1.842979471516558
1770448688272,124,-4,-3.4884996336709206,-1.603323780368381,-1.805660630367707
1770448688276,124,-4,-3.5210950295094965,-1.7863135320612464,-1.840903177461392
1770448688280,124,-4,-3.573323511352379,-1.950173214413412,-1.8948402178833552
1770448688284,124,-4,-3.5845719181526436,-1.8590007012552008,-1.9074001626395107
1770448688288,124,-4,-3.53735161804625,-1.513657953926706,-1.862303463184607
1770448688292,124,-4,-3.449588846497249,-1.7616493249489331,-1.778007273083706
1770448688296,124,-4,-3.334440957257931,-1.5610378466527788,-1.6666206042902316
1770448688300,125,-3,-3.1805258081656023,-1.2321781827579734,-1.514883384638969
1770448688304,124,-4,-2.973288696215695,-1.5407975470154054,-1.3074769934482506
1770448688308,125,-3,-2.73155185787393,-0.8758937148970203,-1.0649685014697394
1770448688312,125,-3,-2.519479717442252,-0.4043149067926914,-0.8549442466703017
1770448688316,125,-3,-2.419947924950259,-0.9132665527727132,-0.7625536563295867
1770448688320,125,-3,-2.4793620014627415,-0.9065926823775374,-0.8329701901738433
1770448688324,125,-3,-2.6219520875642504,-0.8280280490191378,-0.9858117234123394
1770448688328,125,-3,-2.5261063775201293,-0.672279759353243,-0.8937893482813304
1770448688332,126,-2,-1.5156897188417595,0.4516974349973512,0.1226272949383462
1770448688336,129,1,1.399637395135743,3.1749088669621877,3.05169354303285
1770448688340,135,7,7.212518640971171,9.046698868282796,8.877799162977666
1770448688344,144,16,16.355169098287828,18.210605144895755,18.02281967810444
1770448688348,155,27,28.109737336005715,29.259164059004583,29.76362832456421
1770448688352,167,39,40.358297295864325,41.54538667713765,41.986620623391126
1770448688356,178,50,49.99468617895514,52.032023269079446,51.597437543357046
1770448688360,182,54,54.01485173702599,56.19212152827922,55.60412770384913
1770448688364,179,51,50.84716704363878,53.01094478739375,52.44029754429748
1770448688368,169,41,41.19926460438455,43.40979332005783,42.80937259593527
1770448688372,155,27,27.863257113102737,29.390096744003117,29.493127119864432
1770448688376,141,13,14.501041941704784,15.167163142448445,16.143124035557456
1770448688380,131,3,4.066809484303431,5.138910672205642,5.707692289443834
1770448688384,126,-2,-2.238838364965961,0.0498169378647981,-0.6124061125971108
1770448688388,123,-5,-4.966183198497479,-2.577737405308782,-3.3613789191497694
1770448688392,122,-6,-5.572213505013025,-3.673531801943432,-3.986416552652664
1770448688396,122,-6,-5.430122610642467,-3.7732103713386183,-3.8524470508577497
1770448688400,122,-6,-5.292199106063016,-3.957317106802809,-3.71051862241766
1770448688404,122,-6,-5.32498850085448,-3.869554764661694,-3.733647241319664
1770448688408,122,-6,-5.432231761304519,-3.6439535177903206,-3.8345208015248113
1770448688412,122,-6,-5.521307816360548,-3.64327463262353,-3.925297170559712
1770448688416,122,-6,-5.572012527202724,-3.785450567602255,-3.9838873982795966
1770448688420,122,-6,-5.581945054454298,-3.994647194397377,-4.002402150126462
1770448688424,122,-6,-5.521603457840306,-3.813802782105498,-3.947331611687289
1770448688428,122,-6,-5.354898858648948,-3.7181198143375824,-3.782597064142137
1770448688432,122,-6,-5.088947223523127,-3.561914991983571,-3.517975211085957
1770448688436,123,-5,-4.792130328366869,-2.8899652433156704,-3.224070090295523
1770448688440,123,-5,-4.557790213309435,-2.89428821037375,-2.99413915169205
1770448688444,123,-5,-4.44198285295102,-2.9487357512407777,-2.8824864702487183
1770448688448,123,-5,-4.421090999440052,-2.5503820185053914,-2.864174760758581
1770448688452,123,-5,-4.395273982480445,-2.776227221485245,-2.83980370057903
1770448688456,123,-5,-4.236192105992408,-2.6516998865114862,-2.6826741285406204
1770448688460,124,-4,-3.857034854891543,-2.171066917230438,-2.3072125172182796
1770448688464,124,-4,-3.2681386291074226,-1.6774781008141106,-1.7234209302965486
1770448688468,125,-3,-2.5829800942918073,-0.808394870283724,-1.0431087651137307
1770448688472,125,-3,-1.963804082601164,-0.5522763728804501,-0.4271838140854265
1770448688476,126,-2,-1.5292866196819366,0.145929672940388,0.0051720594380686
1770448688480,127,-1,-1.2764484954143605,0.9698893669597904,0.2553348658127903
1770448688484,126,-2,-1.082117371256637,0.219541605193497,0.4460899806443432
1770448688488,126,-2,-0.8051629069866449,0.2352679610162034,0.7197910631270301
1770448688492,127,-1,-0.4084522265750523,1.4645136508758996,1.1141022217492291
1770448688496,128,0,0.0249830504396463,2.0464867024045006,1.5446683661734115
1770448688500,128,0,0.3987165838529272,2.1210616464313445,1.9139405374428864
1770448688504,128,0,0.706222113372996,2.009609147560023,2.216402721848453
1770448688508,128,0,1.017899135183968,2.465046989475156,2.5243667761022133
1770448688512,129,1,1.3864471242660843,3.2057138774802008,2.8909518703487764
1770448688516,129,1,1.7891175576184302,3.3106239169230527,3.292012687870711
1770448688520,130,2,2.161801551024087,3.834790622941157,3.6618270625008993
1770448688524,130,2,2.4731680700727243,4.310179754848446,3.968669019549543
1770448688528,130,2,2.7544372615210913,4.115012146064707,4.244816553953499
1770448688532,130,2,3.0552418703305833,4.573394523264424,4.541520284650096
1770448688536,131,3,3.3768797587673203,4.9199544270501026,4.86081189444175
1770448688540,131,3,3.6622058772483985,5.216599087629609,5.144633907744899
1770448688544,132,4,3.860633268063331,5.945138824498107,5.340731962385118
1770448688548,131,3,3.995076193238688,5.42383678918314,5.471293372688109
1770448688552,131,3,4.14380109079471,5.289844029231485,5.615307585868055
1770448688556,132,4,4.344776776609873,6.158346049473516,5.811843918195477
1770448688560,132,4,4.527089826949995,6.004741176024102,5.990479277591136
1770448688564,132,4,4.553977885933628,6.124726682178353,6.014415222441187
1770448688568,132,4,4.347548958161585,6.25893496733452,5.805578681076853
1770448688572,131,3,3.98100460443781,5.401921738503732,5.436845287710058
1770448688576,131,3,3.647393764417,5.061075406587491,5.100711125051995
1770448688580,131,3,3.519149868493516,5.079077499154553,4.9690956140500155
1770448688584,131,3,3.608729927818944,5.062598760322238,5.054465998333832
1770448688588,131,3,3.7444472706542946,5.298028650395734,5.185739339841497
1770448688592,131,3,3.6854511259021407,5.362839799548494,5.122703154189452
1770448688596,131,3,3.289996758642564,5.05023451400537,4.723880771823016
1770448688600,130,2,2.604880872183572,4.127007120063914,4.036177914865789
1770448688604,129,1,1.803867729062132,2.9581911584072684,3.2333125497358557
1770448688608,128,0,1.0336296406147985,2.438925184585609,2.4611883148564626
1770448688612,128,0,0.3092735750626627,2.171898396048811,1.7336189709005885
1770448688616,127,-1,-0.4560096728228591,1.243548500839168,0.9635186962962748
1770448688620,126,-2,-1.3405958291961686,-0.0582514267432556,0.0740367347404911
1770448688624,125,-3,-2.3376406938801564,-0.9061469134588308,-0.9262735343899188
1770448688628,124,-4,-3.361423558162567,-1.6527033793912151,-1.9518012640539848
1770448688632,123,-5,-4.303238891677184,-2.82928341249401,-2.8953900631738163
1770448688636,122,-6,-5.088200110216408,-3.677074853948824,-3.683183692438072
1770448688640,122,-6,-5.706014468760637,-4.219397221428383,-4.304651170442223
1770448688644,121,-7,-6.2013964049828445,-4.695226572060414,-4.803898158132054
1770448688648,121,-7,-6.627589013641635,-4.923361853441687,-5.233874455515397
1770448688652,120,-8,-6.998712989498483,-5.550944786312213,-5.60840343622057
1770448688656,120,-8,-7.284004944427735,-5.968587367510874,-5.896260769075079
1770448688660,120,-8,-7.445247627117872,-5.940752104923044,-6.059308129108625
1770448688664,120,-8,-7.472694072194006,-5.973066516982523,-6.08882381545991
1770448688668,120,-8,-7.3843035857539485,-5.680534051595183,-6.003750665458815
1770448688672,120,-8,-7.204817520934409,-5.779831048528372,-5.828469611467884
1770448688676,120,-8,-6.962043185119846,-5.781973844803558,-5.589415340766989
1770448688680,121,-7,-6.699577703560202,-5.1001621622962565,-5.329524590476009
1770448688684,121,-7,-6.469598482304206,-4.866307672211754,-5.101749169163689
1770448688688,121,-7,-6.29639737036397,-4.7605243542749704,-4.931308279631215
1770448688692,121,-7,-6.152617872425577,-4.750727448262903,-4.7906268562242
1770448688696,121,-7,-5.983838457313258,-4.784326878506569,-4.624508998806716
1770448688700,122,-6,-5.756885050373693,-4.152598830534866,-4.399827592272011
1770448688704,122,-6,-5.479409370620587,-3.7773851625820782,-4.125021120147489
1770448688708,122,-6,-5.180501784629391,-3.9052600763543297,-3.829408209078886
1770448688712,122,-6,-4.888136871035931,-3.5785878165137883,-3.5402937921720232
1770448688716,123,-5,-4.626422478034313,-3.000394266125732,-3.281243675194885
1770448688720,123,-5,-4.419168821229117,-2.940676985740307,-3.0762996938276443
1770448688724,123,-5,-4.285099067041941,-2.9882261945591906,-2.9447201239325596
1770448688728,123,-5,-4.229874448319753,-2.7266600028586776,-2.892402170926966
1770448688732,123,-5,-4.242682607537782,-2.738214541836783,-2.9083199028172224
1770448688736,123,-5,-4.297729715910349,-2.9006416421743224,-2.966134853650512
1770448688740,123,-5,-4.359782774647176,-3.0040304116672716,-3.030201714149379
1770448688744,123,-5,-4.390477520890375,-2.982028841100936,-3.062495500057005
1770448688748,123,-5,-4.350976655428919,-2.695507848655789,-3.0251090926722077
1770448688752,123,-5,-4.208252963524796,-2.8223533484051035,-2.8854594779435727
1770448688756,123,-5,-3.957533818131324,-2.8060513767991293,-2.638161771869139
1770448688760,124,-4,-3.6481526227475047,-2.1267679589618353,-2.331681017280544
1770448688764,124,-4,-3.375127532404961,-1.863267761753398,-2.060915976860886
1770448688768,124,-4,-3.223921977511272,-1.820785169354953,-1.911848515417339
1770448688772,124,-4,-3.2105288659127975,-1.717286687950124,-1.900800892190317
1770448688776,124,-4,-3.273179985356113,-1.9222420439852368,-1.9657638387826315
1770448688780,124,-4,-3.325471347046358,-2.0391126176085113,-2.019951570367097
1770448688784,124,-4,-3.323262098413324,-1.940288496207165,-2.0193723830559427
1770448688788,124,-4,-3.286351682092458,-1.7701671130454135,-1.9845597795772272
1770448688792,124,-4,-3.261732699461353,-1.7576176962287988,-1.9630173382914304
1770448688796,124,-4,-3.272303335217655,-1.9255327518758485,-1.97715494354461
1770448688800,124,-4,-3.30202291280439,-2.0318905092568498,-2.0097698658084933
1770448688804,124,-4,-3.3197887360074017,-1.9775574233777065,-2.029078111388234
1770448688808,124,-4,-3.301661374311317,-1.71950635423222,-2.011588746384696
1770448688812,124,-4,-3.2253364097576913,-1.8330391295628392,-1.9361532475632792
1770448688816,124,-4,-3.055148634960402,-1.8596742356451357,-1.7681309571679025
1770448688820,125,-3,-2.7496406014488697,-1.1240151804764058,-1.4662134487018492
1770448688824,125,-3,-2.2968719129189425,-0.8917435930969013,-1.0172934208655309
1770448688828,125,-3,-1.7496210845991416,-0.8131992895940177,-0.4723938601157984
1770448688832,126,-2,-1.2171146302936078,0.2552111544597597,0.0596332768803611
1770448688836,127,-1,-0.7925338059047011,1.027366748120346,0.4838065942602911
1770448688840,127,-1,-0.4669895416377181,0.9697339000706404,0.8071771926655287
1770448688844,127,-1,-0.1307849472503959,1.0029498649009885,1.1400215837240872
1770448688848,127,-1,0.3080330630995296,1.2889171253855218,1.5764017037905638
1770448688852,128,0,0.8013176723471183,2.1313789551546742,2.068716836633586
1770448688856,129,1,1.1792455322006503,3.1477315895410585,2.4454012285039695
1770448688860,129,1,1.3036099171344584,2.82821414835834,2.566954796113575
1770448688864,128,0,1.1912146243030208,2.123075845457148,2.4513845517957864
1770448688868,128,0,0.977502384684485,2.1801288387664592,2.236104512385844
1770448688872,128,0,0.775487790805059,2.1751486042654538,2.0340137401362335
1770448688876,128,0,0.5880391063788293,2.156050025508465,1.8459303363713373
1770448688880,128,0,0.3457052585487206,1.7543417557644374,1.601093946237197
1770448688884,127,-1,0.0009325285062398,1.2314616755093892,1.252839322748393
1770448688888,127,-1,-0.424775444442337,1.0184887910864815,0.8245113853397255
1770448688892,126,-2,-0.8700632399467525,0.3211968868585848,0.3782642482906855
1770448688896,126,-2,-1.2910951646659226,0.0245343376097739,-0.0429297892324069
1770448688900,126,-2,-1.6872075685180978,-0.1587398940604636,-0.4399648722803664
1770448688904,125,-3,-2.079327323203482,-0.8101408712068467,-0.8345339989177303
1770448688908,125,-3,-2.4745282597565943,-1.0357970001532455,-1.2329342248960633
1770448688912,124,-4,-2.8567239680282484,-1.5723343027762249,-1.6174735470052846
1770448688916,124,-4,-3.2051691951721386,-2.1549810268054075,-1.9666562452812415
1770448688920,124,-4,-3.506028762357341,-1.9358328993532417,-2.2676381125704297
1770448688924,124,-4,-3.7365891374133007,-2.061759625902753,-2.4992534164379787
1770448688928,123,-5,-3.852115294740009,-2.824378302499947,-2.6169957180243713
1770448688932,123,-5,-3.814744718550612,-2.7638782482859394,-2.5819205498248263
1770448688936,124,-4,-3.64371913930048,-2.030916065029543,-2.41254418823054
1770448688940,124,-4,-3.4234596908773023,-2.0023170452593613,-2.193598954269344
1770448688944,124,-4,-3.251826502232313,-2.05677137394631,-2.0233938306419277
1770448688948,124,-4,-3.1797524257401664,-1.812766639525205,-1.9528561318326176
1770448688952,124,-4,-3.1941724320788367,-1.8329698572460376,-1.9688304613576115
1770448688956,124,-4,-3.2466914161611165,-1.958862411192686,-2.022975030892338
1770448688960,124,-4,-3.2954796798102364,-2.0754191751249276,-2.0734133796961527
1770448688964,124,-4,-3.3250917606198005,-1.9985157408380516,-2.104452710156632
1770448688968,124,-4,-3.330254052195457,-1.88143335684817,-2.110432628860571
1770448688972,124,-4,-3.2875507172137697,-1.8101986574199556,-2.0674544906789944
1770448688976,124,-4,-3.160353690914496,-1.9762110168146163,-1.938988394084649
1770448688980,124,-4,-2.946834110504875,-2.0701264086738114,-1.7251762293441
1770448688984,125,-3,-2.714303225894981,-1.0124902530638025,-1.4967580492359107
1770448688988,125,-3,-2.55325203051193,-0.8744976660792765,-1.3454594842223049
1770448688992,124,-4,-2.4533379842824647,-1.8770814060083751,-1.256595913040865
1770448688996,125,-3,-2.160073396680157,-0.8783454647838074,-0.9677593405741156
1770448689000,127,-1,-1.069481201132048,0.7813942176756197,0.1300788133776986
1770448689004,129,1,1.7632385216457491,3.1684465474487657,2.9792155317047917
1770448689008,135,7,7.37540446978794,8.909835882857088,8.607735629573883
1770448689012,143,15,16.348284646091297,17.335526688784572,17.586073563537926
1770448689016,155,27,28.140714859856633,28.888251297379043,29.367143048484017
1770448689020,168,40,40.72589198358923,42.01150402455304,41.927725354995275
1770448689024,178,50,50.93302255446764,51.943937721548906,52.10915518195429
1770448689028,183,55,55.550409845437954,57.05105856166659,56.7130544666812
1770448689032,181,53,52.75438940873491,55.206297048036646,53.92167054964287
1770448689036,171,43,43.098502838299794,44.86960459111582,44.2843572640677
1770448689040,156,28,29.407471375621085,30.111558290688045,30.61576739630765
1770448689044,142,14,15.523959319686751,15.769726968822589,16.748296213021973
1770448689048,131,3,4.606676273818171,5.305116656872766,5.833577207745133
1770448689052,126,-2,-2.016411127129538,-0.0611466391536366,-0.8019276284871935
1770448689056,123,-5,-4.868478890546428,-2.845268392926471,-3.67542986155824
1770448689060,122,-6,-5.452808321603266,-4.168658746421803,-4.278749194856392
1770448689064,122,-6,-5.225109268842258,-4.015219744614557,-4.057855835007855
1770448689068,122,-6,-5.017560804561151,-3.910962423340544,-3.8438322530347566
1770448689072,122,-6,-5.038128048017145,-3.9301025113030814,-3.8520429389195296
1770448689076,122,-6,-5.185354101304159,-3.909842514733487,-3.99027627187604
1770448689080,122,-6,-5.346169640614573,-4.172378689891876,-4.15016785265643
1770448689084,122,-6,-5.500060612781133,-3.984678163819382,-4.3099006282963215
1770448689088,122,-6,-5.659698754316617,-4.004888596682939,-4.47727163212059
1770448689092,121,-7,-5.793135546192726,-4.853134866322175,-4.615405641090007
1770448689096,121,-7,-5.832208776774,-4.961022025577241,-4.654257436538365
1770448689100,122,-6,-5.738098799717035,-4.168558360499665,-4.55729207544836
1770448689104,122,-6,-5.527189247820855,-3.954626561128834,-4.345010293704566
1770448689108,122,-6,-5.232516253479458,-4.129130437667658,-4.052381571331191
1770448689112,122,-6,-4.869371566418932,-3.6843905028906505,-3.692977067671943
1770448689116,123,-5,-4.453880091655988,-3.190200525440274,-3.279931415446826
1770448689120,123,-5,-4.035567956760072,-2.9073460545911605,-2.861697303929517
1770448689124,124,-4,-3.680325432970332,-2.252153822352173,-2.5056934923224428
1770448689128,124,-4,-3.4066330685264967,-1.8616173546871015,-2.232441371250097
1770448689132,124,-4,-3.148777583002725,-1.9581530882371707,-1.9764276651907693
1770448689136,124,-4,-2.805716981645354,-1.94623201955102,-1.6350807624664745
1770448689140,125,-3,-2.3370193624666493,-1.1374255802008082,-1.1669901119614168
1770448689144,126,-2,-1.8014382877696224,-0.0553753422572924,-0.631690115525251
1770448689148,126,-2,-1.2943629781082628,-0.0688281198446709,-0.1256809435038492
1770448689152,126,-2,-0.8581950981442406,0.2163624213238772,0.3088180480218385
1770448689156,127,-1,-0.462346257734985,0.8794429652627076,0.7033307300033784
1770448689160,127,-1,-0.058761245358029,1.005712521589789,1.1061681480772825
1770448689164,128,0,0.3594171783374023,1.8061856272496613,1.5236862359547243
1770448689168,128,0,0.7537069406401715,2.04046277602138,1.917103970137699
1770448689172,128,0,1.0849270984819943,2.0853012891553853,2.2474261641927264
1770448689176,129,1,1.361429782474152,3.004001999221795,2.523142637198295
1770448689180,129,1,1.6479006552304032,2.8523750164402535,2.8088635238759103
1770448689184,129,1,2.020132516588194,2.9577858346551364,3.1803825534759964
1770448689188,130,2,2.4958718102693584,3.8679780662359446,3.6553921714568367
1770448689192,130,2,3.0040839946359346,4.23460886089025,4.162461990881937
1770448689196,131,3,3.428238149805688,4.839699794404503,4.584809313374594
1770448689200,131,3,3.686975011376816,5.007113122641346,4.841712953085044
1770448689204,131,3,3.77958684363756,4.780040841742971,4.933598317944175
1770448689208,131,3,3.7660861760866737,5.0274347016220045,4.920687516605768
1770448689212,131,3,3.7171542048404542,5.0610864607861625,4.872363987110706
1770448689216,131,3,3.6817975601176913,4.978405234102404,4.836119357768517
1770448689220,131,3,3.6808779901604143,4.893951510593904,4.832803021424638
1770448689224,131,3,3.707634097975187,4.83401652831305,4.8571921932983875
1770448689228,131,3,3.731778398658688,4.9896071400316995,4.880445288944124
1770448689232,131,3,3.721325734936015,5.046895055559171,4.870514698707387
1770448689236,131,3,3.6775648155144474,4.998063614838853,4.827344139419825
1770448689240,131,3,3.647533087049968,4.860882872278296,4.796730191815117
1770448689244,131,3,3.685542523373928,4.838110396350647,4.83293624984066
1770448689248,131,3,3.7854353981796103,4.979750447154929,4.930837876438971
1770448689252,131,3,3.8467211013056177,5.011862590461623,4.9909795951082225
1770448689256,131,3,3.720840093798631,5.049744828495172,4.8648405356065485
1770448689260,131,3,3.313996179604543,4.772375916007965,4.4577988049767425
1770448689264,130,2,2.6603463942764565,3.927116404097424,3.803437605647346
1770448689268,129,1,1.8917969294969963,2.844692545909316,3.03396067479275
1770448689272,128,0,1.1249064613009456,2.140261365869012,2.266383707042893
1770448689276,128,0,0.3727233037438253,1.900135583786956,1.5135698637610433
1770448689280,127,-1,-0.4336461297716592,0.9313182858016824,0.7062386538285548
1770448689284,126,-2,-1.344152291449047,-0.2697456939232059,-0.2053467797511343
1770448689288,125,-3,-2.3159247598300676,-0.9669880507922994,-1.1777919022895689
1770448689292,124,-4,-3.233501298054551,-2.0976732888644283,-2.0956302945123135
1770448689296,123,-5,-3.9971473543608713,-2.8549590013811397,-2.859642634817359
1770448689300,123,-5,-4.600014446318971,-3.3170551439093714,-3.4633647977896462
1770448689304,122,-6,-5.129776307519539,-4.050781724206804,-3.994463396001483
1770448689308,122,-6,-5.690813159259028,-4.195347698036812,-4.557062864547645
1770448689312,121,-7,-6.308844075269246,-4.924722017101998,-5.176340490794646
1770448689316,120,-8,-6.900246395888707,-6.014195246846713,-5.7679659803070376
1770448689320,120,-8,-7.333086173497652,-6.181004170411903,-6.199967657354818
1770448689324,120,-8,-7.520591185186653,-6.189912735580874,-6.386768523639205
1770448689328,120,-8,-7.4652320936582495,-6.094930833149634,-6.332227227830692
1770448689332,120,-8,-7.23617774252253,-6.04335280783924,-6.105448764644556
1770448689336,120,-8,-6.926316212500606,-5.908838822622841,-5.797817736279897
1770448689340,121,-7,-6.625486862055491,-5.298643719184712,-5.497930130745609
1770448689344,121,-7,-6.4039400083527225,-5.088930023710076,-5.276228337550567
1770448689348,121,-7,-6.293064219971524,-5.21848991769663,-5.165192060276746
1770448689352,121,-7,-6.273245581588533,-4.966944463479905,-5.14593533403653
1770448689356,121,-7,-6.28564785361417,-4.950018371505886,-5.159353583431682
1770448689360,121,-7,-6.266145525775078,-5.344297926774895,-5.140535797885892
1770448689364,121,-7,-6.177202344011408,-4.962086750725575,-5.051723867144981
1770448689368,122,-6,-6.011036582628628,-4.476963269597046,-4.88582363996224
1770448689372,121,-7,-5.767736198470748,-4.635157532179478,-4.643521758203692
1770448689376,122,-6,-5.4452317146118245,-4.369411988700224,-4.322338630075285
1770448689380,122,-6,-5.061641052459503,-3.89335164201854,-3.93957268849365
1770448689384,123,-5,-4.678747783653655,-3.4426896111995196,-3.5569756397157546
1770448689388,123,-5,-4.38400798904139,-3.044618873798092,-3.2627682058517644
1770448689392,123,-5,-4.237414156120584,-3.0372115713043573,-3.117381064018813
1770448689396,123,-5,-4.233117440096539,-3.054937452504159,-3.114388167325577
1770448689400,123,-5,-4.3102779293215985,-3.1438683017046665,-3.1919779950424254
1770448689404,123,-5,-4.396202929217193,-3.2856997339900325,-3.2773092164538737
1770448689408,123,-5,-4.437388089410841,-3.1670938492832454,-3.317941585309372
1770448689412,123,-5,-4.398271301652052,-2.9675296884158677,-3.2795183898705296
1770448689416,123,-5,-4.252509047292149,-3.1282276094561063,-3.13561798766629
1770448689420,123,-5,-3.999022743949787,-3.081703806568343,-2.8838526158500795
1770448689424,124,-4,-3.689948060537686,-2.3841251014604903,-2.5753994383512255
1770448689428,124,-4,-3.4221950067216778,-2.075806830982079,-2.307609842378386
1770448689432,124,-4,-3.278324445505948,-2.0882649691529127,-2.1641246162049916
1770448689436,124,-4,-3.267347484768844,-2.0180759177272667,-2.1542755281179624
1770448689440,124,-4,-3.3249965391672056,-2.208561591950921,-2.2130339880671057
1770448689444,124,-4,-3.373279174936981,-2.295079574911666,-2.2615118658771465
1770448689448,124,-4,-3.3803659354950493,-2.1639800871859687,-2.267965845798019
1770448689452,124,-4,-3.365766888773953,-2.0392225122797325,-2.253078167153702
1770448689456,124,-4,-3.356064336254761,-2.0562468247986194,-2.244556605792802
1770448689460,124,-4,-3.3490581057139814,-2.2138923172708056,-2.2400136020379966
1770448689464,124,-4,-3.3294989200002245,-2.299722359091754,-2.222721564583752
1770448689468,124,-4,-3.3111952050619218,-2.1944539973328268,-2.2051197543178795
1770448689472,124,-4,-3.3391988885682737,-2.0130899964512152,-2.2323056951684968
1770448689476,124,-4,-3.4284172084175646,-2.09802308016452,-2.320477222414002
1770448689480,124,-4,-3.49939960716448,-2.1969626256248844,-2.3913708199042683
1770448689484,124,-4,-3.3979303421209166,-2.3338768682123296,-2.290920820946768
1770448689488,124,-4,-3.0083614147836313,-2.2063208086278663,-1.9029797504078043
1770448689492,125,-3,-2.364619748510444,-0.9842790434343572,-1.2610830585113848
1770448689496,126,-2,-1.6482582967941064,-0.1654831491442352,-0.5463973485430409
1770448689500,126,-2,-1.065717334968616,-0.1197093810387057,0.0353208307115484
1770448689504,127,-1,-0.7064507877567985,0.5293142097046879,0.3948907930848755
1770448689508,127,-1,-0.4915607291234354,0.9222049237061416,0.6103750891898483
1770448689512,127,-1,-0.2470610059809392,0.849874316260574,0.8547181195012994
1770448689516,127,-1,0.1490032429190666,1.0174182276818429,1.2498736333192266
1770448689520,128,0,0.6537340078913125,1.6670582714212183,1.7534745267604477
1770448689524,129,1,1.0813719274756004,2.7135508317025607,2.1796551821949715
1770448689528,129,1,1.2537115969134232,2.7191143448329504,2.349972631751447
1770448689532,128,0,1.1433699517858067,2.0121478622312186,2.23792654666869
1770448689536,128,0,0.8757815179951984,1.882396648568048,1.970300681265708
1770448689540,128,0,0.6042675903702373,1.7343538382016268,1.7002009804384135
1770448689544,128,0,0.3954138596040866,1.6671213365775623,1.4921675139507082
1770448689548,128,0,0.2228748755322076,1.693263010079287,1.3182347436274324
1770448689552,127,-1,0.036600456147642,1.0809358902934507,1.1290500183265662
1770448689556,127,-1,-0.1867715261179086,0.7385061263366446,0.9033636963239162
1770448689560,127,-1,-0.4503890671739394,0.9108151182371154,0.6391506028801581
1770448689564,127,-1,-0.7618915387914407,0.4107279505315921,0.3280102632327242
1770448689568,126,-2,-1.133534852066662,-0.0354426534587393,-0.0436910778863581
1770448689572,126,-2,-1.5618467337245796,-0.2076153757586487,-0.4730211522491299
1770448689576,125,-3,-2.0162420802754504,-1.0140395214341045,-0.9289592330292048
1770448689580,125,-3,-2.45004332448024,-1.3215687682681954,-1.3641579118400595
1770448689584,125,-3,-2.821963012510672,-1.4383262894872004,-1.7369592915877492
1770448689588,124,-4,-3.1097672393541886,-2.145528765154032,-2.0251254808659835
1770448689592,124,-4,-3.309316804950128,-2.1631551417353556,-2.2249004808030377
1770448689596,124,-4,-3.424318791646245,-2.029921082099501,-2.3406769002362107
1770448689600,124,-4,-3.459141588691102,-2.373019188578501,-2.37722758592445
1770448689604,124,-4,-3.426649393988862,-2.3900437383633624,-2.3469701432302807
1770448689608,124,-4,-3.3644491958630263,-2.217777795416048,-2.2865265561801325
1770448689612,124,-4,-3.331174066693492,-2.111852440950172,-2.253883881979723
1770448689616,124,-4,-3.3682708143369724,-2.0854579248028715,-2.2906729589736115
1770448689620,124,-4,-3.4566686323821716,-2.3567629200440185,-2.378765156667937
1770448689624,124,-4,-3.515410843091095,-2.4371977067822175,-2.4384595969836695
1770448689628,124,-4,-3.4549280524729307,-2.170981893437467,-2.380763067480568
1770448689632,124,-4,-3.2488909965953368,-2.2010382299321893,-2.17815773403089
1770448689636,124,-4,-2.9693658521280923,-1.97870895134894,-1.9001856721823556
1770448689640,125,-3,-2.748728159300699,-1.5172095641477554,-1.6778008955372594
1770448689644,125,-3,-2.6824176305931795,-1.2976822420654268,-1.6081895149091276
1770448689648,125,-3,-2.7488832204469653,-1.3225946094271346,-1.67375664226476
1770448689652,124,-4,-2.83272923089834,-2.083658625018357,-1.762030113656322
1770448689656,124,-4,-2.84003297167167,-2.090488931547886,-1.7785646516189773
1770448689660,125,-3,-2.762270256476787,-1.452580458964812,-1.710862091929648
1770448689664,125,-3,-2.5443616994838165,-1.3807273985008544,-1.4981676470523142
1770448689668,126,-2,-1.8001921527893772,-0.248412423863308,-0.7498188832189134
1770448689672,128,0,0.3654677785444695,1.8161591084650983,1.4294381310840274
1770448689676,132,4,5.148847247107611,6.005525366020142,6.229342830594282
1770448689680,141,13,13.407948015719942,14.409975749354931,14.497109502671528
1770448689684,152,24,24.88368219386751,25.76140509202999,25.96534499985183
1770448689688,165,37,37.76659200930504,38.5879684481817,38.82570297440275
1770448689692,176,48,48.99451578649545,49.97628555676393,50.02721272105905
1770448689696,183,55,55.30558225930163,56.78423022259327,56.32200369990981
1770448689700,183,55,54.622660652376474,56.56804160129269,55.640461643774174
1770448689704,175,47,47.05634106618484,48.54669724438841,48.09043986075711
1770448689708,162,34,34.9172550946739,35.77817871136041,35.972854639600186
1770448689712,148,20,21.664043536626117,21.786374177134956,22.735548681611615
1770448689716,137,9,10.375208152801504,10.971452283025664,11.44968653594659
1770448689720,131,3,2.625238329985372,4.397471939133113,3.688641962448797
1770448689724,126,-2,-1.683269656992601,-0.2889647735834932,-0.6390724374679948
1770448689728,124,-4,-3.6552263483671066,-2.377261824172966,-2.6283482870271597
1770448689732,123,-5,-4.502142149063161,-3.1097458027299396,-3.482766594344601
1770448689736,122,-6,-4.971344682621213,-4.17033543042537,-3.9485861838224823
1770448689740,122,-6,-5.2938392768418465,-4.510307164927222,-4.262097388682563
1770448689744,122,-6,-5.458846083658779,-4.378275296012412,-4.419655208092006
1770448689748,122,-6,-5.4834841148425095,-4.30187552263584,-4.442939659777755
1770448689752,122,-6,-5.4760147995959345,-4.2169955814275175,-4.4403970590596025
1770448689756,122,-6,-5.531428148950462,-4.0854590041723995,-4.503573247501674
1770448689760,122,-6,-5.637183062572208,-4.659128379879744,-4.615195852055982
1770448689764,121,-7,-5.707160487101568,-5.2075148547484975,-4.686322560725182
1770448689768,122,-6,-5.690609151654237,-4.499759009473465,-4.667587344627845
1770448689772,122,-6,-5.614439575928008,-4.041968191745565,-4.590237213634731
1770448689776,122,-6,-5.513871808156303,-4.271487986341992,-4.492309035746354
1770448689780,122,-6,-5.358647688355236,-4.552369925954684,-4.341963053590925
1770448689784,122,-6,-5.082569661148132,-4.269985057414331,-4.069250551952528
1770448689788,123,-5,-4.676804263558291,-3.5135903744990777,-3.663920657085584
1770448689792,123,-5,-4.219298564764198,-2.991592290733683,-3.206120179950127
1770448689796,124,-4,-3.79815209262562,-2.3847781592436617,-2.7867035015275303
1770448689800,124,-4,-3.4243880034230116,-2.4635676888119376,-2.416699285718213
1770448689804,124,-4,-3.041198135192563,-2.3701908750711125,-2.0369051788236536
1770448689808,125,-3,-2.613188124261116,-1.4594147262992552,-1.6102847507717963
1770448689812,125,-3,-2.1794290189045773,-1.020863050543538,-1.1768505235907871
1770448689816,126,-2,-1.8028115574769517,-0.4198703498656355,-0.8014876892273
1770448689820,126,-2,-1.4802532821633532,-0.4241703841609712,-0.481634804422181
1770448689824,126,-2,-1.1265105835176843,-0.4640754846500701,-0.130815813415634
1770448689828,127,-1,-0.6543252766105381,0.6176553561502698,0.339347509077144
1770448689832,127,-1,-0.0624929715664814,0.9132359550929204,0.9297525730332052
1770448689836,128,0,0.5603903011016704,1.5762496503025805,1.550732545006593
1770448689840,129,1,1.1155080021404684,2.6233987701977544,2.1031248497828474
1770448689844,129,1,1.5740168960245795,2.3736533506413835,2.558954647099786
1770448689848,129,1,1.9826063330152992,2.822737226533067,2.965905073428627
1770448689852,130,2,2.399763089370448,3.653664535933321,3.3821925969464086
1770448689856,130,2,2.8334294179811,3.8294972182756584,3.814384317746761
1770448689860,131,3,3.233890202660402,4.357675475585168,4.21190794011782
1770448689864,131,3,3.532037851672514,4.580631735647646,4.5063410891200935
1770448689868,131,3,3.682070848735397,4.614156872638652,4.653350478381667
1770448689872,131,3,3.68474593445318,4.823187717829821,4.654458482038267
1770448689876,131,3,3.5903438364078073,4.663421547854899,4.5594066391753065
1770448689880,131,3,3.48395710145332,4.4798286705889705,4.452046370916086
1770448689884,131,3,3.4534124689159764,4.446024530920107,4.419298171520513
1770448689888,131,3,3.548427921484687,4.698282749637283,4.511035842543357
1770448689892,131,3,3.750619683222612,4.747725090235313,4.709992292524055
1770448689896,131,3,3.975536097141239,4.700617848079337,4.932655744772583
1770448689900,132,4,4.1173119601159875,5.436351874198905,5.072802338207701
1770448689904,132,4,4.11682402496602,5.4407314575465335,5.0701978378471
1770448689908,131,3,3.9979529142166985,4.681506652474242,4.948550932530285
1770448689912,131,3,3.829120320999949,4.7456662532550045,4.7773488898870085
1770448689916,131,3,3.644527880765785,4.6861557876734485,4.591431487312896
1770448689920,131,3,3.411879000745584,4.4227641521222285,4.357571054901519
1770448689924,131,3,3.0812108211576774,4.429446623082604,4.0244487781132285
1770448689928,130,2,2.6511697156668124,3.6632668590998687,3.590827877686644
1770448689932,129,1,2.1686887893042956,2.737514603084155,3.1051989876468444
1770448689936,129,1,1.6636050653164371,2.6834263094313213,2.598361719337877
1770448689940,129,1,1.1042229692982684,2.391876564447587,2.037771087784593
1770448689944,128,0,0.4328096434820252,1.4376139120852338,1.3643197599752976
1770448689948,127,-1,-0.3622915693169561,0.6392168432711933,0.566293896354723
1770448689952,126,-2,-1.2234168556777174,-0.2877661758528189,-0.2975355488003877
1770448689956,125,-3,-2.0707539331627265,-1.282353687116386,-1.146755085530586
1770448689960,125,-3,-2.862360117412716,-1.7080250945746962,-1.9400743117974604
1770448689964,124,-4,-3.606972170976724,-2.4316404499888806,-2.6870623836995664
1770448689968,123,-5,-4.330456076558846,-3.5712026526668614,-3.4133970629779355
1770448689972,122,-6,-5.039559996274544,-4.053483018481236,-4.125014970749905
1770448689976,122,-6,-5.711331034475167,-4.587143575467114,-4.798749470051454
1770448689980,121,-7,-6.304152486698258,-5.3999031130367054,-5.393520209029759
1770448689984,121,-7,-6.778906082046412,-5.767077825142629,-5.870580285903667
1770448689988,120,-8,-7.121072671171684,-6.2627646272174555,-6.215196326715553
1770448689992,120,-8,-7.347781590644571,-6.384677073449562,-6.444231354806203
1770448689996,120,-8,-7.487741251409882,-6.293124663416575,-6.586481613599109
1770448690000,120,-8,-7.549335672583662,-6.702586892254757,-6.650422086824256
1770448690004,120,-8,-7.511814443996664,-6.508101492154891,-6.615058250883307
1770448690008,120,-8,-7.353219346699504,-6.502694057001201,-6.45827387799791
1770448690012,120,-8,-7.086172024290853,-6.247774408992723,-6.193149239010441
1770448690016,121,-7,-6.762514814119112,-5.362857482601074,-5.872160860105154
1770448690020,121,-7,-6.44459086463246,-5.754467259157664,-5.557474078685705
1770448690024,121,-7,-6.175481422146106,-5.387749520526374,-5.291195927042622
1770448690028,122,-6,-5.96900574437263,-4.710099115495356,-5.086528372635146
1770448690032,121,-7,-5.810931065677127,-5.057302348510793,-4.929637920282232
1770448690036,122,-6,-5.663707555140885,-4.553355018728237,-4.783818914959539
1770448690040,122,-6,-5.483169817724536,-4.635579449039682,-4.605436985551581
1770448690044,122,-6,-5.247694185879831,-4.462372660814882,-4.37291916534379
1770448690048,123,-5,-4.979184654356395,-3.731319651115096,-4.107767505340733
1770448690052,122,-6,-4.736243835251697,-4.010203745222143,-3.867748516945364
1770448690056,123,-5,-4.582125959030332,-3.665910004433997,-3.715395370397928
1770448690060,123,-5,-4.5457812631419925,-3.5218593515218566,-3.6799614550305857
1770448690064,123,-5,-4.597391623605265,-3.600862677158041,-3.7329016994873054
1770448690068,123,-5,-4.660407508329111,-3.6422031992819286,-3.798545039422973
1770448690072,122,-6,-4.666274965534865,-4.093433003417484,-3.807819573322313
1770448690076,123,-5,-4.614738959732055,-3.649272996531304,-3.759251686176071
1770448690080,123,-5,-4.576348012686723,-3.52370691152745,-3.722851135531892
1770448690084,123,-5,-4.618233626539076,-3.6362769303176945,-3.766200719303554
1770448690088,123,-5,-4.717912511919349,-3.6485966675356143,-3.8674518984869506
1770448690092,122,-6,-4.75593146530707,-4.077161363780745,-3.907336736939752
1770448690096,123,-5,-4.607125003322521,-3.7619188529812218,-3.760604600929895
1770448690100,123,-5,-4.252698597839089,-3.34983176354691,-3.408518619199479
1770448690104,124,-4,-3.811303756399776,-2.90191645459353,-2.969895311777466
1770448690108,124,-4,-3.45940188020628,-2.3583241605102536,-2.621087330610608
1770448690112,124,-4,-3.3081895874325107,-2.420461902219068,-2.4727353463205475
1770448690116,124,-4,-3.337788141574028,-2.472433035814949,-2.5042764797685684
1770448690120,124,-4,-3.434881072392625,-2.610364167643027,-2.6022055491843954
1770448690124,124,-4,-3.491003858449197,-2.7267541649292624,-2.658800211703066
1770448690128,124,-4,-3.4744511170090875,-2.487700721103134,-2.643729043835504
1770448690132,124,-4,-3.4245570075814133,-2.380273119209842,-2.597186748299543
1770448690136,124,-4,-3.3938935428559978,-2.50579279915339,-2.5709829378777647
1770448690140,124,-4,-3.4039550791857347,-2.6248922272358657,-2.5845624068030197
1770448690144,124,-4,-3.4455516794135934,-2.716422622514998,-2.627341452915057
1770448690148,124,-4,-3.494831346223235,-2.5421463788878427,-2.676323143240429
1770448690152,124,-4,-3.5089076742345364,-2.3274552397708277,-2.690925873313468
1770448690156,124,-4,-3.4170211127789423,-2.626537355386919,-2.6016720887550058
1770448690160,124,-4,-3.151775608281583,-2.488557445353015,-2.340222552563505
1770448690164,125,-3,-2.714804392752525,-1.9087495020455336,-1.906474337401455
1770448690168,125,-3,-2.204435834736542,-1.3597174025339551,-1.398247396983518
1770448690172,126,-2,-1.7520360852749624,-0.5282261611573924,-0.9476562462853252
1770448690176,126,-2,-1.4133527304805522,-0.4889360087062893,-0.610879748067028
1770448690180,126,-2,-1.122289541869046,-0.5987382503896941,-0.321331589431175
1770448690184,127,-1,-0.7557143243406959,0.0977160565976951,0.0443254259618848
1770448690188,127,-1,-0.2453452922203314,0.6971119305498978,0.5534145142093476
1770448690192,128,0,0.363009952659715,1.2993662326248292,1.1590798233705475
1770448690196,128,0,0.93660626162575,1.749406028212799,1.7288994451830155
1770448690200,129,1,1.3301336996613369,2.054962898931506,2.118925825498149
1770448690204,129,1,1.4562856113518268,2.461996152746349,2.2427596641392533
1770448690208,129,1,1.3226817930871917,2.28308036442559,2.1079335229762304
1770448690212,128,0,1.0203021844770863,1.6873701562859074,1.804924369010393
1770448690216,128,0,0.6690583398879859,1.3636356647589527,1.4529897448185944
1770448690220,128,0,0.3578228495423274,1.371791868837155,1.1401002412967458
1770448690224,128,0,0.1186758310290481,1.1503928658885405,0.8978420755462584
1770448690228,127,-1,-0.0651219411450876,0.5446407085598586,0.7102529809986886
1770448690232,127,-1,-0.2435130354120271,0.4174477710906166,0.5288482173839539
1770448690236,127,-1,-0.4802974002757429,0.6067862257087466,0.2903982408393735
1770448690240,127,-1,-0.8177045810674459,0.0827089058924883,-0.0480467173503318
1770448690244,126,-2,-1.2410910054986322,-0.5724405637166141,-0.4727861309561558
1770448690248,126,-2,-1.6819779145003797,-0.7735650104227845,-0.9156363935504404
1770448690252,125,-3,-2.066191014408784,-1.276916178375496,-1.3022087159025153
1770448690256,125,-3,-2.366657559487522,-1.731343185433655,-1.60518800711611
1770448690260,125,-3,-2.613977962356879,-1.6123030972124437,-1.8550365045224697
1770448690264,125,-3,-2.8567786366591066,-1.8922521142527984,-2.1001349425885607
1770448690268,124,-4,-3.110322850703378,-2.5044250279148192,-2.355415822876003
1770448690272,124,-4,-3.3403125334241923,-2.5380524311796235,-2.586707225100556
1770448690276,124,-4,-3.491359094679541,-2.5392462798833892,-2.739417028439492
1770448690280,124,-4,-3.5318305659891145,-2.794380080146498,-2.7825266634547146
1770448690284,124,-4,-3.4831424530331323,-2.7725378507483036,-2.736986793597646
1770448690288,124,-4,-3.4147622379519778,-2.6162000301888564,-2.6711747938714243
1770448690292,124,-4,-3.4008965606880683,-2.4874753672257337,-2.658852372070711
1770448690296,124,-4,-3.4616885836081255,-2.5859973448744316,-2.7208249534219924
1770448690300,124,-4,-3.5371910393970314,-2.812609970336051,-2.7981429280587484
1770448690304,124,-4,-3.526805834011031,-2.746196008707151,-2.7905265448769563
1770448690308,124,-4,-3.369610361390807,-2.7029014353045104,-2.6364186980979185
1770448690312,124,-4,-3.0966609808109644,-2.397902328833043,-2.365838345086339
1770448690316,125,-3,-2.8056517433853267,-1.7250084227642544,-2.0757891495708485
1770448690320,125,-3,-2.58143547555761,-1.689811991833167,-1.8512795503888728
1770448690324,125,-3,-2.441861067161094,-1.9000391853190968,-1.7115314989743724
1770448690328,125,-3,-2.3601608269257013,-1.5948857341451228,-1.632294746085604
1770448690332,125,-3,-2.3251022610462284,-1.4979225419806512,-1.6044069016868674
1770448690336,125,-3,-2.345720912145997,-1.711186933829401,-1.6358046253273455
1770448690340,125,-3,-2.3434900509341894,-1.645691811882072,-1.6427317330015616
1770448690344,126,-2,-1.967352359826102,-1.0718023513584427,-1.2676998357927745
1770448690348,127,-1,-0.4604008895681213,0.6445139552745642,0.2487588164963514
1770448690352,131,3,3.2481826088176273,4.154943434552054,3.972971783726256
1770448690356,137,9,10.11995160882666,10.673858025792612,10.856403648962704
1770448690360,148,20,20.34935996757223,20.935686772041993,21.08373078709426
1770448690364,160,32,32.801187890121255,33.29539371961691,33.517339425026705
1770448690368,172,44,44.95424734247816,45.315843489784854,45.64387830589633
1770448690372,181,53,53.581232367961626,54.33484163253622,54.24944998105085
1770448690376,184,56,55.999389562748625,57.56963669716486,56.66137503257822
1770448690380,180,52,51.313018842366155,52.84162195543773,51.98491065628866
1770448690384,168,40,40.92553565950412,41.46575632796112,41.61631540152021
1770448690388,155,27,27.93592704226566,28.0044547359704,28.644275376223415
1770448690392,142,14,15.718501144285703,15.71728641774517,16.434430923453196
1770448690396,134,6,6.521981994906037,7.155392023264066,7.231791272276754
1770448690400,129,1,0.8704094974678873,2.2843374982136737,1.5633771810090746
1770448690404,126,-2,-2.0505401072897653,-0.9787522558153544,-1.3766940961607248
1770448690408,124,-4,-3.4834860246219783,-2.6382425091573243,-2.8220560664302416
1770448690412,123,-5,-4.337459901831728,-3.635839068224034,-3.6778217048136455
1770448690416,122,-6,-4.959844321303611,-4.604639296734175,-4.294211434644228
1770448690420,122,-6,-5.365074874933544,-4.886831556922014,-4.692059978121065
1770448690424,122,-6,-5.564793986995546,-4.908516701492982,-4.8884249451237425
1770448690428,122,-6,-5.692891462139469,-4.672905414836121,-5.019144103581107
1770448690432,122,-6,-5.887428984512999,-4.71494293037246,-5.220634369936138
1770448690436,121,-7,-6.132282969756834,-5.499944761512368,-5.4728338575000075
1770448690440,121,-7,-6.268504487078597,-6.05508387970331,-5.613095793120755
1770448690444,121,-7,-6.171811920708511,-5.725794615521201,-5.516534462129843
1770448690448,122,-6,-5.895492580203546,-4.907895660822154,-5.239435258382925
1770448690452,122,-6,-5.617697394747137,-4.5245629446727325,-4.963435589310075
1770448690456,122,-6,-5.456581018908519,-4.684715523611791,-4.806946878214618
1770448690460,122,-6,-5.359201122085681,-4.954125188079601,-4.714049947369808
1770448690464,122,-6,-5.172982137692962,-4.774918603498662,-4.529684948160755
1770448690468,123,-5,-4.803315701393254,-3.991990698296777,-4.160143096571275
1770448690472,123,-5,-4.287336237395738,-3.366148568118826,-3.6454897612515658
1770448690476,124,-4,-3.7315092103654246,-2.9651823241183393,-3.09349024696971
1770448690480,124,-4,-3.207747381128189,-2.6094757896268144,-2.5743319909515483
1770448690484,125,-3,-2.7167903383034124,-2.2302175939900843,-2.086327010530373
1770448690488,125,-3,-2.2270130749665062,-1.526318805377106,-1.5976180117631942
1770448690492,126,-2,-1.7205985049181278,-0.8840672846185829,-1.0922960824692585
1770448690496,126,-2,-1.2023113519314306,-0.4611093599579541,-0.5765657768202377
1770448690500,127,-1,-0.6892346423640299,-0.1246620661777329,-0.0668771025754824
1770448690504,127,-1,-0.2105911325715181,0.2176527868754829,0.4088855925405452
1770448690508,128,0,0.1934353164855302,1.0150915677904924,0.8105015645364482
1770448690512,128,0,0.4965234255557362,1.5185906701849872,1.1106304342949271
1770448690516,128,0,0.7143606195915999,1.151511471442609,1.3250476455015987
1770448690520,128,0,0.8949815814339377,1.2046170841773205,1.5031660196552976
1770448690524,129,1,1.08156721748372,1.8775501964872088,1.6886328790396898
1770448690528,129,1,1.3021039009023467,2.2745502005901805,1.9080071399222984
1770448690532,129,1,1.5938427285428294,2.284451164316102,2.1971280573033636
1770448690536,129,1,2.003053955219789,2.325522033028031,2.60265399552474
1770448690540,130,2,2.5302653258489274,3.0445346454447995,3.126372278562458
1770448690544,131,3,3.0823817481113007,3.9456100886554264,3.675508252006748
1770448690548,131,3,3.5065431736625943,4.208890574475376,4.0966665105611515
1770448690552,131,3,3.6910231820741215,4.300159413051382,4.278091044704274
1770448690556,131,3,3.644194247539453,4.31648812626381,4.228894851461542
1770448690560,131,3,3.4874229726599673,4.002442074178134,4.070801617737757
1770448690564,131,3,3.37735092007366,3.936744890474352,3.9596231192781906
1770448690568,131,3,3.4208076251363138,4.206148766689154,4.000905502056776
1770448690572,131,3,3.631342035166023,4.254290982426671,4.207877147738392
1770448690576,131,3,3.934648841115154,4.391588010927357,4.507153225912413
1770448690580,132,4,4.207916613415042,4.837947037045023,4.776857474220353
1770448690584,132,4,4.337983352515812,5.096514495840891,4.903839401863021
1770448690588,132,4,4.274822996021649,4.9747085076489785,4.837834983497919
1770448690592,131,3,4.045175181433649,4.49858529790319,4.6060229375059105
1770448690596,131,3,3.715302715317891,4.1156016104455695,4.275082516837601
1770448690600,131,3,3.3418095541230493,4.069006446816427,3.9006607200351167
1770448690604,131,3,2.9560683324689707,3.8390335290646,3.5123663676903956
1770448690608,130,2,2.5723472214133567,3.1642102735042075,3.124139371141053
1770448690612,129,1,2.175019624784171,2.3500420350399622,2.722100248750282
1770448690616,129,1,1.6898488221310295,2.172948974789575,2.2336649223038045
1770448690620,129,1,1.003836603980707,2.0432834379130296,1.5455560575609013
1770448690624,128,0,0.0556835622686335,0.7478563751470095,0.5953499861280562
1770448690628,126,-2,-1.0844109407738154,-0.7128158682005297,-0.5468462279840312
1770448690632,125,-3,-2.238788168127399,-1.8292541572446344,-1.7028794913010703
1770448690636,124,-4,-3.234717475933212,-2.667158962370067,-2.700574547264293
1770448690640,124,-4,-4.002492951348406,-3.133550185800658,-3.4714977238807148
1770448690644,123,-5,-4.590101996722422,-4.155585979143665,-4.063668273495595
1770448690648,122,-6,-5.109391931009699,-4.778035402473444,-4.587354749212405
1770448690652,122,-6,-5.659976978299341,-4.854906134884444,-5.140851756677153
1770448690656,121,-7,-6.264618512106763,-5.606366631563697,-5.747154137973932
1770448690660,121,-7,-6.8484431693049626,-6.2967857959728475,-6.332376839803403
1770448690664,120,-8,-7.28683661516401,-6.965509743684513,-6.772543987447709
1770448690668,120,-8,-7.495952690091985,-7.056294328974808,-6.984160139866579
1770448690672,120,-8,-7.492524617909772,-6.551087267207865,-6.98422669674898
1770448690676,120,-8,-7.376579785615217,-6.9731440835080125,-6.872472560255994
1770448690680,120,-8,-7.262797167097283,-6.946490268418265,-6.7626258549591265
1770448690684,121,-7,-7.216850433139412,-6.35987042608613,-6.719606140419261
1770448690688,120,-8,-7.229851787409612,-6.70348670467607,-6.7345197606355445
1770448690692,120,-8,-7.2367192819780914,-6.918024448821141,-6.742772149855302
1770448690696,120,-8,-7.164417995916495,-6.637302810317779,-6.672103218173691
1770448690700,121,-7,-6.976116919759649,-6.316337811038076,-6.486554684104356
1770448690704,121,-7,-6.683935007895896,-6.033497172807312,-6.1984195314371675
1770448690708,121,-7,-6.337613086922923,-6.048399083380619,-5.856418457914371
1770448690712,121,-7,-6.008036284637496,-5.623357223497041,-5.530191871381161
1770448690716,122,-6,-5.7622977647261715,-4.925413949891809,-5.28668494536255
1770448690720,122,-6,-5.625744576855095,-5.102949425491128,-5.152048105592625
1770448690724,122,-6,-5.558710770215431,-5.253521772262259,-5.087243241875688
1770448690728,122,-6,-5.480594197744267,-4.877765130257342,-5.0116979105483965
1770448690732,122,-6,-5.329365588646048,-4.8228204531104515,-4.86324337754809
1770448690736,122,-6,-5.107799988384376,-4.735322308790529,-4.644713437809281
1770448690740,123,-5,-4.879719463478424,-4.352953600165497,-4.420132538157201
1770448690744,123,-5,-4.720583775041526,-4.011166869463306,-4.2648845496170775
1770448690748,123,-5,-4.663014479474917,-4.184763273197503,-4.210843183367045
1770448690752,122,-6,-4.68106976037541,-4.520714248356409,-4.2311447488652725
1770448690756,123,-5,-4.717211607410086,-4.081859312213556,-4.268397284462694
1770448690760,123,-5,-4.715726019224605,-4.0325222451347775,-4.2683729253182525
1770448690764,123,-5,-4.6378062588050994,-4.363574729047292,-4.193638700605598
1770448690768,123,-5,-4.471207728618706,-3.8821046175671343,-4.0316938430932785
1770448690772,123,-5,-4.247773647249344,-3.820346789790972,-3.812729826639169
1770448690776,123,-5,-4.048188998252817,-3.865833047984321,-3.616113789473423
1770448690780,124,-4,-3.9630378127378463,-3.2105442489991587,-3.5327614921469546
1770448690784,124,-4,-4.020596870732081,-3.301122599481031,-3.5923059096426364
1770448690788,123,-5,-4.146048894566441,-3.896945950600161,-3.7205578861725144
1770448690792,123,-5,-4.20916582952526,-3.916843061610761,-3.786696019705005
1770448690796,123,-5,-4.130737928666818,-3.7279231254489176,-3.711002490685524
1770448690800,124,-4,-3.946411637919193,-3.446019026476183,-3.5296357295835867
1770448690804,124,-4,-3.7656947121450246,-3.036250188856232,-3.35271169756528
1770448690808,124,-4,-3.6731595762009257,-3.241244471668182,-3.264217156038979
1770448690812,123,-5,-3.670080210897241,-3.582043001442144,-3.2641546615498895
1770448690816,124,-4,-3.6965530352943783,-3.1103000135073313,-3.292413327963483
1770448690820,124,-4,-3.689418591058776,-3.0983273837558314,-3.287111512762103
1770448690824,124,-4,-3.61808146708232,-3.3949890972548813,-3.21884766632596
1770448690828,124,-4,-3.4862585735263356,-2.9339518502016575,-3.091075528088378
1770448690832,124,-4,-3.317284923419338,-2.902101471949186,-2.9259131029113874
1770448690836,124,-4,-3.134578973920063,-2.8647298280496787,-2.7461020218663768
1770448690840,125,-3,-2.9412326072304102,-2.331508494366878,-2.555217134812042
1770448690844,125,-3,-2.7096677120106203,-2.229286941192298,-2.3264633313911665
1770448690848,125,-3,-2.397423509758185,-2.096558426038968,-2.017404105634754
1770448690852,125,-3,-1.985836921219577,-1.8000707594893752,-1.6089148419363537
1770448690856,126,-2,-1.5049088049368202,-1.0051278711279727,-1.1310631041044812
1770448690860,127,-1,-1.0110763720315017,-0.2044193595043917,-0.640731469068665
1770448690864,127,-1,-0.5397528819987425,-0.4044435911831741,-0.1730530547861608
1770448690868,127,-1,-0.0887243398530552,0.0710799290323618,0.275056470359061
1770448690872,128,0,0.3540522184210131,0.9690800430691572,0.715631103144869
1770448690876,128,0,0.7809064782689923,1.1904207515424838,1.1398150007258128
1770448690880,129,1,1.1635889716518364,1.5837157769966324,1.518609882855622
1770448690884,129,1,1.4643326218450288,1.768310730497599,1.8150452348040609
1770448690888,129,1,1.639161129236616,1.88452297776938,1.9864048600930984
1770448690892,129,1,1.6467149524927989,2.081439982615356,1.9913632682581797
1770448690896,129,1,1.4777401965901378,2.0681731625206896,1.8196120901156287
1770448690900,129,1,1.1801539536017185,1.6540540040586398,1.5185965775027896
1770448690904,128,0,0.8377457113174369,0.7051462214152113,1.1727858056242186
1770448690908,128,0,0.5107133659039946,0.8769516740826235,0.8428401040279987
1770448690912,128,0,0.201200130173476,1.0761833606272633,0.5302869029644472
1770448690916,127,-1,-0.1214278814529989,0.0033555508492475,0.2039355795756825
1770448690920,127,-1,-0.476755499154331,-0.2660399817462648,-0.1553096744646036
1770448690924,127,-1,-0.8623834259089895,-0.4337275388380699,-0.5444591137576407
1770448690928,126,-2,-1.2687235747183006,-1.0022092069603687,-0.9542784428215773
1770448690932,126,-2,-1.6847336081204525,-1.1115679713559317,-1.3741873724539162
1770448690936,125,-3,-2.0913422077091623,-1.8161713701375335,-1.7844413147128804
1770448690940,125,-3,-2.4615417189909277,-2.4927030321256702,-2.15702329517351
1770448690944,125,-3,-2.7654905452446608,-2.2202050644986286,-2.462686022998509
1770448690948,125,-3,-2.966593812965005,-2.2587532449629797,-2.6668523813699143
1770448690952,124,-4,-3.0252516353082965,-2.921633806130215,-2.730775847150308
1770448690956,124,-4,-2.939846795571791,-2.982807709400159,-2.6512203456341723
1770448690960,125,-3,-2.795402951982176,-2.4294778616917805,-2.511067839886417
1770448690964,125,-3,-2.7391814574916693,-2.226076757755223,-2.457319953066553
1770448690968,125,-3,-2.8654846428257854,-2.382098872759035,-2.58568228324667
1770448690972,124,-4,-3.111919980053381,-2.7580552314250437,-2.8348874032638123
1770448690976,124,-4,-3.287155568179089,-3.245162742101834,-3.0135883566150152
1770448690980,124,-4,-3.225873587624684,-3.1606469094982788,-2.9561941697558116
1770448690984,125,-3,-2.9330701842258025,-2.5313048254608663,-2.667980698232
1770448690988,125,-3,-2.5829050777245963,-2.1254368489611357,-2.3232705042268704
1770448690992,125,-3,-2.374513731017368,-2.0165358100882256,-2.120095243911091
1770448690996,125,-3,-2.376946895167249,-2.074136121087327,-2.125518067493316
1770448691000,125,-3,-2.494476093083778,-2.323034106035203,-2.243070625230633
1770448691004,125,-3,-2.568164695871997,-2.439876643464294,-2.316083956934302
1770448691008,125,-3,-2.5155761400767025,-2.2173370248974154,-2.2664794660759995
1770448691012,125,-3,-2.3897023732340585,-1.969977744593935,-2.1501035034273244
1770448691016,125,-3,-2.306280565248751,-2.161114695055816,-2.080708397115407
1770448691020,125,-3,-2.2710871999904754,-2.262174182908458,-2.0576088309222547
1770448691024,126,-2,-1.9834801825746513,-1.5560750387688755,-1.7734938017860555
1770448691028,127,-1,-0.7196778947668951,-0.1084656343009142,-0.5024735523487591
1770448691032,130,2,2.573925596476819,2.8767915081892492,2.8046438045056465
1770448691036,136,8,8.88637552082685,8.970892796019958,9.127589286891787
1770448691040,146,18,18.523208153550566,18.576292044098757,18.76235364421549
1770448691044,158,30,30.554595762642016,30.563158505747687,30.77560657901475
1770448691048,170,42,42.70562539197736,42.7677632555722,42.89888558364052
1770448691052,179,51,51.914089163451706,51.93043052122655,52.083292210844704
1770448691056,183,55,55.4501732802074,55.88147712223533,55.60999243785448
1770448691060,181,53,52.12879075446379,53.55754028185284,52.29523813750269
1770448691064,171,43,42.95240022335658,43.5659409327823,43.1342005156467
1770448691068,157,29,30.716053686387554,29.679635858720143,30.912351034882057
1770448691072,145,17,18.711437733553204,18.07164934692089,18.91398187473218
1770448691076,137,9,9.294874388205931,9.65720631171389,9.491618037494716
1770448691080,131,3,3.1723780165793425,3.8521587509811175,3.3524923817590433
1770448691084,128,0,-0.3115617550502598,0.2025609982253833,-0.1520862464574186
1770448691088,125,-3,-2.2997808537365465,-1.952860802430814,-2.1560104586473097
1770448691092,124,-4,-3.647110554846819,-3.381129497305544,-3.5088813765356175
1770448691096,122,-6,-4.664761991383016,-4.950115174528626,-4.523248281457376
1770448691100,122,-6,-5.337755317037139,-5.545827826180764,-5.190085226142527
1770448691104,122,-6,-5.662623251932136,-5.451438999542104,-5.512409271578103
1770448691108,122,-6,-5.780762765095135,-5.282724015069748,-5.635080952179968
1770448691112,122,-6,-5.862223491368101,-5.158209937721404,-5.726728745962489
1770448691116,121,-7,-5.949796161728495,-6.171897207745325,-5.82489041119553
1770448691120,121,-7,-5.9652663381107125,-6.4135351680242865,-5.846511465422325
1770448691124,122,-6,-5.851647271365472,-5.540865866695201,-5.734347659563493
1770448691128,122,-6,-5.661744533280218,-5.27954956382684,-5.545177731248845
1770448691132,122,-6,-5.490497879916059,-5.146674206250727,-5.377596293260292
1770448691136,122,-6,-5.350043781246165,-5.2910880627037935,-5.243615752147498
1770448691140,122,-6,-5.14505054601883,-5.284780586232419,-5.045135530131295
1770448691144,123,-5,-4.774337594287815,-4.738269411653956,-4.679085002575042
1770448691148,123,-5,-4.241864490983107,-4.063887150808805,-4.150064233973364
