timestamp_ms,ecg_u8_raw,ecg_counts_raw_int,ecg_counts_filt_monitor,ecg_counts_filt_diagnostic,ecg_counts_filt_st
1769145972320,122,-6,-5.284466272069898,-6.122816238682948,-6.102933298255512
1769145972324,122,-6,-5.265623027813674,-5.996148771902173,-6.081213933617164
1769145972328,122,-6,-5.144263036827402,-6.048187312774752,-5.956746680328268
1769145972332,122,-6,-4.899829569180669,-5.8976185021785055,-5.709478655641889
1769145972336,123,-5,-4.587368764901056,-5.191723090749053,-5.394998347146021
1769145972340,123,-5,-4.3098673480620855,-5.0041767224411675,-5.116178502970937
1769145972344,123,-5,-4.155121322241536,-5.125561774157459,-4.959747730018914
1769145972348,123,-5,-4.147804508214107,-4.9393157923568305,-4.949276485049701
1769145972352,123,-5,-4.241923790294326,-5.00519318146355,-5.038931060241337
1769145972356,123,-5,-4.343680863742706,-5.1185625552323,-5.136276178304344
1769145972360,123,-5,-4.350766243209936,-5.030874111843081,-5.140088155234245
1769145972364,123,-5,-4.201811593307738,-5.153692658444211,-4.988780407170945
1769145972368,123,-5,-3.9166198477578127,-4.881255451754138,-4.701271309108745
1769145972372,124,-4,-3.5917520477105853,-4.113720330910052,-4.3737334547268105
1769145972376,124,-4,-3.340499899420914,-3.9907224398027976,-4.119563208488286
1769145972380,124,-4,-3.2213539407582403,-4.1642445409390865,-3.997082719311904
1769145972384,124,-4,-3.2152225747894,-4.032583260148011,-3.986840043361165
1769145972388,124,-4,-3.2607798622090223,-4.009319803242787,-4.0277879911663605
1769145972392,124,-4,-3.30365289407156,-4.020709531358135,-4.066487979004079
1769145972396,124,-4,-3.31979499519685,-4.054543579611366,-4.079428555053992
1769145972400,124,-4,-3.3121178407301386,-4.124390076538662,-4.068982458682221
1769145972404,124,-4,-3.2977911814906773,-4.057639740779096,-4.05131154645731
1769145972408,124,-4,-3.294778997480486,-4.022602986107864,-4.0439963892057404
1769145972412,124,-4,-3.3088424402987138,-4.013150982290581,-4.053364718442015
1769145972416,124,-4,-3.327807888506597,-4.05774545893837,-4.068090906715526
1769145972420,124,-4,-3.3320046750974077,-4.12538538101641,-4.068778262002834
1769145972424,124,-4,-3.3160698501747037,-4.0582552956987845,-4.049532277281043
1769145972428,124,-4,-3.3009861173556736,-4.047878109232444,-4.030511342763359
1769145972432,124,-4,-3.3185516951196106,-4.003756572013334,-4.043185318857864
1769145972436,124,-4,-3.3755722284432808,-4.049254162212185,-4.094929267071091
1769145972440,124,-4,-3.4293357072047073,-4.155797035093796,-4.14404203383032
1769145972444,124,-4,-3.4046488672934,-4.009203674900641,-4.1157100777652005
1769145972448,124,-4,-3.250721365499203,-4.145032878937991,-3.958342981257988
1769145972452,124,-4,-2.993598852603129,-3.901437991379439,-3.696878188222595
1769145972456,125,-3,-2.7269354699839985,-3.1476342410839115,-3.4249344478411823
1769145972460,125,-3,-2.5326445083236693,-3.069736005063816,-3.225456488827668
1769145972464,125,-3,-2.4022392566663715,-3.079589235276997,-3.0906010215448436
1769145972468,125,-3,-2.2468338890779727,-3.1278209190076156,-2.9309253277102454
1769145972472,125,-3,-1.9970983586172224,-2.9095742264379454,-2.676297833458286
1769145972476,126,-2,-1.6930809191493996,-2.1466600775917226,-2.366962968717643
1769145972480,126,-2,-1.4688951237137575,-2.062657764203891,-2.1379846291710596
1769145972484,126,-2,-1.4462131250245425,-2.0818166620483947,-2.1114114946206786
1769145972488,126,-2,-1.640838130360136,-2.175194720667807,-2.3021973416302712
1769145972492,125,-3,-1.9656486477456607,-2.85665788917718,-2.6220162546445462
1769145972496,125,-3,-2.312382309757946,-3.217199925541176,-2.9625263254413654
1769145972500,125,-3,-2.621299384902735,-2.970386116220451,-3.265289318096014
1769145972504,125,-3,-2.876844608628178,-3.1662184751144387,-3.5158604724251403
1769145972508,124,-4,-3.061324318179054,-4.150984236769656,-3.696097759010385
1769145972512,124,-4,-3.138635324691142,-3.848047409965663,-3.7687507025606073
1769145972516,125,-3,-3.0838067811847667,-3.2891880109773024,-3.708664565696389
1769145972520,124,-4,-2.9153759408175235,-3.8251311501498617,-3.535071453061947
1769145972524,125,-3,-2.6978983664899063,-3.359770754224042,-3.3128439777707057
1769145972528,125,-3,-2.515679809323093,-2.947041143348074,-3.1259121186276677
1769145972532,125,-3,-2.4310807591573047,-3.1044251128880727,-3.036228570531798
1769145972536,125,-3,-2.4483228876637524,-3.014907262165494,-3.0479730505381433
1769145972540,125,-3,-2.509161509697206,-3.0976061153787016,-3.1030577842322224
1769145972544,125,-3,-2.5295249426457893,-3.0775238122496065,-3.1175543866388806
1769145972548,125,-3,-2.454288617533688,-3.265500529200158,-3.036597452748239
1769145972552,125,-3,-2.28955516595416,-2.797522740135467,-2.866838666023346
1769145972556,126,-2,-2.0878236781677537,-2.3319021333788448,-2.6611524694869373
1769145972560,125,-3,-1.9034472327487093,-2.7604378397326927,-2.473283543898646
1769145972564,126,-2,-1.759894079389292,-2.4087352550466457,-2.325210864615193
1769145972568,126,-2,-1.6474784644710103,-1.98871108097427,-2.206050383391342
1769145972572,126,-2,-1.538910191578438,-2.052005891407548,-2.088689517676108
1769145972576,126,-2,-1.4116094467268254,-2.1404696260393834,-1.9525607340183324
1769145972580,126,-2,-1.2737960633650294,-1.854918050023611,-1.8093232049181225
1769145972584,127,-1,-1.1785103417303353,-1.4012087427922657,-1.714578525899237
1769145972588,126,-2,-1.2029473272343152,-1.952372606366278,-1.7436240998479395
1769145972592,126,-2,-1.3834669462764155,-2.1590643761708552,-1.9256548919101972
1769145972596,126,-2,-1.6093738899169452,-2.016811677162114,-2.1425222455849062
1769145972600,126,-2,-1.5083766434863937,-1.942320866625341,-2.021615907666182
1769145972604,128,0,-0.4307065555723248,-0.3694830353437265,-0.9222986487119016
1769145972608,130,2,2.315096576351829,2.0778856352371395,1.8347918071954012
1769145972612,134,6,6.94180311370344,5.696025010970782,6.45741133634598
1769145972616,139,11,12.64293460157294,11.22012517188623,12.145095773402725
1769145972620,145,17,17.529214171904364,16.771788017839512,17.019898284489642
1769145972624,148,20,19.369098773661047,19.93401782092615,18.85822833697396
1769145972628,146,18,16.852364154902087,17.755156096117968,16.35119985485835
1769145972632,138,10,10.528964831610118,9.919706002957568,10.045883210942629
1769145972636,129,1,2.6599596485939925,1.0393183393803682,2.1983861930558324
1769145972640,123,-5,-3.9954721347708775,-5.099268558507325,-4.439056701736838
1769145972644,120,-8,-7.616684114687504,-8.09858413649535,-8.052886853829435
1769145972648,120,-8,-8.027776749113034,-8.212908136923405,-8.46954624871497
1769145972652,122,-6,-6.35065631975746,-6.109185650374233,-6.80534323205262
1769145972656,124,-4,-4.051823094942307,-3.9597930506491017,-4.516032015730283
1769145972660,125,-3,-2.1288104647830144,-3.1585953170593464,-2.590600487821887
1769145972664,126,-2,-0.8833168372475427,-2.0104157385187453,-1.3307333108951027
1769145972668,128,0,-0.1840637778529926,-0.3232977772654749,-0.6135550815388
1769145972672,128,0,0.1806518804551538,0.0187029565740813,-0.2370612421226287
1769145972676,128,0,0.3420051873506141,-0.1191737357568442,-0.073267509818203
1769145972680,128,0,0.3712072448539564,-0.0161077392064553,-0.046506194972516
1769145972684,128,0,0.3337852128277653,-0.1511358985020061,-0.0847127237368589
1769145972688,128,0,0.2931873367065021,-0.1841577291385674,-0.1215541993169096
1769145972692,128,0,0.2828248129855738,-0.1008058698530278,-0.1253073661978677
1769145972696,128,0,0.295318879744334,-0.0380938672629085,-0.106566435226702
1769145972700,128,0,0.3036704095546798,-0.0940337400081629,-0.0939434195852532
1769145972704,128,0,0.2913036035135036,-0.1072816616579034,-0.1033721209356958
1769145972708,128,0,0.2648286131332886,-0.1855841938738894,-0.1268003556393525
1769145972712,128,0,0.246851301118277,-0.1428654796518046,-0.1409140513012877
1769145972716,128,0,0.2629545158616164,0.0446930647160254,-0.1204103139807326
1769145972720,128,0,0.332414503457574,-0.2617618283848731,-0.0466408598168052
1769145972724,128,0,0.4625417145890198,0.1185210688819344,0.0872588508938633
1769145972728,129,1,0.645454277978682,0.5430150373391759,0.2733344782982498
1769145972732,128,0,0.856793298584287,0.1649084837874375,0.4875292176408393
1769145972736,129,1,1.0568782562675998,0.7063956761500728,0.6905309122317115
1769145972740,129,1,1.2009623638590112,1.0547976116651805,0.8376889806168266
1769145972744,129,1,1.2619354460616183,0.804460281810633,0.9018718120810724
1769145972748,129,1,1.2504434929986463,0.8531577559860721,0.8938447933503125
1769145972752,129,1,1.213017163897927,0.866700593491084,0.8601428915743262
1769145972756,129,1,1.208745474837073,0.981943640089164,0.8594177241381774
1769145972760,129,1,1.280516591194236,0.7589776326309521,0.9339369811853032
1769145972764,129,1,1.435189628274401,1.1029245107076415,1.090385016111015
1769145972768,130,2,1.6409057155186222,1.5525944606814333,1.2975473417795915
1769145972772,129,1,1.8429229958348696,1.1767493733322008,1.5017384263554303
1769145972776,130,2,1.9928791232702503,1.6529238620142168,1.6549381708668194
1769145972780,130,2,2.082466102960584,2.0581238438800096,1.7479185862992748
1769145972784,130,2,2.160799404368327,1.822335002729062,1.828704569569069
1769145972788,130,2,2.306177153872394,1.801024241254194,1.9756899597175464
1769145972792,130,2,2.5568566339195793,1.9883545831900455,2.228004770577306
1769145972796,131,3,2.863313728005097,2.750261542218198,2.536360558890011
1769145972800,131,3,3.119881559707975,3.020555525007506,2.7945708221132466
1769145972804,131,3,3.2501418376631417,2.7869014210024554,2.9260659912525484
1769145972808,131,3,3.2606853149169197,2.8957752209160774,2.9379736096836218
1769145972812,131,3,3.2177954307040624,2.860696659730547,2.896892484704853
1769145972816,131,3,3.1837496491144757,2.861536920128191,2.8646775547855414
1769145972820,131,3,3.1767229438370177,2.91517173938693,2.858990603916084
1769145972824,131,3,3.1792938342819776,2.8623117785703656,2.8625099539554433
1769145972828,131,3,3.173068562827902,2.858825937446494,2.857277590272562
1769145972832,131,3,3.1630895005241864,2.862711240943032,2.848350593591969
1769145972836,131,3,3.172513307756502,2.862246538362325,2.858408225498233
1769145972840,131,3,3.213342576390743,2.8857529596431433,2.8992476137089795
1769145972844,131,3,3.257529175502933,2.9061774605089568,2.9433680009239818
1769145972848,131,3,3.237786065190788,2.8074543641003276,2.9241447492248325
1769145972852,131,3,3.091220387550813,2.9207500029068867,2.778514249930848
1769145972856,131,3,2.820048554824962,2.7715477959608297,2.5078836222064886
1769145972860,130,2,2.511192555736205,1.977821195677285,2.1988777572627902
1769145972864,130,2,2.2792554997957186,1.7981618905222925,1.9666918554863797
1769145972868,130,2,2.173495549429746,1.9396291238341057,1.8610780432460745
1769145972872,130,2,2.137219759089355,1.7621751334510134,1.8248613914852871
1769145972876,130,2,2.061714332392523,1.9375853444562623,1.7484310294864738
1769145972880,130,2,1.8811391472214216,1.7804963361059365,1.5659992249065986
1769145972884,129,1,1.614509991016636,1.004034625775174,1.2978802379928684
1769145972888,129,1,1.3217067887543656,0.727367015826344,1.0049754836981704
1769145972892,129,1,1.0365886017072912,0.9732036145337672,0.7204071365997475
1769145972896,129,1,0.7571787568076427,0.7160095232735911,0.440528972051036
1769145972900,128,0,0.4893504679229057,-0.0112816339294503,0.1707523875001729
1769145972904,128,0,0.27195722267964,-0.1978540729397485,-0.0489270137407973
1769145972908,128,0,0.1478822611323769,-0.0926028994318182,-0.174587725563951
1769145972912,128,0,0.1215912561175702,-0.1880514709410463,-0.2020018589920834
1769145972916,128,0,0.1535633058073635,-0.1566166890297785,-0.1715109807776494
1769145972920,128,0,0.1918940210894053,-0.1149081007925437,-0.1352942652579318
1769145972924,128,0,0.2062696056133186,-0.1338634253224237,-0.1232738949338952
1769145972928,128,0,0.1978219275868287,-0.1340057145730201,-0.1338797879939843
1769145972932,128,0,0.184758412929302,-0.1746250643055507,-0.1488641304594661
1769145972936,128,0,0.1812700936057751,-0.1588637789193058,-0.1543367802021734
1769145972940,128,0,0.1874366384377166,-0.1273245302053668,-0.1505398347763327
1769145972944,128,0,0.1947487642560368,-0.127483298149136,-0.1460530271924116
1769145972948,128,0,0.1975346552925108,-0.1440780338276713,-0.1463255966156021
1769145972952,128,0,0.19760198003524,-0.1732738180041618,-0.1492459197901819
1769145972956,128,0,0.1993204889514652,-0.1616032048319857,-0.1503475000452981
1769145972960,128,0,0.2032916763550836,-0.133421138524011,-0.1492234716828784
1769145972964,128,0,0.2065405700246065,-0.127822901594606,-0.1491137839608813
1769145972968,128,0,0.2076008865957643,-0.1490580629538231,-0.1515312038004786
1769145972972,128,0,0.208798412629295,-0.1743159814176694,-0.1539509095374041
1769145972976,128,0,0.2127485964336486,-0.1648022655549377,-0.153569877437993
1769145972980,128,0,0.2183797454072835,-0.1375190496036613,-0.1515021909093354
1769145972984,128,0,0.222261632262265,-0.1300283713054866,-0.1513669273252128
1769145972988,128,0,0.2234014071956607,-0.1523137136095312,-0.154234449523916
1769145972992,128,0,0.2247444471454531,-0.1764525751015838,-0.1570358748466492
1769145972996,128,0,0.2291904562112703,-0.1680377252169991,-0.1567296405306465
1769145973000,128,0,0.2355862264017216,-0.1409635524174803,-0.1545028497104982
1769145973004,128,0,0.2402542262446014,-0.1326545406586239,-0.1541846353865241
1769145973008,128,0,0.2420074141474166,-0.1548445085538834,-0.1570111902680215
1769145973012,128,0,0.2437817472113588,-0.1793221601778009,-0.159922795739974
1769145973016,128,0,0.2486422654483568,-0.1711153287898591,-0.1597360734664654
1769145973020,128,0,0.255629209315142,-0.14423961153355,-0.1574726875697052
1769145973024,128,0,0.2611021457204037,-0.1352487620671273,-0.1569325649867511
1769145973028,128,0,0.2636726347946327,-0.1568282122740267,-0.1595249060247228
1769145973032,128,0,0.2659418419285976,-0.1831016591905187,-0.1624723090367223
1769145973036,128,0,0.2707859878749544,-0.1735824066291464,-0.1627509679909573
1769145973040,128,0,0.2775224710158395,-0.1478504058666507,-0.1611498663636608
1769145973044,128,0,0.2833173644077916,-0.1375824460211022,-0.1607739176270587
1769145973048,128,0,0.2875801351479943,-0.1579199532387649,-0.1623197340062169
1769145973052,128,0,0.2926292879764263,-0.1888153911806221,-0.1632323333265759
1769145973056,128,0,0.299301329513659,-0.1739185926327728,-0.1623053643814588
1769145973060,128,0,0.3042109279313836,-0.1532894590864353,-0.1628119209902151
1769145973064,128,0,0.3042475039375893,-0.1390152756611602,-0.1681711725067266
1769145973068,128,0,0.3036438542436337,-0.1570244288484235,-0.1746392470880526
1769145973072,128,0,0.3127877611287595,-0.199775211787937,-0.1720590160412878
1769145973076,128,0,0.3358042390314639,-0.1669744047157426,-0.1560141299324671
1769145973080,128,0,0.3589063353992537,-0.1659229413082504,-0.1396411374564275
1769145973084,128,0,0.3563664222750642,-0.1370174626321987,-0.1481972801421894
1769145973088,128,0,0.3170464558526301,-0.149595136608715,-0.1930304505110858
1769145973092,128,0,0.2716818340586716,-0.232354688140118,-0.2441945437875403
1769145973096,128,0,0.2905235701506582,-0.1199306577946275,-0.2320305147193264
1769145973100,128,0,0.4384896871972337,-0.2392942216692805,-0.0913814319153627
1769145973104,128,0,0.7156420828611639,-0.0528815178916828,0.1785229907476379
1769145973108,129,1,1.0390414692125431,0.7552092042659819,0.4950422600662885
1769145973112,129,1,1.2952145230607062,0.8625656778399516,0.7444451927935946
1769145973116,129,1,1.4225010726866645,0.7721313327288278,0.864864116589611
1769145973120,129,1,1.4469325738649856,0.8707908147600709,0.8824285584794384
1769145973124,129,1,1.4407642123448536,0.813331701005608,0.8694649096536168
1769145973128,129,1,1.4470309784803326,0.9021862145949888,0.8688615240490056
1769145973132,129,1,1.4389179498851017,0.7083259622654572,0.8535793649156584
1769145973136,129,1,1.3465796934261405,0.9098211228313572,0.7536326529179695
1769145973140,129,1,1.125085521501231,0.7605320892961952,0.5242171398565947
1769145973144,128,0,0.8013289104418688,-0.1485110526832128,0.1927236971091603
1769145973148,128,0,0.4575302145339072,-0.0582405384955081,-0.1581162713692275
1769145973152,128,0,0.1704665217494057,-0.4188947339332627,-0.451606979211372
1769145973156,127,-1,-0.0347289084056203,-0.8912155673635797,-0.6634007544068139
1769145973160,128,0,-0.1796307136824906,-0.4941371751406692,-0.8159151049333162
1769145973164,127,-1,-0.2944778398236343,-0.8855705994535954,-0.9394105463038148
1769145973168,127,-1,-0.3941435344921519,-1.308664102617326,-1.047821741001398
1769145973172,127,-1,-0.4891634793063996,-1.2226575896035072,-1.150749524422016
1769145973176,127,-1,-0.6028502289490661,-1.0155444494282122,-1.271509943261256
1769145973180,127,-1,-0.7586209080412492,-1.4624102792729714,-1.4342096904722514
1769145973184,126,-2,-0.9469234737321748,-1.8427920032886216,-1.6298177816953976
1769145973188,127,-1,-1.1129838092330622,-1.4141479747227792,-1.803545314675559
1769145973192,126,-2,-1.187936551037751,-2.1044197166948213,-1.8861752206000444
1769145973196,126,-2,-1.144970925848948,-2.114351654065041,-1.8507389013602555
1769145973200,127,-1,-1.0338302598756954,-1.4229902652529065,-1.747521047996485
1769145973204,126,-2,-0.9556218941696016,-1.8062034513871288,-1.678447184118438
1769145973208,127,-1,-0.9914244367127498,-1.554847562758827,-1.724289942747186
1769145973212,126,-2,-1.1453480922504362,-1.870406006029462,-1.8870912742894077
1769145973216,126,-2,-1.3480238840787904,-2.4407264535373905,-2.0952717799985705
1769145973220,126,-2,-1.506156378411614,-2.045406769006537,-2.255946582225695
1769145973224,126,-2,-1.5507001107217384,-2.1964927160790757,-2.3039664093843135
1769145973228,126,-2,-1.463713463523473,-2.2087536158922663,-2.226093673437905
1769145973232,126,-2,-1.299136787702068,-2.1370581253093923,-2.077462721472641
1769145973236,126,-2,-1.190518980730146,-2.2911180667252,-1.987160584042623
1769145973240,126,-2,-1.2869534695332747,-2.0942172457440886,-2.0965025002165065
1769145973244,126,-2,-1.5761831306975822,-2.234282773259054,-2.3878115302790457
1769145973248,126,-2,-1.6781131251542405,-2.127552963215095,-2.4828161288325075
1769145973252,127,-1,-0.822250164306205,-1.2241013160373002,-1.6198736313899162
1769145973256,129,1,1.8063956847282976,0.7525251730839946,1.006091004065047
1769145973260,133,5,6.42344981076737,4.924317791684821,5.606950299059178
1769145973264,139,11,12.106041057656029,10.674948946465577,11.26472610684096
1769145973268,144,16,16.865229663879077,16.041798597762252,16.000038041813347
1769145973272,147,19,18.508952688424262,18.531597668878096,17.628717098358415
1769145973276,144,16,15.872184282337528,16.005976972999836,14.988474716826016
1769145973280,137,9,9.597434950870422,8.627914949294901,8.719623728370332
1769145973284,128,0,1.8718250114940704,-0.0772657086522644,1.0034359201928018
1769145973288,122,-6,-4.73614757651741,-6.127922198702575,-5.599615215460858
1769145973292,119,-9,-8.549553275766053,-9.352845892278138,-9.41935417979167
1769145973296,118,-10,-9.365374337441931,-9.974832621363811,-10.253492879858255
1769145973300,120,-8,-8.1293688561726,-8.489218078740498,-9.041015181848447
1769145973304,121,-7,-6.119203246466137,-6.91421783885933,-7.04973845765849
1769145973308,123,-5,-4.254951397473468,-5.370836322589438,-5.1937402044474315
1769145973312,124,-4,-2.8901699944824575,-4.097063213171154,-3.828058769331164
1769145973316,125,-3,-2.010372450027354,-3.2009494027561516,-2.945098451107582
1769145973320,126,-2,-1.5216706812545755,-2.31418794083378,-2.4578346254151557
1769145973324,126,-2,-1.3771335180049231,-2.037090764178198,-2.321594692699548
1769145973328,126,-2,-1.5264263629502113,-2.3508477379571575,-2.4829757730416366
1769145973332,125,-3,-1.84229056147594,-3.033204712956306,-2.8096159686595055
1769145973336,125,-3,-2.1458916573365103,-3.319176581598512,-3.120015285400365
1769145973340,125,-3,-2.3063031199645567,-3.1515107860610168,-3.2847618320077383
1769145973344,125,-3,-2.307152336116883,-3.230972381064807,-3.290833568291112
1769145973348,125,-3,-2.224539249929709,-3.1811255054942977,-3.215865509389873
1769145973352,125,-3,-2.153397569769864,-3.1711015084720633,-3.1533671813669724
1769145973356,125,-3,-2.147667507098568,-3.221618759453885,-3.1549344076742565
1769145973360,125,-3,-2.201551969259331,-3.198319654401312,-3.214074990411458
1769145973364,125,-3,-2.260420698822516,-3.2503323153277415,-3.2775260651195683
1769145973368,125,-3,-2.24729572602257,-3.1301414111439883,-3.2699450155751104
1769145973372,125,-3,-2.103085156988224,-3.254053661831241,-3.132425227612607
1769145973376,125,-3,-1.830038671094888,-3.111550400997651,-2.8662245781566615
1769145973380,126,-2,-1.5045358358155645,-2.320760548292789,-2.547077584812657
1769145973384,126,-2,-1.2343249624068895,-2.1376625695830356,-2.2829874916558066
1769145973388,126,-2,-1.088307983438351,-2.254805622994863,-2.1431314968265736
1769145973392,126,-2,-1.0610276075190963,-2.132903350419833,-2.1216896272276364
1769145973396,126,-2,-1.0983943728416694,-2.22347214918464,-2.1640930398699174
1769145973400,126,-2,-1.148518175621844,-2.226470866458866,-2.2186607233416384
1769145973404,126,-2,-1.185646510780611,-2.2147033356052126,-2.2605270051875803
1769145973408,126,-2,-1.19469371126349,-2.2240691923844067,-2.2753010330675627
1769145973412,126,-2,-1.1487763666138422,-2.12050983320356,-2.235716097655529
1769145973416,126,-2,-1.0164024836768033,-2.2813289930923824,-2.109013634416047
1769145973420,126,-2,-0.7940447587515962,-2.127027070168312,-1.8909500505981804
1769145973424,127,-1,-0.519379993865533,-1.3625719465334107,-1.6200499901963563
1769145973428,127,-1,-0.2385168867172535,-1.0513592250920152,-1.3437852405541622
1769145973432,127,-1,0.0351857767167139,-1.3181524319066515,-1.075531825068618
1769145973436,127,-1,0.3143207921072471,-1.0693856262384052,-0.8014503870009229
1769145973440,128,0,0.5916461997700839,-0.3494883897417916,-0.5281369904154896
1769145973444,128,0,0.8209578228769282,-0.1574557472222316,-0.3025039878290261
1769145973448,128,0,0.9530566801282336,-0.2391403499960052,-0.1745633100041471
1769145973452,128,0,0.9822818507974244,-0.1574852909018887,-0.1497930110493778
1769145973456,128,0,0.9515069015653592,-0.2039687346677593,-0.1845935205798156
1769145973460,128,0,0.9162376832147884,-0.2560640929621782,-0.2231722248542391
1769145973464,128,0,0.906898348814736,-0.2248103356137144,-0.235497687000299
1769145973468,128,0,0.9199875390093364,-0.1986855990496674,-0.2256725517267981
1769145973472,128,0,0.9369033313091566,-0.1763726677656431,-0.2125626561960518
1769145973476,128,0,0.9465557898199768,-0.2061424621778156,-0.206955918430429
1769145973480,128,0,0.9505881403901548,-0.2540218053177185,-0.2065371317661695
1769145973484,128,0,0.95218541753579,-0.2376663731887911,-0.2076015563984166
1769145973488,128,0,0.947620705911922,-0.1827409610759901,-0.2139984394408569
1769145973492,128,0,0.9339878121374146,-0.1920799740883942,-0.2294062024554688
1769145973496,128,0,0.9231343400894202,-0.1986564380589921,-0.2428002771150934
1769145973500,128,0,0.9385659479458012,-0.2634194435984524,-0.2307684329311078
1769145973504,128,0,0.987939401386706,-0.2489312869809709,-0.1847829434367874
1769145973508,128,0,1.035221991425047,-0.1500147187656176,-0.1397641169409247
1769145973512,128,0,1.0090832385009785,-0.2478876846379735,-0.1668645298286731
1769145973516,128,0,0.8562208473406488,-0.1248792874549312,-0.3204810873246488
1769145973520,128,0,0.5975607916418502,-0.3630585336646991,-0.5808767734663084
1769145973524,127,-1,0.3240614402074657,-1.1516479573054794,-0.8569427816604682
1769145973528,127,-1,0.1188264971107851,-1.2418274102080384,-1.0643224214103886
1769145973532,127,-1,-0.0223277409858544,-1.1692936044522435,-1.206487992141576
1769145973536,127,-1,-0.1816352530545871,-1.1847887343637231,-1.3662451010637329
1769145973540,127,-1,-0.4227394299287588,-1.3344831911413024,-1.60802315461953
1769145973544,126,-2,-0.7101616028572093,-2.1568291879004287,-1.896269357819584
1769145973548,126,-2,-0.9355368696849432,-2.283838486833436,-2.1221699570794574
1769145973552,126,-2,-1.0257944068662992,-2.078099414127241,-2.212827183409987
1769145973556,126,-2,-1.0247628261748534,-2.3294305016390666,-2.2126493695106633
1769145973560,126,-2,-1.0722573230513954,-2.1375718931303767,-2.261413375650616
1769145973564,126,-2,-1.3016044381215104,-2.403567343386224,-2.491597555330885
1769145973568,125,-3,-1.7395663938862,-3.024829158653299,-2.9292221324536514
1769145973572,125,-3,-2.2823082718494403,-3.346449801292149,-3.4706056110224854
1769145973576,124,-4,-2.761175842001665,-4.067850151698224,-3.947944193060292
1769145973580,124,-4,-3.048754441041427,-4.38014158112513,-4.234616856122545
1769145973584,124,-4,-3.129297431263763,-4.1879863407628495,-4.315108603484003
1769145973588,124,-4,-3.0866931407047806,-4.2231656786822604,-4.272903969691975
1769145973592,124,-4,-3.0287403056496633,-4.181804134691165,-4.2149897607614
1769145973596,124,-4,-3.013924564015056,-4.197344090530591,-4.199163732202141
1769145973600,124,-4,-3.0340262129348576,-4.290289611372962,-4.2172337115950445
1769145973604,124,-4,-3.0509157769795294,-4.250223320209572,-4.231866363056992
1769145973608,124,-4,-3.044037488553797,-4.196527339526067,-4.2233653789532335
1769145973612,124,-4,-3.028123558851708,-4.18922197811574,-4.20654022644538
1769145973616,124,-4,-3.0341037737669647,-4.202689930958404,-4.211534034040102
1769145973620,124,-4,-3.0748440810449305,-4.275983320481443,-4.2503968108144665
1769145973624,124,-4,-3.12259195813148,-4.286275055494602,-4.295359675011008
1769145973628,124,-4,-3.114658380680926,-4.149829894347638,-4.2843902826748455
1769145973632,124,-4,-2.989479298277171,-4.257624232586968,-4.156484425197146
1769145973636,124,-4,-2.7352787316079787,-4.11009067273597,-3.900016128960776
1769145973640,125,-3,-2.414097351176209,-3.390558523250503,-3.57702164699333
1769145973644,125,-3,-2.133346803855806,-3.165956724156341,-3.2946968541189032
1769145973648,125,-3,-1.9820565452292884,-3.281387241386257,-3.141325880672997
1769145973652,125,-3,-1.9812956869232763,-3.1348120821097094,-3.1371447105026897
1769145973656,125,-3,-2.0786471643270614,-3.2141178510243877,-3.2298480769931226
1769145973660,125,-3,-2.1771955122756577,-3.3240014036303815,-3.3237101701483565
1769145973664,125,-3,-2.1783446789480303,-3.1916395765315304,-3.3212075379067434
1769145973668,125,-3,-2.02718366656086,-3.307447223299181,-3.167332610499088
1769145973672,125,-3,-1.7454080512872618,-3.068580507352593,-2.8828985684179407
1769145973676,126,-2,-1.4252318917753284,-2.312248590641047,-2.5595392391429264
1769145973680,126,-2,-1.175132640858146,-2.2109487693952072,-2.305707958917816
1769145973684,126,-2,-1.0537783500479851,-2.3165489449153527,-2.180090035523691
1769145973688,126,-2,-1.0454385462172,-2.187288581495427,-2.166947037558094
1769145973692,126,-2,-1.0897148080530707,-2.1927314745596296,-2.2062353086840023
1769145973696,126,-2,-1.1304460124103848,-2.194504963940862,-2.2423389536259637
1769145973700,126,-2,-1.145303167422321,-2.313926922351111,-2.2530072207145304
1769145973704,126,-2,-1.144591515402885,-2.241058988524086,-2.248076486050474
1769145973708,126,-2,-1.148230477910319,-2.2293117487894163,-2.2470860282667444
1769145973712,126,-2,-1.1583498096707434,-2.215361567131984,-2.2522370604213933
1769145973716,126,-2,-1.1489516869117065,-2.0983905881460543,-2.237713387835327
1769145973720,126,-2,-1.0847723132755418,-2.4888296432173043,-2.168257877575943
1769145973724,126,-2,-0.9534176713700808,-1.9972395540337289,-2.0315605144800477
1769145973728,127,-1,-0.7762093615745185,-1.5291034109857726,-1.8491842197025397
1769145973732,126,-2,-0.5856484158276731,-1.9062340551637336,-1.6535447693207226
1769145973736,127,-1,-0.3967224087271745,-1.3814206709129335,-1.4591060448692472
1769145973740,127,-1,-0.2017926093226776,-1.2676845320208334,-1.2580043081142138
1769145973744,127,-1,0.0127433973507604,-1.1362552119791096,-1.0371664340849138
1769145973748,128,0,0.2467145557747325,-0.499607720521568,-0.7973819461376206
1769145973752,127,-1,0.4727362533994057,-0.8262761997750181,-0.5659392965776835
1769145973756,128,0,0.633331665751006,-0.5710282902543402,-0.3997807419684188
1769145973760,128,0,0.6593781138302224,0.0127570558465852,-0.3678085728188948
1769145973764,128,0,0.5092697130113597,-0.4838661679325148,-0.5116897436454539
1769145973768,127,-1,0.1989414510485818,-1.1372907948154545,-0.8154576899585184
1769145973772,127,-1,-0.2051300352273593,-1.1644017117643872,-1.212752447342106
1769145973776,127,-1,-0.6184979415151912,-1.3026954416368597,-1.619496798076125
1769145973780,126,-2,-0.9687312806913184,-2.163526110942579,-1.9632340439434932
1769145973784,126,-2,-1.2136962276873555,-2.406026152332797,-2.20135071550253
1769145973788,126,-2,-1.3454612397411418,-2.1314922911912166,-2.3260078616727577
1769145973792,126,-2,-1.372984928466936,-2.244455754539965,-2.346985409082723
1769145973796,126,-2,-1.3000966351011554,-2.179749081934543,-2.268201616923492
1769145973800,126,-2,-1.134501394428572,-2.3025644022469898,-2.0961020891098654
1769145973804,126,-2,-0.923405101103874,-2.2739129155391966,-1.87709955712892
1769145973808,127,-1,-0.756554189638037,-1.260775127241914,-1.702204300628844
1769145973812,127,-1,-0.7065987082240421,-1.123173675837785,-1.6457488462939915
1769145973816,126,-2,-0.770582658901477,-2.304845510551403,-1.704164346057666
1769145973820,126,-2,-0.8907237387581597,-2.16274499427397,-1.8174029175144324
1769145973824,127,-1,-1.0254721694240592,-1.446745616477,-1.943241427164448
1769145973828,126,-2,-1.171695694875046,-2.0693942028500056,-2.0804556920662503
1769145973832,126,-2,-1.3151806948117497,-2.3284428662189685,-2.2168756738996604
1769145973836,126,-2,-1.389886242371449,-2.07771406694296,-2.286231058851632
1769145973840,126,-2,-1.3123620649086047,-2.416333905420922,-2.2027424275441985
1769145973844,126,-2,-1.0619764859116003,-2.1934772257795885,-1.943565079594256
1769145973848,127,-1,-0.7212345153196876,-1.322330201116475,-1.591420044283616
1769145973852,127,-1,-0.4294632219431994,-1.0774065420572292,-1.2887505433115338
1769145973856,127,-1,-0.2945170545638209,-1.308479101048519,-1.1473631098007973
1769145973860,127,-1,-0.3486060622650031,-1.22188698523603,-1.200814678697125
1769145973864,127,-1,-0.5728688045087247,-1.3782448443335311,-1.4265512047294302
1769145973868,126,-2,-0.9203951437894548,-2.164478065251749,-1.7702572561644487
1769145973872,126,-2,-1.2495243517694052,-2.1926929857620228,-2.0849212021994
1769145973876,127,-1,-1.1798988513278217,-1.2208763379626812,-1.9926475449159848
1769145973880,128,0,-0.0439924859297666,-0.2816299318708375,-0.835464593642537
1769145973884,130,2,2.8397174253341,1.626881850280736,2.0589372154795633
1769145973888,134,6,7.56611825596393,5.882141684991231,6.783471386185117
1769145973892,140,12,13.108162713936323,11.721207834611931,12.316701797881242
1769145973896,145,17,17.409713497413673,16.91929984745954,16.61095302997133
1769145973900,147,19,18.304988437293023,18.53100769511416,17.507189097579154
1769145973904,143,15,14.78232624953676,14.7967789210562,13.996785560688188
1769145973908,135,7,7.719366258783064,6.682698794338487,6.955974579665714
1769145973912,126,-2,-0.4781010894511248,-2.1162527866644276,-1.2156185731313265
1769145973916,120,-8,-7.118219722169716,-8.177604947155483,-7.835180312503898
1769145973920,117,-11,-10.522255326620456,-11.3770022155682,-11.23092253753616
1769145973924,117,-11,-10.595726375120918,-11.2215364371797,-11.30843135027823
1769145973928,120,-8,-8.466685884066315,-8.340347457288875,-9.188661922238987
1769145973932,122,-6,-5.608382738166241,-6.094897263059753,-6.335107469641979
1769145973936,124,-4,-3.089282462384352,-4.2370027545142985,-3.8097953650556624
1769145973940,126,-2,-1.3366289725013898,-2.30402711537984,-2.0406510147564982
1769145973944,127,-1,-0.337308687715656,-1.3017728689167112,-1.021609456690241
1769145973948,128,0,0.0684849903660567,-0.2644323234688695,-0.601035219112261
1769145973952,128,0,0.0510272291883965,-0.1715041297818226,-0.6118859103523953
1769145973956,127,-1,-0.2031619865186612,-1.1834342138375256,-0.8642213912114869
1769145973960,127,-1,-0.4918592614510358,-1.3364483824664726,-1.149881619798924
1769145973964,127,-1,-0.6655418734732566,-1.271959223697071,-1.3164907510304549
1769145973968,127,-1,-0.691945315426183,-1.2998486694011455,-1.3334815120835175
1769145973972,127,-1,-0.6393950364025376,-1.122187900070224,-1.2722759669340566
1769145973976,127,-1,-0.5962782693749158,-1.255083831523515,-1.2223206939605884
1769145973980,127,-1,-0.603343254124606,-1.2643336065792306,-1.2230911335060528
1769145973984,127,-1,-0.6446682938304347,-1.3263319310185433,-1.2571797229597597
1769145973988,127,-1,-0.6794664924406822,-1.2896512850592396,-1.2837500253964549
1769145973992,127,-1,-0.6723500658410013,-1.066178261240847,-1.2684698718108556
1769145973996,127,-1,-0.6036101873705424,-1.3939198466000162,-1.1924645250126338
1769145974000,127,-1,-0.4693691162828034,-1.0508295154531686,-1.0517920514528294
1769145974004,128,0,-0.2827337823375699,-0.6065123175075724,-0.8588929860028924
1769145974008,127,-1,-0.0747821156382037,-0.9638702526279828,-0.6442223394111979
1769145974012,128,0,0.1116307238947383,-0.4157857180470802,-0.4505965848686575
1769145974016,128,0,0.2396623563886373,-0.0426942269522294,-0.3154057003130934
1769145974020,128,0,0.2994584006851938,-0.3975593108233547,-0.2489358611612624
1769145974024,128,0,0.3112040639499953,-0.2846767924390309,-0.2307841203503848
1769145974028,128,0,0.3032658550529177,-0.2457572174944203,-0.2321267997720087
1769145974032,128,0,0.2889404963526069,-0.1902557498422911,-0.2396294269011406
1769145974036,128,0,0.2668093510036034,-0.2025038551991237,-0.2550536057291901
1769145974040,128,0,0.238734803847154,-0.3134604575381533,-0.2768057469362158
1769145974044,128,0,0.2202870764163191,-0.2993511955837649,-0.2893325890188861
1769145974048,128,0,0.2317799563453736,-0.2964456924285539,-0.272134899881577
1769145974052,128,0,0.2804332837992698,-0.0877392411464583,-0.2176228045858095
1769145974056,128,0,0.3515336432196017,-0.3424438677956229,-0.1402203467998468
1769145974060,128,0,0.4202186248609986,-0.1564993140527945,-0.06507752149695
1769145974064,129,1,0.479703396227248,0.5375839317102685,0.0003500124798556
1769145974068,128,0,0.5578579395151169,-0.1431804425515535,0.083845746706815
1769145974072,128,0,0.6925562651207678,-0.226268563211461,0.2239186414243194
1769145974076,129,1,0.883419262744753,0.7773005226485354,0.4204336444448983
1769145974080,129,1,1.0776877578322248,0.7396690305418296,0.6200981231740103
1769145974084,129,1,1.210641493934688,0.6178765983870833,0.7579237452607788
1769145974088,129,1,1.2547263965558986,0.8085639769321004,0.8068777998292921
1769145974092,129,1,1.2306138851008934,0.7811091663785401,0.7880778000193874
1769145974096,129,1,1.183264474217009,0.7974497015234348,0.7461914331492143
1769145974100,129,1,1.1515451668758836,0.6998724157978804,0.7195619329269657
1769145974104,129,1,1.149497738119386,0.6668000823790597,0.7221407222801824
1769145974108,129,1,1.1649561307870169,0.7659679903342327,0.7419853957781405
1769145974112,129,1,1.1751288674604052,0.8039925889168166,0.7564054961232296
1769145974116,129,1,1.1682193017836642,0.786418826744555,0.7535897721696273
1769145974120,129,1,1.152134551187728,0.6994725016427358,0.7415992439830507
1769145974124,129,1,1.1421787645486408,0.6765190046441988,0.7359893982234079
1769145974128,129,1,1.14259576989375,0.7528414385975064,0.7409391193846709
1769145974132,129,1,1.1439276652969497,0.8113645329622966,0.7465066555233024
1769145974136,129,1,1.138058816249401,0.7796658984070403,0.7441577944017896
1769145974140,129,1,1.1300003327856225,0.7034418684707588,0.7390550604018289
1769145974144,129,1,1.129979079991199,0.6774235841585518,0.7420232180315823
1769145974148,129,1,1.136270958541218,0.7462961680579583,0.7517724003678093
1769145974152,129,1,1.1333768633495374,0.8179750309056655,0.7526891446053547
1769145974156,129,1,1.1118189911414875,0.7693148230870231,0.7348266708060288
1769145974160,129,1,1.086842738798263,0.7145048313060494,0.713042036361011
1769145974164,129,1,1.089793928873622,0.6712690625291955,0.7185987145193605
1769145974168,129,1,1.1338392374322646,0.7388484573660004,0.7648463410596549
1769145974172,129,1,1.185108162227424,0.8404439566841062,0.8182009865697263
1769145974176,129,1,1.17111179595764,0.7244345893936057,0.8063575979369473
1769145974180,129,1,1.0289491448891603,0.7841310486907399,0.6664191402886666
1769145974184,129,1,0.7591656445731497,0.579131804840602,0.3989656620423176
1769145974188,128,0,0.4380671756120805,-0.1559052841518068,0.0804810285470865
1769145974192,128,0,0.1721097389973476,-0.2791090643677962,-0.1826843279615715
1769145974196,128,0,0.0312404070377122,-0.1494559645275773,-0.3213063219893721
1769145974200,128,0,0.0155027005599049,-0.338528330236701,-0.3360239960895126
1769145974204,128,0,0.0707952264536947,-0.3034459537070081,-0.2806091720145238
1769145974208,128,0,0.1276543039272636,-0.2595602658881065,-0.2233710472156107
1769145974212,128,0,0.1361520490015636,-0.2110418577499966,-0.2135008122126613
1769145974216,128,0,0.0888856458136254,-0.181504385392406,-0.2588052954161826
1769145974220,128,0,0.0275988218288643,-0.3410661473097481,-0.3184735499067015
1769145974224,128,0,0.0242055248560697,-0.2639875917307268,-0.3209887557615328
1769145974228,128,0,0.1384996641310765,-0.3270266445183949,-0.2062222753108802
1769145974232,128,0,0.379930748606351,-0.1386889526936509,0.0355921834095918
1769145974236,129,1,0.7070769731920221,0.7467318445324408,0.3628797641372971
1769145974240,129,1,1.065075654066363,0.7315826293183432,0.7206538668619635
1769145974244,129,1,1.421453711364729,0.6715993616317883,1.0767489509964705
1769145974248,130,2,1.7688618793478876,1.7241501972958635,1.424071084167609
1769145974252,130,2,2.1071892591666685,1.811588403509555,1.7623141840136585
1769145974256,130,2,2.433608092262318,1.781528688006602,2.0884311756656224
1769145974260,131,3,2.7471662713411416,2.7296728843237323,2.401623145332405
1769145974264,131,3,3.056714097745163,2.651820114917574,2.7109295131061137
1769145974268,131,3,3.3816243985887047,2.7459490166938267,3.035436445326768
1769145974272,132,4,3.7416212175591137,3.7918364728729608,3.3943116981720527
1769145974276,132,4,4.137458623416237,3.7787169802828617,3.7883658563463536
1769145974280,132,4,4.528876237406251,3.7761838504314538,4.178184708518663
1769145974284,133,5,4.8295728943674,4.569438909595419,4.477845511903505
1769145974288,133,5,4.945227294278537,4.8553927178029035,4.5921410648473335
1769145974292,133,5,4.841253728550635,4.637194138886611,4.485718830535882
1769145974296,132,4,4.574038939149748,3.9801211390793023,4.215881136084201
1769145974300,132,4,4.244462575971911,3.538288890279185,3.885042649650553
1769145974304,132,4,3.9250544632052544,3.8394890570401263,3.5655411495946105
1769145974308,132,4,3.642084728242913,3.566372125043271,3.281704647966752
1769145974312,131,3,3.411816856953243,2.912836586607636,3.0484946073852495
1769145974316,131,3,3.256142750307303,2.752468679028021,2.8885184349808184
1769145974320,131,3,3.164141352469607,2.6955843490962974,2.7924105828481927
1769145974324,131,3,3.056648069835951,2.7657401186352795,2.6817652607222517
1769145974328,131,3,2.820695762330836,2.548613890957676,2.443439609644194
1769145974332,130,2,2.400710062591844,2.0163191971815437,2.0214885682984427
1769145974336,130,2,1.8648384740607775,1.581173373125798,1.483753584172809
1769145974340,129,1,1.379434895046186,0.9078760756689812,0.9960898825471668
1769145974344,129,1,1.1016074182993063,0.5347922680104661,0.7149292439059093
1769145974348,129,1,1.0689401705457484,0.770369612505431,0.6775824625641289
1769145974352,129,1,1.1704977600348678,0.8398692676294104,0.7737956737495995
1769145974356,129,1,1.2216024938526366,0.6998123584120688,0.8201697172291877
1769145974360,129,1,1.089472383807759,0.8487951947044614,0.6846155098658615
1769145974364,129,1,0.7830986159178057,0.5317610917473555,0.3755785435738457
1769145974368,128,0,0.4436623087734832,-0.1939793615909573,0.0331579244848583
1769145974372,128,0,0.2381369749594177,-0.1919742641756854,-0.1762201963965836
1769145974376,128,0,0.2338042585259006,-0.2898369792464656,-0.18514062932142
1769145974380,128,0,0.354457530616302,-0.1208809783747396,-0.0695739388577348
1769145974384,129,1,0.4543288579975415,0.4490467407629028,0.0248427198463568
1769145974388,128,0,0.4413988054943989,-0.0634839939162803,0.0064826656039475
1769145974392,128,0,0.3382309704875099,-0.3589386781872578,-0.1014279017202315
1769145974396,128,0,0.2337744035866813,-0.1014088445259375,-0.2097239760208606
1769145974400,128,0,0.1853751227184179,-0.3133933284382035,-0.2617756800642308
1769145974404,128,0,0.1663925125115553,-0.3808084521842281,-0.2854096710504013
1769145974408,128,0,0.0983209170080581,-0.179254961246195,-0.359771659596638
1769145974412,128,0,-0.07443470889981,-0.3124888376053162,-0.5397298975362794
1769145974416,127,-1,-0.3422827527642227,-1.070870910630902,-0.8138765437535562
1769145974420,127,-1,-0.6541395033093986,-1.430550419844164,-1.1300188561800295
1769145974424,127,-1,-0.9639971814820832,-1.185900884627067,-1.4433141438425217
1769145974428,127,-1,-1.2395794420043735,-1.4336209101472934,-1.723784693932329
1769145974432,126,-2,-1.4415818186898035,-2.0006060463596356,-1.9327345956832005
1769145974436,126,-2,-1.5329804072612483,-2.422364785604343,-2.031463529740931
1769145974440,126,-2,-1.524607934996452,-2.0696045362930673,-2.029298896799764
1769145974444,127,-1,-1.4891214416508731,-1.548464418422677,-1.9993358223437536
1769145974448,126,-2,-1.5057393228091995,-2.0710778370438128,-2.021926968494902
1769145974452,126,-2,-1.5923004828922624,-2.333754140157799,-2.114918789921243
1769145974456,126,-2,-1.6991595553857863,-2.129773646728519,-2.22787275113718
1769145974460,126,-2,-1.763391967330005,-2.337127175393769,-2.297708222631273
1769145974464,126,-2,-1.7624585400056985,-2.323142218918655,-2.302677370568854
1769145974468,126,-2,-1.723049934201025,-2.2248780074350902,-2.270310194814912
1769145974472,126,-2,-1.6893643768744755,-2.23188531185839,-2.2447751356726338
1769145974476,126,-2,-1.6843291411566097,-2.1892791063176933,-2.2478192378344692
1769145974480,126,-2,-1.6958418271223046,-2.332478358053987,-2.265594189692617
1769145974484,126,-2,-1.6960203905504767,-2.30342002567874,-2.2694074394802497
1769145974488,126,-2,-1.673661538935714,-2.223470538693788,-2.249743066983982
1769145974492,126,-2,-1.6526739946903253,-2.252641654648384,-2.2344758430626115
1769145974496,126,-2,-1.6872151434990603,-2.13646506030717,-2.2809281739441984
1769145974500,126,-2,-1.8429533489181988,-2.4493465706113287,-2.4531147071994086
1769145974504,125,-3,-2.16432234984767,-3.135941984553047,-2.7884750773856015
1769145974508,125,-3,-2.6000540384252613,-3.4128556365221367,-3.228653792833317
1769145974512,125,-3,-2.8777105412305346,-3.0355284886804186,-3.5009415601726293
1769145974516,126,-2,-2.425268000430842,-2.35957338892267,-3.0411724589201894
1769145974520,127,-1,-0.5350393509627874,-1.2560133947707537,-1.1514953018866048
1769145974524,130,2,3.144460256112497,1.715608027808107,2.515268498509172
1769145974528,135,7,8.041130934818348,6.700592739007064,7.390360348266107
1769145974532,140,12,12.525035493460669,11.911540849353456,11.85137004810328
1769145974536,143,15,14.532345766691058,14.646785076277895,13.841685108737456
1769145974540,141,13,12.694110223690627,12.737558935997894,11.996668609023022
1769145974544,135,7,7.232417870940664,6.694830380104824,6.538592529951957
1769145974548,127,-1,-0.0352934719128512,-1.315264254686894,-0.7197318680559863
1769145974552,120,-8,-6.625866854341274,-8.017727544365108,-7.303478832817681
1769145974556,117,-11,-10.641328858645789,-11.440577102326955,-11.322573388497135
1769145974560,116,-12,-11.554744382093356,-12.086870725910336,-12.252305657623229
1769145974564,118,-10,-10.140683263460913,-10.514772846823597,-10.86182320943198
1769145974568,120,-8,-7.760246215937654,-8.091646010364235,-8.502628229944825
1769145974572,122,-6,-5.560466063679401,-6.269930097445621,-6.31429641188145
1769145974576,123,-5,-4.061079454120707,-5.211244525191,-4.81575760947814
1769145974580,124,-4,-3.229765176559963,-4.274912509845363,-3.9804614588329743
1769145974584,125,-3,-2.808409039347914,-3.370667497168481,-3.558304296531356
1769145974588,125,-3,-2.582261803347738,-3.186390480377547,-3.3391448888239372
1769145974592,125,-3,-2.457638743318348,-3.2294424104051216,-3.22772613583424
1769145974596,125,-3,-2.4117100263899984,-3.2063150471460564,-3.1956635786796137
1769145974600,125,-3,-2.4306337919738423,-3.3062942090486094,-3.224517520256377
1769145974604,125,-3,-2.4854460973573382,-3.3091952432233005,-3.2849371032919525
1769145974608,125,-3,-2.5304402807078596,-3.2658424171090608,-3.334253633404257
1769145974612,125,-3,-2.507038453521034,-3.1421416514990717,-3.316946683069734
1769145974616,125,-3,-2.3629633948096274,-3.2999892155680812,-3.181247970268124
1769145974620,125,-3,-2.0920177155848125,-3.202308919869318,-2.9193832278180474
1769145974624,126,-2,-1.7611987101361206,-2.4119946833572534,-2.5969728592020207
1769145974628,126,-2,-1.4820511156386118,-2.1607377588036876,-2.3255346979530636
1769145974632,126,-2,-1.33669024163597,-2.2511610450789448,-2.1876573518283013
1769145974636,126,-2,-1.3241052424514903,-2.1904431246573575,-2.182318067406605
1769145974640,126,-2,-1.3745803559371494,-2.308524099007035,-2.239571887717359
1769145974644,126,-2,-1.411771450303427,-2.310871813641844,-2.2833593640090406
1769145974648,126,-2,-1.4036813205004934,-2.2421273908251997,-2.282431171242882
1769145974652,126,-2,-1.366854294238509,-2.190368613203979,-2.2537339301469212
1769145974656,126,-2,-1.3357633429349751,-2.2245836044801157,-2.2312244084666286
1769145974660,126,-2,-1.3324153946176924,-2.303170767962123,-2.235875400007906
1769145974664,126,-2,-1.3556307010130215,-2.286894423984482,-2.2659822823024425
1769145974668,126,-2,-1.3826799709021345,-2.286641808075787,-2.2993050637751997
1769145974672,126,-2,-1.3720637732413865,-2.1255685034735485,-2.2952212151399816
1769145974676,126,-2,-1.2729250554497984,-2.2963610387053848,-2.203208451815302
1769145974680,126,-2,-1.0495602238873087,-2.235013269711453,-1.987286950290266
1769145974684,127,-1,-0.7077038565732614,-1.3410588532919794,-1.6528653183274788
1769145974688,127,-1,-0.2981534216059667,-1.2453088771799117,-1.2505559376687838
1769145974692,127,-1,0.1055360114481777,-1.146456194598475,-0.8537896831219977
1769145974696,128,0,0.4373046554193955,-0.2874788292653679,-0.5287759940182821
1769145974700,128,0,0.6612951202544071,-0.2382531876056804,-0.3117808057310969
1769145974704,128,0,0.7779103100724144,-0.3481937306254413,-0.2024438142326313
1769145974708,128,0,0.8093806336180408,-0.2148584429287737,-0.1779596880217159
1769145974712,128,0,0.779617504047972,-0.1975164921920177,-0.2139346457564325
1769145974716,128,0,0.7136081218270103,-0.2083296898514945,-0.285671074776551
1769145974720,128,0,0.6564732650793029,-0.3446263312955081,-0.3487982117714705
1769145974724,128,0,0.6788973065797383,-0.2199492395596923,-0.332968287246154
1769145974728,128,0,0.841737917986433,-0.3451094181387669,-0.176938034190797
1769145974732,128,0,1.1393008440054602,-0.0756217039185703,0.1140537688290215
1769145974736,129,1,1.4778073915161694,0.7040292349032199,0.4460750108372669
1769145974740,129,1,1.7233661323689398,0.6905577078497451,0.6848524015663691
1769145974744,129,1,1.78576005236826,0.8135864076879852,0.7404808653315353
1769145974748,129,1,1.6664923003614276,0.5517237915137415,0.6153664182122743
1769145974752,128,0,1.4383247272008963,0.0940585127267303,0.3825043104539125
1769145974756,129,1,1.1905899975806964,0.4782982333987117,0.1301840243750686
1769145974760,128,0,0.9903601745273762,-0.033567439267574,-0.0757031120757411
1769145974764,128,0,0.8702713826590036,-0.4875439596577546,-0.2024554217952864
1769145974768,128,0,0.82692807839171,-0.1315137515605357,-0.2524112684080468
1769145974772,128,0,0.8279926205663509,-0.2183115320297341,-0.2571455851902332
1769145974776,128,0,0.8355293379273484,-0.238080470612968,-0.2546464091133971
1769145974780,128,0,0.8331197988269893,-0.2588136424541256,-0.2617727865595484
1769145974784,128,0,0.8322367893969992,-0.323435040060729,-0.2674796990910913
1769145974788,128,0,0.852645142776983,-0.2285765739069998,-0.2522739508711228
1769145974792,128,0,0.8954373481094483,-0.1853565102044665,-0.2149707227302351
1769145974796,128,0,0.9301550879958344,-0.2146063771386843,-0.1855391837881702
1769145974800,128,0,0.905798909974958,-0.3192867858079221,-0.2146250390892701
1769145974804,128,0,0.7821978083522734,-0.2215448374623637,-0.3426890458284537
1769145974808,128,0,0.5620655060599715,-0.3667357969455742,-0.5675105422133776
1769145974812,127,-1,0.2925767189669085,-1.0179421079541862,-0.8417757419148483
1769145974816,127,-1,0.0258372198641731,-1.4004165411347906,-1.1128315053790176
1769145974820,127,-1,-0.2246336575355094,-1.1218698603003825,-1.3671966455838074
1769145974824,127,-1,-0.4824304505020877,-1.3952985080266918,-1.6291016881136196
1769145974828,126,-2,-0.7662186640565402,-2.2371555303161443,-1.9174307102580623
1769145974832,126,-2,-1.0598969010713422,-2.0796395494758024,-2.2155548380849828
1769145974836,126,-2,-1.3259684967106142,-2.4210764813503265,-2.4854744292611555
1769145974840,125,-3,-1.5400973907070383,-3.015976503745086,-2.70299322026829
1769145974844,126,-2,-1.7079730722238005,-2.560291096888013,-2.874329014788623
1769145974848,125,-3,-1.8508566129383912,-3.015786810151254,-3.020994621279245
1769145974852,125,-3,-1.978946764166772,-3.3460832652614942,-3.15290809684943
1769145974856,125,-3,-2.0796082670565372,-3.1209426936146447,-3.257046792271729
1769145974860,125,-3,-2.126886603558488,-3.3405752947959426,-3.3073930002846965
1769145974864,125,-3,-2.099675796463603,-3.205320035810725,-3.282981919303993
1769145974868,125,-3,-1.9958717418704817,-3.377063827801908,-3.181872014141833
1769145974872,125,-3,-1.834369772107982,-2.987260700626286,-3.023232334863155
1769145974876,126,-2,-1.6427340887781132,-2.474443962239867,-2.8348076733973993
1769145974880,125,-3,-1.4437043738269162,-2.992582720021394,-2.638979062758667
1769145974884,126,-2,-1.2571168266547603,-2.5343191979421364,-2.4549855047014217
1769145974888,126,-2,-1.1087755695722668,-2.0526233243359036,-2.308651625552443
1769145974892,126,-2,-1.0229844497792668,-2.30686067506086,-2.2249131959649
1769145974896,126,-2,-1.0016508058037663,-2.1708283177077408,-2.2059886660615087
1769145974900,126,-2,-1.0183476735080896,-2.2585754864350074,-2.225026124847031
1769145974904,126,-2,-1.0384134248747814,-2.3118106781532015,-2.24683887230944
1769145974908,126,-2,-1.0436257458988991,-2.2081534925140267,-2.2533115853744308
1769145974912,126,-2,-1.0367970287611064,-2.2190803114189994,-2.2479207301799233
1769145974916,126,-2,-1.0270360478979672,-2.1971500698600117,-2.2402430379976126
1769145974920,126,-2,-1.0171445027826915,-2.2723853712739217,-2.2327562375497587
1769145974924,126,-2,-1.0075473170776457,-2.2661834588743464,-2.224996674159389
1769145974928,126,-2,-1.0065326655936755,-2.2580007623531952,-2.224687041262559
1769145974932,126,-2,-1.025704682563841,-2.1798080303367646,-2.243853919861632
1769145974936,126,-2,-1.058452325669538,-2.207488947687211,-2.276969588941681
1769145974940,126,-2,-1.0674713811680483,-2.29724601801502,-2.287347172567834
1769145974944,126,-2,-1.0083586328460976,-2.186741262424392,-2.229987366076619
1769145974948,126,-2,-0.879001527981481,-2.387512277841921,-2.1016260684715613
1769145974952,126,-2,-0.7436856691726224,-2.0019370620271317,-1.9662853697316631
1769145974956,127,-1,-0.691173633961158,-1.4175886712817194,-1.9136443826963936
1769145974960,126,-2,-0.7561641442846797,-2.0609231927429668,-1.9791268659494532
1769145974964,126,-2,-0.8865852412171451,-2.423705409633939,-2.110210743867595
1769145974968,126,-2,-0.9950785538433649,-2.1613798156411628,-2.218744847475817
1769145974972,126,-2,-1.0373705843027694,-2.2074500780193183,-2.260452780691865
1769145974976,126,-2,-1.0358510527308495,-2.233095128658383,-2.258270121075185
1769145974980,126,-2,-1.035911249719864,-2.2012324853302987,-2.2578707250152608
1769145974984,126,-2,-1.0502449556285938,-2.310671945067714,-2.2719116703253697
1769145974988,126,-2,-1.045646213874856,-2.264725143727458,-2.2671415670810147
1769145974992,126,-2,-0.9807568173110685,-2.100478850529419,-2.2020001559437725
1769145974996,126,-2,-0.8594984813283646,-2.35114083993876,-2.0799519476988255
1769145975000,126,-2,-0.7480110212015008,-2.041242861483792,-1.9670514024509216
1769145975004,127,-1,-0.7262460855691437,-1.4967074572150665,-1.9439459058849944
1769145975008,126,-2,-0.8077703427312295,-2.0690292018574024,-2.0247686219249923
1769145975012,126,-2,-0.9089705729135162,-2.2936930450922386,-2.1252708704394365
1769145975016,126,-2,-0.9105981608100306,-2.172076146330398,-2.1250253986197913
1769145975020,126,-2,-0.7552047376275068,-2.1695153854607696,-1.9666269498414664
1769145975024,127,-1,-0.4815736216137387,-1.4200876644206155,-1.690466970337533
1769145975028,127,-1,-0.1690190145120629,-1.0752482914714054,-1.377160464675245
1769145975032,127,-1,0.1346772919686175,-1.3638004711527525,-1.0737133870470466
1769145975036,127,-1,0.4212603124888744,-1.0311516424460752,-0.78629594386587
1769145975040,128,0,0.6775565245154223,-0.353556941990469,-0.5270319868599761
1769145975044,128,0,0.865561166763017,-0.2048649449016599,-0.3348352921306388
1769145975048,128,0,0.9587949346098058,-0.2843789727473836,-0.2378378866151517
1769145975052,128,0,0.9835441401922008,-0.175438936095882,-0.2106958099464931
1769145975056,128,0,1.003688953870162,-0.1898872152342592,-0.1893041769905024
1769145975060,128,0,1.0517957213598437,-0.2249596753274362,-0.1399979146508828
1769145975064,128,0,1.0705816773595211,-0.2873637893432138,-0.1189355743805232
1769145975068,128,0,0.9330859951448008,-0.2270929846438525,-0.2529742959252842
1769145975072,128,0,0.547456283211373,-0.2069258853148257,-0.6349011545141019
1769145975076,127,-1,-0.0372103622705483,-1.1805462192354752,-1.2162709450846974
1769145975080,126,-2,-0.6333107655132809,-2.2186685626205542,-1.8090377504470732
1769145975084,126,-2,-1.041195798999463,-2.291137307776416,-2.213001809399086
1769145975088,126,-2,-1.1875159549179657,-2.212702361746944,-2.355299990011882
1769145975092,126,-2,-1.1510420271055424,-2.216660047779154,-2.3156086401504328
1769145975096,126,-2,-1.069794489535497,-2.1653364858691733,-2.2318839853726766
1769145975100,126,-2,-1.0313170846356514,-2.236470147737258,-2.1906167901763
1769145975104,126,-2,-1.0383799832387393,-2.272896321693774,-2.193837017674017
1769145975108,126,-2,-1.0533919629187074,-2.2219572023469993,-2.2043034742235252
1769145975112,126,-2,-1.0580785792910683,-2.2032254473978687,-2.20454685604124
1769145975116,126,-2,-1.0702196713194525,-2.170595102208482,-2.212563762788638
1769145975120,126,-2,-1.111022916382111,-2.227484473365684,-2.2490700802037726
1769145975124,126,-2,-1.1619007747780492,-2.2926559557896846,-2.2950784853518584
1769145975128,126,-2,-1.1563493998993166,-2.178983322818545,-2.2843950727171136
1769145975132,126,-2,-1.023081073000416,-2.259473778422297,-2.146528479332593
1769145975136,126,-2,-0.7513976725027973,-2.084622214859973,-1.871370318868132
1769145975140,127,-1,-0.4212065016250535,-1.333104523329156,-1.5385447014091242
1769145975144,127,-1,-0.1608655673152666,-1.168598296541994,-1.2749271337164272
1769145975148,127,-1,-0.0588094295910978,-1.310203154119302,-1.1669931062448768
1769145975152,127,-1,-0.0988421367741876,-1.1171072799502113,-1.1980806207106027
1769145975156,127,-1,-0.1709051745501433,-1.214861596524425,-1.2605937809249916
1769145975160,127,-1,-0.1556039155241394,-1.229120876459955,-1.2392525170913349
1769145975164,127,-1,-0.033618745429037,-1.2181764096518974,-1.1170568028055643
1769145975168,127,-1,0.0599790249035671,-1.3211173287140838,-1.0270387735504287
1769145975172,127,-1,-0.0852065565862728,-1.0217437257061512,-1.1738366029280058
1769145975176,127,-1,-0.5366779693133098,-1.3842291510334166,-1.6190543688377532
1769145975180,126,-2,-0.985873619706654,-1.99338796248094,-2.052489951199252
1769145975184,127,-1,-0.7081244157139099,-1.4981911056099908,-1.7544098958294834
1769145975188,128,0,1.1434241424879312,-0.0042797499107722,0.1127822720449147
1769145975192,132,4,4.980324647351371,3.664431741176318,3.9533986894556
1769145975196,137,9,10.259587656276732,8.935818615757363,9.224872990535143
1769145975200,142,14,15.39361447748352,13.720925571137942,14.347405085773682
1769145975204,146,18,18.31055426193107,17.731536193237865,17.25848786216234
1769145975208,146,18,17.479566131740345,17.825554696703257,16.432680740799583
1769145975212,140,12,12.811122855310652,11.736606045618922,11.780535029063085
1769145975216,132,4,5.809170467530935,3.9332971838929898,4.8014683483631
1769145975220,126,-2,-1.1718445962184303,-2.3311813120914935,-2.1581356786262944
1769145975224,121,-7,-6.085696863703925,-7.1640822502829895,-7.060202748253728
1769145975228,119,-9,-8.051621409438425,-9.229584719131577,-9.02673233748866
1769145975232,120,-8,-7.483114322079052,-8.205296332299543,-8.466319997366412
1769145975236,122,-6,-5.563443384709187,-6.086452689872544,-6.553388167195637
1769145975240,124,-4,-3.493057013441929,-4.387724544994811,-4.48162210196671
1769145975244,125,-3,-1.9697950269433355,-3.06820706024988,-2.9476138163282557
1769145975248,126,-2,-1.117958576496704,-2.3493480008755583,-2.0795894895151337
1769145975252,126,-2,-0.7481253900854856,-2.0528232907559434,-1.6944783899894518
1769145975256,127,-1,-0.6518358342516538,-1.2368729935878329,-1.588816927976834
1769145975260,127,-1,-0.7213769263803957,-1.2636714016178168,-1.655300282761286
1769145975264,126,-2,-0.906556143394855,-2.1636378609537896,-1.839425680806557
1769145975268,126,-2,-1.1458028770081938,-2.2592798163382377,-2.0745482296651945
1769145975272,126,-2,-1.35327949642769,-2.115543216311101,-2.273523281399444
1769145975276,126,-2,-1.4407164984312215,-2.1757611291660743,-2.3508693382373584
1769145975280,126,-2,-1.3392967740336583,-2.337861030897807,-2.2409740244714738
1769145975284,126,-2,-1.0252131696485898,-2.0623896453639303,-1.920655789489893
1769145975288,127,-1,-0.5479447343892817,-1.3793288171361548,-1.4378817953022207
1769145975292,127,-1,-0.0283434336225942,-0.9520487824950769,-0.9120116181531012
1769145975296,128,0,0.3951246167819228,-0.3632880053801666,-0.4812128290861405
1769145975300,128,0,0.6413898741650834,-0.1362406717849345,-0.2270899008909065
1769145975304,128,0,0.7234240573615799,-0.2682548315271544,-0.1372309020686538
1769145975308,128,0,0.7169563010503155,-0.1703516480753066,-0.1361286544311388
1769145975312,128,0,0.6911712025755797,-0.1360382619694993,-0.154551129834456
1769145975316,128,0,0.6615899255860832,-0.1867234561606963,-0.1768438432298263
1769145975320,128,0,0.6009880350418062,-0.303585070219997,-0.2301958648870127
1769145975324,128,0,0.4920906541200585,-0.0992745204100272,-0.3319178493470128
1769145975328,128,0,0.3688756915337423,-0.3408343958137249,-0.4478244405774426
1769145975332,127,-1,0.3016589346014023,-0.9381697280880756,-0.5072047013659198
1769145975336,128,0,0.3367425505470484,-0.3977480208247466,-0.4638984311333122
1769145975340,128,0,0.4530303228604231,-0.0748370765139556,-0.3398853815729995
1769145975344,128,0,0.5798148936602535,-0.3333906345418866,-0.2064165053650768
1769145975348,128,0,0.6515780484959701,-0.1016759684708484,-0.1282866314912228
1769145975352,128,0,0.6457066780417772,-0.144212747896554,-0.1268190337268308
1769145975356,128,0,0.5829461666417746,-0.2372120270571734,-0.180899661033408
1769145975360,128,0,0.508956469883617,-0.1701258941418585,-0.2458826786962329
1769145975364,128,0,0.4764589013900874,-0.2970249939038795,-0.2703844032427507
1769145975368,128,0,0.5280110932215438,-0.0751432798697202,-0.2120662899891127
1769145975372,128,0,0.6732616183672461,-0.1883837155642127,-0.0601795686211007
1769145975376,128,0,0.8729075167472975,-0.1968476089169339,0.1470026514242338
1769145975380,129,1,1.057106349488742,0.8231501567661492,0.339401386549569
1769145975384,129,1,1.1783439505911832,0.6727897482807824,0.4686603226227909
1769145975388,128,0,1.2479692434522829,0.0090086586333936,0.545960007083518
1769145975392,129,1,1.312313875175594,0.7011256633289102,0.6179466677984579
1769145975396,129,1,1.396506594942465,0.9311450844909034,0.7096913033711102
1769145975400,129,1,1.4800234297099304,0.6910669558226191,0.8005509601591847
1769145975404,129,1,1.521787979164429,0.8207862437876434,0.8499112348479511
1769145975408,129,1,1.5016223020662292,0.8717189747453015,0.8380223371650265
1769145975412,129,1,1.4443440184412368,0.8369591770787204,0.789172009292012
1769145975416,129,1,1.4116011477965085,0.7958770360035438,0.7640441911695905
1769145975420,129,1,1.4600554502209044,0.838733570928724,0.8192831641136589
1769145975424,129,1,1.5879381731109763,0.6723650624361814,0.954182620042458
1769145975428,129,1,1.7187921317204282,1.0505384467417709,1.0929873420792884
1769145975432,130,2,1.7561453578420652,1.6368647187844854,1.138674605534174
1769145975436,129,1,1.6715707584996795,1.0166212442934477,1.0619741411577346
1769145975440,129,1,1.535197039517193,0.613684566866897,0.9330534726696978
1769145975444,129,1,1.4469099486453958,0.9024645070328824,0.8523406142923714
1769145975448,129,1,1.4351621575815274,0.8510606486222027,0.848327014757418
1769145975452,129,1,1.426651385520817,0.8008827831592169,0.847245850660048
1769145975456,129,1,1.3151368538017598,0.9189468152724216,0.7426903351790837
1769145975460,129,1,1.0616468595074746,0.6452458617289101,0.496252185621743
1769145975464,128,0,0.733855009413144,-0.0566895943163945,0.1763894612260207
1769145975468,128,0,0.453141415391307,-0.2383783712235794,-0.0955516741058082
1769145975472,128,0,0.3038069099378645,-0.0656281887865294,-0.2364402108282132
1769145975476,128,0,0.2851825097045983,-0.2181404882151659,-0.2480827545004957
1769145975480,128,0,0.3332528891925475,-0.2188398753406426,-0.1941799598697223
1769145975484,128,0,0.3750973768021426,-0.1618038636939473,-0.146095299709002
1769145975488,128,0,0.3712524058069064,-0.1681806514175566,-0.1421615032062371
1769145975492,128,0,0.3296034323133863,-0.0907721470134589,-0.1749193831039962
1769145975496,128,0,0.2926576989420153,-0.2110204891676906,-0.2032680512466929
1769145975500,128,0,0.3028287575160173,-0.2071966883481504,-0.1857553430635916
1769145975504,128,0,0.3592772102925379,-0.1575385167860293,-0.1230255679949998
1769145975508,128,0,0.3958390829897077,-0.2021620500968781,-0.0803926924189018
1769145975512,128,0,0.3077549128007688,-0.0022468388091013,-0.1619720005891283
1769145975516,128,0,0.0204329601608198,-0.3400618508393209,-0.4421685633796269
1769145975520,127,-1,-0.4485877785538052,-1.024007186787904,-0.9034486150839696
1769145975524,127,-1,-0.986542107484378,-1.3739543931152414,-1.4331738935309324
1769145975528,126,-2,-1.4469213076580971,-1.9628291107924056,-1.8853108494368696
1769145975532,126,-2,-1.7295933309953169,-2.2375039046344796,-2.1605177255410024
1769145975536,126,-2,-1.8241935481450844,-2.0980147649788177,-2.248966041918395
1769145975540,126,-2,-1.7959996751546523,-2.2338882847458663,-2.215562458976546
1769145975544,126,-2,-1.7360639557864983,-2.198308993279287,-2.150123342637926
1769145975548,126,-2,-1.712263724816704,-2.0935081131084106,-2.1193741488399875
1769145975552,126,-2,-1.743030718531669,-2.147689668089709,-2.141715355682493
1769145975556,126,-2,-1.797729551344108,-2.131171151539049,-2.187699719961559
1769145975560,126,-2,-1.8221682185033887,-2.218596434018775,-2.204607260111666
1769145975564,126,-2,-1.7824962379480571,-2.201892455966198,-2.1592045810105933
1769145975568,126,-2,-1.7057975129257297,-2.081342350413427,-2.077903390697682
1769145975572,126,-2,-1.6841102537290702,-2.1720657629967457,-2.051335054597081
1769145975576,126,-2,-1.8220998126712913,-2.0669724913474927,-2.183051790433032
1769145975580,126,-2,-2.150581195190025,-2.294374752166185,-2.503732586336018
1769145975584,125,-3,-2.5687335416331716,-3.1112105420455363,-2.9133971428967764
1769145975588,125,-3,-2.872260501063637,-3.1796545147299806,-3.209030801595566
1769145975592,125,-3,-2.864939303224384,-3.063078425326072,-3.1952766009388736
1769145975596,125,-3,-2.4851626431305114,-3.1564046463691575,-2.8103687136602167
1769145975600,126,-2,-1.8590952547022652,-2.1954228094335053,-2.179630861697435
1769145975604,127,-1,-1.2331325112274032,-1.1975988930370751,-1.5487631450382355
1769145975608,127,-1,-0.8241582937042994,-1.113110583890154,-1.134285035905349
1769145975612,127,-1,-0.6973309793838225,-1.1052787547871734,-1.0010517569535615
1769145975616,127,-1,-0.7611963263286168,-1.1183157067752698,-1.057588851258535
1769145975620,127,-1,-0.8668714554404625,-1.2116413564769573,-1.1556977707639655
1769145975624,127,-1,-0.9169695407999388,-1.1800290919479384,-1.1990655820109848
1769145975628,127,-1,-0.90389157274001,-1.1258308001795434,-1.1806725173420989
1769145975632,127,-1,-0.8723798342463228,-1.085078960805793,-1.1448554436127576
1769145975636,127,-1,-0.8599734623708571,-1.12457859124033,-1.128094772567093
1769145975640,127,-1,-0.8694985054013795,-1.2006219788047194,-1.1322980280108972
1769145975644,127,-1,-0.8840870062306374,-1.181714064065511,-1.140470209086154
1769145975648,127,-1,-0.8939774775466995,-1.124096124891219,-1.143576104538675
1769145975652,127,-1,-0.9026528505789596,-1.0763222138876158,-1.146093286581335
1769145975656,127,-1,-0.9122133465973604,-1.1191516673822024,-1.150600598715942
1769145975660,127,-1,-0.913996455785879,-1.2012735931592635,-1.1480698150100357
1769145975664,127,-1,-0.9007166462322654,-1.1732322984721262,-1.1303871983916451
1769145975668,127,-1,-0.8849812908295008,-1.130793893383209,-1.1095683763853257
1769145975672,127,-1,-0.895704547578958,-1.0627073181176114,-1.1145835324856552
1769145975676,127,-1,-0.9464956051515536,-1.1086643064829913,-1.1596078012957256
1769145975680,127,-1,-1.004463298455962,-1.2213525163511851,-1.212304001510645
1769145975684,127,-1,-0.99626295500759,-1.1271721978849254,-1.199370483912826
1769145975688,127,-1,-0.8583542320829387,-1.1982110148027938,-1.0568161848004036
1769145975692,127,-1,-0.5940825399209255,-0.9620261331150076,-0.7876776992775723
1769145975696,128,0,-0.2837824897560386,-0.2102706853947169,-0.4726011150056435
1769145975700,128,0,-0.032052389378487,-0.100886319391636,-0.2166545577874309
1769145975704,128,0,0.1014380209346275,-0.2487051403626761,-0.079358434412969
1769145975708,128,0,0.1260076651804963,-0.0783774947866513,-0.0507345352399793
1769145975712,128,0,0.0893485278979513,-0.0654995394796128,-0.0826802727571978
1769145975716,128,0,0.0354830092055845,-0.1059117886865985,-0.1312860865986116
1769145975720,128,0,-0.0103882097525064,-0.1695951117917705,-0.1717394531981337
1769145975724,128,0,-0.0317547490132635,-0.2019723800037124,-0.1881244771613403
1769145975728,128,0,-0.0111154244051719,-0.0997482562682917,-0.1636593859698452
1769145975732,128,0,0.0587376640727385,-0.0585269775424601,-0.0912805203860921
1769145975736,128,0,0.1444294452251476,-0.079421613639357,-0.003289842079818
1769145975740,128,0,0.1531061835112916,-0.193406413247467,0.0089416285887761
1769145975744,128,0,-0.0322361882214498,-0.168021716095302,-0.1714728687403707
1769145975748,128,0,-0.4579672276291129,-0.1418249321666803,-0.5923747670755993
1769145975752,127,-1,-1.01848774974715,-0.9973302843533988,-1.149141885191134
1769145975756,126,-2,-1.488953498324386,-2.1407274391375664,-1.616032220201553
1769145975760,126,-2,-1.6749871010899948,-2.0981054248092312,-1.7976039197086375
1769145975764,127,-1,-1.5461828467982228,-1.2858893468456345,-1.6643821222919122
1769145975768,127,-1,-1.2253979488551074,-0.9890483321013388,-1.3410122104789777
1769145975772,127,-1,-0.8645517508236161,-1.161504976867141,-0.9791787805100504
1769145975776,127,-1,-0.5477669020209941,-0.9440914099685492,-0.6606810165778887
1769145975780,128,0,-0.2945321141941027,-0.3088657394163262,-0.4035080004831906
1769145975784,128,0,-0.1084362127926126,-0.0700949536920957,-0.2122479261369159
1769145975788,128,0,0.0033814828542132,-0.1780379267005447,-0.0960620318342249
1769145975792,128,0,0.0439804898134388,0.0121120485371538,-0.0527641941731675
1769145975796,128,0,0.0336092444953865,-0.0542026954131978,-0.0614337860457826
1769145975800,128,0,-0.0079560427964089,-0.278273843487433,-0.1011324183940116
1769145975804,128,0,-0.0837369598690411,-0.0016958413579993,-0.1742533667540643
1769145975808,128,0,-0.2182745138358428,-0.3299265862199876,-0.3056013127744073
1769145975812,127,-1,-0.4265398346928992,-0.7250000701934074,-0.5110830296954814
1769145975816,128,0,-0.675082422550425,-0.3884125538464433,-0.7579641900128549
1769145975820,127,-1,-0.8723078921300096,-0.8866812383838202,-0.9538950379617428
1769145975824,127,-1,-0.9124781933562338,-1.4282675780859635,-0.9910165501580326
1769145975828,127,-1,-0.7502374055337878,-0.8654474134144903,-0.822954195550298
1769145975832,128,0,-0.4393206712429732,-0.171143662949592,-0.5058013803612269
1769145975836,128,0,-0.1009487103600288,0.0427460839516662,-0.1651858150111997
1769145975840,128,0,0.1317344157516999,-0.2685557290947603,0.063422972642779
1769145975844,128,0,0.1381308780578009,-0.1170001371758844,0.062053747194931
1769145975848,128,0,-0.1662079695436595,-0.0811782824405036,-0.2470847909616625
1769145975852,127,-1,-0.7310401930251454,-1.0267426817468517,-0.8074091339290468
1769145975856,127,-1,-1.2089020346251644,-1.0033295644241744,-1.270782645822169
1769145975860,128,0,-0.8826391151520661,-0.2874879399407102,-0.9271251150088003
1769145975864,129,1,1.1170030865909748,0.9527981438648744,1.0823815465099842
1769145975868,133,5,5.258213831148441,4.8334177876822,5.220169682129699
1769145975872,138,10,10.989575086600484,10.107185707463728,10.937964267131807
1769145975876,144,16,16.56333769613154,15.86334023317804,16.4966309773853
1769145975880,149,21,19.659571196080247,20.85051712299773,19.583784216635976
1769145975884,148,20,18.601623052547083,19.812030947289347,18.52634601357798
1769145975888,141,13,13.388966957783628,12.922626300335663,13.324192096695594
1769145975892,133,5,5.785693533968898,5.070645725777128,5.738478316422158
1769145975896,126,-2,-1.6209002264968495,-2.159532821442382,-1.6508865020484744
1769145975900,121,-7,-6.725733283183599,-7.01872508914084,-6.747996120320018
1769145975904,120,-8,-8.737844670054077,-8.32418811483943,-8.766200538147555
1769145975908,120,-8,-8.163301100539924,-7.861889609326804,-8.20688072415499
1769145975912,122,-6,-6.1762034204321505,-6.192706968230295,-6.23373941002469
1769145975916,124,-4,-3.90577736805632,-3.8872327349937823,-3.967760825209205
1769145975920,126,-2,-2.037501282536299,-2.3085441378836116,-2.093663451129407
1769145975924,127,-1,-0.7983930920041866,-1.0150991820149686,-0.8441107861714474
1769145975928,128,0,-0.1488955356137952,-0.1149756990796235,-0.186422483808936
1769145975932,128,0,0.036420112186184,-0.0083486547796314,0.0011815126269272
1769145975936,128,0,-0.1005886949977994,0.0020824030038623,-0.1387010850754324
1769145975940,128,0,-0.3989424299106276,-0.284520501688644,-0.4415130369683204
1769145975944,127,-1,-0.6916808915610826,-0.9123986424927716,-0.7365719127207176
1769145975948,127,-1,-0.8635953959669422,-1.2730305832677904,-0.90740677505335
1769145975952,127,-1,-0.8954578756598914,-0.7939255711061145,-0.9368119663297964
1769145975956,128,0,-0.8332468859227693,-0.2533858846986667,-0.8737655520987202
1769145975960,127,-1,-0.7142961322077459,-1.0133395172254078,-0.7561987763251808
1769145975964,127,-1,-0.5420799726620957,-1.1356856910229576,-0.5855638650452684
1769145975968,128,0,-0.3294169578473435,-0.067659121502036,-0.3731233420159198
1769145975972,128,0,-0.1307310763995458,0.043063287086449,-0.1739629125760795
1769145975976,128,0,-0.0085151507762866,-0.1461465011821645,-0.0517761772834872
1769145975980,128,0,0.0211243977516876,-0.0525644312403622,-0.0225839354592953
1769145975984,128,0,-0.0034068816218313,-0.1215297327018067,-0.0472986192503436
1769145975988,128,0,-0.0285332071375701,-0.0334624328665604,-0.0725373804177398
1769145975992,128,0,-0.0260802053336797,-0.0065543876881055,-0.070978316700059
1769145975996,128,0,-0.0047734815337113,-0.0953969433205239,-0.0514657102156836
1769145976000,128,0,0.0046231677454072,-0.0803881517840544,-0.0437199303081836
1769145976004,128,0,-0.0223579658472636,-0.0826899057741749,-0.0711546173743248
1769145976008,128,0,-0.0732394900709848,-0.0554850194329835,-0.1214455864140546
1769145976012,128,0,-0.084840493911382,0.024441056771387,-0.1325789520234313
1769145976016,128,0,0.0287355136140798,-0.1413811494635974,-0.0196583042290661
1769145976020,128,0,0.3080436608880411,0.0020004123174797,0.2577400386110672
1769145976024,129,1,0.6898641451582181,0.8286839978752807,0.6369742146514239
1769145976028,129,1,1.0185750077339593,1.0781308578308673,0.963354749193054
1769145976032,129,1,1.1333918572278174,0.8629116304237251,1.0769043239958518
1769145976036,129,1,0.9732451829080182,1.050668639127621,0.9165052355279296
1769145976040,129,1,0.6270789200783151,0.7903356293419821,0.5701752104032838
1769145976044,128,0,0.2905485730569332,0.0823312656576172,0.2328987658923564
1769145976048,128,0,0.1474022429904692,-0.1717972005703573,0.0886689857010963
1769145976052,128,0,0.2566238869557082,0.1286520548624763,0.1967125229980323
1769145976056,129,1,0.538344097033501,0.7806389443912973,0.4766254934074465
1769145976060,129,1,0.8671016185395851,1.0766847361299137,0.802626661005764
1769145976064,129,1,1.1733260760799262,0.8164962128280346,1.1061354628427056
1769145976068,129,1,1.455564166434919,1.098332194883179,1.3869515868200435
1769145976072,130,2,1.7193410074221025,1.8752808701393724,1.6502817162423802
1769145976076,130,2,1.9355448970710731,2.0137388525033524,1.8654818501381412
1769145976080,130,2,2.0626525887484153,1.8918946532041432,1.9904051575837556
1769145976084,130,2,2.0906961216638793,1.9904619686173717,2.0160752229845427
1769145976088,130,2,2.0542507158846783,1.962831415561132,1.9781074010670383
1769145976092,130,2,2.0104432077980916,1.9779806240700817,1.9333129600113272
1769145976096,130,2,2.006622550138292,1.9543182989655317,1.9279368603052336
1769145976100,130,2,2.0541139557094064,1.934531285044461,1.9729013589559847
1769145976104,130,2,2.11531995912725,2.0071822105659662,2.0313028498122403
1769145976108,130,2,2.1156764017773746,1.9142429671384769,2.029325777253969
1769145976112,130,2,1.9877904335412289,2.0580527955097523,1.8994681993498688
1769145976116,130,2,1.7264803226233512,1.8602076819893143,1.6360813296877796
1769145976120,129,1,1.4066812631415362,1.0612042079216824,1.3142849376688648
1769145976124,129,1,1.137927005512474,0.896046187431647,1.044199366210104
1769145976128,129,1,0.9923882201373044,1.0280916342742628,0.8977607223292818
1769145976132,129,1,0.9720513807519336,0.9525036216830972,0.8757282868053524
1769145976136,129,1,1.0327430615589406,0.9719801805211248,0.9331035917630246
1769145976140,129,1,1.121182665208276,0.9772144944083296,1.0173351425349642
1769145976144,129,1,1.184111307591594,0.9876749512385814,1.0768390028080468
1769145976148,129,1,1.161808015853352,0.9435399979372504,1.0528024684235149
1769145976152,129,1,1.005979208159693,1.0413446864888838,0.896198629589542
1769145976156,129,1,0.725806344483198,0.890684320020644,0.6147895477579788
1769145976160,128,0,0.4103200794461819,0.0927857247547143,0.2970570758715985
1769145976164,128,0,0.1793535917922892,-0.1339262014999241,0.0633540948195993
1769145976168,128,0,0.0905142063931833,0.0885374609960978,-0.0282537210260163
1769145976172,128,0,0.0880917502811416,-0.1136364051865355,-0.0336780036945663
1769145976176,128,0,0.0450988141309838,0.0694174195528128,-0.0800337518937202
1769145976180,128,0,-0.140175329910841,-0.0531732669820661,-0.2683510517245293
1769145976184,127,-1,-0.4773700717982432,-1.006620970391792,-0.6074478898188114
1769145976188,127,-1,-0.8917504986098703,-1.0063621585636786,-1.0229735547011054
1769145976192,127,-1,-1.280965767058755,-1.0430070581447066,-1.414033123243874
1769145976196,126,-2,-1.572382073874563,-1.9562693216275824,-1.7086601550879268
1769145976200,126,-2,-1.756643871179994,-2.0180060592640663,-1.8964599720835016
1769145976204,126,-2,-1.8863201432156251,-2.0177468112939083,-2.028781980545454
1769145976208,126,-2,-2.030160998992597,-2.0231827051362137,-2.17460095490717
1769145976212,126,-2,-2.209029067364775,-1.983813716645079,-2.3557913183262658
1769145976216,125,-3,-2.3786881535443913,-3.0290813697587193,-2.5283956403099985
1769145976220,125,-3,-2.48690415725362,-2.8942699083719083,-2.639765761935174
1769145976224,126,-2,-2.5417736091645566,-2.151946541957514,-2.697759455842774
1769145976228,125,-3,-2.60909214932176,-2.886930313804023,-2.7679647560289764
1769145976232,125,-3,-2.7403450005777787,-3.0998426458867003,-2.9013918734014776
1769145976236,125,-3,-2.9046335444723157,-2.8987392079036276,-3.0672371531613174
1769145976240,125,-3,-2.9835063140255142,-3.006974080978434,-3.1481166132557723
1769145976244,125,-3,-2.837883169162746,-3.0321474874516596,-3.0056252244962094
1769145976248,125,-3,-2.413321651300695,-2.998340031744731,-2.58456532196271
1769145976252,126,-2,-1.8079580262581736,-1.9853255669987335,-1.9820741582764536
1769145976256,127,-1,-1.2280862961940318,-0.9730164758506564,-1.4047061711933129
1769145976260,127,-1,-0.848108346795279,-0.9429268156317212,-1.0277682814986626
1769145976264,127,-1,-0.6979069733173383,-1.058497271171443,-0.8810853299147714
1769145976268,127,-1,-0.6833453065895134,-1.0066593565996254,-0.8694445899478795
1769145976272,127,-1,-0.7083877860427665,-0.9357405446857364,-0.8961853230932999
1769145976276,127,-1,-0.767051578990715,-1.025549857100235,-0.9561045131039392
1769145976280,127,-1,-0.9169807540401556,-0.8449654909226607,-1.1083399063290509
1769145976284,127,-1,-1.1761940634035335,-1.1540221667828816,-1.3714834280003223
1769145976288,126,-2,-1.4635754932785885,-1.9320341025966647,-1.6632051478427163
1769145976292,126,-2,-1.653596286570708,-1.9641319611687384,-1.856086913180324
1769145976296,126,-2,-1.6882675968833605,-2.0320312637253206,-1.8917801497122568
1769145976300,126,-2,-1.6226638915763036,-1.7406483817543297,-1.8272604473992056
1769145976304,127,-1,-1.5536038383475412,-1.3099279589615067,-1.761441802136383
1769145976308,126,-2,-1.5154689183916172,-1.735860756220925,-1.7282655153250388
1769145976312,126,-2,-1.464744920141502,-2.17330222165766,-1.6814915073637018
1769145976316,126,-2,-1.3627592058078617,-1.8265471740471624,-1.5808458181472582
1769145976320,127,-1,-1.2410451848752628,-0.8579841599054855,-1.4595079180235169
1769145976324,127,-1,-1.1637012297871705,-1.2556511067629077,-1.384271514683535
1769145976328,126,-2,-1.1455495241586595,-1.703401883217554,-1.3702972842370773
1769145976332,127,-1,-1.139904331444598,-1.2821548636605231,-1.3688727533739118
1769145976336,126,-2,-1.1071599105116203,-1.6606757987245817,-1.3388107054583729
1769145976340,127,-1,-1.0698134095030707,-1.0069578919303717,-1.3030264960573037
1769145976344,127,-1,-1.0861243392432118,-1.0839537169196505,-1.321058395134361
1769145976348,126,-2,-1.1784823393951052,-1.861819747730366,-1.415861608566269
1769145976352,127,-1,-1.2993552981693082,-1.1466328266985664,-1.5396520013632629
1769145976356,126,-2,-1.3693382221218542,-1.7751496931126782,-1.612629130037099
1769145976360,126,-2,-1.3493518970806555,-1.8648180201659463,-1.59545411285175
1769145976364,127,-1,-1.2805281304302136,-1.197080642372622,-1.5291689146159566
1769145976368,126,-2,-1.252058488375515,-1.7287389856337387,-1.5031477330953458
1769145976372,127,-1,-1.318558076052747,-1.333884383936894,-1.57226339257404
1769145976376,126,-2,-1.4393842101550436,-1.5081198755036656,-1.6956889586066408
1769145976380,126,-2,-1.501358437617379,-2.186504379023498,-1.7596671686502117
1769145976384,126,-2,-1.4099715098183028,-1.7610259243751056,-1.6697179868305436
1769145976388,127,-1,-1.1624672155111195,-1.222814699664692,-1.4242253569792167
1769145976392,127,-1,-0.8349006728646691,-0.8233979022126101,-1.1001343387902307
1769145976396,127,-1,-0.5111099742680129,-0.9853140304704936,-0.7803518215628276
1769145976400,127,-1,-0.2342447261897469,-0.7405937031510594,-0.5061625307523893
1769145976404,128,0,-0.0102674855527644,-0.0917824797521575,-0.2831671986024781
1769145976408,128,0,0.1729817010803076,-0.0019373019846725,-0.1008463185915424
1769145976412,128,0,0.3376719249206914,0.0789220989705239,0.0614346596951943
1769145976416,128,0,0.5039052123298499,-0.0009289786373875,0.2240909959352454
1769145976420,128,0,0.6659666370695296,0.4220179870897759,0.3829379164896038
1769145976424,129,1,0.7843309053879878,0.6626970602598113,0.4994419410639412
1769145976428,128,0,0.8151602481648669,0.3341261874895773,0.5293339408295941
1769145976432,129,1,0.754559193973604,0.6848101000511505,0.4673856101201368
1769145976436,128,0,0.6499923868938309,0.4351007470250867,0.3601731286602293
1769145976440,128,0,0.5555902820066485,0.0068500436567485,0.2623455643890208
1769145976444,128,0,0.4639315997140244,0.081344634587782,0.1678086084051985
1769145976448,128,0,0.2870843491326401,-0.0344515041856435,-0.0108417237695276
1769145976452,128,0,-0.0710863323978846,-0.0055451033216877,-0.3704961472863037
1769145976456,127,-1,-0.6052750621185062,-0.7901693758617028,-0.9065884947806516
1769145976460,126,-2,-1.1748725268148403,-1.8196898315298216,-1.4781723634706831
1769145976464,126,-2,-1.5942182633880937,-2.0019392429087097,-1.8989667192972517
1769145976468,126,-2,-1.766489983908066,-2.0033251863542745,-2.0725275900578097
1769145976472,126,-2,-1.7367525320366195,-1.9799814966139164,-2.0449558523297324
1769145976476,126,-2,-1.6277035702203542,-1.8375858929220337,-1.9390985720583884
1769145976480,126,-2,-1.5345455981193543,-1.7161359696934566,-1.8489174360096017
1769145976484,126,-2,-1.4752705281844358,-2.121540831261816,-1.7912262580177574
1769145976488,126,-2,-1.417681182955331,-1.859764282097589,-1.7343484830514144
1769145976492,127,-1,-1.329995770582491,-1.1184244557288303,-1.6480997347782973
1769145976496,126,-2,-1.2061238995555876,-1.6936182983337966,-1.526720816726228
1769145976500,126,-2,-1.066869830071356,-1.8005970937080154,-1.389534369774004
1769145976504,127,-1,-0.9492397966917911,-1.0761513060457095,-1.2726086096968627
1769145976508,127,-1,-0.8775422924958589,-0.8448148420698781,-1.2014720299537442
1769145976512,127,-1,-0.8333638490372376,-1.180915197883138,-1.159413217084439
1769145976516,126,-2,-0.7731578652330231,-1.5517929423800485,-1.1028037982930816
1769145976520,127,-1,-0.6934238847383616,-0.9682900281087478,-1.0265663940927905
1769145976524,127,-1,-0.6625949942208211,-0.8670604133792476,-0.99775810338106
1769145976528,127,-1,-0.7580354560187239,-1.065389629629584,-1.093189005873345
1769145976532,127,-1,-0.961907447303632,-0.938316595256895,-1.295103380724274
1769145976536,126,-2,-1.1362010082836722,-1.7680336444852165,-1.4668018684760318
1769145976540,126,-2,-1.1271614248883872,-1.7554881099343644,-1.457835470820576
1769145976544,127,-1,-0.9143650767366412,-1.0406941037993818,-1.2513747386388747
1769145976548,127,-1,-0.6625980168656238,-0.9112655372422296,-1.0115772056329293
1769145976552,127,-1,-0.6086755356533612,-1.0455167797334126,-0.9680141413786068
1769145976556,126,-2,-0.8327148744915431,-1.6549084967369645,-1.1917993299851906
1769145976560,127,-1,-1.0340579552186753,-0.8726509228902767,-1.3804827273260498
1769145976564,128,0,-0.4723953464794506,0.1214347693818715,-0.802448810272957
1769145976568,129,1,1.7588949159124034,0.8958777645248022,1.4365320457798636
1769145976572,133,5,6.112296383564185,5.230383567383967,5.782862165985353
1769145976576,139,11,11.938984955070923,11.046651488908283,11.591711443989553
1769145976580,144,16,17.365456923404682,16.45719069216241,16.999236810719093
1769145976584,149,21,20.02295990883331,20.800692864959643,19.645113320154344
1769145976588,147,19,18.33168971709937,19.208174948285716,17.953358574451357
1769145976592,140,12,12.50787472786529,11.922740580349224,12.139804494125116
1769145976596,131,3,4.5488363678172234,3.331195864219028,4.197545487065313
1769145976600,124,-4,-2.825832058195978,-3.802121118939165,-3.1619544188266
1769145976604,120,-8,-7.543679579175572,-7.9057176386268,-7.875187961969322
1769145976608,119,-9,-8.987219536915006,-8.98968427149424,-9.32813846393548
1769145976612,120,-8,-7.885656115799913,-7.866409705135064,-8.244571518235126
1769145976616,122,-6,-5.586949282864596,-5.879711078258495,-5.9618812819651215
1769145976620,124,-4,-3.290485952729042,-3.6251145879037514,-3.6713756224084446
1769145976624,126,-2,-1.6551910651593342,-2.0750450630870123,-2.031067557347183
1769145976628,126,-2,-0.8320642564799974,-1.768321259814243,-1.1974022740653278
1769145976632,127,-1,-0.6960694675440664,-1.0669983687887266,-1.0530378857504363
1769145976636,127,-1,-1.0246819435823329,-0.6895123402236591,-1.380559444093853
1769145976640,126,-2,-1.5506970208094186,-1.8153550578419717,-1.9119313447692108
1769145976644,125,-3,-1.994595369374187,-2.893353478802225,-2.3619649828322813
1769145976648,125,-3,-2.1607556960143297,-2.8476694829390405,-2.5302076103093296
1769145976652,126,-2,-2.0263740313083796,-2.029318961049424,-2.3943883409301994
1769145976656,126,-2,-1.7105806907320642,-1.649702439097782,-2.0776705630022683
1769145976660,126,-2,-1.3501420913880793,-1.93766670321253,-1.7189459617586178
1769145976664,126,-2,-1.016985093017773,-1.6968469785082425,-1.388425064121634
1769145976668,127,-1,-0.7385322107828405,-1.0412487063693594,-1.1109551850910362
1769145976672,127,-1,-0.5470634004513006,-0.8053567787290004,-0.9184680149131564
1769145976676,127,-1,-0.4726488888640684,-0.8437927533978213,-0.8426983632102025
1769145976680,127,-1,-0.4915045892794332,-0.793638409044004,-0.8614278748351911
1769145976684,127,-1,-0.5065018273314914,-0.7696502031737569,-0.8776091244072703
1769145976688,127,-1,-0.4036043834077478,-0.9976126088212242,-0.7760580566950472
1769145976692,127,-1,-0.1449414694632463,-0.7613158446916607,-0.5179006513398889
1769145976696,128,0,0.1903697157162322,0.0754144089658484,-0.1824744035207687
1769145976700,128,0,0.4663638742702723,0.3146255783610364,0.0933047708694043
1769145976704,128,0,0.5987775149090364,0.1214356695383239,0.2248838342969202
1769145976708,128,0,0.6079010078930269,0.1397682196377681,0.2332566534761436
1769145976712,128,0,0.5737873967683464,0.1390063618287851,0.1991275740617145
1769145976716,128,0,0.5530177182680796,0.1637696794773324,0.178878281100442
1769145976720,128,0,0.5426589652574443,0.2511425482413645,0.1689018971856455
1769145976724,128,0,0.515705894176433,0.1847241123846702,0.1418124690487604
1769145976728,128,0,0.4800676371996254,0.1116500824405026,0.1056849617966632
1769145976732,128,0,0.496367357720614,0.195302531355045,0.121619844814801
1769145976736,128,0,0.6329246201446463,0.1009195375263402,0.2583110946370807
1769145976740,128,0,0.8980841590845762,0.3369860784888947,0.5239334460989018
1769145976744,129,1,1.2167917618169173,1.0993431411706744,0.842722418191749
1769145976748,129,1,1.479231614222421,1.2395550871652197,1.1044377376213967
1769145976752,129,1,1.617020599066456,1.0837846945792398,1.2413186914374257
1769145976756,129,1,1.6372345278893738,1.217505946970509,1.261557678454441
1769145976760,129,1,1.5954006376959322,1.2282121254460132,1.2209657557855236
1769145976764,129,1,1.548117433197923,1.2126003367699345,1.175224871487813
1769145976768,129,1,1.527259546188848,1.1810482452639086,1.1550535886089737
1769145976772,129,1,1.5396703613026548,1.1436243987730752,1.16692447155114
1769145976776,129,1,1.5743829404995346,1.1853805645042497,1.2004350307600815
1769145976780,129,1,1.607966914411191,1.2394524338712447,1.2331691239127047
1769145976784,129,1,1.612921789601833,1.2377334375686395,1.238479265426481
1769145976788,129,1,1.5745840946726817,1.17730907379693,1.2018020268997165
1769145976792,129,1,1.5110086871596855,1.1812127108637944,1.1402310991879787
1769145976796,129,1,1.4789118388706,1.1466796121137737,1.1090512227618996
1769145976800,129,1,1.5474283863449678,1.2777657312984405,1.1769072113398624
1769145976804,129,1,1.740797669555122,1.226392319707584,1.3691871400202371
1769145976808,129,1,1.990257772783154,1.2140091413148202,1.618621047419151
1769145976812,130,2,2.1564485995301785,2.1752581937572124,1.7858336525059206
1769145976816,130,2,2.1333684428052484,2.1625640431427744,1.7635984078305145
1769145976820,129,1,1.9477735475893692,1.2404728641207434,1.5783178612247082
1769145976824,129,1,1.7453663584995942,1.318486490973723,1.3767846047302357
1769145976828,129,1,1.6655854649334167,1.1092435361508706,1.299026424683145
1769145976832,129,1,1.7287472124604248,1.3429959545050083,1.3639792427615025
1769145976836,130,2,1.8417413145000512,1.9887014741832536,1.4766737621063333
1769145976840,129,1,1.8953990234843268,1.4190515779513553,1.5282963254045936
1769145976844,129,1,1.8403073731008432,1.168036278408623,1.4721110042289718
1769145976848,129,1,1.6821057966001625,1.2584410707560678,1.3157213262048018
1769145976852,129,1,1.4449832557967914,1.248042623005766,1.0822109939957731
1769145976856,129,1,1.167001541735094,1.0724664002085669,0.8068341619169974
1769145976860,128,0,0.9114507484322908,0.371088718122861,0.5515220118350052
1769145976864,128,0,0.7385574119739681,0.2062837473577373,0.3775817963284117
1769145976868,128,0,0.643274116712585,0.2508003970855361,0.2817366736231838
1769145976872,128,0,0.5325330198172356,0.2847598863537066,0.1716200204395551
1769145976876,128,0,0.2873879175619893,0.0448149377125894,-0.0720865971547825
1769145976880,127,-1,-0.1354586664290613,-0.5690470620087471,-0.493260046044281
1769145976884,127,-1,-0.6538482632171403,-0.8775264081570658,-1.0100769986401608
1769145976888,126,-2,-1.1092625451211304,-1.6132057776029018,-1.4641201759189784
1769145976892,126,-2,-1.377986770783696,-1.8634566159213664,-1.731662316790355
1769145976896,126,-2,-1.456021804358372,-1.7290641010970005,-1.80877358536906
1769145976900,126,-2,-1.4496574025042657,-1.8445157220140445,-1.8019521013093496
1769145976904,126,-2,-1.4823085213885647,-1.52545465933456,-1.834558608090344
1769145976908,126,-2,-1.6010416795875355,-2.0214605343255228,-1.952920836280205
1769145976912,125,-3,-1.762863403324578,-2.368066190807251,-2.11313491417479
1769145976916,126,-2,-1.8990385683811608,-2.240049317518037,-2.2466352444486763
1769145976920,125,-3,-1.980216035375029,-2.313583899382627,-2.325557599570673
1769145976924,126,-2,-2.0203178615577824,-2.0112440466593746,-2.3650000116868415
1769145976928,125,-3,-2.038310348257399,-2.593602064363484,-2.3832393087609978
1769145976932,125,-3,-2.0367856227193633,-2.6578927108323485,-2.3811321335197233
1769145976936,126,-2,-2.0125050681046406,-2.074170247166771,-2.3548632295717495
1769145976940,125,-3,-1.9654552241073415,-2.303719225836195,-2.305526879297318
1769145976944,126,-2,-1.8908782959920525,-2.1695945878513294,-2.229480603507019
1769145976948,125,-3,-1.778530186330609,-2.2678787196678174,-2.116315008696432
1769145976952,126,-2,-1.6325562852211295,-2.07957830429586,-1.9693744386328784
1769145976956,126,-2,-1.4858510253808916,-1.564667291985702,-1.821278586835242
1769145976960,126,-2,-1.3830887012931803,-1.8076698761557035,-1.7169939072777582
1769145976964,126,-2,-1.3468418683017866,-1.6933771974659182,-1.6792958030130647
1769145976968,126,-2,-1.3619558785580193,-1.638327755775958,-1.692937855268386
1769145976972,126,-2,-1.3912597082923,-1.8051856127805108,-1.7206386134178415
1769145976976,126,-2,-1.405000260764547,-1.7027040028558298,-1.7326856723004491
1769145976980,126,-2,-1.3985376690950624,-1.7461782387554456,-1.724567543258937
1769145976984,126,-2,-1.3867631869542134,-1.6738412386310273,-1.7112841124103892
1769145976988,126,-2,-1.3841286309455212,-1.6698256559414937,-1.7072939518379553
1769145976992,126,-2,-1.3903659255457312,-1.7560484936148495,-1.7121979144010588
1769145976996,126,-2,-1.39444772450337,-1.714450627633209,-1.7147762146035672
1769145977000,126,-2,-1.387702649906387,0.680914921589873,0.6435740801353965
1769145977004,126,-2,-1.3878630154775284,0.6758902670819779,0.6416646209241804
1769145977008,126,-2,-1.3870998409023756,0.6725612169222902,0.6407693590000447
1769145977012,126,-2,-1.3871915004312347,0.6797276903225471,0.6390889917688531
1769145977016,126,-2,-1.3888940575554862,0.6753147143133547,0.635794929652108
1769145977020,126,-2,-1.3909594173452486,0.6675711670079822,0.6320528306666449
1769145977024,126,-2,-1.3914570091066056,0.6619538185907579,0.6297991971158344
1769145977028,126,-2,-1.3904278017884475,0.6547573885560722,0.629140686128714
1769145977032,126,-2,-1.3908496591889907,0.6703897921055202,0.6273082462351677
1769145977036,126,-2,-1.3958856976729026,0.6571622546401197,0.6212123095228638
1769145977040,126,-2,-1.4042858970996974,0.6550659921706575,0.6118797056343939
1769145977044,126,-2,-1.4089423192145107,0.6499466866424658,0.6059780895888406
1769145977048,126,-2,-1.4022063049379172,0.6309308294676477,0.6108806596586723
1769145977052,126,-2,-1.3855931793115943,0.6708682085970906,0.6253692741513165
1769145977056,126,-2,-1.375079599864486,0.6283062242593593,0.6342709890688207
1769145977060,126,-2,-1.3923803252346665,0.6491629166803262,0.6164548000667261
1769145977064,126,-2,-1.4416644727186307,0.6426179063859521,0.5673348792500975
1769145977068,126,-2,-1.4877238154974772,0.5838245982937538,0.5208801777037969
1769145977072,126,-2,-1.462278456073375,0.7183402350972539,0.544587949847931
1769145977076,126,-2,-1.3106209934254358,0.5278633527244725,0.6938340585144314
1769145977080,126,-2,-1.0485585842809535,0.7364234025491698,0.9542253912339772
1769145977084,127,-1,-0.7680699370582862,1.527363615118284,1.2342931318701853
1769145977088,127,-1,-0.5640161294731669,1.654296694374304,1.438392494355321
1769145977092,127,-1,-0.4420056834406694,1.6463963694561137,1.5601046994661114
1769145977096,127,-1,-0.3080864292668064,1.5422844646401055,1.6934405520689584
1769145977100,127,-1,-0.0657093665483539,1.7107692228948743,1.9352111233611793
1769145977104,128,0,0.2705912284788345,2.515153212427651,2.2705381114544663
1769145977108,128,0,0.5572718705597375,2.639996730268435,2.555468991261551
1769145977112,128,0,0.6173143092535195,2.652203363637192,2.613512368458664
1769145977116,128,0,0.3649396761958366,2.4783993743651087,2.3600918881383763
1769145977120,127,-1,-0.1366154381181502,1.767768377312054,1.8590098246084608
1769145977124,127,-1,-0.7151549337254389,1.3920183018801475,1.2817348269297957
1769145977128,126,-2,-1.1885791963486252,0.7801712098783596,0.8090583134940403
1769145977132,126,-2,-1.4557660358351412,0.4600489227035321,0.5413286631215428
1769145977136,126,-2,-1.5277773618328578,0.6616498198677111,0.4676824808867933
1769145977140,126,-2,-1.4910557843326189,0.543540439246257,0.5025451885550233
1769145977144,126,-2,-1.438732011207435,0.5687036037347458,0.5537181780161112
1769145977148,126,-2,-1.4204277927657487,0.616495328071598,0.5719870797581595
1769145977152,126,-2,-1.435708796750394,0.553754750642297,0.557422256809472
1769145977156,126,-2,-1.459472338526557,0.5848696155941546,0.5343150454252263
1769145977160,126,-2,-1.4712466598247065,0.543701542079708,0.5225148641887319
1769145977164,126,-2,-1.4686137974966518,0.5659494553984742,0.5244205141881669
1769145977168,126,-2,-1.4622416771897713,0.5854042537078576,0.5298892006285876
1769145977172,126,-2,-1.4626112161339884,0.5619523156004204,0.5291111944190918
1769145977176,126,-2,-1.4709078513226663,0.5528154677287525,0.5212242547261884
1769145977180,126,-2,-1.4798798109368887,0.5294697619520233,0.5131131496996659
1769145977184,126,-2,-1.481407801280516,0.5591085254916754,0.5119549580624234
1769145977188,126,-2,-1.4737661428737612,0.5660370620466308,0.5186893531691491
1769145977192,126,-2,-1.4643193284475329,0.5588097767662339,0.5262686990545398
1769145977196,126,-2,-1.4666506647289974,0.52897202268108,0.5227577663319876
1769145977200,126,-2,-1.4911264928344172,0.5095204338833459,0.4996352457968736
1769145977204,126,-2,-1.5302651152156113,0.5570563478322847,0.4645086822148228
1769145977208,126,-2,-1.55071737277024,0.5416651545240528,0.4481429190434904
1769145977212,126,-2,-1.5119529553435265,0.5605114782709659,0.4871274250674536
1769145977216,126,-2,-1.4155531799126209,0.5049848490036392,0.5778336292593405
1769145977220,126,-2,-1.344813166480845,0.4783279721328104,0.6394999419154738
1769145977224,126,-2,-1.4219242958223075,0.5834504834800023,0.5564624480233259
1769145977228,126,-2,-1.6474239485625417,0.4683295836881183,0.3343146635024911
1769145977232,126,-2,-1.7021129710976517,0.630823923622875,0.2926024685269364
1769145977236,127,-1,-0.902500675037655,1.401947777760979,1.107646824453894
1769145977240,129,1,1.51819619582115,3.524305196025466,3.53603920587591
1769145977244,133,5,5.835982881698248,7.560421607374218,7.848316558104012
1769145977248,138,10,11.293691736676749,12.408287643680724,13.290644850463693
1769145977252,143,15,16.062605944605373,17.752715748193236,18.043157628648952
1769145977256,147,19,17.963894899641236,21.161966929382764,19.934939591695528
1769145977260,144,16,15.657013057710005,18.774549777308007,17.629307621178313
1769145977264,137,9,9.529295059670993,11.216761071800228,11.513702248037497
1769145977268,128,0,1.618747336149112,2.7172854631259313,3.62204202402102
1769145977272,122,-6,-5.415222328776984,-3.540417190779311,-3.395048786589837
1769145977276,118,-10,-9.581505921927382,-7.6064501303860705,-7.556045455966016
1769145977280,117,-11,-10.321795596120245,-8.351804099948804,-8.305859252957113
1769145977284,120,-8,-8.430361782539684,-5.777183599434536,-6.432335393207321
1769145977288,122,-6,-5.3695513913210835,-3.234340724347041,-3.3862280423755693
1769145977292,125,-3,-2.4862382072726996,-0.7341380092057648,-0.5060552924015338
1769145977296,127,-1,-0.5337583762903283,1.6220137677032735,1.4546457865575817
1769145977300,128,0,0.3857313104852486,2.3615264493268286,2.3865737533350035
1769145977304,128,0,0.5865391171822615,2.4871901403084946,2.5962364963246554
1769145977308,128,0,0.484275805358617,2.4923923808866433,2.4959518197869257
1769145977312,128,0,0.3701348518575626,2.44205968564042,2.3786571301552693
1769145977316,128,0,0.3452546190543827,2.494608019122201,2.3494217524922014
1769145977320,128,0,0.3820720189913125,2.419535903605071,2.3837473108348304
1769145977324,128,0,0.422584329736857,2.451917519300924,2.42444338812371
1769145977328,128,0,0.4382941811837807,2.460409414568878,2.441972436729584
1769145977332,128,0,0.4336240318514281,2.4333937867701714,2.439250655285697
1769145977336,128,0,0.4206376645237941,2.490716653512595,2.427600930480865
1769145977340,128,0,0.4011873468752207,2.405309142789846,2.409083245219751
1769145977344,128,0,0.3723120718907275,2.4460600078066026,2.381100458140873
1769145977348,128,0,0.3446535550764241,2.434697222094127,2.354113320920246
1769145977352,128,0,0.3494909715998625,2.3858583103037887,2.3590054763273693
1769145977356,128,0,0.4170266930659361,2.5591062541318976,2.426265155978329
1769145977360,128,0,0.537017240200499,2.284116326756694,2.5465861258829694
1769145977364,128,0,0.6438484689710074,2.5834362807105533,2.6546813220118137
1769145977368,129,1,0.6614172553741658,3.2280202981643944,2.6735239428809647
1769145977372,128,0,0.5808093207056964,2.561151618706087,2.5933221778381914
1769145977376,128,0,0.4873916985043185,2.359143722980388,2.5000508426073216
1769145977380,128,0,0.492154480335877,2.4755778009352167,2.5059513523400727
1769145977384,128,0,0.63085904419392,2.364035432297636,2.646565935237228
1769145977388,129,1,0.8385535012077927,3.410422338887365,2.855151831933505
1769145977392,129,1,1.0210887863883276,3.345416775399438,3.0366722109888906
1769145977396,128,0,1.134656773491556,2.5402884040340847,3.1489009987933874
1769145977400,129,1,1.1917293141193452,3.292653692871755,3.2064989318426655
1769145977404,129,1,1.21843971170123,3.5096884366377537,3.2356447557085115
1769145977408,129,1,1.2380505063227014,3.223766996920268,3.2576753066562607
1769145977412,129,1,1.2898379857165354,3.518714173415734,3.310439065279847
1769145977416,129,1,1.4284510779787103,3.3237422278173554,3.4489008768836036
1769145977420,129,1,1.6790764543990806,3.4970831331003995,3.6992128679053993
1769145977424,130,2,1.9940156234109376,4.2849127297970435,4.013973799559242
1769145977428,130,2,2.267035805594456,4.39441399927607,4.286827970917264
1769145977432,130,2,2.4021537346842012,4.345994071360474,4.4221447535057905
1769145977436,130,2,2.380386964100969,4.445741449529631,4.401542293289017
1769145977440,130,2,2.2768269277090276,4.364428926301716,4.299961458471619
1769145977444,130,2,2.2217726088407237,4.383928686820026,4.246735121487544
1769145977448,130,2,2.327221494636258,4.265870901275172,4.353040382923087
1769145977452,130,2,2.6152911642553973,4.453208277916165,4.640882627924443
1769145977456,131,3,2.9944954240772925,5.301648834822014,5.019159954827537
1769145977460,131,3,3.307496453867244,5.499080692600328,5.331230946374714
1769145977464,131,3,3.419801995937815,5.201985872820229,5.443442845403952
1769145977468,131,3,3.28887550256581,5.435657786588063,5.3136012824100725
1769145977472,131,3,2.977772704227988,5.238266470914353,5.00421114827801
1769145977476,130,2,2.6162887605642475,4.491016930269113,4.644233490568688
1769145977480,130,2,2.332963091505904,4.301900603764427,4.361814581706724
1769145977484,130,2,2.1943915589710565,4.349443090669015,4.223498417596825
1769145977488,130,2,2.1882567680613816,4.286659012500468,4.216966918651066
1769145977492,130,2,2.2538384927543325,4.329982203596547,4.281773572998065
1769145977496,130,2,2.325315654146899,4.39534465053172,4.352825923544236
1769145977500,130,2,2.3535048592167795,4.3598472774617765,4.3815755922955555
1769145977504,130,2,2.3055501282494095,4.2643884129256815,4.334887962850592
1769145977508,130,2,2.165113972876102,4.352766021433213,4.195320142270124
1769145977512,130,2,1.9416851799156345,4.212186325488297,3.97170382404769
1769145977516,129,1,1.6698203871141784,3.518797987384131,3.699308825211992
1769145977520,129,1,1.384936994013403,3.178003731341328,3.4146800512905573
1769145977524,129,1,1.1011993600961991,3.444673123511815,3.131892611801047
1769145977528,129,1,0.8233483521542024,3.130014707328358,2.8545924526375117
1769145977532,128,0,0.5732374778517448,2.4046695649435432,2.604240915968422
1769145977536,128,0,0.3822453899122213,2.3250217480507573,2.41294644357507
1769145977540,128,0,0.2497664267070968,2.30356503782769,2.28058061217273
1769145977544,128,0,0.123506122662955,2.332875027633471,2.1543728150678794
1769145977548,128,0,-0.0673875125879142,2.1798288079123544,1.9630640713370775
1769145977552,127,-1,-0.3611481154813201,1.3578981002394173,1.668863543848734
1769145977556,127,-1,-0.7413708286796292,1.324155452461345,1.2886994070062698
1769145977560,127,-1,-1.1486060494698211,1.2803242851145995,0.881848256516309
1769145977564,126,-2,-1.5058091526258723,0.3293196898134485,0.5250229611770418
1769145977568,126,-2,-1.7491388294020882,0.1562387842039116,0.2821296925735941
1769145977572,126,-2,-1.8556906571052492,0.3695208169762889,0.1759742172730117
1769145977576,126,-2,-1.8487549328029385,0.264946910400119,0.1826196154371997
1769145977580,126,-2,-1.779060437783493,0.3206549548887302,0.2509947165584876
1769145977584,126,-2,-1.7079450170425066,0.2657923622381718,0.3204948213775508
1769145977588,126,-2,-1.7048519758975984,0.1757594619096094,0.3227905828105494
1769145977592,126,-2,-1.835065279611499,0.3579168843082346,0.1928496569047868
1769145977596,126,-2,-2.118163020119234,0.2003598397862125,-0.0895851397032233
1769145977600,125,-3,-2.4872623827962848,-0.5943122395015917,-0.4582804521029647
1769145977604,125,-3,-2.8022141445926048,-0.890899287278384,-0.7732277160528419
1769145977608,125,-3,-2.9243932512506605,-0.6557392314344617,-0.8957462228267101
1769145977612,125,-3,-2.800093369563698,-0.8612496287421617,-0.7720902249074769
1769145977616,125,-3,-2.491777132608966,-0.5969340680777109,-0.4646735076913367
1769145977620,126,-2,-2.13715670557594,0.1849384414038097,-0.1112345291681675
1769145977624,126,-2,-1.86587449760834,0.2767096849322963,0.1586168930647904
1769145977628,126,-2,-1.73428870586386,0.1798451678806212,0.288982015003234
1769145977632,126,-2,-1.722792207138617,0.2447051063454453,0.3001243080155781
1769145977636,126,-2,-1.7802798212008173,0.2918094858050175,0.2431628130626637
1769145977640,126,-2,-1.8600322512611769,0.259602797776526,0.1639284866175365
1769145977644,126,-2,-1.9179423793280552,0.1761178310412341,0.105580744541806
1769145977648,126,-2,-1.899411973870464,0.2641096814844775,0.1226928520220524
1769145977652,126,-2,-1.755172020262744,0.1184620362464601,0.2653665316830413
1769145977656,126,-2,-1.4842135260140958,0.3978040684088149,0.5352475835726798
1769145977660,127,-1,-1.1569461433821333,1.131968925155915,0.8616863623006992
1769145977664,127,-1,-0.8831001843651219,1.2613739647060025,1.1344326204574624
1769145977668,127,-1,-0.7473952080173061,1.185842278744794,1.268820507991492
1769145977672,127,-1,-0.7674070781232545,1.1231508677808342,1.2476717336945375
1769145977676,127,-1,-0.8975371653306924,1.4009814707910977,1.116674338717497
1769145977680,127,-1,-1.0623361859899487,1.0751112730436754,0.9512056595419882
1769145977684,126,-2,-1.195020674901726,0.3106489862321013,0.8180976075426717
1769145977688,127,-1,-1.2612555619621466,1.1177467559812806,0.7514126732609986
1769145977692,127,-1,-1.254593191833865,1.139953286953277,0.7568936170810355
1769145977696,126,-2,-1.1780633770802038,0.3768375497006,0.8312362645587055
1769145977700,127,-1,-1.0447374559567248,1.0550702401043623,0.9619970184360154
1769145977704,127,-1,-0.8967238680666817,1.3234913136933713,1.1079871834813984
1769145977708,127,-1,-0.8045362157887574,1.0699009766946348,1.1991745558210376
1769145977712,127,-1,-0.8272824352734068,1.1550442319639465,1.1761744992158771
1769145977716,127,-1,-0.9603134326685636,1.349633612280432,1.0427258310812668
1769145977720,127,-1,-1.11909840472856,1.0203929115076562,0.8826014467201914
1769145977724,126,-2,-1.1898391466628024,0.3845018503848558,0.80972704704139
1769145977728,127,-1,-1.1193694929037588,0.9294160223881252,0.877910163560117
1769145977732,127,-1,-0.9636577642773412,1.3178233030933229,1.0315367293884423
1769145977736,127,-1,-0.8406123713802092,1.117914834059991,1.1527520716050697
1769145977740,127,-1,-0.8265117028152429,1.2534131605229264,1.1653423897947648
1769145977744,127,-1,-0.8893568907101639,1.1186869760891145,1.1012196930351428
1769145977748,127,-1,-0.913900502076268,1.1511474143105918,1.0752980114525836
1769145977752,127,-1,-0.794984339968436,1.0984565445987835,1.192540381304307
1769145977756,127,-1,-0.5242920157070747,1.273956611318626,1.4613439244462976
1769145977760,128,0,-0.1993853255130577,2.114557977601278,1.7841459157256303
1769145977764,128,0,0.0540799266722413,2.20100801461307,2.0351582926024907
1769145977768,128,0,0.1771261598494028,2.0541870779300244,2.155545162049278
1769145977772,128,0,0.2032217840906916,2.1638860372033997,2.179244961614528
1769145977776,128,0,0.200197445695425,2.1684637681681624,2.1744503402062456
1769145977780,128,0,0.1941179726708327,2.217322682273654,2.1671512917804865
1769145977784,128,0,0.1485165234558533,2.0589252252605696,2.120298934395113
1769145977788,128,0,0.0126666717045607,2.1792190992836113,1.982273248969996
1769145977792,128,0,-0.2132279302942312,2.005615058082354,1.7528651953046923
1769145977796,127,-1,-0.4664095275931789,1.2846481871865143,1.4957494559478248
1769145977800,127,-1,-0.6823995146143043,1.105589800349153,1.2770666058053246
1769145977804,127,-1,-0.8631119433702003,1.1105146675530215,1.0953707636329928
1769145977808,127,-1,-1.065681881479397,1.147694928779616,0.8919617078436444
1769145977812,127,-1,-1.3131625779679803,0.9585892796734432,0.6419745709044311
1769145977816,126,-2,-1.5329660457244842,0.3485862541836594,0.4182657696693248
1769145977820,126,-2,-1.6128241741813392,-0.020384401035032,0.3350559281948017
1769145977824,126,-2,-1.526134780473978,0.2279148566065905,0.4197487106744503
1769145977828,127,-1,-1.381457187690308,1.015054574341589,0.5622018524711002
1769145977832,127,-1,-1.3283060252821806,1.035607230051625,0.6114415811013048
1769145977836,126,-2,-1.4203122391932197,0.2968742267294746,0.515179163929516
1769145977840,126,-2,-1.583074421581142,-0.067860958695465,0.3503580347289238
1769145977844,126,-2,-1.6997987272486417,0.3077430489905078,0.2335421191119648
1769145977848,127,-1,-1.7000945353978576,0.8607180185969471,0.2318108479419246
1769145977852,126,-2,-1.5766451410738287,0.2151956692929715,0.3502868250061658
1769145977856,126,-2,-1.3656913990949564,0.0750433397619585,0.554524275874271
1769145977860,127,-1,-1.1362211350871485,1.1081692286247402,0.7792679572622132
1769145977864,127,-1,-0.9671376934731272,1.1203177023563982,0.9475133591371788
1769145977868,127,-1,-0.8943519935320586,0.9880490275598688,1.0219664877487535
1769145977872,127,-1,-0.8758227075392675,1.138235611083167,1.0409884125466655
1769145977876,127,-1,-0.8309587574447089,1.0560200691065946,1.08138878807807
1769145977880,127,-1,-0.7360147913043865,1.1408853251890394,1.1659296691070231
1769145977884,127,-1,-0.6834686523450525,1.0166883278723655,1.205910654650148
1769145977888,127,-1,-0.8117567599502576,1.0903498641736322,1.0698547263907043
1769145977892,127,-1,-1.0981616556184697,1.0440470495314962,0.7854706035368619
1769145977896,127,-1,-1.1476679221526702,1.0764648083072097,0.7460594747979172
1769145977900,128,0,-0.2043257314220574,2.131929447401981,1.69937696031527
1769145977904,130,2,2.4662984373444736,3.941904854668357,4.370754184718995
1769145977908,134,6,6.948795238249211,8.194061742578164,8.841242583169972
1769145977912,140,12,12.224033798437809,13.930288393660856,14.096056544080172
1769145977916,144,16,16.34041392875131,18.135251150579737,18.192728049593153
1769145977920,146,18,17.29571927206635,20.07606782823255,19.13731773506469
1769145977924,143,15,14.170793715175105,16.867602570384562,16.013868454799276
1769145977928,135,7,7.770578523590936,9.311851142600602,9.624469375523406
1769145977932,128,0,0.291480370533473,1.7068806589344083,2.158269043598973
1769145977936,121,-7,-5.803884546839521,-4.570269795859712,-3.9304862543143626
1769145977940,119,-9,-8.977359213526965,-7.29935269115489,-7.108910351756832
1769145977944,119,-9,-9.14721672360096,-6.696932391070708,-7.294244755149287
1769145977948,121,-7,-7.353643160706531,-5.164320951676817,-5.519753429248031
1769145977952,123,-5,-4.9382953045000875,-2.862426615247063,-3.118691874882177
1769145977956,125,-3,-2.8417180717719503,-0.9965358286495564,-1.0270331366574004
1769145977960,126,-2,-1.389827369307268,-0.0159478675112434,0.4277886399682447
1769145977964,127,-1,-0.5132738942038604,1.1151510918772498,1.3094578501262817
1769145977968,128,0,-0.0697202953761471,1.897314929375572,1.7545993567179887
1769145977972,128,0,0.0148602104191697,2.1532152464004684,1.8348345069508236
1769145977976,128,0,-0.1875233575334178,1.881002037967641,1.6238370555986388
1769145977980,127,-1,-0.5117685530110124,1.1022525511256414,1.2905341964681318
1769145977984,127,-1,-0.735014209366495,0.9657104129775804,1.0608400515735923
1769145977988,127,-1,-0.722193575861058,1.0286582242924545,1.0702553312089325
1769145977992,127,-1,-0.526720249098263,1.030784282423202,1.2633607688210082
1769145977996,128,0,-0.3298286692118565,1.9351848120831687,1.456366940908872
1769145978000,128,0,-0.265968941526685,2.048178647075466,1.5141454881639438
1769145978004,127,-1,-0.3052424528190909,0.9465797453989802,1.4685046345156654
1769145978008,127,-1,-0.3087073660464494,1.0741519353096125,1.4605162420479112
1769145978012,128,0,-0.1849469032798184,1.9378350126474415,1.5811321994650207
1769145978016,128,0,0.0252724361604722,2.011318338153064,1.787216253442982
1769145978020,128,0,0.2067662662351041,1.9426782671940803,1.96257971179958
1769145978024,128,0,0.2813479426566413,2.0135907747250226,2.03057165787942
1769145978028,128,0,0.2587183100281723,1.9955830942251391,2.002735190264082
1769145978032,128,0,0.2048908734778977,1.982943212177512,1.944992476011538
1769145978036,128,0,0.1804400306946399,1.9512221866073405,1.9163382427100917
1769145978040,128,0,0.2009216591270831,1.9654646099339577,1.9312826353774
1769145978044,128,0,0.236987192661727,1.9734752311580317,1.9609967395605936
1769145978048,128,0,0.2448599625866018,1.9972854362913917,1.9629523803637148
1769145978052,128,0,0.2065140041216937,1.9759026397574628,1.9196456992256157
1769145978056,128,0,0.155220827542961,1.912489072342767,1.8637384638876116
1769145978060,128,0,0.1653803091277569,1.999666114373712,1.86883140588429
1769145978064,128,0,0.303731189758671,1.8874136271074056,2.001634907212421
1769145978068,128,0,0.5720347872962611,2.0798190473534293,2.26436596118164
1769145978072,129,1,0.8921437989138052,2.855583797178401,2.578884533697537
1769145978076,129,1,1.1560891162749745,3.0199310875687964,2.8367787767146053
1769145978080,129,1,1.299641836207656,2.8592399303344043,2.9738401524403715
1769145978084,129,1,1.3316150776597913,2.995695107915946,2.999643824117496
1769145978088,129,1,1.3010562968518085,2.9531119661884633,2.96389510241214
1769145978092,129,1,1.2492526072372196,2.9400993867564726,2.907621970879709
1769145978096,129,1,1.1973275922628326,2.9478023701130063,2.850916419872302
1769145978100,129,1,1.169793214225043,2.8673051608820757,2.8173870187223033
1769145978104,129,1,1.2120221057922669,2.9955477220028888,2.852541532530612
1769145978108,129,1,1.3672070277008117,2.8891860134346263,3.000790870322182
1769145978112,129,1,1.6281210006110691,3.0100243639058,3.2560103743161823
1769145978116,130,2,1.920494269567826,3.8369569461049857,3.543583825522732
1769145978120,130,2,2.1525806058211003,3.976404861046505,3.770267991261975
1769145978124,130,2,2.2896370452365717,3.826513655999791,3.9004884607691968
1769145978128,130,2,2.3724877699413147,4.0628436893964,3.975992035962118
1769145978132,130,2,2.4567023326928976,3.772182091364503,4.053942909383546
1769145978136,130,2,2.5417183416171425,4.088589680024065,4.134095676038113
1769145978140,131,3,2.573974733452447,4.686672068241196,4.16154607308084
1769145978144,130,2,2.5205031871400103,4.08938961033957,4.101952307091656
1769145978148,130,2,2.4217141322844573,3.7821450851510865,3.9958066355432
1769145978152,130,2,2.354978287703412,3.9961066763517863,3.9216535948792943
1769145978156,130,2,2.34730395982161,3.881214828787818,3.907448308897141
1769145978160,130,2,2.3350729250045115,3.830908204886281,3.889590486744312
1769145978164,130,2,2.2192329495382332,3.978468052355315,3.76830840110856
1769145978168,130,2,1.9669508689955,3.7960216321026823,3.5100169824417575
1769145978172,129,1,1.659362288789807,3.013091482519706,3.19576344999873
1769145978176,129,1,1.429291917438029,2.7814659661770964,2.9589043591804822
1769145978180,129,1,1.3405478804897248,2.96688437970826,2.8636346501683527
1769145978184,129,1,1.3254970990980857,2.782024884187776,2.84210312483397
1769145978188,129,1,1.2453939576679085,2.9870394189102205,2.755180935938862
1769145978192,129,1,1.0188354136192337,2.7844895017329216,2.521638666191808
1769145978196,128,0,0.6979211587431948,1.9676613851983835,2.194298278718043
1769145978200,128,0,0.4228152748679679,1.791650258883264,1.9136750410589705
1769145978204,128,0,0.3013757976673781,1.896533721812932,1.7868975686816144
1769145978208,128,0,0.324131067715929,1.889711642503293,1.8032799428668471
1769145978212,128,0,0.3789887203865573,1.8149667699383316,1.850310382848676
1769145978216,128,0,0.3371684130366235,1.9419371392094784,1.8000674512231525
1769145978220,128,0,0.1340236652488781,1.770577657005187,1.58934720150661
1769145978224,127,-1,-0.2097178815518157,0.9055886982742288,1.239688712373818
1769145978228,127,-1,-0.6222016953882898,0.852225717676939,0.8223060962001343
1769145978232,127,-1,-1.0241321513703194,0.8216586976752169,0.4149227137798341
1769145978236,126,-2,-1.3500328223566054,-0.0803708036646195,0.0821331540571976
1769145978240,126,-2,-1.5578146189948292,-0.2419430755698259,-0.1333680933969765
1769145978244,126,-2,-1.6423155293381158,-0.0882664002522202,-0.2253380202899926
1769145978248,126,-2,-1.63919679937678,-0.2024169730463185,-0.229120493424342
1769145978252,126,-2,-1.603342615381801,-0.1298179746229697,-0.1999640973675938
1769145978256,126,-2,-1.5762257554268075,-0.1626938603831136,-0.1795982747183626
1769145978260,126,-2,-1.5698316580054965,-0.1859573080468377,-0.1799014523457782
1769145978264,126,-2,-1.574991055972761,-0.1582290357380897,-0.1915816126034115
1769145978268,126,-2,-1.5793095889201345,-0.1785540002839616,-0.2023811999972016
1769145978272,126,-2,-1.577651470599046,-0.1569427611788167,-0.2074363018924878
1769145978276,126,-2,-1.5712596702426769,-0.17442450959119,-0.2081037558413663
1769145978280,126,-2,-1.5628134816079997,-0.1890280153606076,-0.2068973466030745
1769145978284,126,-2,-1.554513213189031,-0.1858305774833362,-0.2057076639572201
1769145978288,126,-2,-1.5489801052984322,-0.1784949263356385,-0.2069370714910665
1769145978292,126,-2,-1.5485642075791792,-0.1763746179443113,-0.2129625783489404
1769145978296,126,-2,-1.55187445782749,-0.1827406051584472,-0.2226692662947884
1769145978300,126,-2,-1.551920184715854,-0.1996457132989966,-0.229443489272342
1769145978304,126,-2,-1.5406597873668657,-0.2078839004844952,-0.2254514503716207
1769145978308,126,-2,-1.5185028611680982,-0.1785605928305864,-0.2108877743579693
1769145978312,126,-2,-1.500110270411691,-0.2008051396854449,-0.1998177564656065
1769145978316,126,-2,-1.5069580771097373,-0.1841746115231832,-0.2132309909433942
1769145978320,126,-2,-1.5457901045801183,-0.2121334640413295,-0.258067826260163
1769145978324,126,-2,-1.5868954103605657,-0.2414697963163308,-0.3054292181647051
1769145978328,126,-2,-1.56606919287361,-0.1457701099440698,-0.291665346643114
1769145978332,126,-2,-1.4235429145988006,-0.2853492304954024,-0.1566219271420124
1769145978336,126,-2,-1.1581240509829085,-0.0942670648321284,0.1016856036115307
1769145978340,127,-1,-0.8449451871073816,0.6528850338344956,0.4082273914521486
1769145978344,127,-1,-0.5874175060745237,0.8780134943423059,0.6589882443028092
1769145978348,127,-1,-0.4425127055584757,0.7113679711104712,0.7967573354469177
1769145978352,127,-1,-0.3938264155316616,0.8152028185508073,0.8384956156046761
1769145978356,127,-1,-0.396611149763977,0.8111713440537551,0.8293904447279545
1769145978360,127,-1,-0.4402841102695156,0.678684608970479,0.7794562214213872
1769145978364,127,-1,-0.5591766000482581,0.8803336605699534,0.6533289701952532
1769145978368,127,-1,-0.7835872297822102,0.6409362830096805,0.420723225081129
1769145978372,126,-2,-1.0880947481301126,-0.1098999040129553,0.1085843465463036
1769145978376,126,-2,-1.390244350709357,-0.3031805788808486,-0.1992423518613471
1769145978380,126,-2,-1.590992965624185,-0.2406156611192955,-0.404370436019049
1769145978384,126,-2,-1.613195756853744,-0.1978727809884584,-0.4318749020821733
1769145978388,126,-2,-1.4251158613812915,-0.3266813474463828,-0.2513753748980187
1769145978392,126,-2,-1.0662154379256363,-0.1426182369713589,0.098469558352213
1769145978396,127,-1,-0.6648968865274336,0.677821517073194,0.4911012666290784
1769145978400,127,-1,-0.4042421717154414,0.7639730349045364,0.7445772630238876
1769145978404,127,-1,-0.4244357762078531,0.771891976009567,0.718597602686111
1769145978408,127,-1,-0.7220866602863539,0.689796306249433,0.4157446098080888
1769145978412,126,-2,-1.1314268315958396,-0.1945519857889477,0.0010360002760196
1769145978416,126,-2,-1.417294811680664,-0.3009242202258955,-0.2907008356239637
1769145978420,126,-2,-1.4209047025982822,-0.2786662558760171,-0.3007274207451536
1769145978424,126,-2,-1.153099020836677,-0.2041034672480868,-0.0399669808780436
1769145978428,127,-1,-0.7684821762994553,0.6571431089197723,0.3368483852750796
1769145978432,127,-1,-0.4481497289401432,0.8064490999389102,0.6489227111146196
1769145978436,127,-1,-0.2888976249658401,0.6527659828490724,0.8004941331222595
1769145978440,127,-1,-0.2786595344772745,0.7555646399794287,0.8047095528171253
