timestamp_ms,ecg_u8_raw,ecg_counts_raw_int,ecg_counts_filt_monitor,ecg_counts_filt_diagnostic,ecg_counts_filt_st
1770451749720,126,-2,-1.604530780223699,-1.0802112824461303,-0.8910147358845042
1770451749724,126,-2,-1.3744097198181984,-0.6489172679373887,-0.6653611924721503
1770451749728,127,-1,-1.1306759378546478,-0.1264112126705934,-0.4243843705280296
1770451749732,127,-1,-0.9758813015866764,-0.1782398688037583,-0.2716502354795029
1770451749736,127,-1,-0.9401708074474244,-0.0106107713516604,-0.238964997039023
1770451749740,127,-1,-0.957273388408679,0.0680076506261185,-0.260095792495763
1770451749744,126,-2,-0.9296017118269716,-0.7888475754743305,-0.2359523265989936
1770451749748,127,-1,-0.8244218098688063,-0.0557606712417393,-0.1330898506856187
1770451749752,128,0,-0.6973360485405349,0.7762987601842658,-0.0084451917935848
1770451749756,127,-1,-0.6178786273742458,-0.0150884293981146,0.0668597431681181
1770451749760,127,-1,-0.5911324557517714,0.1038428586901204,0.0881297854442347
1770451749764,127,-1,-0.5701068580972315,0.1067345106083911,0.1041935329703148
1770451749768,127,-1,-0.5327981630993,0.0371372543248778,0.1380925662235365
1770451749772,128,0,-0.5193278621076571,0.6509239320686697,0.1490489394117946
1770451749776,127,-1,-0.5815921319191779,0.134623944477945,0.0838477900083414
1770451749780,127,-1,-0.7044554873433748,-0.0918631454167744,-0.0431372955809593
1770451749784,127,-1,-0.7884120026984267,0.304368569657793,-0.1321912926608339
1770451749788,127,-1,-0.7206108136838554,-0.2334915644754486,-0.0694642797519932
1770451749792,127,-1,-0.4754529294070657,-0.0751828031643921,0.1715875028362541
1770451749796,128,0,-0.1487922351648403,0.8817865025755101,0.4948326770742356
1770451749800,128,0,0.1205731607201185,1.1034109542171722,0.7601077330331785
1770451749804,128,0,0.2757626603701262,1.1305803862242398,0.9098781031516224
1770451749808,128,0,0.3853121849842698,0.8427945124982887,1.0137384711703663
1770451749812,128,0,0.5598382567783764,0.8723613482196666,1.1836048768419527
1770451749816,129,1,0.8399569194494396,1.916402212436382,1.459828681306569
1770451749820,129,1,1.1812535953850842,2.069223019320108,1.796770319446519
1770451749824,129,1,1.5402330814533869,2.131617422479769,2.1507204711195076
1770451749828,130,2,1.9498600786050655,2.8012864402858555,2.555660990711024
1770451749832,130,2,2.496381486396426,2.883947864171039,3.098249570244795
1770451749836,131,3,3.2216589613082185,3.913357322636673,3.819096284013182
1770451749840,132,4,4.043498638489597,5.065749370972002,4.634571155442299
1770451749844,132,4,4.758216833229621,5.110949089103109,5.341501855099229
1770451749848,133,5,5.12204817118008,5.766397914408932,5.698356082399106
1770451749852,133,5,4.968408438243275,5.908864596470899,5.540022952379486
1770451749856,132,4,4.306024858246031,4.86156835483739,4.874357262305302
1770451749860,131,3,3.3378104626191236,4.1364496137353735,3.902240188991678
1770451749864,130,2,2.366270798550022,3.0101951085175043,2.9252925532171825
1770451749868,129,1,1.6269516778271995,1.8003317391802387,2.1799141726751703
1770451749872,129,1,1.1646057684177635,1.89606676816049,1.7118093141838049
1770451749876,129,1,0.852293528052965,1.8224482504191688,1.393638971814835
1770451749880,128,0,0.5341748012175217,1.2294461231661384,1.0686385933506235
1770451749884,128,0,0.1540897814344763,0.8453911028934098,0.6809915959253032
1770451749888,127,-1,-0.248970102187425,-0.0588655302446922,0.271247169970879
1770451749892,127,-1,-0.6478615440684216,-0.2947966845801386,-0.1326676957026283
1770451749896,127,-1,-1.0944708457153922,0.0337887216205126,-0.5837083496469093
1770451749900,126,-2,-1.6629293900955244,-0.9841117757133372,-1.1575617527866506
1770451749904,125,-3,-2.3394178624861244,-1.965361487662257,-1.840714353975508
1770451749908,125,-3,-2.9910526851215367,-2.3050737687694394,-2.499526561842522
1770451749912,124,-4,-3.4530200072937194,-3.0843540413051227,-2.9685515545797627
1770451749916,124,-4,-3.6497354798069943,-3.1733009116117445,-3.17186348471015
1770451749920,124,-4,-3.6420904491523687,-2.7480404066355986,-3.1698240653447054
1770451749924,124,-4,-3.566881499991927,-3.2448769187832487,-3.099151065020809
1770451749928,124,-4,-3.520623753501189,-3.07950280986013,-3.058123692270873
1770451749932,125,-3,-3.473205991654554,-2.335981895257048,-3.019501980702348
1770451749936,124,-4,-3.2727922306747033,-2.95223125730112,-2.831799634920559
1770451749940,124,-4,-2.7348272299026815,-2.897851043727363,-2.306153875690798
1770451749944,126,-2,-1.7168732103161952,-1.1855149565587526,-1.2945304669486126
1770451749948,128,0,-0.0648938484495573,0.8669423839970403,0.3582888960215787
1770451749952,131,3,2.5310778127974496,3.62433214071681,2.957675355033558
1770451749956,134,6,6.537508045611698,7.153305097929936,6.963858112718789
1770451749960,139,11,12.238923273272391,11.965312033628727,12.657943300717935
1770451749964,146,18,19.203220826811204,18.944707662338843,19.60797782001416
1770451749968,154,26,26.012124807836457,26.67215063012481,26.3980701613896
1770451749972,159,31,30.634692595966097,31.78020047938973,31.001580057049335
1770451749976,159,31,31.339530141547872,32.019196866894305,31.693051166581125
1770451749980,155,27,27.590094207169827,28.055338813675466,27.940448293875345
1770451749984,148,20,20.35241873499809,20.81171251813849,20.708641181864824
1770451749988,139,11,11.64498943540906,11.730895877856709,12.008914758437491
1770451749992,131,3,3.628590569137665,3.72752582230772,3.993651756392868
1770451749996,125,-3,-2.2407111211982382,-1.8726675834587911,-1.8850382432238104
1770451750000,122,-6,-5.578043015957291,-5.043043355750111,-5.2399537571377754
1770451750004,121,-7,-6.867895560765172,-6.130830004434299,-6.549321443949532
1770451750008,121,-7,-6.939444890068209,-6.3814143444734075,-6.636017249717171
1770451750012,121,-7,-6.4915779073646185,-6.223733796174032,-6.195698325545216
1770451750016,121,-7,-5.904073419216277,-5.8377416703563725,-5.609437163995198
1770451750020,122,-6,-5.311164306690499,-5.170240032234637,-5.016541597542462
1770451750024,123,-5,-4.7504119795915525,-3.955260414810254,-4.460028343991866
1770451750028,124,-4,-4.242371210800872,-3.708765568171917,-3.961932072650432
1770451750032,123,-5,-3.801746275483119,-3.851503298104104,-3.533340282336148
1770451750036,124,-4,-3.4425007249461963,-3.214681810154118,-3.183552941746883
1770451750040,124,-4,-3.1827954705629127,-2.816032044002598,-2.930021836411911
1770451750044,125,-3,-3.017891804444639,-2.297449635049255,-2.7712705808816827
1770451750048,125,-3,-2.886338570895322,-2.5049602813792684,-2.6483718660495064
1770451750052,124,-4,-2.699825139826617,-2.978544655478487,-2.4716616320748233
1770451750056,125,-3,-2.433892731692314,-2.171579449140049,-2.21375930694098
1770451750060,125,-3,-2.1713585830422675,-1.773270912948339,-1.9572271648494863
1770451750064,126,-2,-2.019411796503806,-1.4542280812809243,-1.812023666027416
1770451750068,126,-2,-1.9770232845888849,-1.3463687402149775,-1.779040757731322
1770451750072,125,-3,-1.9142271009060476,-2.187623668592102,-1.726596303355339
1770451750076,125,-3,-1.7085935192866544,-1.961490820275132,-1.5291112558654905
1770451750080,126,-2,-1.3888151021804211,-0.9554826291913052,-1.2150390769182284
1770451750084,127,-1,-1.1073916025246957,-0.3513429220782187,-0.9399890538184158
1770451750088,127,-1,-0.9632761322187152,-0.4444938578775427,-0.8051398291200754
1770451750092,126,-2,-0.8835704154725299,-1.15413351009965,-0.7359284712105764
1770451750096,126,-2,-0.7058421498626793,-0.9854011581752146,-0.5667515927586344
1770451750100,127,-1,-0.3598425092151253,0.0638526472895687,-0.2269317714537558
1770451750104,128,0,0.0634842232902248,0.59320731821468,0.1899935982843594
1770451750108,128,0,0.4209251161268222,0.5900347331727714,0.5387567548970585
1770451750112,128,0,0.666449956880511,0.778407614326357,0.7741910256355964
1770451750116,128,0,0.8817921036889113,1.0502916664812694,0.980468751518651
1770451750120,128,0,1.1751629118888238,1.0460360496161525,1.266940646852113
1770451750124,129,1,1.5679425451669975,1.5529221651418574,1.653592115693002
1770451750128,130,2,1.9847184946728305,2.646108861263947,2.062660055154798
1770451750132,130,2,2.342282349141845,2.6559994773671933,2.410450698875799
1770451750136,129,1,2.6280366500466403,2.1731384747653504,2.6864304244562547
1770451750140,130,2,2.887635460554616,2.9078678629935366,2.9382328950615713
1770451750144,131,3,3.1624198597014104,3.6462760308806024,3.2066465865814178
1770451750148,131,3,3.4625902663164134,3.571829912645519,3.4998667910967223
1770451750152,131,3,3.787564792793604,3.6499160970061704,3.8164883187618255
1770451750156,131,3,4.142788605705562,4.223902820168631,4.162788325403992
1770451750160,132,4,4.530143149022397,4.762280609895138,4.541658198230322
1770451750164,132,4,4.933911764220127,4.843217318033997,4.93762678370923
1770451750168,133,5,5.322612414225775,5.29273122379068,5.318878447900435
1770451750172,133,5,5.665384320583006,5.9504721968758165,5.654090971187858
1770451750176,133,5,5.949742610789018,5.87544442007258,5.930533182518903
1770451750180,133,5,6.185486611549393,6.082458049808093,6.1580982484204725
1770451750184,134,6,6.391530343051444,6.539307238936661,6.3559620679772975
1770451750188,134,6,6.581049954605254,6.515644023664975,6.537572428711897
1770451750192,134,6,6.760459556493177,6.778180381066178,6.709599288276928
1770451750196,134,6,6.939556132494053,6.949441768487372,6.881850823303889
1770451750200,134,6,7.138343302060164,7.048470574248224,7.0737974054440915
1770451750204,135,7,7.378634538581455,7.5069686051303615,7.3064857046885
1770451750208,135,7,7.657959977408778,7.556844782307494,7.577314363823279
1770451750212,135,7,7.91883253374385,7.698788656360224,7.829594506900491
1770451750216,135,7,8.044397159658555,8.008440343809221,7.947329938754514
1770451750220,135,7,7.906751521403259,7.968194917255791,7.802610308564529
1770451750224,135,7,7.448623652140004,7.558131935327743,7.337571944076448
1770451750228,134,6,6.730796343325608,6.498535324691,6.612785536176154
1770451750232,133,5,5.892807834569532,5.713532555417162,5.7681210165483545
1770451750236,132,4,5.052932898268823,4.987698428005452,4.921900727248627
1770451750240,131,3,4.23329210733678,3.9502986790150407,4.095468912791063
1770451750244,131,3,3.371316810147029,3.5725871988875433,3.225399697630727
1770451750248,130,2,2.395470942715551,2.461842025718456,2.240571884382492
1770451750252,128,0,1.287855996575773,0.715321532773231,1.1248487297161474
1770451750256,127,-1,0.0870534748349767,-0.0354872468754661,-0.081921849670445
1770451750260,126,-2,-1.1406240539512358,-1.050410056199398,-1.3142522060753064
1770451750264,125,-3,-2.313929637076617,-2.453527867690862,-2.4929313571809573
1770451750268,124,-4,-3.3381702161475335,-3.496777633198434,-3.5242674250057693
1770451750272,123,-5,-4.131946780890642,-4.3976445706801695,-4.326029695367682
1770451750276,122,-6,-4.6763076065838725,-4.9119724105360705,-4.877871578470164
1770451750280,122,-6,-5.035163432639745,-5.228651813017374,-5.243231882916828
1770451750284,122,-6,-5.311456402413804,-5.2717797864258555,-5.5255733958552575
1770451750288,122,-6,-5.569914423120646,-5.683327845554575,-5.790121583176318
1770451750292,121,-7,-5.797572567717787,-6.282036969890482,-6.0238156039692825
1770451750296,121,-7,-5.937837631867327,-6.005838884754566,-6.169859992151444
1770451750300,121,-7,-5.960738195053233,-6.2231375698165055,-6.19853841985628
1770451750304,121,-7,-5.901765765427599,-6.225437213814817,-6.145805014153771
1770451750308,122,-6,-5.838600487389365,-5.781752049953456,-6.089358281161854
1770451750312,121,-7,-5.83210126947405,-6.2060754296962966,-6.089440975653235
1770451750316,121,-7,-5.8831401669680305,-6.106570990751541,-6.146201250593139
1770451750320,121,-7,-5.936015072318891,-6.179418065042448,-6.203832696941833
1770451750324,121,-7,-5.918133767720216,-6.231046106006075,-6.190394624167867
1770451750328,122,-6,-5.783800479387293,-5.83993282882779,-6.061014111574432
1770451750332,121,-7,-5.537517574988553,-6.12353093761553,-5.820582014613644
1770451750336,122,-6,-5.229132352679232,-5.2883415521499595,-5.518721668383257
1770451750340,122,-6,-4.927239342193689,-4.958899654931269,-5.223263667567909
1770451750344,122,-6,-4.687857011147186,-5.519701148711772,-4.9893235653020085
1770451750348,123,-5,-4.532512089326865,-4.516969642931452,-4.83818302979852
1770451750352,123,-5,-4.4368598313557515,-4.504944241617747,-4.746199738115116
1770451750356,122,-6,-4.333818918186392,-4.948286740645212,-4.647162860073296
1770451750360,123,-5,-4.144966958853939,-4.296810312187562,-4.462921365965115
1770451750364,123,-5,-3.833949597758896,-4.222000511524518,-4.1569478760050735
1770451750368,124,-4,-3.4431528309641863,-3.803365002306342,-3.771453294272275
1770451750372,124,-4,-3.079544705115982,-3.2609586097182306,-3.413218656133327
1770451750376,124,-4,-2.856262542761174,-3.2286365086270217,-3.1949516290709763
1770451750380,124,-4,-2.830765779644739,-3.0465211429960584,-3.173567939040187
1770451750384,124,-4,-2.979331416056886,-3.4639037690820076,-3.3252777948036174
1770451750388,124,-4,-3.2161672128594634,-3.6159401387455192,-3.5650548824939094
1770451750392,124,-4,-3.435785399472316,-3.423283103928952,-3.788347719643584
1770451750396,123,-5,-3.555405393262701,-4.159436838573951,-3.912387650897536
1770451750400,123,-5,-3.544614576497615,-4.094562696298124,-3.905892168509766
1770451750404,124,-4,-3.428017721947334,-3.4476460968764533,-3.792912329979116
1770451750408,124,-4,-3.252875268661765,-3.650476828982901,-3.6210324851883096
1770451750412,124,-4,-3.0471756552415528,-3.402209007287538,-3.41872819156497
1770451750416,124,-4,-2.8113664566213847,-3.2297978323485506,-3.1864453042887053
1770451750420,124,-4,-2.5504778925718616,-3.055134689255515,-2.9289553495013787
1770451750424,125,-3,-2.3050139906989324,-2.475332018467088,-2.6866790407030687
1770451750428,125,-3,-2.1400833907151355,-2.673620186102662,-2.5248100194695366
1770451750432,125,-3,-2.097712036083597,-2.366865139061028,-2.48536762781283
1770451750436,125,-3,-2.15610243465892,-2.3347699292876554,-2.5463188007914854
1770451750440,124,-4,-2.237174787850236,-2.9652916990306295,-2.6293447704125574
1770451750444,125,-3,-2.2621932637830087,-2.5731043515058976,-2.6560159014379923
1770451750448,125,-3,-2.2093557990526342,-2.602465230189172,-2.6054981461715663
1770451750452,125,-3,-2.1248584333663407,-2.4461754598488437,-2.5246280879564966
1770451750456,125,-3,-2.0857900664624323,-2.307758785183495,-2.48969228410424
1770451750460,124,-4,-2.1523201478215084,-3.0112633586643405,-2.559140769380442
1770451750464,125,-3,-2.335467918594869,-2.552214116959964,-2.743216940131991
1770451750468,125,-3,-2.5807727292918523,-2.6263102281694297,-2.9884038320331205
1770451750472,124,-4,-2.7762340597838033,-3.4565774882836235,-3.1841667612193536
1770451750476,124,-4,-2.804973233419836,-3.3263583596438098,-3.2143782820598976
1770451750480,124,-4,-2.626207813300504,-3.0212063584134548,-3.038300687014036
1770451750484,125,-3,-2.3212293079541126,-2.571963722055183,-2.7367690093217387
1770451750488,125,-3,-2.059153580850829,-2.593783021487019,-2.477806370768522
1770451750492,125,-3,-2.0018793082572177,-2.5348907759000374,-2.4220971291480424
1770451750496,125,-3,-2.2073389263696357,-2.2771623638873546,-2.6273368925879574
1770451750500,124,-4,-2.58866083379537,-3.0997648366946273,-3.0076439649605056
1770451750504,124,-4,-2.960971011738472,-3.536741974899892,-3.379509123077021
1770451750508,124,-4,-3.155164693886088,-3.5862203122350595,-3.5747025166172612
1770451750512,124,-4,-3.122002874470331,-3.629951200140897,-3.543926029204727
1770451750516,124,-4,-2.9502213113470246,-3.1499512406146577,-3.374767376681335
1770451750520,124,-4,-2.7901265807634363,-3.3203659755899704,-3.2159141212684657
1770451750524,124,-4,-2.74365944317396,-3.288314274455298,-3.1687175503826372
1770451750528,125,-3,-2.7965349300871827,-2.8764796172860625,-3.220141717344298
1770451750532,124,-4,-2.836461989332541,-3.3470773941108436,-3.259707185754834
1770451750536,124,-4,-2.750407896116968,-3.4828209588177126,-3.1747699783360246
1770451750540,124,-4,-2.533901545402855,-3.001546869883502,-2.959633607498356
1770451750544,125,-3,-2.315367863739581,-2.6442021528628112,-2.741484754708921
1770451750548,125,-3,-2.256099889995876,-2.5104992368284043,-2.681580111513821
1770451750552,125,-3,-2.404058831189066,-2.7526149612539927,-2.8286977729738485
1770451750556,124,-4,-2.637463648999234,-3.110856885413419,-3.061612688801592
1770451750560,124,-4,-2.760392242573575,-3.405398223424709,-3.184150290342173
1770451750564,124,-4,-2.671718802616288,-3.272067772488823,-3.094698258860711
1770451750568,125,-3,-2.4537878818159173,-2.858841534814835,-2.875858948879048
1770451750572,125,-3,-2.294413089932881,-2.464603870880132,-2.716374780831014
1770451750576,125,-3,-2.3123733076408586,-2.3879840467581226,-2.7351751557579003
1770451750580,124,-4,-2.454083507728852,-3.2243731413663257,-2.877154589763943
1770451750584,124,-4,-2.5582330709540058,-3.424365825611732,-2.9793363399172823
1770451750588,125,-3,-2.5098216024765994,-2.7527839637294185,-2.9273060785516565
1770451750592,125,-3,-2.320206751713238,-2.561666640005846,-2.7350566036813326
1770451750596,125,-3,-2.0719639667969787,-2.328890311695563,-2.486817304307078
1770451750600,125,-3,-1.823275297739996,-2.329895721849269,-2.239420715981275
1770451750604,125,-3,-1.587376849515033,-2.337010084355109,-2.0034161455189876
1770451750608,126,-2,-1.3849547495076016,-1.8643187161858363,-1.798681410999814
1770451750612,126,-2,-1.2748752588250811,-1.4563028350934628,-1.6857943537818645
1770451750616,126,-2,-1.311708185043101,-1.4537014788215794,-1.7209827650947171
1770451750620,125,-3,-1.484421922821242,-2.2691261936903993,-1.8927539211597544
1770451750624,125,-3,-1.712456556660845,-2.3920770080274703,-2.119159134517885
1770451750628,126,-2,-1.8962195010555376,-1.8799180862337557,-2.3004797955236316
1770451750632,125,-3,-1.9639993344889128,-2.3834077410576073,-2.365934890209184
1770451750636,125,-3,-1.8898820595567989,-2.614112251092473,-2.2899453128342895
1770451750640,125,-3,-1.6965848173253812,-2.0881288457917124,-2.0948431138859513
1770451750644,126,-2,-1.445630536511458,-1.659326186348483,-1.8421079827553104
1770451750648,126,-2,-1.2090310462277665,-1.6047589477373394,-1.6040490189798544
1770451750652,126,-2,-1.040894389023998,-1.6601013292132771,-1.4345737596114538
1770451750656,126,-2,-0.9704455798206078,-1.3887628641599723,-1.3622481381225129
1770451750660,126,-2,-1.0049232807002684,-1.3136069611505987,-1.3939956177735446
1770451750664,126,-2,-1.1195588158433687,-1.5245215326780557,-1.5053669481782406
1770451750668,126,-2,-1.2422089376009506,-1.7007838798870256,-1.624794349155633
1770451750672,126,-2,-1.262920011006265,-1.6131181778518475,-1.6427178047900222
1770451750676,126,-2,-1.0818804469714294,-1.4272282016173607,-1.459296121563618
1770451750680,126,-2,-0.6734265898494296,-1.3385681006304009,-1.0485585089460878
1770451750684,127,-1,-0.1195733755478474,-0.5284401745053748,-0.4924957742488729
1770451750688,128,0,0.4240813399868306,0.2949612827663938,0.0528791757336328
1770451750692,128,0,0.8169453014207304,0.3702391687627582,0.4469483762499955
1770451750696,128,0,1.011727938130166,0.5835287806576726,0.6434646773243619
1770451750700,128,0,1.067041731736815,0.5810221908384234,0.7022828259588838
1770451750704,128,0,1.1041916527626277,0.5346969388796319,0.7445319605669145
1770451750708,129,1,1.2590289989863206,1.2005891247388465,0.9043693123963976
1770451750712,129,1,1.6493954910065924,1.4859111654711823,1.2982312705096568
1770451750716,129,1,2.332259307577935,1.4216123255947228,1.983219012302655
1770451750720,130,2,3.2442053672440085,2.713065295607332,2.8966468681816213
1770451750724,132,4,4.180282325035779,4.35060674058087,3.833779759576889
1770451750728,132,4,4.860757912681111,4.376244583594616,4.515316218162677
1770451750732,132,4,5.053365857911157,4.317723428826242,4.710298871919975
1770451750736,132,4,4.674664344122439,4.54540845882223,4.336054486686653
1770451750740,131,3,3.8280494278559978,3.551700668128439,3.4948657951834026
1770451750744,130,2,2.768735421345749,2.4447854257354726,2.4401911342163305
1770451750748,129,1,1.7942335238135143,1.3232754607857695,1.4691596788553911
1770451750752,128,0,1.0987254996737703,0.3148806178596843,0.7766954668324897
1770451750756,128,0,0.6853174023756278,0.5849040685134796,0.3660137131566083
1770451750760,128,0,0.4070684833977252,0.3993780264112671,0.0894975441721034
1770451750764,127,-1,0.0952056709698869,-0.3908534577198881,-0.2214053506506625
1770451750768,127,-1,-0.3430809658166587,-0.8776848855520802,-0.6578938535577056
1770451750772,126,-2,-0.9179328808203786,-1.480494108115325,-1.2289335790959135
1770451750776,126,-2,-1.5922818341555691,-1.6516645009102309,-1.898105541943233
1770451750780,125,-3,-2.2933923496115263,-2.417576827145121,-2.594078133009056
1770451750784,124,-4,-2.909289723120616,-3.5939169937942608,-3.2055213420843858
1770451750788,124,-4,-3.317599636425561,-3.6987447524725545,-3.6103413548392
1770451750792,124,-4,-3.4464514844599825,-3.6486370219854662,-3.7373852814425215
1770451750796,124,-4,-3.319946405829608,-3.5407047237400953,-3.610717583268314
1770451750800,124,-4,-3.057547581168858,-3.5370626408579287,-3.347525279633359
1770451750804,124,-4,-2.8277001710845036,-3.541379057462029,-3.1133946768471494
1770451750808,125,-3,-2.760308670302002,-2.737326226437039,-3.038412445041573
1770451750812,125,-3,-2.8477133836409787,-2.6439064601525444,-3.1187681301318007
1770451750816,124,-4,-2.919379803863883,-3.558811444264963,-3.187779453217632
1770451750820,124,-4,-2.7549288132570715,-3.5703374407395434,-3.0253191215462314
1770451750824,125,-3,-2.254890473979422,-2.5376222241465607,-2.5285944396625224
1770451750828,126,-2,-1.4773900932709618,-1.7570456826992462,-1.7513813486360277
1770451750832,127,-1,-0.4483787688886819,-0.6280464979381475,-0.7168091925064874
1770451750836,129,1,1.104500532276976,1.4094485616336767,0.84723517300003
1770451750840,131,3,3.8039611729563223,3.399194218263565,3.5599402583342545
1770451750844,135,7,8.29070421245146,7.462622495150814,8.056540706060733
1770451750848,142,14,14.647899524244185,14.234274538627265,14.41550980185394
1770451750852,149,21,21.97909945615762,21.376466255252804,21.7396302073947
1770451750856,156,28,28.50420700784402,28.40036470855498,28.2534812636778
1770451750860,160,32,32.21828361694584,32.33701752926753,31.960029862901845
1770451750864,159,31,31.784822160935633,31.45975092747241,31.52869117302084
1770451750868,155,27,27.170155623571837,27.20501209442744,26.925684427710856
1770451750872,147,19,19.66604653220851,19.3811249521403,19.43738892531302
1770451750876,138,10,11.294762165362735,10.408060022480594,11.079796732239224
1770451750880,131,3,3.9407461529076713,3.273435111834898,3.733502706863718
1770451750884,126,-2,-1.3040295852730417,-1.458609816245315,-1.5106967860709308
1770451750888,124,-4,-4.270576095989138,-3.940030217970911,-4.482724191765726
1770451750892,122,-6,-5.393821514053661,-5.394807505607008,-5.61361427080954
1770451750896,122,-6,-5.295069872120522,-5.920110051580692,-5.518831034797845
1770451750900,122,-6,-4.551770174466666,-5.378694530591519,-4.77204164102419
1770451750904,124,-4,-3.6517883013465826,-3.924220917512714,-3.862983859296255
1770451750908,125,-3,-2.9601831996374384,-2.4491099777938885,-3.1624683205097996
1770451750912,125,-3,-2.6328301640213616,-2.887815997189502,-2.8302869045446175
1770451750916,124,-4,-2.5862781931941203,-3.480197657581784,-2.78230178612974
1770451750920,125,-3,-2.612790388274316,-2.821832289255445,-2.8082355538060253
1770451750924,125,-3,-2.5594393028325113,-2.6180298103239212,-2.7539412124594467
1770451750928,125,-3,-2.4201877704190315,-2.6566411453656604,-2.6130512119064364
1770451750932,125,-3,-2.290183913582419,-2.759063894841242,-2.480032126700171
1770451750936,125,-3,-2.2470165198318295,-2.5487989931967063,-2.4325408136669826
1770451750940,126,-2,-2.2541886965726525,-1.9030189064311984,-2.4358974550455663
1770451750944,125,-3,-2.164258824853164,-2.5197296576891657,-2.344276443127158
1770451750948,125,-3,-1.8442522006803104,-2.8108298978595068,-2.023876823559852
1770451750952,126,-2,-1.3324997242485126,-1.5409194623520988,-1.510906996731879
1770451750956,127,-1,-0.8600010098657838,-0.8270369237430834,-1.0357374872247962
1770451750960,127,-1,-0.6715007070813357,-0.6819514454623443,-0.8442853484135793
1770451750964,127,-1,-0.7959443249005398,-0.7779345138441249,-0.9663014772398612
1770451750968,126,-2,-0.9965736306161084,-1.5847755586532588,-1.1643340743379036
1770451750972,126,-2,-0.9652615217385916,-1.7290659060900322,-1.1295668969297956
1770451750976,127,-1,-0.5828784766474497,-0.6906347913568499,-0.7439180542353668
1770451750980,128,0,-0.0053206785339972,0.146971457612369,-0.1651087722371024
1770451750984,128,0,0.4850513243864662,0.3344350031976703,0.3245585662144724
1770451750988,128,0,0.7021786049630689,0.3143226224145494,0.5414783258119928
1770451750992,128,0,0.6593749327525802,0.3394992446385467,0.5011094620909612
1770451750996,128,0,0.5071156146334785,0.2422043857764099,0.3532884136556086
1770451751000,128,0,0.4028605857388365,0.1246188270754526,0.2529000543543167
1770451751004,128,0,0.4250027898817201,0.359404880430301,0.2767514538628715
1770451751008,128,0,0.5683538380392479,0.2581839418985282,0.4204907274332849
1770451751012,128,0,0.7912894760328493,0.3969601783444314,0.644301427705421
1770451751016,129,1,1.0674800690247603,1.1642698828890838,0.9224465430146996
1770451751020,129,1,1.4071153389358109,1.1190105166449695,1.2642271109353092
1770451751024,129,1,1.8322902167983013,1.3724188151023389,1.6908413646567355
1770451751028,130,2,2.32533693409795,2.196698037240035,2.184757622273361
1770451751032,130,2,2.8029848877950214,2.4864147139066395,2.6634838543048445
1770451751036,131,3,3.1571854943663693,3.0141374515414463,3.019413353264682
1770451751040,131,3,3.341110268789469,3.2376856028866654,3.2053948952092233
1770451751044,131,3,3.426073107344908,3.2070241450503683,3.2921704936985967
1770451751048,131,3,3.567161923611505,3.354205551611772,3.434798671400484
1770451751052,131,3,3.890218187521996,3.330632180527727,3.7595311438611834
1770451751056,132,4,4.3912583927944775,4.121347796102091,4.262251561724254
1770451751060,133,5,4.941616198796223,5.104966018593165,4.81341263190966
1770451751064,133,5,5.396061669113866,5.288354680134295,5.267500701592624
1770451751068,133,5,5.698567603092591,5.2673272582775335,5.569755745559593
1770451751072,133,5,5.892140798121519,5.415807254995523,5.764712787736974
1770451751076,134,6,6.0520907981623395,5.97067961438947,5.9275276784140445
1770451751080,134,6,6.232202972507719,6.254596007609082,6.110352749766329
1770451751084,134,6,6.464888317922637,6.065014050967538,6.344418924233008
1770451751088,134,6,6.778016559576422,6.521917865521321,6.65779759888691
1770451751092,135,7,7.186102998887376,7.1134926496302535,7.0657945007664775
1770451751096,135,7,7.662030098594504,7.254012376482639,7.541813341794046
1770451751100,136,8,8.123639273148234,7.921509315998347,8.003933776723196
1770451751104,136,8,8.457476344835154,8.376333038579904,8.338840049887844
1770451751108,136,8,8.57176497780847,8.194141234120744,8.454656688683645
1770451751112,136,8,8.444192029795824,8.419099019825207,8.328601199422057
1770451751116,136,8,8.126485784276872,7.928642847901049,8.011856050640798
1770451751120,135,7,7.6958959057284035,7.164673847974446,7.581561025161786
1770451751124,135,7,7.187498930978093,7.17298831635808,7.0732589028966135
1770451751128,134,6,6.563705408924343,6.301493272072383,6.449957719450967
1770451751132,133,5,5.751073291444582,5.389592936731103,5.638281384377899
1770451751136,133,5,4.717624669987113,4.823133616641769,4.605644602194667
1770451751140,131,3,3.5246275664045337,3.3240809016549857,3.4128562628921175
1770451751144,130,2,2.2999404714451,1.8885262361563095,2.1882858313036637
1770451751148,128,0,1.1477942596678514,0.6721936538273543,1.036990499816035
1770451751152,128,0,0.0812160524124081,-0.0901711964327939,-0.0282647628709978
1770451751156,127,-1,-0.9496779680254464,-0.6523474715581821,-1.0584984827336794
1770451751160,126,-2,-1.9671127650341145,-2.2942192537188344,-2.076168302081354
1770451751164,124,-4,-2.922063344967129,-3.504284295788377,-3.031146885762358
1770451751168,124,-4,-3.7465411541041913,-3.93090154367402,-3.854807127037142
1770451751172,123,-5,-4.431991088324985,-4.566080250243282,-4.53953142240182
1770451751176,123,-5,-5.042456318269457,-5.112146147587575,-5.150400010581392
1770451751180,122,-6,-5.656933587213143,-5.985887822082274,-5.765810469192206
1770451751184,121,-7,-6.302770981481228,-6.7181454398972535,-6.411578017698625
1770451751188,121,-7,-6.927304612365061,-6.873503498857017,-7.034550981671283
1770451751192,120,-8,-7.415707491534554,-7.51102859233655,-7.52092441867812
1770451751196,120,-8,-7.648217160424423,-8.30741933370774,-7.752303568367538
1770451751200,120,-8,-7.574359684920672,-7.737485115092405,-7.678893592710293
1770451751204,121,-7,-7.257501294229637,-7.0520328701436865,-7.363663310554394
1770451751208,120,-8,-6.854234070216146,-7.550931945186451,-6.961869428559656
1770451751212,121,-7,-6.539112233256701,-6.826459977650853,-6.646869305474277
1770451751216,122,-6,-6.415224092707758,-6.0644472779388545,-6.521876814340833
1770451751220,121,-7,-6.458752684633078,-6.970719146236217,-6.5641422880716895
1770451751224,121,-7,-6.540710100994767,-6.9020733698997345,-6.645339818089317
1770451751228,121,-7,-6.522663995427937,-6.673628739020259,-6.6269523864274875
1770451751232,121,-7,-6.354046531421207,-6.76664699046791,-6.458266184648609
1770451751236,122,-6,-6.0909102787544,-6.107772625528441,-6.195462345813844
1770451751240,122,-6,-5.829509103751917,-5.992404047766464,-5.934820997903685
1770451751244,122,-6,-5.6236386121493345,-5.9004546814338275,-5.7297169070706975
1770451751248,122,-6,-5.458358645003063,-5.707658966755813,-5.56463196491451
1770451751252,122,-6,-5.288857096096189,-5.744095975234588,-5.394663181750755
1770451751256,123,-5,-5.0902076440848205,-5.173173517690371,-5.195395217336029
1770451751260,123,-5,-4.8652599770219656,-4.922631942829398,-4.970108518601208
1770451751264,123,-5,-4.614659033909625,-5.057866279173354,-4.719296725315888
1770451751268,123,-5,-4.3144588190751705,-4.516034155415876,-4.418764324378909
1770451751272,124,-4,-3.931315751265577,-4.013057476877346,-4.035462079956189
1770451751276,124,-4,-3.4646313050997777,-3.885866643052583,-3.5692994431153537
1770451751280,125,-3,-2.98199763748385,-3.2645550134483923,-3.0878012474341503
1770451751284,125,-3,-2.613918019082038,-2.74360715901058,-2.72078850256919
1770451751288,125,-3,-2.494016211841886,-2.850556152626302,-2.6012817927789125
1770451751292,125,-3,-2.6718594641056956,-2.723652796247321,-2.778779843017299
1770451751296,125,-3,-3.0601345702112934,-3.1614539161139694,-3.166213304508265
1770451751300,124,-4,-3.4666018876536433,-4.073918863870507,-3.571591326096534
1770451751304,124,-4,-3.698935446796857,-3.906980990926475,-3.80300355401689
1770451751308,124,-4,-3.667982563579829,-3.772301643230103,-3.771980002790479
1770451751312,124,-4,-3.417567322119589,-3.769239587544603,-3.5227104229835997
1770451751316,125,-3,-3.075106766480976,-3.174568437456719,-3.1820535803997125
1770451751320,125,-3,-2.7743897878159425,-3.0695215390892643,-2.8826713788478253
1770451751324,125,-3,-2.601075009437844,-2.971842459491212,-2.7095548924677098
1770451751328,125,-3,-2.5750692501398587,-2.715260812812005,-2.68290732189996
1770451751332,125,-3,-2.6578867033532942,-2.8645451381017564,-2.7649391328525
1770451751336,125,-3,-2.7735728268517894,-3.0820263062343405,-2.879995670227253
1770451751340,125,-3,-2.8386361302961314,-3.208301120915695,-2.944542392345596
1770451751344,125,-3,-2.792059027997939,-2.8687965794387416,-2.8977677874950736
1770451751348,125,-3,-2.61433246731561,-2.834831206481607,-2.720606339914328
1770451751352,125,-3,-2.3348837339136974,-2.784043198266971,-2.442531173857589
1770451751356,126,-2,-2.0303610050369794,-2.150145095182339,-2.1395879095561754
1770451751360,126,-2,-1.8043713401776649,-2.2134759694546693,-1.9145626564895848
1770451751364,126,-2,-1.7405246580477094,-1.8738231894643176,-1.850519863259887
1770451751368,126,-2,-1.8485703120479269,-1.8699516901605415,-1.9572007268711855
1770451751372,125,-3,-2.045612490371425,-2.770366073591009,-2.1524710305979644
1770451751376,126,-2,-2.196363644789601,-2.1705871984502454,-2.3024490540054297
1770451751380,126,-2,-2.193092391449982,-2.245177608035558,-2.3003575571023216
1770451751384,125,-3,-2.0290840672214925,-2.8694651912268836,-2.1387957836407314
1770451751388,126,-2,-1.817919558479264,-1.896868550031663,-1.9295002623946984
1770451751392,126,-2,-1.728978713434576,-1.7697098717545008,-1.840646251209643
1770451751396,126,-2,-1.8639195489847324,-2.1857325474430582,-1.9742694829848872
1770451751400,126,-2,-2.1654075442762455,-2.279663003246037,-2.2743356870333833
1770451751404,125,-3,-2.445565488672248,-2.851584709043258,-2.5540292663720803
1770451751408,125,-3,-2.5255027611330982,-2.9792774015317725,-2.634644373928528
1770451751412,125,-3,-2.375895636511129,-2.6504989400573487,-2.486304309902742
1770451751416,126,-2,-2.1389419427528376,-2.378500265094354,-2.2505221969703784
1770451751420,126,-2,-2.008104539149332,-2.076963053871283,-2.1203638997423244
1770451751424,126,-2,-2.065881226499666,-2.116597948393744,-2.178147775869647
1770451751428,125,-3,-2.2208732320767455,-2.754771350701782,-2.332460250672003
1770451751432,125,-3,-2.29740274060493,-2.8605364679652103,-2.408117805903575
1770451751436,126,-2,-2.191083269804731,-2.237464259754512,-2.3017189975738166
1770451751440,126,-2,-1.9504100618964093,-2.187893112225896,-2.0622288618931677
1770451751444,126,-2,-1.7251441049085434,-2.100045581932239,-1.8385729417518937
1770451751448,126,-2,-1.6408013879374392,-1.7526153207190291,-1.7549326162850407
1770451751452,126,-2,-1.704727242991591,-1.9273835017694936,-1.8182837337146676
1770451751456,126,-2,-1.8114167596471664,-2.1709936447337244,-1.923983652645186
1770451751460,126,-2,-1.838423631449596,-2.2818069583100575,-1.9507088222987656
1770451751464,126,-2,-1.7550964143776084,-2.061248023320911,-1.8682503260827836
1770451751468,126,-2,-1.653169913595349,-1.7850981829224677,-1.767867303024497
1770451751472,126,-2,-1.6719376687869183,-1.9647779592472945,-1.7878686619936204
1770451751476,126,-2,-1.879973774682389,-2.1056409416363633,-1.9961234135822408
1770451751480,126,-2,-2.209852738470146,-2.42572654919518,-2.325346616292725
1770451751484,125,-3,-2.4972740651531984,-2.9151859684964827,-2.612016936813492
1770451751488,125,-3,-2.5938954739494853,-2.991474967760002,-2.7085094394293066
1770451751492,125,-3,-2.4664616261560983,-2.756482954601332,-2.581754833146427
1770451751496,126,-2,-2.2067362931124843,-2.3449796071685864,-2.32318780785403
1770451751500,126,-2,-1.9508750807812365,-2.2130851147785964,-2.068455921198141
1770451751504,126,-2,-1.7797020191021722,-2.16212924905296,-1.898078562108529
1770451751508,126,-2,-1.6791490579033015,-1.7925507220224066,-1.7979195628483964
1770451751512,126,-2,-1.5839737730517698,-1.9570401292401725,-1.702655008672143
1770451751516,126,-2,-1.458371844432952,-2.187095250504149,-1.5765899990921364
1770451751520,127,-1,-1.3345967377703252,-1.375131927858022,-1.452747821338656
1770451751524,127,-1,-1.269449959425408,-1.0566561865179624,-1.388718966616889
1770451751528,126,-2,-1.26902869838942,-1.9177711190460776,-1.390044973613131
1770451751532,126,-2,-1.2722502232305366,-1.8665209464796877,-1.3940876634893296
1770451751536,127,-1,-1.2092079658345574,-1.2834929502960204,-1.330469787643724
1770451751540,127,-1,-1.0591378513751382,-1.334613818121932,-1.1797507536992762
1770451751544,127,-1,-0.848814669709294,-1.0917578131633348,-0.9700552763462186
1770451751548,127,-1,-0.614833139523292,-0.9509190414365012,-0.7377485130257094
1770451751552,127,-1,-0.3816016715961685,-0.8316195719597492,-0.5060057489551077
1770451751556,128,0,-0.1654036337077058,-0.3606059385954204,-0.2904227519112331
1770451751560,128,0,0.0208231192616563,-0.2855782652786644,-0.1042889073679158
1770451751564,128,0,0.1771579344626959,-0.1506980965254245,0.0518014344442028
1770451751568,128,0,0.3293710596272352,0.0411561878528674,0.2033412044844256
1770451751572,128,0,0.5273602212798596,0.1965370298019664,0.4004021110212687
1770451751576,129,1,0.8267226285380702,0.5247393492398631,0.698893807845014
1770451751580,129,1,1.2653011608060236,0.8686692628756303,1.1368411266388805
1770451751584,130,2,1.8492399221283016,1.6061589879976,1.720350548063232
1770451751588,130,2,2.5535772464904625,2.3017971461494673,2.4242697884439917
1770451751592,131,3,3.329200198194937,2.876855956049626,3.1992194034831334
1770451751596,132,4,4.105879423842762,3.822947490234375,3.974691500234087
1770451751600,133,5,4.792172320324504,4.5604212709314975,4.659216834090433
1770451751604,133,5,5.281425641630282,4.85294163498477,5.1466522539436355
1770451751608,133,5,5.471751462699465,5.06108536800095,5.335823120606559
1770451751612,133,5,5.30240804840235,5.0554328579034005,5.166118067811
1770451751616,133,5,4.794741275470155,4.631292260987626,4.6583192132073306
1770451751620,132,4,4.063953346486658,3.7299673090848096,3.9271278920032153
1770451751624,131,3,3.2726516109743793,2.6386316105693135,3.135096310812541
1770451751628,130,2,2.5473345380528176,2.2645664502567544,2.4086594574910287
1770451751632,130,2,1.9226691636478197,1.811085222780065,1.78226928278256
1770451751636,129,1,1.3545336616322368,0.8474142209276211,1.2120439133663294
1770451751640,129,1,0.7786373404694927,0.5121880682213127,0.6344808937094966
1770451751644,128,0,0.1636602351973046,-0.2105571012268356,0.0186271485005029
1770451751648,127,-1,-0.4693903960679624,-0.8825499219989871,-0.6151488334399815
1770451751652,127,-1,-1.0623045019488848,-1.106641559545113,-1.2093765528062794
1770451751656,126,-2,-1.5587529548240395,-2.2256618038844795,-1.707428824483754
1770451751660,126,-2,-1.9442182936605272,-2.4675834613511665,-2.0939199620683837
1770451751664,126,-2,-2.251252253706044,-2.236273579100633,-2.4014568817503883
1770451751668,125,-3,-2.517354417239451,-2.913324839071852,-2.668736630391566
1770451751672,125,-3,-2.737578249961925,-3.0905044870763527,-2.8916178804293895
1770451751676,125,-3,-2.870414268263314,-3.262953367291652,-3.0277239219523446
1770451751680,125,-3,-2.8966382942991262,-3.4781454101427927,-3.055915413506331
1770451751684,125,-3,-2.8623415768267577,-3.2242219358400868,-3.021289674146574
1770451751688,125,-3,-2.845070792515002,-2.9967509836576376,-3.0026300202255527
1770451751692,125,-3,-2.8662849424482992,-2.989774173192465,-3.0240893765383388
1770451751696,125,-3,-2.843546651614483,-3.4331515331562694,-3.0051945946611487
1770451751700,125,-3,-2.640836312509596,-3.295394074397687,-2.8094798854832264
1770451751704,126,-2,-2.158337856803567,-2.484414995282857,-2.334150936447525
1770451751708,126,-2,-1.3395641018928166,-1.7189620185728287,-1.5186113864739874
1770451751712,128,0,-0.0534315156938873,-0.3297198469677354,-0.2292133470756354
1770451751716,130,2,2.038086536187069,1.918583027405777,1.8704411374844248
1770451751720,134,6,5.43881936920925,5.294318820465243,5.278427516937957
1770451751724,138,10,10.502195587679724,9.90064055740172,10.342058958075594
1770451751728,144,16,16.96125871568527,15.88609940759084,16.792329453355336
1770451751732,151,23,23.640782424825662,23.010239476289897,23.457246774813505
1770451751736,157,29,28.68454295267903,28.609243015788827,28.486801865429932
1770451751740,159,31,30.31928448787513,30.483830299397784,30.1136396904728
1770451751744,156,28,27.75243805101344,27.73901717800109,27.548199117975447
1770451751748,149,21,21.629150737181774,20.917099267026423,21.434159766194306
1770451751752,141,13,13.7376536146339,13.016374291990225,13.554007951854055
1770451751756,134,6,6.151576534083883,5.547113092021859,5.974266220437258
1770451751760,128,0,0.3424807490234878,-0.4273542042934757,0.1623113021412441
1770451751764,125,-3,-3.2462754200549595,-3.3727498607055075,-3.4373591845442135
1770451751768,123,-5,-5.023645018274077,-4.98949128304974,-5.228381205353121
1770451751772,122,-6,-5.719026455631294,-6.125523390009885,-5.93402718897667
1770451751776,122,-6,-5.902839945928146,-6.325379978994831,-6.121109118045033
1770451751780,122,-6,-5.8244569718001555,-6.608987694433913,-6.039665048363626
1770451751784,122,-6,-5.536953637378453,-6.200795852725925,-5.74712364347104
1770451751788,123,-5,-5.086217704761812,-5.208159003355955,-5.294561906266542
1770451751792,123,-5,-4.582300516433835,-4.925114516639256,-4.79449505650188
1770451751796,124,-4,-4.1479163482949115,-4.563069261046179,-4.367738586323266
1770451751800,124,-4,-3.854338151410864,-4.394461216339426,-4.081139551760665
1770451751804,124,-4,-3.717471262952304,-4.450722505270509,-3.9474685331322794
1770451751808,124,-4,-3.725259436987988,-3.999384599489714,-3.9551920895339543
1770451751812,124,-4,-3.837738249206048,-4.122843043928123,-4.067441586449376
1770451751816,124,-4,-3.9639685128239495,-4.454175686013355,-4.195820820754028
1770451751820,124,-4,-3.975771276903706,-4.445610498717381,-4.212142919684171
1770451751824,124,-4,-3.783673328385123,-4.535306492281418,-4.02506314486718
1770451751828,124,-4,-3.415574616417616,-3.8495904963821457,-3.660853914313377
1770451751832,125,-3,-3.0113321475768897,-3.3624259956959204,-3.2592907281813734
1770451751836,125,-3,-2.7185020544339524,-3.204333431619062,-2.968956009419456
1770451751840,126,-2,-2.574522989517487,-2.7271800384140117,-2.828061341433147
1770451751844,125,-3,-2.483596410609313,-3.320900538862096,-2.7405614076726224
1770451751848,125,-3,-2.3118923111400056,-3.061215838565591,-2.5719302151407932
1770451751852,126,-2,-2.011061599695933,-2.197226833513616,-2.273748140655295
1770451751856,126,-2,-1.6536149495154655,-2.37438868078627,-1.919270888987482
1770451751860,127,-1,-1.3538417033744146,-1.5889523598864954,-1.6234701263649822
1770451751864,127,-1,-1.159164716458151,-1.5003721290855525,-1.4334792931399212
1770451751868,126,-2,-1.0180738381670236,-1.925997152471366,-1.29659964795836
1770451751872,127,-1,-0.847933029946319,-1.337185090858548,-1.1292912111117834
1770451751876,127,-1,-0.6236903750444682,-1.2769360688843665,-0.9070395893709632
1770451751880,128,0,-0.3918945935709643,-0.682434726441587,-0.6779848661070154
1770451751884,128,0,-0.2026416880860979,-0.4783372102454368,-0.4931031493509574
1770451751888,127,-1,-0.0447317676287996,-0.9470290984543656,-0.3403166096479555
1770451751892,128,0,0.1416942881585514,-0.3915696351142702,-0.1581781911103652
1770451751896,128,0,0.3973933629940296,-0.1814793010397662,0.0945313634493071
1770451751900,129,1,0.7052369549466085,0.1311400463310585,0.3996605337792145
1770451751904,129,1,1.0225458481052625,0.7390194401471862,0.7134188229653775
1770451751908,129,1,1.3406896728173343,0.7491864807793749,1.0272799674980246
1770451751912,129,1,1.6999935381398232,0.9030151905926732,1.3825055315418076
1770451751916,130,2,2.1440762485013787,1.5127738140919391,1.8230512677349424
1770451751920,131,3,2.6665343386903815,2.375651342751764,2.341840893900049
1770451751924,131,3,3.2037118611905413,2.523589926874442,2.8746671223142837
1770451751928,131,3,3.6725639084104302,2.8567443300707507,3.3389188920514097
1770451751932,132,4,4.017179458192545,3.8360868428228017,3.67950874507893
1770451751936,132,4,4.234641365348548,3.486627228787891,3.893675904121848
1770451751940,132,4,4.370052542592429,3.4368277002830903,4.025770181137888
1770451751944,133,5,4.487930952094391,4.389217914583418,4.139468076646975
1770451751948,132,4,4.638019781993268,3.9896603802944135,4.2847183719374735
1770451751952,132,4,4.831648591352543,3.639357698466979,4.473959385359776
1770451751956,133,5,5.045243787587623,4.691418086043326,4.684022746901102
1770451751960,134,6,5.26091887610024,5.182655408761423,4.896182487900253
1770451751964,133,5,5.509023357529539,4.628299561280799,5.140236128498692
1770451751968,133,5,5.849310341089101,4.72106770652929,5.476406955146309
1770451751972,134,6,6.295061845004154,5.847700959837285,5.918094233613685
1770451751976,135,7,6.7690650345310655,6.493816613792566,6.38732071559563
1770451751980,135,7,7.146664280917208,6.32369427355335,6.759387838092919
1770451751984,135,7,7.338676966961534,6.496148887899716,6.946454068890135
1770451751988,135,7,7.342622537039263,6.788829629612223,6.946994001160342
1770451751992,135,7,7.243705771268642,6.7420897998628355,6.845501322537535
1770451751996,135,7,7.175009932474788,6.593620560663872,6.773831306859706
1770451752000,135,7,7.242818324794706,6.184517639527931,6.837859534081856
1770451752004,135,7,7.448967714117091,6.639861969120728,7.039385100392303
1770451752008,136,8,7.672705037991767,7.5720269089508285,7.257427652851685
1770451752012,135,7,7.734358730965844,6.946877521829238,7.3127761828165
1770451752016,135,7,7.485169605540509,6.347237486722714,7.058224504651545
1770451752020,135,7,6.8600516082061125,6.428887228910792,6.429729984486311
1770451752024,134,6,5.889046908621611,5.353465721595633,5.4564914415825445
1770451752028,132,4,4.68649010041916,3.813381816746202,4.251087629544718
1770451752032,131,3,3.4128617251033937,2.695967375053784,2.9731659505527652
1770451752036,130,2,2.2082665637507515,1.536886393171056,1.7633766030146103
1770451752040,129,1,1.1336205302358873,0.2749764073758304,0.6836411353796366
1770451752044,128,0,0.1649058081169916,-0.5840233973770129,-0.2896233899980328
1770451752048,127,-1,-0.7524980819802218,-1.2195221377464258,-1.211339819969658
1770451752052,126,-2,-1.634475003787037,-2.3744618607217163,-2.0976889359763304
1770451752056,125,-3,-2.4365709876818302,-3.3506726358854912,-2.9039653035302053
1770451752060,125,-3,-3.0985426874786826,-3.916273115699803,-3.569670064174456
1770451752064,124,-4,-3.604580096707669,-4.374998493180251,-4.079453010343595
1770451752068,124,-4,-3.995384637430048,-4.500957505998826,-4.474697578899324
1770451752072,123,-5,-4.327945714979208,-5.095799193220308,-4.812206181347325
1770451752076,123,-5,-4.634089726573271,-5.678214122726434,-5.122915584441786
1770451752080,123,-5,-4.914016831085538,-5.592825814027649,-5.406776890403717
1770451752084,123,-5,-5.152160557505951,-5.747402203166903,-5.64894232833492
1770451752088,122,-6,-5.332137583245162,-6.146663881535517,-5.833415643924804
1770451752092,122,-6,-5.448997383357687,-6.490056701966736,-5.95461129604104
1770451752096,122,-6,-5.515943216208475,-6.305115271844247,-6.025224499780365
1770451752100,123,-5,-5.5495468849064045,-5.993543147894495,-6.062417524094384
1770451752104,122,-6,-5.5414914574147,-6.378002809494558,-6.058672050667605
1770451752108,122,-6,-5.458487845714211,-6.539871747684804,-5.980528478485395
1770451752112,122,-6,-5.284947331694465,-6.140787854005146,-5.811659612436316
1770451752116,123,-5,-5.060150864490774,-5.669365088069067,-5.591047698757011
1770451752120,123,-5,-4.858793362775465,-5.667984580187317,-5.393550682165497
1770451752124,123,-5,-4.729583076152941,-5.7121735624513885,-5.268033426677184
1770451752128,123,-5,-4.652268879619814,-5.25905018899744,-5.1944004557398715
1770451752132,123,-5,-4.552761022745069,-5.4334524334540015,-5.098804200094619
1770451752136,123,-5,-4.365354944879668,-5.440376587911737,-4.915639717489878
1770451752140,124,-4,-4.092641047768331,-4.8649177163662864,-4.647369883906373
1770451752144,124,-4,-3.8100566479249265,-4.609273609438442,-4.369236872043867
1770451752148,124,-4,-3.605766960699856,-4.313695259556237,-4.1691762687880765
1770451752152,124,-4,-3.506822187546764,-4.5006914080851015,-4.074020567979508
1770451752156,124,-4,-3.456174664245361,-4.326186319420626,-4.026769070322791
1770451752160,125,-3,-3.3581536243342667,-4.061303370406455,-3.932105232894141
1770451752164,124,-4,-3.1535879166475933,-4.400568881703904,-3.731188990291983
1770451752168,125,-3,-2.8660982803707973,-3.563265250984234,-3.4477430161720046
1770451752172,125,-3,-2.584897789343986,-3.297961115604289,-3.1709272105520374
1770451752176,125,-3,-2.3999236933176116,-3.529671325958016,-2.990480208411483
1770451752180,126,-2,-2.344325252422173,-2.9300296409737845,-2.939147168269133
1770451752184,125,-3,-2.389230983971629,-3.489181258157645,-2.9876341087899494
1770451752188,125,-3,-2.484993517315472,-3.595637607702107,-3.0863151062992475
1770451752192,125,-3,-2.6017176567084697,-3.196922061992262,-3.2059857900216966
1770451752196,125,-3,-2.730256658332916,-3.760604866335509,-3.3382752777595446
1770451752200,125,-3,-2.8543358221501904,-3.639659675500541,-3.466803998804225
1770451752204,125,-3,-2.9381531269867383,-3.852360071823195,-3.5547531079631227
1770451752208,124,-4,-2.949807167881934,-4.258814287238968,-3.569555436996653
1770451752212,125,-3,-2.8907607932427144,-3.5439911317295225,-3.513351577910538
1770451752216,125,-3,-2.793319682918542,-3.4820234679466338,-3.419612809241055
1770451752220,125,-3,-2.693460324245451,-3.892051375544718,-3.324290882170212
1770451752224,125,-3,-2.6167976398338846,-3.6716863352098295,-3.2517894828658194
1770451752228,125,-3,-2.5843522234956184,-3.43670774013289,-3.222438850984048
1770451752232,125,-3,-2.608431165304664,-3.438701038671657,-3.249186596412073
1770451752236,125,-3,-2.6715653142716747,-3.5778710983763737,-3.31543495350331
1770451752240,125,-3,-2.7222134369637723,-3.8370199718520186,-3.369638316554433
1770451752244,125,-3,-2.707829424374528,-3.75321987620146,-3.358725463956078
1770451752248,125,-3,-2.616984426637316,-3.3779014736324986,-3.2711014872100277
1770451752252,125,-3,-2.4889993199003135,-3.5604331715177375,-3.146389938232353
1770451752256,125,-3,-2.3848644477768453,-3.4387524692669005,-3.045879236075431
1770451752260,126,-2,-2.347737626065933,-3.033527575473574,-3.0126635789038048
1770451752264,125,-3,-2.3836315160745207,-3.5626525775470843,-3.052292659385558
1770451752268,125,-3,-2.471160557099675,-3.624334043795023,-3.142875504718346
1770451752272,125,-3,-2.582137439086521,-3.3371689083636538,-3.2562129915121556
1770451752276,125,-3,-2.6882271785176393,-3.6818237069302215,-3.364516256917055
1770451752280,125,-3,-2.7541328371551472,-3.821002446868045,-3.4331414977246424
1770451752284,125,-3,-2.7401500327848876,-3.784391518953236,-3.4227433527920472
1770451752288,125,-3,-2.6244611534886295,-3.4782053846182768,-3.311271193444176
1770451752292,125,-3,-2.430119608202995,-3.4693481290816743,-3.1208369435703025
1770451752296,125,-3,-2.231508157699376,-3.617605502471705,-2.9249535465481316
1770451752300,126,-2,-2.120146231402648,-2.8591809948488076,-2.815569205797346
1770451752304,126,-2,-2.1379309254976326,-2.8186649208376324,-2.835983565455677
1770451752308,125,-3,-2.2339389085851185,-3.4568090274639984,-2.935687695229983
1770451752312,125,-3,-2.3039561160994397,-3.5393760708071977,-3.0092103262597685
1770451752316,125,-3,-2.28745545488687,-3.5562338882673235,-2.995009728448957
1770451752320,126,-2,-2.216974116395285,-2.9549406107181904,-2.926462985692304
1770451752324,126,-2,-2.162004595227483,-2.731845489272851,-2.8744606020159225
1770451752328,125,-3,-2.1385440130662174,-3.5997811806610116,-2.8548172522246733
1770451752332,125,-3,-2.094459505743456,-3.420634606135394,-2.8140577402475366
1770451752336,126,-2,-1.9784496300800472,-2.703060083716545,-2.7004529601937395
1770451752340,126,-2,-1.8026085255202513,-2.8389561120143507,-2.526903288799766
1770451752344,126,-2,-1.6353778144013469,-2.8465894555190205,-2.3624182777118294
1770451752348,126,-2,-1.5459084957447804,-2.5440846482070296,-2.275927918323278
1770451752352,126,-2,-1.553008742361072,-2.5007297657972436,-2.285996756388694
1770451752356,126,-2,-1.6136406293315055,-2.6666194282748665,-2.349584079808091
1770451752360,126,-2,-1.6589829755958547,-2.8785886968568146,-2.397647450674916
1770451752364,126,-2,-1.6522823039769807,-2.838425718535421,-2.3931299494228
1770451752368,126,-2,-1.615992694492044,-2.5776375577514616,-2.358799214648333
1770451752372,126,-2,-1.5985444386658425,-2.5174549739234404,-2.3439123275647793
1770451752376,126,-2,-1.616227428074038,-2.672904259907061,-2.365038393188156
1770451752380,126,-2,-1.6372581721251134,-2.887396552852684,-2.389627518952722
1770451752384,126,-2,-1.626200000347381,-2.860750230826632,-2.38133090228107
1770451752388,126,-2,-1.5929529120000696,-2.581932400730243,-2.35008030295652
1770451752392,126,-2,-1.5841967285350556,-2.5581946156536732,-2.3433270046644377
1770451752396,126,-2,-1.6254892059647863,-2.6599503467508283,-2.387056574006496
1770451752400,126,-2,-1.6819643685944825,-2.9005579588078434,-2.4461253618916183
1770451752404,126,-2,-1.683989473054272,-2.9107836127877804,-2.450627210672863
1770451752408,126,-2,-1.5927450446249118,-2.5188426894854707,-2.361988518166934
1770451752412,126,-2,-1.4426807196109477,-2.7104943473266525,-2.2149973001498227
1770451752416,126,-2,-1.323155844690103,-2.4846095092880365,-2.098859323377985
1770451752420,127,-1,-1.31264790374382,-2.1202514167703774,-2.0914623024721135
1770451752424,126,-2,-1.4140549184613491,-2.7233776228538815,-2.195171743265865
1770451752428,126,-2,-1.5399152381560215,-2.7161270181066848,-2.322522683082779
1770451752432,126,-2,-1.5595227144189838,-2.594599880622341,-2.3434438567094285
1770451752436,126,-2,-1.374306085345745,-2.567581823882578,-2.160158409510488
1770451752440,127,-1,-0.973243076825909,-2.1077710076748435,-1.7619879061599684
1770451752444,127,-1,-0.4383206438571068,-1.7160062766206745,-1.2307622528972908
1770451752448,128,0,0.101256428032447,-0.798642495419128,-0.6952574149084871
1770451752452,128,0,0.5376836292676515,-0.5268279709351392,-0.2625244692273868
1770451752456,128,0,0.8317688845054312,-0.6658022127261307,0.0291287568115077
1770451752460,129,1,1.016351152988774,-0.0364434297154639,0.2126602808795548
1770451752464,129,1,1.173151067535524,0.2039972152078507,0.3686935724585558
1770451752468,129,1,1.4048768462175163,0.2165969582656326,0.5986006995286988
1770451752472,129,1,1.798582927030114,0.4553553190916086,0.98913803415073
1770451752476,130,2,2.376745946027252,1.3026764749763218,1.5636046063245774
1770451752480,131,3,3.0629025133117924,1.9926567726941615,2.246520395290251
1770451752484,131,3,3.697262235466299,2.1411264254371742,2.878235355178747
1770451752488,132,4,4.10713038005745,3.2373810816547417,3.285241991517459
1770451752492,132,4,4.1927214011076614,3.417143721129962,3.367235843591467
1770451752496,131,3,3.964466263314729,2.2824429758757945,3.1356034730182576
1770451752500,131,3,3.5030757640632437,2.0350954034499966,2.6724094005491885
1770451752504,131,3,2.895418517476735,2.019169602004457,2.064086174716104
1770451752508,130,2,2.2210226916539653,1.3820797161296985,1.3881834192794382
1770451752512,129,1,1.578132283594932,0.184597400085084,0.7419827092748423
1770451752516,128,0,1.0709172755758496,-0.448531296943476,0.2306960782918954
1770451752520,129,1,0.739671552616321,-0.320337546823301,-0.1040628053356164
1770451752524,128,0,0.5108954034074138,-0.6040223640780507,-0.3356970282397635
1770451752528,128,0,0.2342482237883494,-1.0529940280298953,-0.6152159000874002
1770451752532,127,-1,-0.2175222848869834,-1.404544808711967,-1.070265009515226
1770451752536,127,-1,-0.8654944517729021,-1.8640995480077691,-1.7216663314306355
1770451752540,126,-2,-1.618140922673856,-2.992636343601352,-2.4771714176783672
1770451752544,125,-3,-2.339193973929534,-3.880342604377992,-3.200006872851939
1770451752548,125,-3,-2.9287416755254423,-3.892303287287014,-3.790813532399308
1770451752552,124,-4,-3.3512951256311525,-4.496927620185082,-4.215566294495545
1770451752556,124,-4,-3.606743975614319,-4.889934394933759,-4.475157201567257
1770451752560,124,-4,-3.7002074807621583,-4.914522087331003,-4.574090572505104
1770451752564,124,-4,-3.651779279234459,-5.061306341452016,-4.530482352842099
1770451752568,124,-4,-3.5238715203102,-4.682307214241606,-4.404894664133895
1770451752572,124,-4,-3.4135477352370542,-4.767811447847983,-4.294496085964653
1770451752576,124,-4,-3.390569927350237,-4.630344146952818,-4.27182383779867
1770451752580,125,-3,-3.4237513849157923,-4.203716755184555,-4.309236706265422
1770451752584,124,-4,-3.3692462817788225,-4.821453172501286,-4.263537546187797
1770451752588,124,-4,-3.0457585410278045,-4.923413317013523,-3.949594785905768
1770451752592,125,-3,-2.3145370781700527,-3.5824483862995207,-3.223237722344641
1770451752596,127,-1,-1.0447613074403448,-1.8023984794951555,-1.9513328170833644
1770451752600,129,1,1.0231564210589594,-0.09757935085688,0.1229121393268763
1770451752604,132,4,4.32091369436838,3.0852608044153556,3.4252913977242523
1770451752608,137,9,9.211256977927146,8.101146638147412,8.313625236233062
1770451752612,142,14,15.520487546492344,13.39447329940745,14.61334928697218
1770451752616,149,21,22.189801751568343,20.179322388053876,21.26863457010856
1770451752620,156,28,27.435514917394443,26.91194940583753,26.500156470499583
1770451752624,158,30,29.488061141160728,29.024665898060043,28.54260068877698
1770451752628,155,27,27.49924636730237,26.12174506355744,26.551376424125095
1770451752632,149,21,22.007278708674043,20.30622763140588,21.06545918268938
1770451752636,142,14,14.654717090163818,13.248352685016174,13.722852713009283
1770451752640,135,7,7.38413315905143,5.810282450045155,6.458066329083382
1770451752644,129,1,1.629001807526638,0.1672584540981683,0.6990324436515303
1770451752648,126,-2,-2.084591470023377,-3.0625597438842735,-3.026915238323459
1770451752652,123,-5,-4.028181714525901,-5.512582039508936,-4.985010328536662
1770451752656,123,-5,-4.844403820433469,-6.0046461688944435,-5.811907837035632
1770451752660,123,-5,-5.1126929664835234,-5.939319835109421,-6.0849283913913625
1770451752664,122,-6,-5.14341394375486,-7.11264855176718,-6.115852656912893
1770451752668,122,-6,-5.037076024155636,-6.81524300901131,-6.008300431091579
1770451752672,123,-5,-4.849869106587915,-5.776168716956971,-5.821758198751255
1770451752676,123,-5,-4.67267407577517,-5.834386196034129,-5.648849797650624
1770451752680,123,-5,-4.581179102831146,-6.0590120059218355,-5.5641691844673336
1770451752684,123,-5,-4.566142940339749,-6.074449876911453,-5.555728659412609
1770451752688,123,-5,-4.54252356877088,-5.826590800257681,-5.536844258170543
1770451752692,123,-5,-4.425596972901097,-5.8522776388448525,-5.423381446450692
1770451752696,123,-5,-4.1992798488230205,-5.76549202176879,-5.200809343765922
1770451752700,124,-4,-3.922627510158415,-5.150200289182028,-4.929065335029852
1770451752704,124,-4,-3.675894099346716,-5.002126978773984,-4.68804772942368
1770451752708,124,-4,-3.4950001515188163,-4.9173991638403995,-4.512522222881253
1770451752712,124,-4,-3.3506366069516003,-4.830695416508387,-4.372333590709996
1770451752716,124,-4,-3.1836459767070715,-4.789955378202292,-4.208838615440779
1770451752720,125,-3,-2.955183358302458,-4.1790452292551645,-3.9847531592844487
1770451752724,125,-3,-2.6681863894186435,-3.9364075521150306,-3.703804948732517
1770451752728,125,-3,-2.3587513316056334,-4.068098795061731,-3.400953883294276
1770451752732,125,-3,-2.07698116525068,-3.672476001615999,-3.1245658103108775
1770451752736,126,-2,-1.858408486859829,-3.0345968200859494,-2.909985074084229
1770451752740,126,-2,-1.6866649508490257,-2.908562084765992,-2.7421921396262148
1770451752744,126,-2,-1.4836411342358518,-3.2413442448575087,-2.544104075323359
1770451752748,126,-2,-1.162052356025529,-2.78312382104874,-2.2282552823440227
1770451752752,127,-1,-0.7067886026412951,-2.006848495181056,-1.7789288214188517
1770451752756,127,-1,-0.2047796120602951,-1.745105339599458,-1.2827306014680622
1770451752760,128,0,0.2108275298376231,-1.191828627294806,-0.8726979340040829
1770451752764,128,0,0.4542684539903038,-0.9809153295605072,-0.6346512003620125
1770451752768,128,0,0.5425574077735823,-1.072211323144029,-0.5518796478527539
1770451752772,128,0,0.574643691985748,-0.7759298153475807,-0.5255885521060188
1770451752776,128,0,0.6554072718299547,-1.0015251849842552,-0.4504303948510223
1770451752780,128,0,0.825850870349234,-0.9555067299320744,-0.2848616601069603
1770451752784,129,1,1.058642007317221,-0.2014440199545082,-0.0567118662543348
1770451752788,129,1,1.3220487338612426,0.0832108813829101,0.2010133750340739
1770451752792,129,1,1.6393370309381197,0.0464579752083406,0.5112510110674688
1770451752796,129,1,2.0638477134754467,0.1170490048742596,0.9285734641881864
1770451752800,130,2,2.588602265452746,0.9319725964654496,1.4471778428066555
1770451752804,131,3,3.1032425703446633,1.895104446820187,1.9564014235945453
1770451752808,131,3,3.4682458197913917,1.960794749050106,2.315767993913912
1770451752812,131,3,3.639151136921672,2.112441492093397,2.480727816288928
1770451752816,131,3,3.7122958014391263,2.0238187508188408,2.54817920471273
1770451752820,131,3,3.84714405443657,1.9880632645867695,2.677464654587173
1770451752824,132,4,4.141538252825248,2.8606775837476053,2.9655671730700837
1770451752828,132,4,4.5659265510518585,2.9483534494500603,3.3827599350370052
1770451752832,132,4,4.996099742274826,3.092106859331287,3.80585303681677
1770451752836,133,5,5.3088196689518465,4.000144792457956,4.1124103092773
1770451752840,133,5,5.473046473305305,3.984056704837399,4.270871710305961
1770451752844,133,5,5.571514038667826,3.868673471011944,4.363076177679169
1770451752848,133,5,5.726748981856144,3.910226920003576,4.511618825095765
1770451752852,133,5,5.986912158999474,4.088226665732937,4.765315480213024
1770451752856,134,6,6.280338585860417,4.953644788316575,5.0525148560565505
1770451752860,134,6,6.490753929397335,5.035030936856343,5.2563001275288626
1770451752864,134,6,6.579655132041322,4.7806908805047525,5.337970760978813
1770451752868,134,6,6.629135331362608,5.014042654562416,5.380332086400118
1770451752872,134,6,6.760741882212963,4.886380425583266,5.505720289176387
1770451752876,134,6,7.012113676454289,5.152613180144403,5.75153425733925
1770451752880,135,7,7.292585836249963,5.804503933875081,6.025808345094118
1770451752884,135,7,7.457403184188575,6.015754096306249,6.182839414811535
1770451752888,135,7,7.420136258229887,5.758819071830384,6.137039905803614
1770451752892,134,6,7.189182549165814,5.066589981664765,5.898763231930625
1770451752896,134,6,6.807439329418287,4.9510051420741,5.511519863599652
1770451752900,134,6,6.284008344530727,4.968898925630148,4.982710533749532
1770451752904,133,5,5.597208043839372,3.890183633434362,4.288782412688828
1770451752908,132,4,4.74461464853932,2.81936463448217,3.4276702762832505
1770451752912,131,3,3.7661350213295,1.9914077861799553,2.4412801579824506
1770451752916,130,2,2.7210239892952917,0.931865825239287,1.3899694035421932
1770451752920,129,1,1.6600692790674536,0.0148137292077118,0.3235931087257836
1770451752924,128,0,0.6218543284149027,-1.1553153434626156,-0.7209820410199018
1770451752928,127,-1,-0.362526533549004,-2.181394952536575,-1.713347042342615
1770451752932,126,-2,-1.2800308021348243,-3.0154546218122986,-2.6395896987808225
1770451752936,125,-3,-2.1534366736577257,-4.193799439457056,-3.5210575802820427
1770451752940,124,-4,-3.032835981599087,-4.768557584562558,-4.407227435444353
1770451752944,124,-4,-3.945515104686357,-5.456860795491795,-5.325974168128165
1770451752948,122,-6,-4.839766278607293,-6.823421873244569,-6.226559809877409
1770451752952,122,-6,-5.583791159065566,-7.492931831259864,-6.9775994657718385
1770451752956,121,-7,-6.039252902756817,-7.745135035487868,-7.440452186745309
1770451752960,121,-7,-6.157692187191547,-8.207563880533822,-7.566166601540732
1770451752964,121,-7,-6.020531595968345,-8.054835672436443,-7.43618076747318
1770451752968,122,-6,-5.785505036126812,-7.164131065596232,-7.208786346004001
1770451752972,122,-6,-5.582606601290844,-7.321144002531288,-7.014113927621951
1770451752976,121,-7,-5.451951168731855,-7.866366166459749,-6.891421091701954
1770451752980,122,-6,-5.370868088744816,-7.1873474429447395,-6.817227952646238
1770451752984,122,-6,-5.318338460800171,-6.992176248049563,-6.7709164964083755
1770451752988,122,-6,-5.295971578045176,-7.294159263779886,-6.755149897209308
1770451752992,122,-6,-5.294859139410832,-7.220398663977899,-6.761419178815045
1770451752996,122,-6,-5.263056599759718,-7.041207989301267,-6.73725063312015
1770451753000,122,-6,-5.120109019543351,-7.012678705640654,-6.601461876272133
1770451753004,122,-6,-4.813842608043824,-7.163080672431062,-6.3018228260199445
1770451753008,123,-5,-4.370820044048147,-6.128944309236792,-5.865788016979925
1770451753012,124,-4,-3.8916299237894623,-5.455308854669265,-5.39484755110428
1770451753016,123,-5,-3.4941833640790536,-5.853810388915476,-5.006445648140151
1770451753020,124,-4,-3.255412459266547,-5.217307297978049,-4.775835708917993
1770451753024,124,-4,-3.186134649813759,-4.948623706768416,-4.7127368530157305
1770451753028,124,-4,-3.2323933672395793,-5.359159083794617,-4.763922005309679
1770451753032,124,-4,-3.2915176108135253,-5.287091249603315,-4.828656727138295
1770451753036,124,-4,-3.2476062872893503,-5.064055824891527,-4.792393202916362
1770451753040,124,-4,-3.0280815808169925,-5.034247180002023,-4.581964534363803
1770451753044,124,-4,-2.6576815227944772,-5.108509888022732,-4.220179397600017
1770451753048,125,-3,-2.2609490484384613,-4.221394784972064,-3.830533080420314
1770451753052,126,-2,-1.9812452204462017,-3.4849628453680515,-3.557244433048949
1770451753056,125,-3,-1.8651955145179828,-3.909009245536894,-3.4480570667733117
1770451753060,125,-3,-1.824951073841762,-4.214690805774527,-3.414821375873333
1770451753064,125,-3,-1.7279559951260577,-3.9186873902771087,-3.324172188090065
1770451753068,126,-2,-1.526001639884698,-3.4197609842387533,-3.128383486796563
1770451753072,126,-2,-1.2938688987770848,-3.3626464955223234,-2.9036500278731485
1770451753076,126,-2,-1.1519607460423646,-3.037394506936394,-2.77061096969552
1770451753080,126,-2,-1.1643699988070737,-3.1485256162520625,-2.791604910253782
1770451753084,125,-3,-1.3068153862170082,-3.945578108262216,-2.9405081031760583
1770451753088,126,-2,-1.506571671539506,-3.443510975656316,-3.145068393924178
1770451753092,126,-2,-1.6885168263586603,-3.368066294290152,-3.332512151559836
1770451753096,125,-3,-1.7920501997455167,-4.0815257786839965,-3.4434546616903603
1770451753100,125,-3,-1.7859679748974056,-4.116784565640447,-3.4454035767379487
1770451753104,125,-3,-1.6955254919070837,-3.981236432569072,-3.362057620826159
1770451753108,126,-2,-1.5994605633750718,-3.4308969148025947,-3.272607111113663
1770451753112,126,-2,-1.5716799630174398,-3.429524361461217,-3.2522152930929145
1770451753116,125,-3,-1.623281211528998,-4.042825415537797,-3.311511633871972
1770451753120,125,-3,-1.712969010087211,-4.203456016546159,-3.4074545107287815
1770451753124,125,-3,-1.8036646114580988,-3.86702344687607,-3.5028057346225014
1770451753128,126,-2,-1.8835516088160156,-3.605185346843886,-3.587899559562394
1770451753132,125,-3,-1.9337417987774437,-4.255999855987941,-3.6455680075442305
1770451753136,125,-3,-1.9122015663488856,-4.279381070228983,-3.6327478317587034
1770451753140,125,-3,-1.7983629142758402,-3.978435161999548,-3.5263483692099813
1770451753144,125,-3,-1.6436134838020169,-4.106875310873503,-3.37681360809835
1770451753148,126,-2,-1.5463828114328364,-3.389528861601004,-3.284249252443368
1770451753152,126,-2,-1.5593282512634208,-3.482596648662058,-3.3034484126893284
1770451753156,125,-3,-1.6308216746010542,-4.12768769721899,-3.38272117348987
1770451753160,125,-3,-1.6591307142963476,-4.1160189706462305,-3.418293480195082
1770451753164,125,-3,-1.6073317349158434,-4.031413135507394,-3.372010358041801
1770451753168,126,-2,-1.5448308820790604,-3.431182715295496,-3.3144214542797528
1770451753172,126,-2,-1.561320012274692,-3.504821615682324,-3.336981647189642
1770451753176,125,-3,-1.651949519184543,-4.1160592177611965,-3.434729673110327
1770451753180,125,-3,-1.708360115360164,-4.183192099138046,-3.4975815395859877
1770451753184,125,-3,-1.6256016127073047,-3.974202597127048,-3.4197260261186626
1770451753188,126,-2,-1.4066989008171524,-3.4963860033970344,-3.2054011285194406
1770451753192,126,-2,-1.1611962564619671,-3.46750043641289,-2.9659387469440066
1770451753196,126,-2,-1.013414677787733,-3.1736703733519858,-2.825842961945686
1770451753200,126,-2,-1.0176099648962735,-3.187691401662714,-2.837597138532263
1770451753204,125,-3,-1.148724928613135,-3.974653077678781,-2.9742627952488343
1770451753208,126,-2,-1.348189103409618,-3.5202177194742075,-3.1773632215468
1770451753212,126,-2,-1.5565817235277393,-3.450096054191612,-3.3894094456296493
1770451753216,125,-3,-1.7090847354286969,-4.224965390990141,-3.5471034527026912
1770451753220,125,-3,-1.7364536239279258,-4.18722070524102,-3.5808926686514355
1770451753224,125,-3,-1.6030375313371976,-3.975949609746996,-3.4539652876890767
1770451753228,126,-2,-1.34675343115292,-3.568895876422169,-3.203644341945664
1770451753232,126,-2,-1.0695806930119771,-3.3676476760010403,-2.9318965487093793
1770451753236,126,-2,-0.8790706422009507,-3.379171248984702,-2.746316527197817
1770451753240,126,-2,-0.825761267022652,-3.052310241697613,-2.69763192761395
1770451753244,126,-2,-0.8784645995977383,-3.1434835562591226,-2.755069532249524
1770451753248,126,-2,-0.9528182203185512,-3.431993232198585,-2.834389914731385
1770451753252,126,-2,-0.9762600164227851,-3.477872536830054,-2.8626662287516735
1770451753256,126,-2,-0.9408783963936678,-3.341114514078547,-2.8318358530367234
1770451753260,126,-2,-0.8963402888131762,-3.095142324514663,-2.7920803602644715
1770451753264,126,-2,-0.8894213088197684,-3.155143197286924,-2.7905856695195927
1770451753268,126,-2,-0.9149768127336684,-3.4173330608770613,-2.821602549768398
1770451753272,126,-2,-0.9310248322095608,-3.50771925928639,-2.8420896648166925
1770451753276,126,-2,-0.9145631167897454,-3.348299528722436,-2.829046148746528
1770451753280,126,-2,-0.8874518763590835,-3.1217652119540573,-2.8056721895264536
1770451753284,126,-2,-0.8834646938098222,-3.1580249787742054,-2.8067554796761987
1770451753288,126,-2,-0.9036710361334114,-3.4209315085815883,-2.8325442905808886
1770451753292,126,-2,-0.9183734109028528,-3.522138247616294,-2.851538700654749
1770451753296,126,-2,-0.9083178982047798,-3.366918350844354,-2.8440724568586395
1770451753300,126,-2,-0.8866160207326803,-3.1451318096902408,-2.825051068037581
1770451753304,126,-2,-0.8746063788329069,-3.149985303667205,-2.817770839221957
1770451753308,126,-2,-0.8723491144896237,-3.4417759449158396,-2.821893670617963
1770451753312,126,-2,-0.8698678631876235,-3.5217662302368486,-2.82489130611036
1770451753316,126,-2,-0.8785444252750504,-3.394424209838417,-2.836286218360898
1770451753320,126,-2,-0.9202651968750974,-3.1774381368225737,-2.8789111396707283
1770451753324,126,-2,-0.9664577327491396,-3.098236923733452,-2.926841912698805
1770451753328,126,-2,-0.9066850376839256,-3.545628269332557,-2.8711442960535427
1770451753332,126,-2,-0.6199272172354457,-3.395034821318688,-2.5899419402175625
1770451753336,127,-1,-0.1040155237162728,-2.5997676385225104,-2.079230438463807
1770451753340,127,-1,0.473652838427564,-1.9798225641146927,-1.505418472763358
1770451753344,128,0,0.8837003802424912,-1.317801345265306,-1.0980733841612171
1770451753348,128,0,1.0229492260732116,-1.337539081029791,-0.960962878496794
1770451753352,128,0,1.014811787122225,-1.6170487973447587,-0.9711067428852744
1770451753356,128,0,1.1238590733181768,-1.4492774939333912,-0.8642278340097687
1770451753360,128,0,1.5491814406540447,-1.12673971462738,-0.4414848240613744
1770451753364,129,1,2.2655900286468142,-0.2199722548524987,0.2717693296112322
1770451753368,130,2,3.040215265466929,0.6175654972330193,1.0425999378960538
1770451753372,131,3,3.605630511796439,1.3392138261361808,1.603782833188533
1770451753376,131,3,3.841566271494188,1.604381249540666,1.835900195043876
1770451753380,130,2,3.815392022836744,0.7269731665629,1.8075323180229377
1770451753384,130,2,3.666504048182124,0.956942165909402,1.658268306563394
1770451753388,131,3,3.4662203072276716,1.4204741207740543,1.457823764614392
1770451753392,130,2,3.188020931376287,0.5200481984420633,1.177680509888824
1770451753396,130,2,2.7867575635275683,0.3812482837737021,0.772443800405852
1770451753400,129,1,2.2756461909707646,-0.0883696384465222,0.2571439033970935
1770451753404,128,0,1.7181217055346818,-1.252770479852447,-0.3027619544142996
1770451753408,128,0,1.1598199822748314,-1.3568348386838134,-0.8614709575330349
1770451753412,128,0,0.5891200746609686,-1.722819731026045,-1.4324293391387208
1770451753416,127,-1,-0.028144163739166,-2.437199665030172,-2.051553499090457
1770451753420,126,-2,-0.6876919908590615,-3.2612004638422816,-2.7142766144176056
1770451753424,125,-3,-1.3354173219851628,-4.172177127113285,-3.3646952091047564
1770451753428,125,-3,-1.9119250468996,-4.350225174328989,-3.942318068311536
1770451753432,125,-3,-2.3905090725409357,-4.83834545873845,-4.421058500620921
1770451753436,124,-4,-2.766669904712231,-5.275923082640401,-4.797622907186328
1770451753440,124,-4,-3.0273159332788793,-5.52051619168321,-5.059352700484916
1770451753444,123,-5,-3.150257567966267,-5.904401473966936,-5.183815920756032
1770451753448,124,-4,-3.1390127001617167,-5.620563141980496,-5.174458981454398
1770451753452,124,-4,-3.0499632628821627,-5.61503234456921,-5.087720865442432
1770451753456,124,-4,-2.975075053380194,-5.478253906265907,-5.014819305028156
1770451753460,124,-4,-2.9890924469850155,-5.42546753966894,-5.028911769079851
1770451753464,123,-5,-3.1002816981434167,-5.950796161518921,-5.137722465974645
1770451753468,124,-4,-3.2328858897417923,-5.648935606363555,-5.267854703779062
1770451753472,124,-4,-3.245363355268264,-5.5445032311464635,-5.281666605805711
1770451753476,124,-4,-2.980643176178355,-5.619896452676237,-5.023212093048253
1770451753480,124,-4,-2.330303010319412,-5.297834332380089,-4.380012928699241
1770451753484,125,-3,-1.2517018746781106,-4.104596522401371,-3.3032809615091354
1770451753488,128,0,0.3252767648597829,-1.5183962268821685,-1.7203366311386656
1770451753492,130,2,2.6472917189342797,0.349535713243374,0.6120766506366411
1770451753496,133,5,6.142697561206005,3.409934237347489,4.115678617509769
1770451753500,138,10,11.124547424473397,8.688188250326249,9.09841484487261
1770451753504,143,15,17.305390561294946,13.82950811473174,15.272243724029812
1770451753508,150,22,23.50523981658799,20.58352264962108,21.460783477005577
1770451753512,156,28,27.91005450212484,26.217357569480978,25.855346333876824
1770451753516,156,28,28.869130156450066,26.518942497604435,26.809933585964306
1770451753520,153,25,25.77495443089906,23.491773174288767,23.71950279531643
1770451753524,146,18,19.43932185609287,17.022287421686435,17.394973724246366
1770451753528,138,10,11.70473456683982,8.300798781897583,9.67437113291482
1770451753532,131,3,4.553149746079809,1.608174307140242,2.5330089940959297
1770451753536,127,-1,-0.7160658330273479,-2.9514976511377973,-2.735175019753331
1770451753540,123,-5,-3.7916307849848225,-5.997418361785996,-5.8191601312665275
1770451753544,122,-6,-5.111148722524211,-7.544258251063051,-7.150516958559706
1770451753548,121,-7,-5.389311512425602,-8.16944413224428,-7.43564931027645
1770451753552,122,-6,-5.242839712565961,-7.890807236962597,-7.287108830797118
1770451753556,122,-6,-5.034820574383623,-7.542212918234875,-7.070660835750803
1770451753560,122,-6,-4.8850784528569156,-7.354067519922075,-6.9123743362719505
1770451753564,122,-6,-4.758856347748959,-7.315836204381937,-6.781818940513066
1770451753568,122,-6,-4.579289065557407,-7.329569255106389,-6.602091385899281
1770451753572,123,-5,-4.321590368160535,-6.826626745235444,-6.34573561948958
1770451753576,123,-5,-4.04552354249617,-6.54893436647446,-6.070173585463223
1770451753580,123,-5,-3.8526017968514137,-6.426852812807925,-5.876208234479439
1770451753584,123,-5,-3.807618314552555,-6.239629869076461,-5.8289839973557935
1770451753588,123,-5,-3.889355660635685,-6.452004904816302,-5.907737610128632
1770451753592,123,-5,-4.007019488311613,-6.71066039086134,-6.022038464878995
1770451753596,123,-5,-4.062234026885712,-6.67762824487041,-6.074146598497917
1770451753600,123,-5,-4.002538350777055,-6.324879693526959,-6.012333444046586
1770451753604,123,-5,-3.8325517223990264,-6.3658640588142115,-5.841146148631168
1770451753608,123,-5,-3.594587333232901,-6.358110984895109,-5.601788117927154
1770451753612,124,-4,-3.344217785086254,-5.8075610508781015,-5.348890277579539
1770451753616,124,-4,-3.126040705355771,-5.614833451433572,-5.127395444703316
1770451753620,124,-4,-2.9500871260811317,-5.387372308190178,-4.94835859499217
1770451753624,124,-4,-2.787908698591389,-5.355470645946954,-4.78358766722161
1770451753628,124,-4,-2.6027098810118976,-5.373798034720396,-4.595588306270631
1770451753632,125,-3,-2.3884926832096567,-4.823181272863117,-4.377940134726554
1770451753636,125,-3,-2.17372050680157,-4.605965840604986,-4.159690809971593
1770451753640,125,-3,-1.9837353905234405,-4.415202780102303,-3.966908913627464
1770451753644,125,-3,-1.8086415545997556,-4.36224308001996,-3.78941489258333
1770451753648,125,-3,-1.6178920165385713,-4.3850135064952775,-3.595652722592233
1770451753652,126,-2,-1.4024431983807562,-3.842220674953992,-3.376190995109039
1770451753656,126,-2,-1.188829188658086,-3.5896109040723125,-3.1583030498842826
1770451753660,126,-2,-1.005946973736751,-3.4496726074229533,-2.971749003092239
1770451753664,126,-2,-0.8466783497569282,-3.3646651626938713,-2.809349538626302
1770451753668,126,-2,-0.6721845447825353,-3.3916604218197364,-2.631566071878023
1770451753672,127,-1,-0.4522215489318974,-2.890001055464615,-2.4077889442138476
1770451753676,127,-1,-0.1933393896019091,-2.5108982189941393,-2.1447486660220396
1770451753680,127,-1,0.0733519591961307,-2.579094141983461,-1.8737716406792595
1770451753684,127,-1,0.3273526241187643,-2.237009451005928,-1.615442951202282
1770451753688,128,0,0.5822120927608727,-1.5615425312965852,-1.3563399408317889
1770451753692,128,0,0.8760333562275247,-1.7488661851178282,-1.0583935640390574
1770451753696,128,0,1.2327806849125136,-1.64293973426747,-0.6974883455161748
1770451753700,129,1,1.6279983486171343,-0.4779553233931676,-0.2980346136593974
1770451753704,129,1,1.9983082787991295,-0.3510829191700138,0.0765394777537742
1770451753708,129,1,2.2913205451176415,-0.4896822371606091,0.3740118197193901
1770451753712,130,2,2.5098107280664532,0.1653524309667222,0.5973280606554776
1770451753716,130,2,2.7148750636806196,0.4270040704291578,0.807444880268354
1770451753720,130,2,2.988572335519123,0.4414469017309927,1.0863621071030456
1770451753724,130,2,3.3780588457822898,0.7032510702539461,1.4814190347221454
1770451753728,131,3,3.8586395223753143,1.4328442602219846,1.9675679872518583
1770451753732,132,4,4.350994412205504,2.2035673191186453,2.4644482545428303
1770451753736,132,4,4.780055918434247,2.408491254185875,2.8967498102568308
1770451753740,132,4,5.1145867495434905,2.4092151804054485,3.234821762848713
1770451753744,132,4,5.354068061837218,2.7480615112392446,3.4800532350352604
1770451753748,133,5,5.504175184718661,3.318616142654432,3.6379715982853087
1770451753752,133,5,5.592339750365689,3.324606334103309,3.73377611441978
1770451753756,133,5,5.699929602200554,3.2721936179797804,3.8469508859520376
1770451753760,133,5,5.938735837163787,3.5271015313118577,4.089649928159072
1770451753764,133,5,6.357658057259825,3.6202318892177834,4.512643626754059
1770451753768,134,6,6.865332613565968,4.376492838261198,5.025717396007336
1770451753772,135,7,7.26741754625486,5.304954153596831,5.43403827300684
1770451753776,135,7,7.40784763373258,5.225630249944265,5.580721178727156
1770451753780,134,6,7.284356669408569,4.625932139208667,5.463655434240856
1770451753784,134,6,7.024384361014036,4.416779261988533,5.210695377707531
1770451753788,134,6,6.749021863092862,4.602081406970722,4.942317466358573
1770451753792,134,6,6.456471251293275,4.028038962513362,4.65558702268973
1770451753796,133,5,6.0198463174779855,3.5306430960743835,4.223562839124789
1770451753800,133,5,5.285646552563961,3.3049842917481547,3.4941090077369665
1770451753804,131,3,4.1894401313947265,1.6769696777044554,2.4042339401312596
1770451753808,130,2,2.808312892106545,0.3314957330648882,1.0310793755783143
1770451753812,129,1,1.3233776326280278,-0.7416559674995711,-0.4456533913487988
1770451753816,127,-1,-0.0732663354407927,-2.6604339019770946,-1.835315339104502
1770451753820,126,-2,-1.265587495629561,-3.5508581990944013,-3.02189037331501
1770451753824,125,-3,-2.2456830017482,-4.46364013394601,-3.996200305474492
1770451753828,124,-4,-3.0762646487068723,-5.613789867947052,-4.81997292794373
1770451753832,124,-4,-3.8123073577200968,-5.760136364936322,-5.548583052449088
1770451753836,123,-5,-4.4438928741277275,-6.666413185969057,-6.17317326595217
1770451753840,122,-6,-4.913529210987666,-7.553707139933452,-6.636480557409478
1770451753844,122,-6,-5.196720627570049,-7.480630696428122,-6.913197008263201
1770451753848,122,-6,-5.362433696222958,-7.673874906036811,-7.071653940277926
1770451753852,122,-6,-5.536397907525611,-7.661800683024042,-7.23793480097261
1770451753856,122,-6,-5.7888124236854255,-7.796074055581664,-7.482933864570859
1770451753860,121,-7,-6.057756486941906,-8.410363452842535,-7.744712992467472
1770451753864,121,-7,-6.195527058728188,-8.6888673662836,-7.874949001646561
1770451753868,121,-7,-6.103184082336901,-8.491762388628239,-7.774625495658942
1770451753872,122,-6,-5.825872888494874,-7.854312993490063,-7.489768525254076
1770451753876,122,-6,-5.520431020829781,-7.585059179389915,-7.177893145176542
1770451753880,122,-6,-5.334255226792434,-7.6348909495313375,-6.985693380337672
1770451753884,122,-6,-5.310191950392742,-7.522384560671447,-6.95450690588989
1770451753888,122,-6,-5.387672582944029,-7.684965108243129,-7.023165856302967
1770451753892,122,-6,-5.473896295629643,-7.695610883744026,-7.099962091535422
1770451753896,122,-6,-5.51131931188249,-7.676425423855889,-7.129107047359378
1770451753900,122,-6,-5.494483693767408,-7.619636851350849,-7.1057783670016255
1770451753904,122,-6,-5.444824716950879,-7.506364287289063,-7.050172338972683
1770451753908,122,-6,-5.380376949756463,-7.835964426722267,-6.978413950208039
1770451753912,122,-6,-5.300572478867823,-7.457603089831728,-6.889438041603484
1770451753916,123,-5,-5.1804606119029755,-6.979259575391002,-6.759761171390784
1770451753920,122,-6,-4.975021970058746,-7.257135614425575,-6.5460593116442265
1770451753924,123,-5,-4.650551195206617,-6.966157447203949,-6.2147552969034425
1770451753928,123,-5,-4.2346401848389466,-6.395835824899188,-5.792256607859926
1770451753932,124,-4,-3.832373774612042,-5.9049468152251645,-5.382613382643163
1770451753936,124,-4,-3.570491501960205,-5.535828593287733,-5.1124117313197734
1770451753940,124,-4,-3.5041744780831765,-5.655479189315812,-5.037284987446149
1770451753944,124,-4,-3.5670898766377936,-5.6956755044471645,-5.091472683689968
1770451753948,124,-4,-3.612260452824147,-5.624298842635541,-5.12828380896187
1770451753952,124,-4,-3.5160955637089555,-5.775765032236876,-5.023934725512806
1770451753956,124,-4,-3.2659300584313167,-5.549826859134537,-4.765508399414539
1770451753960,125,-3,-2.9599228173647987,-4.723377153474557,-4.451466713348768
1770451753964,125,-3,-2.7182666578595596,-4.612579316370271,-4.202512263079882
1770451753968,125,-3,-2.586886591463205,-4.814969786938391,-4.064191569084972
1770451753972,125,-3,-2.5237370408362816,-4.541996455869963,-3.993120353053443
1770451753976,125,-3,-2.470370980312542,-4.801740675181187,-3.930113235344319
1770451753980,125,-3,-2.420629814613217,-4.452855343430964,-3.8702037685396498
1770451753984,126,-2,-2.409761633597952,-3.925149394572575,-3.850774469193352
1770451753988,125,-3,-2.448665171816729,-4.580429164649721,-3.883228931848484
1770451753992,125,-3,-2.496298499202219,-4.730461316090462,-3.9245190511950887
1770451753996,125,-3,-2.508900145269945,-4.66677100405299,-3.928720525013907
1770451754000,125,-3,-2.4959238364152734,-4.511853205987084,-3.905686493822104
1770451754004,126,-2,-2.4994872584964387,-3.9905903615760385,-3.899888065829875
1770451754008,125,-3,-2.5204469321535212,-4.474080301449931,-3.9133310624907343
1770451754012,125,-3,-2.4942490652625047,-4.924767923410198,-3.880072807720296
1770451754016,125,-3,-2.357778889294939,-4.398951186085391,-3.7352899367005254
1770451754020,126,-2,-2.1266841042714404,-3.821520060046979,-3.49496353906676
1770451754024,126,-2,-1.8893061392008703,-3.707960779355226,-3.2490279063406153
1770451754028,126,-2,-1.7304190522397565,-3.7732885288438034,-3.082772180501255
1770451754032,126,-2,-1.673959747291408,-3.6812971070407094,-3.0190931183952463
1770451754036,126,-2,-1.6930063238778008,-3.591391945171978,-3.0300010607014727
1770451754040,126,-2,-1.7547275718939837,-3.6711436421925248,-3.082737944727368
1770451754044,126,-2,-1.8454354282685608,-3.865101839934917,-3.164515819063312
1770451754048,126,-2,-1.9576754711372693,-3.656375968658531,-3.2685649444687623
1770451754052,126,-2,-2.065443390927309,-3.8256995224074903,-3.3686689890863097
1770451754056,125,-3,-2.124839713478983,-4.418956195312877,-3.4201869857377036
1770451754060,126,-2,-2.105130896698687,-3.878143073821014,-3.392192456356473
1770451754064,126,-2,-2.0148403499584786,-3.650569148680928,-3.2938477232470103
1770451754068,126,-2,-1.8936704959507809,-3.943257613084216,-3.165237472230439
1770451754072,126,-2,-1.7841226593264108,-3.520696113084288,-3.0482211589909123
1770451754076,126,-2,-1.71160901301445,-3.737429811295821,-2.9674755142645033
1770451754080,126,-2,-1.676392218298555,-3.5745065576610555,-2.9236574872159244
1770451754084,127,-1,-1.648590557438339,-2.947966772837352,-2.887842472449236
1770451754088,126,-2,-1.578015399572107,-3.727920624824187,-2.809798123928924
1770451754092,126,-2,-1.4325513216521522,-3.695863138360844,-2.6564792557891383
1770451754096,127,-1,-1.2352312717132323,-2.608995142320331,-2.450828011355335
1770451754100,127,-1,-1.0504398476512655,-2.670185870669115,-2.2582915348808683
1770451754104,127,-1,-0.9287886867353312,-2.9076708651679426,-2.12996715668762
1770451754108,127,-1,-0.8767690537733119,-2.7692498376255448,-2.071404781381582
1770451754112,127,-1,-0.8788003255299808,-2.703480327499044,-2.065968469096499
1770451754116,127,-1,-0.9260104242114586,-2.5798512027937957,-2.104877049236827
1770451754120,127,-1,-1.0072967575518046,-2.707556693302684,-2.177817500094023
1770451754124,127,-1,-1.0804428250944382,-2.898355191221431,-2.2430207380672407
1770451754128,127,-1,-1.0720390400979902,-2.7901989667894087,-2.227047337759406
1770451754132,127,-1,-0.9218426475606112,-2.736412646397058,-2.06970554276335
1770451754136,127,-1,-0.6367471451695077,-2.5072561819606785,-1.778175402007537
1770451754140,128,0,-0.3052139116368122,-1.818303546716577,-1.4408517770551668
1770451754144,128,0,-0.0548890959343078,-1.7636594367778795,-1.184499629662184
1770451754148,128,0,0.0194491495844819,-2.006412029254946,-1.1028697032819663
1770451754152,128,0,-0.0864911665518173,-1.500068563931468,-1.2003079980459317
1770451754156,128,0,-0.2764225895478063,-1.7795415194144475,-1.3817271789309884
1770451754160,127,-1,-0.4056081192402212,-2.520587061066136,-1.503518775928732
1770451754164,128,0,-0.3759228992915899,-2.081430106574238,-1.4678211945244304
1770451754168,128,0,-0.2083203434105025,-1.7365719270469615,-1.295176531724703
1770451754172,128,0,-0.0275599956815055,-1.7663270244388944,-1.10948493977157
1770451754176,128,0,0.0346945936414864,-1.5444933156306262,-1.041291846658252
1770451754180,128,0,-0.0575699922691148,-1.7104821360521263,-1.1260226612468414
1770451754184,128,0,-0.2117372686356875,-1.9646398958972804,-1.2718115260769003
1770451754188,128,0,-0.2624528661530048,-1.8356071580255284,-1.314948256758145
1770451754192,128,0,-0.0781248861899871,-1.7344556277939582,-1.1248327250137389
1770451754196,128,0,0.349219543534508,-1.5335566152867464,-0.692951921339632
1770451754200,129,1,0.8930429299727205,-0.7346283193259671,-0.1446074606338769
1770451754204,130,2,1.379590194375337,0.0352023820566216,0.3470900155145691
1770451754208,130,2,1.7185536373120716,0.1474243747234884,0.6918253647980774
1770451754212,130,2,1.972755301926565,0.2283651857089386,0.9524608959755674
1770451754216,130,2,2.3043816197049085,0.5495037186194236,1.2912081605372334
1770451754220,131,3,2.844704604344122,1.139151854498586,1.838661884723253
1770451754224,132,4,3.598385762356763,2.187312516994803,2.598248091970289
1770451754228,133,5,4.447178479358103,2.9315742326640777,3.451119430063131
1770451754232,133,5,5.222381428273064,3.4453966239320124,4.229375550944864
1770451754236,134,6,5.773875460876783,4.321814702105007,4.784442660929872
1770451754240,134,6,5.99901714704911,4.367101361538732,5.014597293959569
1770451754244,134,6,5.8475455787011414,3.942790692169493,4.869119510516143
1770451754248,134,6,5.3328570738013745,4.142898250002874,4.360179716189863
1770451754252,133,5,4.548803374014964,3.225001249406845,3.5811377474582624
1770451754256,131,3,3.655814229220546,1.5248946543180182,2.6931470363769776
1770451754260,131,3,2.8189161422371365,1.1901666487261673,1.8616561626325596
1770451754264,131,3,2.1400961521033635,1.071750229038013,1.187594999997
1770451754268,130,2,1.6360868975452263,0.0218098764374867,0.6865763285656805
1770451754272,129,1,1.2551605492236086,-0.700520319259476,0.3075950766117066
1770451754276,129,1,0.9021470879443764,-0.515391029479755,-0.0426040872765076
1770451754280,129,1,0.4753606368834332,-0.8190719471118499,-0.4647553342155559
1770451754284,128,0,-0.0752159961283847,-1.8842352781229657,-1.009709683927325
1770451754288,128,0,-0.7025519521114649,-2.1036742523896113,-1.6320588060050207
1770451754292,127,-1,-1.2801319591979208,-2.5260291105034387,-2.2061600089046833
1770451754296,126,-2,-1.6884236976461475,-3.7588436305812847,-2.6119171568330204
1770451754300,126,-2,-1.9109399929708952,-3.5250321510165152,-2.831792999658915
1770451754304,127,-1,-2.0517381341261367,-3.220217076316493,-2.9697397590094443
1770451754308,126,-2,-2.2420459428105133,-3.7909541752633222,-3.157593364864682
1770451754312,126,-2,-2.51512170259799,-3.823771326606686,-3.428330228054038
1770451754316,125,-3,-2.7729354037780434,-4.512463272146373,-3.682447089177835
1770451754320,125,-3,-2.8788851988024575,-4.739592145472182,-3.7827136051359664
1770451754324,126,-2,-2.78133224818197,-4.041461617741761,-3.6796280141040016
1770451754328,126,-2,-2.5470277968455175,-3.978480877567956,-3.4436356440896185
1770451754332,126,-2,-2.2828786242457144,-3.6383207087303946,-3.183040698060421
1770451754336,126,-2,-2.0266814188816964,-3.719532086172599,-2.93227639650822
1770451754340,126,-2,-1.6802275606816033,-3.5397647398374192,-2.587053140631924
1770451754344,128,0,-0.9803926269060992,-2.251521042471703,-1.8804916375052605
1770451754348,129,1,0.5139726881777755,-0.7929891349769942,-0.3734045497529008
1770451754352,132,4,3.363580143255845,2.1980300626521547,2.4885012608942345
1770451754356,136,8,8.014114716452099,6.411414287733093,7.1445970122080205
1770451754360,142,14,14.39320488061968,12.342364146289173,13.520279634539788
1770451754364,150,22,21.567529282192403,19.832625024620334,20.684777218958537
1770451754368,156,28,27.793521725461943,26.12370630800532,26.899701851809446
1770451754372,160,32,31.10979467251591,30.26704607193541,30.208818173926833
1770451754376,159,31,30.228447455852685,29.31415818941585,29.32770962743684
1770451754380,153,25,25.200128453808475,23.40515726061052,24.30777056187009
1770451754384,146,18,17.423969231914942,15.731452726428488,16.545209241245804
1770451754388,137,9,8.998876690402522,7.227336042357463,8.132885841517382
1770451754392,130,2,1.824886036063489,0.1872891369441895,0.9647065948386953
1770451754396,125,-3,-3.0427911460582173,-4.583660906836437,-3.9066276366290342
1770451754400,123,-5,-5.520386151455279,-6.6952209433689545,-6.394715056390997
1770451754404,123,-5,-6.184072537479026,-7.203921019315347,-7.069465479136541
1770451754408,122,-6,-5.81884463123914,-7.844824732468103,-6.709678528708025
1770451754412,123,-5,-5.095387283629175,-6.7513347753130715,-5.983958382082699
1770451754416,124,-4,-4.446909325534991,-5.645484102746365,-5.328881293037412
1770451754420,124,-4,-4.068455729290303,-5.647670935465804,-4.945167396082876
1770451754424,125,-3,-3.964745876725318,-5.294577257292509,-4.840673117602609
1770451754428,124,-4,-4.03226822462425,-5.7417904020035975,-4.910747842922759
1770451754432,124,-4,-4.159197381719343,-5.892222950159673,-5.040614484710483
1770451754436,124,-4,-4.2884602869952255,-5.465154807459306,-5.171616005845789
1770451754440,124,-4,-4.405284512775674,-5.856539659124002,-5.289357542686623
1770451754444,124,-4,-4.482321942847432,-6.1129830041091235,-5.367329495596154
1770451754448,124,-4,-4.454284162091098,-5.908391291578076,-5.340436716747876
1770451754452,124,-4,-4.252729934114658,-5.7781044298983995,-5.140001013745479
1770451754456,124,-4,-3.8647112612117223,-5.5262084746073015,-4.753086895645309
1770451754460,125,-3,-3.356715427946943,-4.834338952444926,-4.24669034038623
1770451754464,126,-2,-2.8389052861647373,-4.146025048756822,-3.7314455864181753
1770451754468,126,-2,-2.400373099921802,-3.8820465918416143,-3.29602410036198
1770451754472,126,-2,-2.0723391635861104,-3.835676937993489,-2.970433959467201
1770451754476,126,-2,-1.8410445322973197,-3.4395936454091913,-2.740296041943205
1770451754480,127,-1,-1.6760811663347082,-2.9445960101204434,-2.576078095598376
1770451754484,127,-1,-1.5379038972175991,-3.05186245685567,-2.439599961579084
1770451754488,127,-1,-1.3768024977233917,-2.9766283028130633,-2.281416570984897
1770451754492,127,-1,-1.1543860208251768,-2.771263785285501,-2.062275543687649
1770451754496,127,-1,-0.8790037878768009,-2.479139306277347,-1.7898403751760652
1770451754500,128,0,-0.6131502625358429,-1.9262529303432407,-1.526789333398159
1770451754504,128,0,-0.4353889300600533,-2.0804526515582045,-1.352150068134312
1770451754508,128,0,-0.3873801363606552,-1.9537312403417624,-1.3075707374854155
1770451754512,128,0,-0.4484403999883847,-1.8270282983263009,-1.371897689505403
1770451754516,127,-1,-0.5502747136882956,-2.3877442743260255,-1.4764642282575098
1770451754520,128,0,-0.6113823578903537,-2.068922611292194,-1.5399127961579333
1770451754524,128,0,-0.5636609090762231,-1.891450852126507,-1.4947099401861572
1770451754528,128,0,-0.3627714272899567,-2.2168063777918023,-1.2970997280931695
1770451754532,128,0,0.0069333869789591,-1.5197484963524115,-0.9316686170704032
1770451754536,129,1,0.5242392431418905,-0.7299664503687338,-0.4192227480282207
1770451754540,129,1,1.1236205576278802,-0.7195748268241133,0.1756970115252847
1770451754544,130,2,1.7022626856600982,-0.2394330292346749,0.7508345609862472
1770451754548,131,3,2.1594044453825156,1.0857259450351853,1.204678387517409
1770451754552,131,3,2.459589425810467,1.2105341302042003,1.5007739718202873
1770451754556,130,2,2.661807322860517,0.4899144164442863,1.6985330945943562
1770451754560,131,3,2.8689414599541374,1.1107272662773218,1.9019461612641837
1770451754564,132,4,3.145090501004708,1.8652457952972377,2.1748202944561754
1770451754568,132,4,3.4904894641105852,2.01121456963711,2.5159704627565627
1770451754572,132,4,3.8827180800983583,2.255269916238136,2.9027162837859772
1770451754576,132,4,4.31176729561739,2.4621065311337262,3.3264279217792065
1770451754580,133,5,4.768952854290549,3.1207576312657883,3.77936514826276
1770451754584,134,6,5.225812833386475,3.838972589762835,4.232264626873944
1770451754588,134,6,5.642552402876047,4.041114391029425,4.64410732549685
1770451754592,134,6,5.99155584626242,4.206647582215697,4.987397261775483
1770451754596,134,6,6.263857123308502,4.535922262302264,5.254354863826817
1770451754600,135,7,6.46154511326446,4.999522129387918,5.447740683642637
1770451754604,135,7,6.598623100834385,4.982302545937005,5.581010628390711
1770451754608,135,7,6.708657892464999,4.867456854009177,5.686600651411205
1770451754612,135,7,6.836893118703626,5.394169872969759,5.809070374666942
1770451754616,135,7,7.009465462647556,5.350205871062824,5.974975966926629
1770451754620,135,7,7.201054828922098,5.146638303585409,6.160244047583441
1770451754624,136,8,7.336424965970531,5.8668678841590465,6.290526094741654
1770451754628,136,8,7.342631762909424,5.93275252030551,6.292582213246577
1770451754632,135,7,7.215938762670641,5.369616176606346,6.161670062541894
1770451754636,135,7,7.0330373627544,5.344806834248793,5.973696999451737
1770451754640,135,7,6.878754737695683,5.146324098119407,5.8132922856252325
1770451754644,135,7,6.747609303973684,4.86362860134866,5.675318717163071
1770451754648,135,7,6.510698546349855,4.917740059653868,5.431638310960286
1770451754652,134,6,5.9874762160873045,4.417249458123958,4.9024938157465865
1770451754656,133,5,5.073662664663972,3.257754855414684,3.983750327185821
1770451754660,132,4,3.8273240030237,2.2442325089403976,2.732699639888348
1770451754664,131,3,2.443872384546533,0.7397543368698096,1.34377736318944
1770451754668,129,1,1.1339425776384218,-0.9653973681214352,0.0275300095034933
1770451754672,128,0,-0.0048008893653164,-1.6596736445530502,-1.1175086633326408
1770451754676,127,-1,-1.0191050039498148,-2.712355368277989,-2.1374222359063006
1770451754680,126,-2,-2.007886324040544,-3.7529981971324538,-3.131590508723191
1770451754684,126,-2,-2.991063066021108,-4.3139521024924425,-4.120917454396849
1770451754688,124,-4,-3.868580869110619,-5.886993179986271,-5.005428190216793
1770451754692,123,-5,-4.518048867525995,-6.749907904667876,-5.661656461682024
1770451754696,123,-5,-4.935433638890066,-6.614537208208537,-6.084759890462569
1770451754700,123,-5,-5.264397219375853,-6.8667752954782975,-6.418930600599116
1770451754704,123,-5,-5.668790880898308,-7.204953364175208,-6.829097925323628
1770451754708,122,-6,-6.17219304194002,-7.998024114851315,-7.339073846921327
1770451754712,121,-7,-6.628187943879359,-8.639684102006415,-7.801704081401995
1770451754716,121,-7,-6.852791190889054,-8.74002659892409,-8.032298824259117
1770451754720,121,-7,-6.7915731511882855,-8.729784305348737,-7.976563050555914
1770451754724,122,-6,-6.565087806295903,-8.367048166675506,-7.755922018704261
1770451754728,122,-6,-6.354057496010281,-7.804703171891935,-7.551773990873742
1770451754732,122,-6,-6.237307317055278,-7.862279347222273,-7.4424067015881405
1770451754736,121,-7,-6.139915963673479,-8.514755494863739,-7.351444797319849
1770451754740,122,-6,-5.935829726498117,-7.971573959765898,-7.152308528468688
1770451754744,123,-5,-5.589588531186003,-7.121857952430812,-6.81096692450243
1770451754748,123,-5,-5.193193380028242,-7.044458763798848,-6.421118691469186
1770451754752,123,-5,-4.881283533456434,-6.614237917011392,-6.117054684597512
1770451754756,123,-5,-4.7277163754967395,-6.7818462734785605,-5.9706473137941005
1770451754760,123,-5,-4.713237493742875,-6.728660131398693,-5.9616541736489115
1770451754764,124,-4,-4.763024748442769,-6.3418871220366,-6.0164476687470305
1770451754768,123,-5,-4.803503576678741,-6.8511748572615785,-6.063041565715469
1770451754772,123,-5,-4.802869415358515,-6.746927868635638,-6.069493299520265
1770451754776,123,-5,-4.781290317606937,-6.725760175881814,-6.054543095672874
1770451754780,123,-5,-4.781466509710393,-6.742738872414387,-6.060309267739233
1770451754784,124,-4,-4.811017468647384,-6.37957715747702,-6.095383949706996
1770451754788,123,-5,-4.808190880182928,-6.756955024724159,-6.098933671253963
1770451754792,123,-5,-4.682886365381906,-6.86108015177389,-5.980345352135303
1770451754796,123,-5,-4.410865118990888,-6.622435234238928,-5.714454303283034
1770451754800,124,-4,-4.080956786277442,-5.8523730333318715,-5.390484648669671
1770451754804,125,-3,-3.8258270450430385,-5.289193836117722,-5.14220887423849
1770451754808,124,-4,-3.697052339959872,-5.798077942555007,-5.0207733099533645
1770451754812,124,-4,-3.617872301620648,-5.84598569397963,-4.947393665911444
1770451754816,124,-4,-3.4598508615774666,-5.645684732882923,-4.792920573342877
1770451754820,125,-3,-3.1520399198290305,-4.845952245386012,-4.488689751879866
1770451754824,126,-2,-2.7191845319852432,-4.298459328381976,-4.06226037311984
1770451754828,125,-3,-2.2526181660503553,-4.732137512890443,-3.6048076401492217
1770451754832,126,-2,-1.8781926127843571,-3.956830274751017,-3.2392462979238745
1770451754836,126,-2,-1.7324821157084167,-3.521018270085102,-3.0998293617289794
1770451754840,126,-2,-1.9078558724672108,-4.0241514600572605,-3.2793335929591185
1770451754844,126,-2,-2.3727983077272636,-4.0851169459581325,-3.7481613101741833
1770451754848,125,-3,-2.944579407520066,-4.90748427272596,-4.324683527238262
1770451754852,124,-4,-3.373690623134107,-5.832480651572887,-4.75913635563381
1770451754856,124,-4,-3.495525164607914,-5.605957097479597,-4.886663339384002
1770451754860,125,-3,-3.3269091059250258,-5.02596410114109,-4.724638965517491
1770451754864,125,-3,-3.029508295715786,-4.990703875345554,-4.434927727989457
1770451754868,125,-3,-2.785553045141748,-5.023690370930814,-4.198500786544892
1770451754872,125,-3,-2.6936625742237705,-4.705233779261797,-4.112312715926162
1770451754876,125,-3,-2.7430309652794516,-4.767458076341027,-4.165411023535178
1770451754880,125,-3,-2.850033441454586,-4.9027256587676025,-4.275770522234147
1770451754884,125,-3,-2.9177211209085683,-5.034343156726187,-4.3482217987832925
1770451754888,125,-3,-2.888528188125459,-5.019121994795979,-4.325632611316097
1770451754892,125,-3,-2.770264426413814,-4.6460992598236714,-4.214640956873719
1770451754896,125,-3,-2.6260035756137947,-4.930487431349596,-4.076617166875845
1770451754900,125,-3,-2.5330302942539498,-4.699464347497019,-3.988250820125653
1770451754904,126,-2,-2.529776566701496,-4.2291196681292185,-3.9890983232436663
1770451754908,125,-3,-2.584597313975523,-4.810263682934156,-4.04900702506883
1770451754912,125,-3,-2.621159629430783,-4.825789318749068,-4.091723137868891
1770451754916,125,-3,-2.591942476571458,-4.841292180079921,-4.0684798440928756
1770451754920,125,-3,-2.5304760292850785,-4.7392270437244495,-4.011941779556517
1770451754924,126,-2,-2.517634065704169,-4.210580936190431,-4.003446798393701
1770451754928,125,-3,-2.586472840331916,-4.756067357180742,-4.076998896420442
1770451754932,125,-3,-2.666493722632578,-4.921514396837734,-4.1623329544069385
1770451754936,125,-3,-2.634809571745522,-4.769575155353605,-4.136053394196739
1770451754940,125,-3,-2.429860437818977,-4.82045934400577,-3.936158801014243
1770451754944,126,-2,-2.1163181029090437,-4.109410553113892,-3.627402406547096
1770451754948,126,-2,-1.8367768028480187,-3.793319230511377,-3.3527176807901293
1770451754952,126,-2,-1.6946085451585875,-3.927858561108632,-3.215622052806725
1770451754956,126,-2,-1.6753113745695245,-3.7853486672918337,-3.201415532109669
1770451754960,126,-2,-1.6750535037267604,-3.8173978586566046,-3.2058737535869195
1770451754964,126,-2,-1.6065162003656606,-4.103215371483173,-3.1414769764003494
1770451754968,126,-2,-1.4822925378340626,-3.7116165584266145,-3.0212595266057747
1770451754972,127,-1,-1.3963641049696829,-3.0762349574406924,-2.940038000291291
1770451754976,126,-2,-1.4242916049401406,-3.623334125993429,-2.9734921165082966
1770451754980,126,-2,-1.5474398707327413,-4.034901956083468,-3.101970311113952
1770451754984,126,-2,-1.6763138009004526,-3.831695842063147,-3.2350572294033793
1770451754988,126,-2,-1.7363578461984617,-3.945684287612001,-3.298569123831125
1770451754992,126,-2,-1.7229281008602837,-3.868842803452897,-3.2889413522757662
1770451754996,126,-2,-1.68333345808885,-3.823152053649152,-3.2538850610785635
1770451755000,126,-2,-1.6616511597795478,-3.905137913488677,-3.2369587232523953
1770451755004,126,-2,-1.6636817577618772,-3.8752507637634537,-3.243470000859095
1770451755008,126,-2,-1.6658000329939058,-3.9154973345183617,-3.249965933083478
1770451755012,126,-2,-1.649339255738684,-3.86718891304315,-3.2381310700033925
1770451755016,126,-2,-1.6254577494478406,-3.874041509184919,-3.2188480002569264
1770451755020,126,-2,-1.6274354448157844,-3.8704095170343487,-3.224620849695006
1770451755024,126,-2,-1.6738113661884604,-3.8642199956530874,-3.273779346679438
1770451755028,126,-2,-1.7312417958021709,-3.9167042540900208,-3.333958945971305
1770451755032,126,-2,-1.7158120748937746,-3.837040917123499,-3.322555759458994
1770451755036,126,-2,-1.5503033902338863,-3.967489878097648,-3.1625190931822025
1770451755040,126,-2,-1.2428766102952922,-3.764308583811421,-2.8607552056207903
1770451755044,127,-1,-0.9109533703790094,-2.959520211834122,-2.533244404320463
1770451755048,127,-1,-0.703124442568142,-2.7708055075712457,-2.3282064842307073
1770451755052,127,-1,-0.6686425582317035,-2.989713074249896,-2.295726829040368
1770451755056,127,-1,-0.6923597671743478,-2.851722886125131,-2.321936855316948
1770451755060,127,-1,-0.5696455484537308,-2.887120266828738,-2.202972880652507
1770451755064,127,-1,-0.1738171089284694,-2.824434719126569,-1.811918215843925
1770451755068,128,0,0.4228595321376802,-1.837593210210437,-1.2202120539061525
1770451755072,129,1,0.9898947611594902,-0.94330328981157,-0.6576874737842606
1770451755076,129,1,1.3223681459421912,-0.9138853343561576,-0.329001990264463
1770451755080,129,1,1.415897411000387,-0.8550908926440932,-0.2384443319716473
1770451755084,129,1,1.479901889619316,-0.8300616118648501,-0.1766196251902125
1770451755088,129,1,1.7749688370644052,-0.7865571577587389,0.1167078324896293
1770451755092,130,2,2.4092818109202216,0.0042811850177253,0.7488663815374457
1770451755096,131,3,3.258303463674677,1.1293733826105878,1.594236262583769
1770451755100,132,4,4.060388236140635,2.063153033302705,2.390851650800087
1770451755104,132,4,4.588636660210083,2.3025598562134912,2.91309292175022
1770451755108,132,4,4.749574711203832,2.0865373297782703,3.0695492250114027
1770451755112,132,4,4.558343638938727,2.1564641020271704,2.876121512646878
1770451755116,132,4,4.070313959795406,1.9380528806894104,2.3868906968847545
1770451755120,131,3,3.3616263357470393,1.2413640742640537,1.6764165558178188
1770451755124,130,2,2.5534104541479143,0.1775479875546599,0.865738927529224
1770451755128,129,1,1.8086561078499468,-0.7968070304696941,0.1184966725065268
1770451755132,129,1,1.272187874970964,-0.9031143102293422,-0.4208765411052682
1770451755136,129,1,0.9949657467431356,-1.0891434181757882,-0.7024335314236562
1770451755140,128,0,0.8939960725818,-1.6742102337036382,-0.8087685164956484
1770451755144,128,0,0.7722032568073305,-1.9243317004127416,-0.935106811959214
1770451755148,128,0,0.4094119595512506,-1.63950077692807,-1.3006164852346571
1770451755152,128,0,-0.2971137561528547,-2.0652573040065323,-2.0088229083904356
1770451755156,126,-2,-1.2361721499781746,-3.971731911677405,-2.9494740921938947
1770451755160,125,-3,-2.134240121320531,-4.756520933267024,-3.849015751095169
1770451755164,125,-3,-2.7379561603507376,-4.860163783890309,-4.4541310693213045
1770451755168,124,-4,-2.978704502906361,-5.628967355282301,-4.697357370331591
1770451755172,125,-3,-2.9873773847203715,-5.100978876361427,-4.710848053116935
1770451755176,125,-3,-2.968593866085075,-4.928657805919666,-4.698602488475386
1770451755180,124,-4,-3.0569160997256337,-5.825877996359496,-4.79225003109733
1770451755184,124,-4,-3.263283229769221,-5.766108048252975,-4.9998277558517135
1770451755188,124,-4,-3.5125631639170027,-5.685276721380246,-5.246524104680437
1770451755192,124,-4,-3.6987547517110686,-6.052780349797846,-5.43040635522585
1770451755196,124,-4,-3.714805896305659,-5.968962922399919,-5.449093598145108
1770451755200,124,-4,-3.477357640105578,-5.8020689189614965,-5.220420273535166
1770451755204,124,-4,-2.9603009521225614,-5.776777304841989,-4.714540417816079
1770451755208,125,-3,-2.188167332707368,-4.6287073702450385,-3.949751749817197
1770451755212,127,-1,-1.1286499940206856,-3.113530770937464,-2.889513942057456
1770451755216,128,0,0.475018343693109,-1.9091538436782272,-1.2780924079007572
1770451755220,131,3,3.1584260794118784,1.1384730751100074,1.414171270659701
1770451755224,135,7,7.502184989270605,5.282616878737596,5.761000596339802
1770451755228,140,12,13.633058966291076,10.36807468390914,11.885852890052211
1770451755232,148,20,20.761534015894952,17.8794363832967,19.00099550776538
1770451755236,155,27,27.17118131158112,25.121291192072615,25.395052045814687
1770451755240,159,31,30.84052389813855,29.069636600493595,29.05244954222025
1770451755244,158,30,30.406754759685644,28.368585880133985,28.615189325422666
1770451755248,153,25,25.871141643720183,23.281010154260866,24.08576547525834
1770451755252,146,18,18.59617979769849,15.945910391886237,16.822439949749338
1770451755256,138,10,10.625423931694469,8.084493391710076,8.860941927625245
1770451755260,131,3,3.769022132987892,1.1021849912235009,2.005327970838165
1770451755264,126,-2,-1.0292120285708304,-3.588418865401017,-2.8009587961591533
1770451755268,124,-4,-3.770821087352556,-5.742358787714174,-5.554881732008001
1770451755272,123,-5,-5.0178427822248475,-7.029718323650733,-6.812722411467751
1770451755276,122,-6,-5.389553860915869,-7.941676194499232,-7.190028009539807
1770451755280,122,-6,-5.277993147313835,-7.886194542454949,-7.078417889002922
1770451755284,122,-6,-4.873514420345275,-7.562242078197624,-6.670799330137358
1770451755288,123,-5,-4.330954943478133,-6.759466932985917,-6.125847423769774
1770451755292,124,-4,-3.8514050938712,-6.00325204084912,-5.647364387603891
1770451755296,124,-4,-3.609486135318917,-5.968834153715961,-5.409869348929018
1770451755300,124,-4,-3.63710646194926,-5.87817751591116,-5.4426753540955595
1770451755304,123,-5,-3.808783546468967,-6.510549225510213,-5.617501123087008
1770451755308,123,-5,-3.952133783109802,-6.841848648004966,-5.761473919351545
1770451755312,124,-4,-3.9731298853634143,-5.854413758623616,-5.782645154319214
1770451755316,124,-4,-3.884036468868348,-6.159974243542983,-5.695461531668514
1770451755320,123,-5,-3.739047138845409,-6.660687206862926,-5.554117612448189
1770451755324,124,-4,-3.5666961947565294,-5.697275442450914,-5.385483225194077
1770451755328,124,-4,-3.3575326265677803,-5.677189236722804,-5.178792953597105
1770451755332,124,-4,-3.095382275777777,-5.9551490812893775,-4.9178758186553555
1770451755336,125,-3,-2.790021012056194,-5.112572615154026,-4.613491810045323
1770451755340,125,-3,-2.478028293614431,-4.64032419965409,-4.303294438573175
1770451755344,125,-3,-2.193537816081931,-4.758114439563027,-4.021602332879764
1770451755348,125,-3,-1.9454061702575247,-4.546909664230388,-3.776443627731364
1770451755352,126,-2,-1.7254027282517794,-4.112376721815922,-3.558787877827899
1770451755356,126,-2,-1.5278626731975762,-3.938138197914927,-3.362997191647658
1770451755360,126,-2,-1.3516132477225242,-3.788443419586851,-3.188330806963032
1770451755364,126,-2,-1.186898880605333,-3.632218203286964,-3.025225277810099
1770451755368,126,-2,-1.0093829713995437,-3.590978710686616,-2.849444548462631
1770451755372,127,-1,-0.78995771238761,-3.137863567444758,-2.6321773305752596
1770451755376,127,-1,-0.5130497094094866,-2.8259769357500764,-2.3579111894370444
1770451755380,127,-1,-0.1943300169026234,-2.957218912356195,-2.041738365367489
1770451755384,127,-1,0.1148787129865808,-2.3976685151525157,-1.7344316121044163
1770451755388,128,0,0.3538968595530002,-1.81885487154546,-1.4969910918632798
1770451755392,128,0,0.5031487173688579,-1.9309425399116036,-1.3496769701129083
1770451755396,128,0,0.6122273303203877,-1.9608085754574252,-1.2428214119444736
1770451755400,128,0,0.7678283915617944,-1.894681471688956,-1.0890275659338986
1770451755404,128,0,1.0289385593023157,-1.3557436638810885,-0.8291276854747445
1770451755408,129,1,1.393922638152869,-0.9094661068984328,-0.4654163417000354
1770451755412,129,1,1.8230223108338175,-0.7880105071227597,-0.038292992569276
1770451755416,130,2,2.2785326730191793,-0.0977523439710803,0.4146118190332364
1770451755420,130,2,2.737855250957544,0.2203265240581957,0.871300100856472
1770451755424,130,2,3.175887261438058,0.600255320311986,1.307212639193723
1770451755428,131,3,3.5489899806596497,1.0927559074793876,1.6787780190689203
1770451755432,131,3,3.8109432638151866,1.2855468688239593,1.9393779924052228
1770451755436,132,4,3.955588037150215,1.7889379273210635,2.082500677723515
1770451755440,131,3,4.043706137702619,1.374293218966895,2.1690679078345503
1770451755444,131,3,4.177230194884631,1.4503812883771978,2.301292149034897
1770451755448,132,4,4.435704178656762,2.259771881118842,2.558457366153605
1770451755452,132,4,4.829035812991812,2.1598615989018444,2.9498632664747095
1770451755456,133,5,5.300559617523535,2.884702194296574,3.4187899185942
1770451755460,133,5,5.767371786502489,3.3484559930587015,3.883083159813591
1770451755464,133,5,6.164883416906383,3.421923052746,4.278952486618343
1770451755468,134,6,6.472093846499517,4.372367490614315,4.5854905090343285
1770451755472,134,6,6.708268142052045,4.021471342650506,4.8212796132332665
1770451755476,134,6,6.905845561826412,4.053021286191037,5.017713407311681
1770451755480,135,7,7.080528965225219,5.198193041456017,5.189895540676969
1770451755484,134,6,7.219406860413952,4.571867970493177,5.325656794271077
1770451755488,134,6,7.289006557171536,4.253195882828225,5.393188679626928
1770451755492,135,7,7.260021682921216,5.169377962341186,5.363839272189062
1770451755496,135,7,7.147737771883119,4.892859280160156,5.25171699237541
1770451755500,134,6,7.036488066803365,4.394939837535387,5.139810584912714
1770451755504,134,6,7.035227100940872,4.384922812026938,5.137093297723579
1770451755508,134,6,7.173616707427974,4.449552078909942,5.273819197057384
1770451755512,135,7,7.334754660435407,5.017438822828307,5.43294217099834
1770451755516,135,7,7.304068657498706,5.031404303436041,5.399533063274221
1770451755520,134,6,6.899736692829192,4.296929806954729,4.992541200277884
1770451755524,133,5,6.074460415520596,3.4840026550280703,4.166214879829055
1770451755528,132,4,4.920652179267972,2.3607464598956014,3.013345224558491
1770451755532,131,3,3.6036487262190935,1.1452981830265792,1.697612910677574
1770451755536,130,2,2.28534005962137,-0.1082894049697653,0.3787951886854608
1770451755540,128,0,1.0722523495124578,-1.4938743476416207,-0.8369765426127798
1770451755544,127,-1,-0.0072685551403379,-2.763809705454076,-1.919789573150627
1770451755548,126,-2,-0.9902210193467668,-3.3271784292238133,-2.9047784619487955
1770451755552,126,-2,-1.9266566813680148,-4.18428201803935,-3.8413629381249823
1770451755556,124,-4,-2.816925103220785,-5.734831832628908,-4.730729761505223
1770451755560,124,-4,-3.589989229539537,-5.8491301036006575,-5.503395297765563
1770451755564,123,-5,-4.148196491767649,-6.406131205213756,-6.062708738061452
1770451755568,122,-6,-4.45234919235951,-7.652016927627103,-6.369036831870652
1770451755572,123,-5,-4.582109730872468,-6.865491310741181,-6.500771872669493
1770451755576,123,-5,-4.707453208722984,-6.978568052797446,-6.627189917311678
1770451755580,122,-6,-4.971604661621206,-7.660881749032019,-6.8917460562181345
1770451755584,122,-6,-5.376682131535064,-7.484055812756629,-7.296920066290141
1770451755588,121,-7,-5.777771652960418,-8.66598252242279,-7.697828004758883
1770451755592,121,-7,-5.996563303959547,-8.744299073143601,-7.916317621824358
1770451755596,122,-6,-5.955182601358854,-8.124935269650154,-7.8751955399136095
1770451755600,121,-7,-5.716735245905503,-8.46745456874192,-7.638162016498784
1770451755604,122,-6,-5.4116825844585605,-7.654287361412993,-7.335173890743129
1770451755608,122,-6,-5.130694832479129,-7.504075133735995,-7.055363973516226
1770451755612,122,-6,-4.878572964079284,-7.869384842044871,-6.802508780325828
1770451755616,123,-5,-4.610787107806279,-6.996915477697618,-6.533024262140892
1770451755620,123,-5,-4.298855821882868,-6.5364039090349895,-6.220624563390251
1770451755624,123,-5,-3.967600389624726,-6.604223712579035,-5.891080184836559
1770451755628,123,-5,-3.692864714476491,-6.494430116201761,-5.618789391295289
1770451755632,124,-4,-3.568054865978898,-5.911155213696382,-5.495004805653734
1770451755636,124,-4,-3.643884072360704,-5.893704562691086,-5.569766065906917
1770451755640,123,-5,-3.8697443028814376,-6.63067865085153,-5.793553833512904
1770451755644,123,-5,-4.092831898820643,-6.480922501600547,-6.015201842035275
1770451755648,123,-5,-4.139926228886606,-6.597745011159691,-6.06240877977223
1770451755652,123,-5,-3.9343633978851855,-6.811328729509048,-5.858173305160504
1770451755656,124,-4,-3.559512944662526,-5.942903342310354,-5.484728498883149
1770451755660,124,-4,-3.2091207455466355,-5.559927557673921,-5.134875849165641
1770451755664,124,-4,-3.050326460286351,-5.531378000970652,-4.97557678763507
1770451755668,124,-4,-3.1029450873153466,-5.522384355394884,-5.027097157481938
1770451755672,124,-4,-3.2323303034947157,-5.899359612023793,-5.15540118121268
1770451755676,124,-4,-3.259830043162099,-5.8058764260046845,-5.1821438911892095
1770451755680,124,-4,-3.0984176158544914,-5.669166932973603,-5.020162584773706
1770451755684,124,-4,-2.8043964330272004,-5.394616972437092,-4.725561515851483
1770451755688,125,-3,-2.509708666585796,-4.640722175803255,-4.430444805879892
1770451755692,125,-3,-2.302722611773813,-4.770441602368601,-4.223492028688751
1770451755696,125,-3,-2.1695289966670748,-4.924946000333774,-4.090656318890156
1770451755700,125,-3,-2.045834575324496,-4.480981937091607,-3.966945740686819
1770451755704,125,-3,-1.916642652173468,-4.604188100259529,-3.836716461899284
1770451755708,125,-3,-1.8519149670862616,-4.361077105319232,-3.770085009972639
1770451755712,126,-2,-1.9322781332100447,-4.082379236163064,-3.84867402536382
1770451755716,125,-3,-2.1360269990036036,-4.551767261770307,-4.051583005081902
1770451755720,125,-3,-2.3131723137323803,-4.844728910094219,-4.228380406978919
1770451755724,124,-4,-2.2976620553570433,-5.200679897996663,-4.2119015758084535
1770451755728,125,-3,-2.0623832143937024,-4.753535887405096,-3.9750248787789104
1770451755732,126,-2,-1.7590424766351265,-3.6716530527281126,-3.670831232947167
1770451755736,126,-2,-1.594970526550082,-3.915490223518781,-3.50730254035115
1770451755740,125,-3,-1.6679486022686294,-4.482178596538764,-3.5806867002855256
1770451755744,125,-3,-1.9112167319959463,-4.491363929174055,-3.822208107831097
1770451755748,125,-3,-2.170404521018969,-4.5241504596906115,-4.077627256859151
1770451755752,125,-3,-2.314946501557678,-4.791255002355939,-4.2185948520613445
1770451755756,125,-3,-2.2971498899223524,-4.843162189346656,-4.1992952342488294
1770451755760,125,-3,-2.149657532860065,-4.434891127858954,-4.052228359483885
1770451755764,125,-3,-1.9543692032879183,-4.593550652372672,-3.857658666488338
1770451755768,125,-3,-1.807555974385848,-4.365126000368912,-3.710351128127903
1770451755772,126,-2,-1.7856168699445851,-3.941247701090231,-3.686376029375072
1770451755776,125,-3,-1.9128714174943495,-4.665996349123295,-3.810779617700458
1770451755780,125,-3,-2.1441633344546096,-4.5406574486884494,-4.039392246565845
1770451755784,125,-3,-2.3788091523679995,-4.520934774827053,-4.271974361493619
1770451755788,124,-4,-2.5090397896479404,-5.374679952923301,-4.400411258486443
1770451755792,125,-3,-2.481366109322021,-4.952796717668747,-4.3707700703895025
1770451755796,125,-3,-2.3284328969679677,-4.565456828081546,-4.21601890594178
1770451755800,125,-3,-2.143063939922329,-4.643189246572781,-4.029699441518957
1770451755804,125,-3,-2.017926090289372,-4.3768033276315155,-3.9042747938820512
1770451755808,125,-3,-2.00445480933805,-4.512908580340749,-3.889766636765064
1770451755812,125,-3,-2.112010339692689,-4.808296187568504,-3.994414228195106
1770451755816,125,-3,-2.317490161316237,-4.632127818665042,-4.195776428468614
1770451755820,125,-3,-2.5576082013192476,-4.5777904941736285,-4.432375018652683
1770451755824,124,-4,-2.727879248038736,-5.384713714508449,-4.60063298300561
1770451755828,124,-4,-2.7304400043686057,-5.521251024429903,-4.6020319758009745
1770451755832,125,-3,-2.551214422606317,-4.760430261554243,-4.421600142912714
1770451755836,125,-3,-2.2873092569685727,-4.640974091408461,-4.156244498803541
1770451755840,125,-3,-2.0838223827458986,-4.529098949818161,-3.950963190569693
1770451755844,125,-3,-2.031524419497557,-4.395984538783825,-3.8960313880591055
1770451755848,125,-3,-2.11017034015595,-4.532148075769221,-3.9710104870789262
1770451755852,125,-3,-2.214550484102767,-4.693259634359588,-4.0715279489743255
1770451755856,125,-3,-2.235134780360325,-4.702427048349425,-4.0893709040308925
1770451755860,125,-3,-2.1341667966636075,-4.375231297875152,-3.9871776099441862
1770451755864,125,-3,-1.969399661675864,-4.564227393710368,-3.821580191571128
1770451755868,125,-3,-1.8520415634574736,-4.330993197506648,-3.702263592165322
