timestamp_ms,ecg_u8_raw,ecg_counts_raw_int,ecg_counts_filt_monitor,ecg_counts_filt_diagnostic,ecg_counts_filt_st
1769237763884,128,0,2.2246914288831117,-4.3125715762932675,-3.985485962234965
1769237763888,129,1,2.4489902866016102,-3.270394874328227,-3.74574740553642
1769237763892,129,1,2.871041335459384,-3.350591206995702,-3.310745052091569
1769237763896,129,1,3.652408964910826,-3.23967488057946,-2.519858988836705
1769237763900,131,3,4.7569172788571485,-1.4459517565744076,-1.407757133927578
1769237763904,132,4,5.902810857192815,-0.1424272171804306,-0.253527912518583
1769237763908,133,5,6.714658587332824,0.6170627853670849,0.5698850631748007
1769237763912,133,5,6.986061427223235,0.8621227981426278,0.8570219917020441
1769237763916,133,5,6.8514368516781285,0.578170047467939,0.7404733482641488
1769237763920,133,5,6.722021085662962,0.827673856221228,0.6277912469053493
1769237763924,133,5,7.005314278978301,0.650231143593226,0.9241675744409572
1769237763928,133,5,7.783600849296662,0.8933425642204385,1.712865106387484
1769237763932,135,7,8.690291322875517,2.7049727518539464,2.629784888049908
1769237763936,136,8,9.11748739536392,3.744900129476576,3.0685466716502465
1769237763940,135,7,8.628321158110383,2.7864364541858686,2.59293854759965
1769237763944,133,5,7.247006350462838,0.6978257520889488,1.2278911090834517
1769237763948,131,3,5.39510197629139,-1.0346771091290607,-0.6052722407971776
1769237763952,130,2,3.5617068382950023,-2.3311143251772837,-2.419777445813589
1769237763956,128,0,2.003759689856228,-4.116862104692384,-3.9614845210828737
1769237763960,127,-1,0.6870713636250494,-5.273189080387031,-5.2650237776009545
1769237763964,126,-2,-0.5568553874618538,-6.186527574472889,-6.4965256608647
1769237763968,124,-4,-1.8348532693720987,-8.054478632348498,-7.7600624687799105
1769237763972,123,-5,-3.112047402069413,-9.2985916279288,-9.020157974100446
1769237763976,122,-6,-4.271861562900371,-10.007823292555006,-10.16188327098704
1769237763980,121,-7,-5.226582358742071,-11.364323935835866,-11.0991446495174
1769237763984,120,-8,-5.975779662107899,-11.97491426337158,-11.831225561107695
1769237763988,120,-8,-6.576061066612141,-12.216769102850684,-12.413309938611896
1769237763992,119,-9,-7.061982838017924,-13.09416064278996,-12.879679903558838
1769237763996,119,-9,-7.398163975471579,-13.087349938168297,-13.196639442450824
1769237764000,119,-9,-7.522910715903802,-13.264758808918764,-13.304417532807063
1769237764004,118,-10,-7.4637120463745905,-13.944576389467096,-13.230475673624788
1769237764008,119,-9,-7.415271902310041,-13.227228095581436,-13.16728981395576
1769237764012,119,-9,-7.664208089057688,-12.99255558754028,-13.39859351520889
1769237764016,118,-10,-8.370312818286777,-14.121394376066908,-14.082469121934194
1769237764020,117,-11,-9.37486843169956,-15.161198928701584,-15.06117093238704
1769237764024,116,-12,-10.226405325997666,-15.95258493336287,-15.887205223348532
1769237764028,116,-12,-10.455281048100565,-16.201270104724856,-16.09546540986838
1769237764032,116,-12,-9.931595949747576,-15.898187663598009,-15.557095228014925
1769237764036,117,-11,-9.0518850913498,-15.164024169579228,-14.664910976670743
1769237764040,118,-10,-8.572590096965719,-14.026709307043948,-14.170194629982406
1769237764044,118,-10,-9.131168588900762,-14.00463678777874,-14.707841265672316
1769237764048,116,-12,-10.759175671429814,-16.149174321967816,-16.310081795571474
1769237764052,113,-15,-12.769530236116298,-18.820871827735303,-18.292049375860252
1769237764056,112,-16,-14.148564338180798,-20.227068388988165,-19.642947228480544
1769237764060,112,-16,-14.178474649372973,-19.831809708409747,-19.64829312151428
1769237764064,114,-14,-12.83307748879344,-18.11794148289114,-18.28409629202457
1769237764068,116,-12,-10.696110559651483,-16.007735331533464,-16.132871888508046
1769237764072,118,-10,-8.531257960501065,-13.80818461302697,-13.953536877469745
1769237764076,120,-8,-6.848979810700113,-12.31573006257698,-12.251204554568863
1769237764080,120,-8,-5.735544363118392,-11.516736122732308,-11.110108107175634
1769237764084,122,-6,-4.964194061008227,-10.520770171689248,-10.30655733804314
1769237764088,122,-6,-4.221430765992247,-9.386594681579195,-9.533263929960093
1769237764092,124,-4,-3.280058912677817,-8.458122838126695,-8.567742872344926
1769237764096,124,-4,-2.073861643548389,-7.55683037873138,-7.343328130708381
1769237764100,126,-2,-0.7131660081838387,-6.176531493585552,-5.965350431819351
1769237764104,127,-1,0.5449615128354899,-4.882231767882628,-4.68567915830595
1769237764108,128,0,1.4033031298676883,-3.804640322115577,-3.8002296288236814
1769237764112,129,1,1.6972423750392278,-3.149770672508505,-3.476555803618913
1769237764116,128,0,1.523541091332992,-3.6078888033362633,-3.62186985398815
1769237764120,128,0,1.1933011472145814,-4.245372457856135,-3.926757225524783
1769237764124,127,-1,1.007134812287528,-4.578216710932783,-4.0895358706294225
1769237764128,128,0,1.0286436542484536,-4.16468057484224,-4.044626168608786
1769237764132,128,0,1.0629341693513648,-3.6099703837696087,-3.985534876854667
1769237764136,128,0,0.8680712670157205,-4.1388556595895665,-4.153567875469044
1769237764140,127,-1,0.4084558815911734,-4.6239600644345495,-4.584514346540369
1769237764144,127,-1,-0.0798493461058904,-5.137876793357143,-5.0436817015603745
1769237764148,126,-2,-0.2716163491082042,-5.560738868052997,-5.207790136240741
1769237764152,127,-1,-0.0304039189720488,-5.085035585344023,-4.9411986890475585
1769237764156,127,-1,0.4495262125863477,-4.63503340562733,-4.4369173009996015
1769237764160,128,0,0.7658512924643477,-4.007003736617419,-4.095110519617735
1769237764164,128,0,0.6165964797173284,-3.753347035470892,-4.216482022927208
1769237764168,127,-1,0.0544580232949831,-4.823766165044877,-4.748547385925772
1769237764172,126,-2,-0.5278679827223707,-5.807078821955085,-5.299906519448793
1769237764176,126,-2,-0.677894354052381,-5.768694241279828,-5.4199607554440545
1769237764180,127,-1,-0.1963534515492659,-4.868998923147679,-4.910906752166316
1769237764184,128,0,0.7684929604569715,-3.758864108058312,-3.920413767877683
1769237764188,129,1,1.8912542396727736,-2.794908153883337,-2.771036555955
1769237764192,130,2,2.932071719393047,-1.7327271961215915,-1.7002067199614688
1769237764196,131,3,3.8771620572128143,-0.7899359246974527,-0.7226426450487025
1769237764200,132,4,4.868646072355213,0.2074591408663919,0.3000993173993334
1769237764204,133,5,5.997821470896292,1.2643945089108013,1.4568604487867356
1769237764208,134,6,7.131944297188145,2.2158842154021947,2.6163982933321495
1769237764212,135,7,7.9313173416186284,3.384575005087675,3.4428577329347467
1769237764216,136,8,8.083361059735346,4.097685780653116,3.62607983060045
1769237764220,135,7,7.589965369098834,3.444472269699853,3.167226860108376
1769237764224,134,6,6.848336735991157,2.036215038925332,2.4607187774406807
1769237764228,133,5,6.401171339809036,1.56724406251446,2.046177911917298
1769237764232,134,6,6.521375640847781,2.0704987943756272,2.1946101577867427
1769237764236,134,6,6.96735327068547,2.5128673075811627,2.6651596952581293
1769237764240,135,7,7.121143539928608,3.0954918353456025,2.8437043681771703
1769237764244,134,6,6.416477427990166,2.447310963244907,2.168679864705237
1769237764248,132,4,4.74269426704058,0.2281496101135878,0.5309790264207837
1769237764252,130,2,2.536893433467015,-1.5601184113062327,-1.635898050170871
1769237764256,128,0,0.5044995658901817,-3.7322164952233488,-3.632553954465553
1769237764260,126,-2,-0.8385534238224637,-5.645834792319658,-4.946256876386896
1769237764264,126,-2,-1.4889430174413083,-5.644029203068225,-5.571481762329066
1769237764268,126,-2,-1.913584939249667,-5.703221486659902,-5.96987114446962
1769237764272,125,-3,-2.663890330343234,-6.487693309915689,-6.689030546197276
1769237764276,124,-4,-3.9331504667326658,-7.796700980519799,-7.922631624804225
1769237764280,122,-6,-5.402390054639791,-9.47746788554871,-9.355291191523794
1769237764284,121,-7,-6.501718611129522,-10.756500926979768,-10.420481005580108
1769237764288,120,-8,-6.8825857621185405,-11.521266458962309,-10.770243366909323
1769237764292,121,-7,-6.7145847694277725,-10.586929281953909,-10.572553541215456
1769237764296,122,-6,-6.550785850460438,-9.624049822128086,-10.378802964374971
1769237764300,121,-7,-6.869642372361832,-10.58100754290358,-10.666704926029134
1769237764304,120,-8,-7.6902021599268,-11.583293881638884,-11.455065082722156
1769237764308,119,-9,-8.590653224228532,-12.66045614661987,-12.321813108955054
1769237764312,118,-10,-9.09437438842478,-13.354420388007265,-12.79012550397578
1769237764316,119,-9,-9.070580652761777,-12.799728952176917,-12.729780363505895
1769237764320,119,-9,-8.807885197371322,-12.275028148626207,-12.431627566173624
1769237764324,120,-8,-8.725596449162488,-11.8707817655117,-12.318318499220917
1769237764328,119,-9,-9.008942487104616,-12.28014252274271,-12.576378746319664
1769237764332,118,-10,-9.502880494127467,-13.71585167441075,-13.046906622243672
1769237764336,117,-11,-9.920793679596692,-14.344731599473883,-13.43586368710856
1769237764340,118,-10,-10.08366665092187,-13.629126760298508,-13.559673473582796
1769237764344,119,-9,-9.878061178734042,-12.47087708802021,-13.308010940943523
1769237764348,120,-8,-8.988471939110717,-11.573756647855612,-12.373749884200125
1769237764352,121,-7,-6.831206381110575,-10.411260370574386,-10.179810857974402
1769237764356,124,-4,-3.01002339803314,-7.547865277498467,-6.330741335948256
1769237764360,129,1,1.9588590715562084,-2.3605691422384343,-1.339677433993213
1769237764364,135,7,6.358456633467066,3.3451679181373746,3.079854140268002
1769237764368,137,9,7.91004935170325,5.6967942484519485,4.652744899706042
1769237764372,134,6,5.063380547542742,2.336905680981457,1.8339273928770208
1769237764376,126,-2,-1.9473806684558583,-5.24423938728706,-5.137402994096275
1769237764380,117,-11,-11.046255108823562,-14.633549457089494,-14.18537552336409
1769237764384,108,-20,-19.29424750033939,-23.285564587849983,-22.379041872610937
1769237764388,104,-24,-24.24466553087054,-27.54880108415465,-27.284102694242595
1769237764392,104,-24,-24.870609815965075,-27.31652902809759,-27.882028700443485
1769237764396,107,-21,-21.679150102006595,-24.50994960491235,-24.677415035275978
1769237764400,112,-16,-16.187895374539806,-19.333959900819632,-19.17546456731425
1769237764404,118,-10,-10.201078231799414,-13.507168084765471,-13.166974084421302
1769237764408,123,-5,-5.207913645592825,-8.29114259708417,-8.136390850955312
1769237764412,127,-1,-2.00870137733724,-4.459585417023885,-4.890153962780709
1769237764416,128,0,-0.594889469913725,-3.360090445009359,-3.4304302483319624
1769237764420,128,0,-0.3225680423756163,-3.3986218573796037,-3.1202724057966043
1769237764424,128,0,-0.3466618580909286,-3.408780995420692,-3.114420212759554
1769237764428,128,0,-0.1098159647528507,-3.2859496130735506,-2.850913059692853
1769237764432,129,1,0.4110551875481532,-2.366217182849147,-2.3025094303589335
1769237764436,130,2,0.8567458257843383,-1.391207764815011,-1.8271778769390064
1769237764440,130,2,0.8941893972634274,-1.3013782664494271,-1.758478171872155
1769237764444,129,1,0.5361961613565374,-2.4777698289088357,-2.0837064671384087
1769237764448,128,0,0.1212710257090878,-3.1255156179745893,-2.4641556255484325
1769237764452,129,1,0.0197281205821018,-2.449346781302287,-2.530553113040308
1769237764456,129,1,0.36258268257945,-2.22342424841193,-2.154103506374364
1769237764460,130,2,1.0179304838065004,-1.4036224308825571,-1.468032938225857
1769237764464,131,3,1.778357430441276,-0.3291806989822539,-0.6787729298986473
1769237764468,131,3,2.54682679807795,-0.1968815303759203,0.1189997262137216
1769237764472,132,4,3.355087358411602,0.6808207216571351,0.9585915011968388
1769237764476,133,5,4.234894455908816,1.7530915873774997,1.871212531965334
1769237764480,134,6,5.1006381319983545,2.6501026863420782,2.7693345930388977
1769237764484,135,7,5.771206877216518,3.70642983573879,3.4705254788691273
1769237764488,135,7,6.108763770451798,3.8177915998495537,3.837466016307391
1769237764492,135,7,6.13945244926552,3.7332354155327616,3.8980372234700513
1769237764496,135,7,6.0454640944923135,3.806263256249737,3.835659898183293
1769237764500,135,7,6.038324217036603,3.609483949242887,3.861338692057446
1769237764504,135,7,6.2218401363943645,3.8726012791475446,4.076813660852382
1769237764508,136,8,6.549987837918451,4.6623144312341775,4.434115203357278
1769237764512,136,8,6.892907294234025,5.017280343258468,4.803622982706247
1769237764516,136,8,7.133337372187544,4.559218522562683,5.070771184500167
1769237764520,136,8,7.218224951870121,4.926286591927113,5.185175566683082
1769237764524,137,9,7.167417653541305,5.631169307404136,5.166665971050468
1769237764528,136,8,7.075943867612266,4.933511915974576,5.107825812925037
1769237764532,136,8,7.101241402116386,4.889423543685506,5.163666574615955
1769237764536,137,9,7.400121090610954,5.689833038677748,5.490376130060827
1769237764540,137,9,8.029108003074388,5.917179381306855,6.145701714829059
1769237764544,138,10,8.879982983293063,6.649857667817516,7.02324833004409
1769237764548,139,11,9.720210575981415,8.024003026276207,7.89130489575437
1769237764552,140,12,10.33825198242134,8.870150602667556,8.53775642876561
1769237764556,140,12,10.697001418678484,8.756218669931851,8.924791698683702
1769237764560,140,12,10.966113057606144,8.950450536373118,9.222292758587214
1769237764564,141,13,11.398227473481624,9.60968715550799,9.683402534895
1769237764568,141,13,12.153848558937492,10.211879214550912,10.468160604601326
1769237764572,143,15,13.2160791414879,11.7064149941436,11.55828533580999
1769237764576,144,16,14.437805486581349,13.042259290086305,12.805720557446843
1769237764580,145,17,15.642929084460798,13.689177028551097,14.034921879519764
1769237764584,146,18,16.681791311988636,14.92371757758528,15.097869863742286
1769237764588,147,19,17.423181540761185,15.989639547326208,15.864825452429232
1769237764592,147,19,17.74417745723882,15.981613862016674,16.213229493140815
1769237764596,147,19,17.57116663820466,15.87639859226107,16.068387770964733
1769237764600,147,19,16.954874232310235,15.886233549501233,15.479117219031346
1769237764604,146,18,16.1001468181395,14.776124660476787,14.649354470772083
1769237764608,144,16,15.278082963771958,13.229420986134311,13.851403078579578
1769237764612,144,16,14.651380014577713,12.802458408039724,13.24956747168965
1769237764616,144,16,14.161039041375142,13.158891492056222,12.784428144820843
1769237764620,144,16,13.592525866228948,12.650136606124487,12.239724622479091
1769237764624,142,14,12.75725046132501,11.053256250509197,11.426694727722644
1769237764628,141,13,11.60943928389611,10.057737355491527,10.30145321715315
1769237764632,140,12,10.212398156160145,8.988353843104406,8.928749315399333
1769237764636,138,10,8.636545896836697,7.123052924811734,7.378152420620945
1769237764640,137,9,6.915100288820377,5.677594965171611,5.680709689205372
1769237764644,135,7,5.09038303801234,4.145557486535992,3.877656520341951
1769237764648,133,5,3.278735369876091,1.9953825763321933,2.086685509510242
1769237764652,131,3,1.6654397528861988,0.1214598275675253,0.495628639542411
1769237764656,130,2,0.4213150549392317,-0.8873222205746023,-0.7239073113162249
1769237764660,130,2,-0.3805702881427404,-1.3303380530085105,-1.5011569004560226
1769237764664,129,1,-0.78205358858661,-1.6728720273907696,-1.880990346181897
1769237764668,129,1,-0.9141186618206724,-2.233505050808168,-1.9947541053391895
1769237764672,128,0,-0.983804907486558,-2.484995187233365,-2.0470112148172124
1769237764676,129,1,-1.2590090126116331,-2.273490932933692,-2.303353209910336
1769237764680,128,0,-1.9838472565219991,-2.8615925973241914,-3.007759584226466
1769237764684,127,-1,-3.227575076488016,-4.053341470872729,-4.230300342687446
1769237764688,125,-3,-4.78387211955172,-5.841424417142543,-5.764633278220252
1769237764692,123,-5,-6.234141504785427,-7.7400445490948,-7.192011999378604
1769237764696,123,-5,-7.151573311572348,-8.028439354532798,-8.087207541529555
1769237764700,123,-5,-7.305778868717909,-7.959154241226451,-8.22249369136318
1769237764704,123,-5,-6.751267890670962,-7.936269535147472,-7.653034352481479
1769237764708,124,-4,-5.785927351359589,-6.855266838006065,-6.6740429446554685
1769237764712,125,-3,-4.821394349594852,-5.675783493519952,-5.693710162747246
1769237764716,126,-2,-4.208568305066785,-5.054054131685312,-5.062045836193402
1769237764720,126,-2,-4.07925378650068,-4.826672358029176,-4.912760177085569
1769237764724,126,-2,-4.292843451157928,-5.035607587059058,-5.107284688271604
1769237764728,125,-3,-4.541227096309613,-5.659607429201113,-5.337652161447176
1769237764732,125,-3,-4.552717108830985,-5.826227533327321,-5.331427649282958
1769237764736,126,-2,-4.242235453427298,-4.845412260589774,-5.0040456640102295
1769237764740,127,-1,-3.697097001815338,-3.929991805006385,-4.444169808791599
1769237764744,127,-1,-3.050830032765494,-3.891088141728572,-3.784859485938733
1769237764748,127,-1,-2.400896275437999,-3.702612791061564,-3.120965184623586
1769237764752,128,0,-1.8368175645132037,-2.7693560186455373,-2.5406258073995267
1769237764756,129,1,-1.4856767788061285,-1.8231340590042109,-2.1729013209468357
1769237764760,129,1,-1.474312015711766,-1.867912739602409,-2.1471989453976756
1769237764764,128,0,-1.8455820638883125,-2.8861657240184626,-2.505809199575052
1769237764768,127,-1,-2.533203420449726,-3.6235746661324617,-3.1797016601454224
1769237764772,127,-1,-3.4093416470289286,-3.843252240999369,-4.040224608526708
1769237764776,126,-2,-4.331057563697341,-4.650420724712421,-4.946639313067543
1769237764780,125,-3,-5.1544971162137445,-5.970173096527432,-5.757190127565002
1769237764784,124,-4,-5.760201159596557,-6.688228131374203,-6.351989788007214
1769237764788,124,-4,-6.104515273954311,-6.761397726489958,-6.685593086734104
1769237764792,124,-4,-6.237691390735725,-6.699041545521916,-6.807202170712836
1769237764796,124,-4,-6.244679949254558,-6.674143180687626,-6.801663956061582
1769237764800,124,-4,-6.157056802816019,-6.9091860889764,-6.7007265498276105
1769237764804,124,-4,-5.924370524718764,-6.612930543081477,-6.454664704718697
1769237764808,125,-3,-5.473326392523806,-5.83737661439525,-5.991808972238388
1769237764812,125,-3,-4.803535486413254,-5.555569525249567,-5.313118605859323
1769237764816,126,-2,-4.043307454410554,-4.752393408724614,-4.546211698901184
1769237764820,127,-1,-3.415093842127325,-3.740002826892624,-3.9107511773764494
1769237764824,127,-1,-3.1134113148122267,-3.689098664648227,-3.5985795565484024
1769237764828,127,-1,-3.1608915396030475,-3.74289273072166,-3.632437118102066
1769237764832,127,-1,-3.343489341337088,-3.5860364120713877,-3.80155327119499
1769237764836,127,-1,-3.298947055281106,-3.6709929707934577,-3.747156412567522
1769237764840,127,-1,-2.7429691396062044,-3.707699688387449,-3.185209825122622
1769237764844,128,0,-1.6979182630508631,-2.642966128682703,-2.1353267987373803
1769237764848,130,2,-0.528606304267036,-0.7486730381652147,-0.9599828665864828
1769237764852,131,3,0.2973069005516628,0.467924356436427,-0.1267247896864676
1769237764856,131,3,0.5567958899467114,0.3423022589711006,0.1409545604529336
1769237764860,130,2,0.422374228287428,-0.6330342412085392,0.015851823394581
1769237764864,130,2,0.2796165472880382,-0.6409715810784116,-0.1169820909558176
1769237764868,131,3,0.3917180983285011,0.2796239928560817,0.0031510885928578
1769237764872,131,3,0.7126989163499533,0.5125465271283951,0.3282958663121489
1769237764876,131,3,0.9716165037405572,0.3683512420495933,0.589090975955187
1769237764880,131,3,0.907350357685429,0.4418614795775171,0.5282637535836265
1769237764884,131,3,0.4599602547523627,0.3283304803820277,0.0877588955739661
1769237764888,130,2,-0.1961229264798478,-0.6446796102339758,-0.5597769058170714
1769237764892,129,1,-0.7802020159633573,-1.510965399743943,-1.1367700783446535
1769237764896,129,1,-1.1030196376951824,-1.508018885365761,-1.4554419013617954
1769237764900,129,1,-1.1923128956594946,-1.6072561177230384,-1.54260873245972
1769237764904,129,1,-1.251153858180033,-1.5455790656526585,-1.5993782453356755
1769237764908,129,1,-1.4829722882449976,-1.7469034875885767,-1.828018976169212
1769237764912,128,0,-1.9226626519517376,-2.3426354820399324,-2.263745798063353
1769237764916,128,0,-2.408031060700669,-2.5995178301127195,-2.7451143362307167
1769237764920,127,-1,-2.7169785122622594,-3.4288733968097342,-3.0499932126353353
1769237764924,127,-1,-2.760286715097198,-3.657864651089268,-3.0889998969096943
1769237764928,128,0,-2.661920219740919,-2.5981914902543344,-2.987253314712234
1769237764932,128,0,-2.653531294457105,-2.4196678808258767,-2.9780449501284125
1769237764936,127,-1,-2.895164344117694,-3.454720404550743,-3.2210153784014297
1769237764940,126,-2,-3.403894932465083,-4.4786335825466725,-3.7308431790892342
1769237764944,126,-2,-4.123433291472923,-4.562985154487958,-4.449837798547877
1769237764948,126,-2,-4.993136114621451,-4.660595064481182,-5.3178773678698406
1769237764952,124,-4,-5.913473568126545,-6.25567209453313,-6.23532476815385
1769237764956,123,-5,-6.6818666585638145,-7.5752220634600755,-6.998246581943501
1769237764960,123,-5,-7.025525954495823,-7.233388247695837,-7.335029592262862
1769237764964,124,-4,-6.742296976548441,-6.796638062205244,-7.04927089362307
1769237764968,124,-4,-5.859053931361085,-6.378476670908853,-6.1732533307478255
1769237764972,125,-3,-4.709852840531926,-5.400964817115881,-5.039005036498266
1769237764976,126,-2,-3.8471946491427738,-4.466415889590707,-4.189204048405472
1769237764980,126,-2,-3.7298703921772183,-4.101540582802608,-4.072877360818189
1769237764984,127,-1,-4.275833114817853,-4.102315848165773,-4.606575159554566
1769237764988,126,-2,-4.594081115417582,-3.7946361964352504,-4.906937429142698
1769237764992,127,-1,-3.2722474706605937,-4.112575642889658,-3.572029061178341
1769237764996,128,0,0.7259709856653309,-1.5085806217201665,0.4269897458746108
1769237765000,138,10,7.063853610298649,6.922967837120094,6.750827096347415
1769237765004,144,16,13.71754948900702,13.964245448996513,13.379323788896674
1769237765008,148,20,17.730842537682243,17.220173621686516,17.36712618091737
1769237765012,147,19,16.661446343030867,16.86683344187966,16.28522497908238
1769237765016,140,12,9.8721314930947,9.63125615558818,9.502463664196217
1769237765020,129,1,-1.0575786935398694,-1.306787639796115,-1.4077477213559255
1769237765024,117,-11,-13.004542923187024,-13.596375615662112,-13.33546233811353
1769237765028,106,-22,-22.679437119730096,-24.266392075423248,-23.00229877137548
1769237765032,102,-26,-27.957487884811645,-28.392261733904483,-28.287075266298675
1769237765036,102,-26,-28.47659950103384,-28.13311497958242,-28.824377350689705
1769237765040,105,-23,-25.318023103846805,-25.403961468144388,-25.687777064829113
1769237765044,110,-18,-20.167353568760745,-20.49006813405695,-20.554199232915263
1769237765048,115,-13,-14.560265876086438,-15.289225203123198,-14.954068482447177
1769237765052,120,-8,-9.548371626217447,-10.340976732603783,-9.94029575539076
1769237765056,124,-4,-5.710270372317092,-6.104399492513227,-6.097940385434132
1769237765060,127,-1,-3.253227760562156,-3.397551774005093,-3.640547193418394
1769237765064,128,0,-2.062395150205148,-2.4238582540733415,-2.454778395406932
1769237765068,128,0,-1.7415559771289637,-2.2908068628830343,-2.1414122733320493
1769237765072,128,0,-1.7388757314260972,-2.285411175244617,-2.145301839939714
1769237765076,128,0,-1.554728020864672,-2.0797518381903175,-1.9666232419467755
1769237765080,129,1,-0.929505517921264,-1.3517368575226798,-1.3480657434109968
1769237765084,130,2,0.089860614244531,-0.4103457596504709,-0.3380971690797287
1769237765088,131,3,1.2282167011859184,0.7920650536807452,0.7894164145968738
1769237765092,132,4,2.151832888320327,1.6416717374993972,1.7037540266807012
1769237765096,132,4,2.6429589322227205,2.108144134322484,2.1890685648248285
1769237765100,133,5,2.6998638546837386,2.470443230650197,2.242746888005238
1769237765104,132,4,2.515047277629248,1.881301491067236,2.0543746291609164
1769237765108,132,4,2.3410574239747177,1.537529937294858,1.873664135077601
1769237765112,132,4,2.323716967835362,1.9599537687247608,1.8455675153439657
1769237765116,132,4,2.41522210239382,1.88029670130848,1.9241655672712217
1769237765120,132,4,2.4313660190788617,1.7134277257704844,1.9288534705706897
1769237765124,132,4,2.220147323049929,1.786537133019927,1.710206790752106
1769237765128,132,4,1.8315467589834695,1.5998097140957888,1.3175856051860482
1769237765132,131,3,1.5584272889991873,1.0422400770741609,1.0406717920843265
1769237765136,131,3,1.7807007675013449,0.7919738316172906,1.2561771695662562
1769237765140,132,4,2.688542484965085,1.9177223559860153,2.152964683814208
1769237765144,134,6,4.087644900217423,3.639835226426636,3.5377554584163846
1769237765148,135,7,5.460889463056538,4.8032579085748,4.896327489198145
1769237765152,136,8,6.27214259860546,5.917188219015736,5.695926496469968
1769237765156,136,8,6.308185306431656,5.948636716288548,5.725063348196974
1769237765160,135,7,5.819583851764751,4.836792331417604,5.232889080865745
1769237765164,135,7,5.3605613132561185,4.777197129366936,4.769731084572999
1769237765168,135,7,5.434121830303552,4.748505098687697,4.8349139563033825
1769237765172,135,7,6.176492426977128,5.0233314960274855,5.5638028589785185
1769237765176,137,9,7.285269190478553,6.933762717553252,6.656327377167476
1769237765180,138,10,8.233717966111,7.88582437864325,7.589537477990584
1769237765184,138,10,8.620380046289373,7.814291134320637,7.964888753878968
1769237765188,138,10,8.413666214930057,7.75016669442846,7.751086224771503
1769237765192,137,9,7.9401179551508365,7.101325643245865,7.272125452424588
1769237765196,137,9,7.654060006024207,6.888499548035103,6.97885420752607
1769237765200,137,9,7.860109838157562,7.047022505524684,7.174140791841928
1769237765204,138,10,8.562626908825623,7.668842031256723,7.863182941933744
1769237765208,139,11,9.51695372917352,9.024082133982368,8.803292678627905
1769237765212,140,12,10.423793921325217,9.823797400867456,9.696585954970784
1769237765216,140,12,11.117552551609204,10.27307317070303,10.378071612815194
1769237765220,141,13,11.619172848900202,10.693472019858245,10.86903484914942
1769237765224,141,13,12.045764125274417,11.101746483094026,11.28663438179642
1769237765228,142,14,12.486158992595378,11.662929447508132,11.718801096329608
1769237765232,142,14,12.955478691435646,12.22403802858443,12.178724830796462
1769237765236,143,15,13.437617312695094,12.97483307924532,12.648658422900644
1769237765240,143,15,13.924998808024355,13.005546757806291,13.121325621968404
1769237765244,143,15,14.381075607287553,12.90757997729153,13.56228053865205
1769237765248,144,16,14.671542200712732,13.864772729580304,13.839142682300412
1769237765252,144,16,14.586273160600117,14.13426619919512,13.742291770589649
1769237765256,143,15,13.987669131701637,13.092832490776916,13.133860096275903
1769237765260,142,14,12.96272194680146,11.973748535332614,12.100325021094614
1769237765264,141,13,11.820850761938416,10.989703327101346,10.94967380289337
1769237765268,140,12,10.907357964780225,9.833072585563606,10.024969022258848
1769237765272,139,11,10.354766850765444,9.250956643122604,9.457683808616174
1769237765276,139,11,9.947591069928349,9.04351610315474,9.034002714901124
1769237765280,138,10,9.212348580107877,8.08234963528351,8.283447648241651
1769237765284,137,9,7.705679500979866,6.954331405951668,6.764060257557502
1769237765288,135,7,5.329199939930664,4.885225531729161,4.376521845900015
1769237765292,131,3,2.4455735897892894,1.3033276464935706,1.4824768159441095
1769237765296,128,0,-0.3145702775118524,-1.9793257157579487,-1.2870717763718598
1769237765300,126,-2,-2.42227422375741,-3.787235913724958,-3.4032333163373063
1769237765304,126,-2,-3.705119777334647,-4.148052489742543,-4.6960178749811226
1769237765308,125,-3,-4.312964526945817,-4.915321258666099,-5.318118919806555
1769237765312,124,-4,-4.506747684428714,-5.850308242102532,-5.529995246862173
1769237765316,124,-4,-4.514515929156464,-5.74769508813389,-5.555631644752325
1769237765320,124,-4,-4.544085572764659,-5.979187765358989,-5.598983222101543
1769237765324,124,-4,-4.82222636010477,-5.9001095070412735,-5.886503394484699
1769237765328,124,-4,-5.515137085675399,-6.075776183525734,-6.587158493312229
1769237765332,122,-6,-6.569302203361216,-7.643009404541296,-7.650300536754433
1769237765336,121,-7,-7.660397040611009,-8.869758117458062,-8.752617924569456
1769237765340,120,-8,-8.367782814494191,-9.838384023279332,-9.473201928384402
1769237765344,120,-8,-8.468750469570193,-9.957900126874986,-9.58905020155518
1769237765348,121,-7,-8.106592013472671,-8.950720272269471,-9.24287892556725
1769237765352,121,-7,-7.679761123038914,-8.672011109329334,-8.831220161893096
1769237765356,121,-7,-7.534876871853315,-8.801934754700575,-8.698196871334236
1769237765360,121,-7,-7.701756342483226,-8.857423230618778,-8.873284447604142
1769237765364,121,-7,-7.865870296789678,-8.900294144119233,-9.044862613149444
1769237765368,121,-7,-7.601179015373425,-8.921532623335754,-8.7904003741555
1769237765372,121,-7,-6.710816007163984,-8.609868019160594,-7.91393224462349
1769237765376,123,-5,-5.430699341518757,-6.805978178582389,-6.649734121722252
1769237765380,125,-3,-4.3167035147711905,-4.819871131983847,-5.551566338566893
1769237765384,125,-3,-3.8727552537257743,-4.86520419692953,-5.121607571178003
1769237765388,124,-4,-4.208872835161148,-5.9281598785237914,-5.468581703845125
1769237765392,123,-5,-4.997540660445926,-6.456570945908769,-6.265287676549913
1769237765396,123,-5,-5.72946686068676,-6.996758350949712,-7.004996119926804
1769237765400,122,-6,-6.036036903531334,-7.489247822673862,-7.321931798690516
1769237765404,123,-5,-5.847812400176454,-7.202533649157816,-7.147144772256512
1769237765408,123,-5,-5.327551451112845,-6.4611193113533085,-6.64143918580533
1769237765412,124,-4,-4.681220759597349,-5.862145320539769,-6.008552161176146
1769237765416,124,-4,-4.01111901177026,-5.575881690559182,-5.350067507102889
1769237765420,125,-3,-3.3122658000682708,-4.801482644581387,-4.661779771357667
1769237765424,126,-2,-2.580622348157564,-3.919799366334726,-3.9406680963742895
1769237765428,126,-2,-1.909434622458564,-3.5507201666172956,-3.2803183849597533
1769237765432,127,-1,-1.4709169140162663,-2.815364899936785,-2.8529257428496733
1769237765436,127,-1,-1.38803944164997,-2.4615903724951465,-2.781676793306872
1769237765440,127,-1,-1.6084154840536042,-2.97985638101864,-3.0140990118722697
1769237765444,126,-2,-1.9087351556002552,-3.591968198824502,-3.3256850069390835
1769237765448,126,-2,-2.0479766753000908,-3.861330470652214,-3.474087374797887
1769237765452,126,-2,-1.9382979001565648,-3.3902158014560566,-3.372204380417809
1769237765456,127,-1,-1.6761753269190065,-2.845679523675724,-3.119481143547815
1769237765460,127,-1,-1.4206463263897795,-2.560079621218328,-2.87707917650608
1769237765464,127,-1,-1.264514731672595,-2.922742819909582,-2.736186726208587
1769237765468,126,-2,-1.2281710106708807,-3.4986886444766108,-2.7130865542861065
1769237765472,127,-1,-1.3330410225777376,-2.643209864953783,-2.8268012735646195
1769237765476,127,-1,-1.6080079096450488,-2.5690413019565597,-3.107597133375594
1769237765480,126,-2,-1.98940183841193,-3.76244729018866,-3.4950430229300755
1769237765484,126,-2,-2.2480441830204247,-3.668188720158668,-3.7622410003026654
1769237765488,126,-2,-2.0818322770454794,-3.680735379302546,-3.607430065277394
1769237765492,126,-2,-1.3410920929006598,-3.40775995406797,-2.879728398087435
1769237765496,128,0,-0.1989882665161813,-1.71853300137529,-1.7503599346077992
1769237765500,129,1,0.9071165450339768,-0.5778909653889293,-0.6551032285126208
1769237765504,130,2,1.5597100328506617,0.2292122204686379,-0.0110323727931316
1769237765508,130,2,1.6635745617277042,0.4611608083273735,0.0860924053603779
1769237765512,129,1,1.5123552193934804,-0.4753424470576428,-0.0710407897800426
1769237765516,129,1,1.5446712053544962,-0.6159238560259324,-0.0451838265601862
1769237765520,130,2,1.9827199465282488,0.4177369503848247,0.3840888130637312
1769237765524,131,3,2.6521702557797395,1.2623060913006547,1.041610840417289
1769237765528,131,3,3.118700584762976,1.5434062094516188,1.4948306199430776
1769237765532,131,3,3.008272378811585,1.4539292337914531,1.3733516350838628
1769237765536,130,2,2.2565451146547346,0.5385829123648929,0.6151049735194833
1769237765540,129,1,1.1275041457970092,-0.7189684456572252,-0.5172965152442996
1769237765544,128,0,0.0240027740697537,-1.4968795538957993,-1.6246866048083866
1769237765548,127,-1,-0.7635611661248237,-2.6496893029046347,-2.419362076081857
1769237765552,126,-2,-1.2098210557202056,-3.262885550080495,-2.8759499098702404
1769237765556,127,-1,-1.5208665737159532,-2.719584747493795,-3.1986095423062566
1769237765560,126,-2,-1.9510564255132024,-3.382205518182644,-3.6392031564389953
1769237765564,125,-3,-2.613441491177906,-4.794302270988165,-4.308857230237656
1769237765568,124,-4,-3.4189959269674635,-5.251979718034208,-5.118613226819393
1769237765572,124,-4,-4.155929284922661,-5.629782515700329,-5.859097175535523
1769237765576,123,-5,-4.619501663185984,-6.290165294865686,-6.328117840392849
1769237765580,123,-5,-4.712811830782435,-6.739681128860525,-6.42898522315276
1769237765584,123,-5,-4.486752471929194,-6.3961948856069695,-6.211039792829361
1769237765588,124,-4,-4.104806200057812,-5.536655783032714,-5.836781540328385
1769237765592,124,-4,-3.74791456391965,-5.344982070732323,-5.4871453752265715
1769237765596,124,-4,-3.530087630575696,-5.467712066177935,-5.275717631689764
1769237765600,124,-4,-3.492373938078602,-5.552125866596895,-5.242749538244633
1769237765604,124,-4,-3.653272917109131,-5.48611950836433,-5.407377090220848
1769237765608,124,-4,-4.030431737028337,-5.398040871504763,-5.789553141621022
1769237765612,123,-5,-4.602722800063163,-6.414700256529571,-6.369444807169859
1769237765616,122,-6,-5.2753468216541535,-7.343461538328763,-7.050198719424799
1769237765620,122,-6,-5.909977067017786,-7.626566000598204,-7.68949588733662
1769237765624,121,-7,-6.395220945397635,-8.343933442327057,-8.174268230729817
1769237765628,121,-7,-6.683971177939689,-8.474115794510004,-8.461037519138955
1769237765632,121,-7,-6.771292310591867,-8.26411889073912,-8.55200084494384
1769237765636,121,-7,-6.661557092757036,-8.446305139700698,-8.455768941224548
1769237765640,121,-7,-6.378084549556728,-8.476310288425054,-8.191225273261892
1769237765644,121,-7,-5.978449640556411,-8.420321086505655,-7.804398764026763
1769237765648,122,-6,-5.457056765822941,-7.3551397648206525,-7.280443029909639
1769237765652,124,-4,-4.504823906625848,-5.276488079539627,-6.312143340103249
1769237765656,126,-2,-2.3541040732974547,-3.412344283076129,-4.144130659554376
1769237765660,129,1,1.922551901442218,-0.4278876028313751,0.1377680851781022
1769237765664,135,7,8.580334485123998,5.5715261504095555,6.783461899340223
1769237765668,143,15,16.3499777646289,13.725153831587178,14.528334416687574
1769237765672,150,22,22.384956842413107,20.730265555752094,20.536478632706668
1769237765676,152,24,23.398555013956184,22.62032917341252,21.53225688539875
1769237765680,146,18,17.465209213406375,16.582842899836123,15.597046655892328
1769237765684,133,5,5.329176842716269,3.5461568715834915,3.4750614077922055
1769237765688,117,-11,-9.707545162594512,-12.212118428838034,-11.538816019588818
1769237765692,103,-25,-23.300123065608062,-26.21050994169584,-25.110850530412392
1769237765696,95,-33,-32.0260386514832,-34.3818297743575,-33.82881160294956
1769237765700,93,-35,-34.62418016622662,-36.17352295333073,-36.43661599530935
1769237765704,97,-31,-31.942083456386875,-32.81559767523112,-33.77841501053456
1769237765708,102,-26,-25.95206071554191,-26.59613667810324,-27.814445713032477
1769237765712,108,-20,-18.69957452482347,-22.007241856210207,-20.5754586142878
1769237765716,113,-15,-11.77365034076279,-15.342687666232866,-13.644412280076976
1769237765720,124,-4,-6.2247479571156745,-6.284318524345829,-8.079938373064566
1769237765724,125,-3,-2.551528079445337,-3.6023529273813715,-4.394504972541592
1769237765728,126,-2,-0.6541976863127488,-3.743726175023101,-2.494391348102954
1769237765732,127,-1,0.0497352055326905,-1.8912266646642568,-1.793343138543598
1769237765736,128,0,0.2808846471472241,-1.2770441743120262,-1.5655394158493443
1769237765740,128,0,0.5370168405017139,-1.4515069012007809,-1.3119358085545176
1769237765744,128,0,0.9434684239645303,-1.1304600372923326,-0.9077616584974972
1769237765748,129,1,1.3529891041481936,-0.3738709058665805,-0.4998697341084517
1769237765752,129,1,1.5817296179683171,-0.0315774561468202,-0.2712022204090649
1769237765756,129,1,1.615920729367983,-0.2430342146609843,-0.2354019811876777
1769237765760,129,1,1.6524466350019988,-0.3207727307803689,-0.1962274753006032
1769237765764,129,1,1.9540104009080652,-0.2132622036782954,0.1081825486301757
1769237765768,130,2,2.6448346946849988,0.7655124021658302,0.8012278751891793
1769237765772,131,3,3.6169630364384937,1.8956308454645656,1.774318641527845
1769237765776,132,4,4.612265484174532,2.8402544834249617,2.769353848391536
1769237765780,133,5,5.391313148833148,3.7028571947867546,3.5479052175456305
1769237765784,133,5,5.841713951858508,3.816600070400379,3.99900080760972
1769237765788,133,5,5.960247138528677,3.796825974507518,4.119975727375808
1769237765792,133,5,5.774368928529416,3.908507808839611,3.9373116064777567
1769237765796,133,5,5.313445751829099,3.855831189288977,3.4790314207171047
1769237765800,132,4,4.657155210108379,2.8031767821496576,2.824921466042451
1769237765804,131,3,3.984538462801397,1.7436547238046822,2.1553860775019293
1769237765808,131,3,3.546808039095948,1.9800054289226288,1.7220287267983283
1769237765812,131,3,3.5701148140328867,1.703514674726188,1.7494588626836816
1769237765816,131,3,4.148809020780384,2.1634666556866105,2.330459291427542
1769237765820,133,5,5.1824614208208075,3.5567412046130045,3.3650737142318663
1769237765824,133,5,6.3909631150592965,4.060257586677528,4.574991026488738
1769237765828,135,7,7.424441031188247,5.737011477401731,5.611150637463249
1769237765832,136,8,8.03340163869969,6.933940095155355,6.223519138214875
1769237765836,135,7,8.192439979356607,6.046333402171007,6.3866385797827725
1769237765840,135,7,8.074959841410479,5.67779018058522,6.274700820659218
1769237765844,135,7,7.905819917058853,6.100633055482138,6.1120465507632815
1769237765848,136,8,7.8371766324181715,6.643902617255536,6.048537815427934
1769237765852,135,7,7.93644527570186,6.175566011799163,6.150527594629541
1769237765856,135,7,8.227017464382664,5.776058708554935,6.443386126845888
1769237765860,136,8,8.69695726229945,7.08195308170343,6.91754040481365
1769237765864,137,9,9.28928277573532,7.7359930166690365,7.515613171191079
1769237765868,137,9,9.925834981592352,8.045423114674966,8.157239602762054
1769237765872,138,10,10.551496121694845,8.87451467128707,8.786488356038925
1769237765876,138,10,11.148933330893747,9.060575373479232,9.387528476112228
1769237765880,139,11,11.722807587518847,9.936263322954948,9.966849900757216
1769237765884,140,12,12.295980475689332,10.885232721220383,10.547501893779106
1769237765888,140,12,12.928464083525135,11.001330438892856,11.188025923224108
1769237765892,141,13,13.714215570747784,11.93264422748718,11.980508368268636
1769237765896,142,14,14.716859555348767,13.088171674521035,12.987626644415524
1769237765900,143,15,15.871629089493586,13.93702002003042,14.145369564323945
1769237765904,144,16,16.935034502284516,14.992870797601372,15.21224117652944
1769237765908,145,17,17.554062733736423,15.910327190005498,15.83675648869598
1769237765912,145,17,17.446911010214123,16.11077970259384,15.736983103302656
1769237765916,144,16,16.579686833699608,14.92029001629099,14.877910292613914
1769237765920,142,14,15.189093756328502,13.201442919373209,13.495443324717824
1769237765924,141,13,13.610652772854376,11.7605750316359,11.92475832162734
1769237765928,139,11,12.043929445483329,10.23356724878233,10.36484099265502
1769237765932,138,10,10.447301678807351,8.82143124480087,8.773348261732782
1769237765936,136,8,8.638892494073295,7.279456028386618,6.968702183346281
1769237765940,134,6,6.500985973676145,4.903842394747475,4.8351977099416334
1769237765944,131,3,4.110785571261943,2.0971330910146992,2.4524647718569934
1769237765948,129,1,1.7087693722552395,-0.0156504864942985,0.0612958323551176
1769237765952,127,-1,-0.4364341141995247,-1.9147501017686497,-2.0724003557815327
1769237765956,125,-3,-2.1495958801134902,-3.8767542122645433,-3.776951912078943
1769237765960,124,-4,-3.3974008326592777,-4.915117790205214,-5.020191629836291
1769237765964,123,-5,-4.276749381817018,-5.988583992465015,-5.896765174739082
1769237765968,122,-6,-4.966093528584357,-6.91347821287068,-6.5815457770042665
1769237765972,122,-6,-5.641486859674565,-6.936349349842969,-7.248607943742756
1769237765976,121,-7,-6.371816359491478,-7.81081194358472,-7.967633252401821
1769237765980,120,-8,-7.054762233989345,-8.912230019425323,-8.638895179502835
1769237765984,120,-8,-7.463255240192192,-8.92943487031374,-9.037850098257405
1769237765988,120,-8,-7.401435349317258,-8.93683733905816,-8.969396819906887
1769237765992,120,-8,-6.876626669357556,-8.84298025712547,-8.439329747827648
1769237765996,121,-7,-6.159343415832633,-7.845451877773862,-7.715873618133225
1769237766000,122,-6,-5.659528446409508,-6.808525657253243,-7.208182813048924
1769237766004,122,-6,-5.680127671073592,-6.981855280478595,-7.220144964398162
1769237766008,121,-7,-6.230490002181602,-7.846729992754763,-7.76187789895013
1769237766012,120,-8,-7.056400116583511,-8.868670339065687,-8.578686900419145
1769237766016,119,-9,-7.855175286068024,-9.780937275650349,-9.367415352463905
1769237766020,119,-9,-8.473269671439873,-9.770504144047091,-9.975470228554178
1769237766024,119,-9,-8.91702783967002,-9.988597861532742,-10.410719162640316
1769237766028,118,-10,-9.210471129257456,-10.7606584122353,-10.697179986045288
1769237766032,118,-10,-9.282748648462032,-10.92858668656226,-10.762194783091218
1769237766036,118,-10,-9.008247777981374,-10.655830986737389,-10.47862051807717
1769237766040,119,-9,-8.343663964564591,-9.83174126285263,-9.803649336242833
1769237766044,120,-8,-7.4117086759662545,-8.85742742032875,-8.861913343982007
1769237766048,121,-7,-6.447965289947916,-7.837636408675243,-7.890268956726909
1769237766052,122,-6,-5.662097081778746,-6.805131215391587,-7.097570786190586
1769237766056,122,-6,-5.1358332531358375,-6.741513995956536,-6.563233920136415
1769237766060,122,-6,-4.832208068073652,-6.6652647852141875,-6.248901435318505
1769237766064,123,-5,-4.6764508793533865,-5.9820598020692195,-6.081295875950353
1769237766068,123,-5,-4.611973386049252,-5.621330727971391,-6.006891240851756
1769237766072,123,-5,-4.597027367742135,-6.010381277187605,-5.984901926899759
1769237766076,122,-6,-4.593011683962059,-6.449273594689005,-5.974246560117819
1769237766080,123,-5,-4.579982698964484,-5.927702808324278,-5.952048241752312
1769237766084,123,-5,-4.561872461718434,-5.637524403502405,-5.922265772764316
1769237766088,123,-5,-4.5292948600910865,-5.903940896710596,-5.878112692415163
1769237766092,123,-5,-4.4284031647956255,-5.690404057067646,-5.767784248148946
1769237766096,123,-5,-4.204635523581081,-5.696053404310332,-5.53636741172593
1769237766100,123,-5,-3.900618218971782,-5.660536412329592,-5.2248542459057425
1769237766104,124,-4,-3.6965732694545466,-4.807037208931407,-5.012562845470626
1769237766108,124,-4,-3.812558557174661,-4.685664409208448,-5.11968801258055
1769237766112,123,-5,-4.330072825275111,-5.856653882872559,-5.627747138170854
1769237766116,122,-6,-5.08642801927356,-6.474591602331262,-6.373583624166381
1769237766120,122,-6,-5.738336613685454,-6.853290909242659,-7.013888023129119
1769237766124,121,-7,-5.947703743523436,-7.531172431733054,-7.211587673961667
1769237766128,122,-6,-5.556580909586959,-6.889544074891513,-6.810234566205272
1769237766132,123,-5,-4.6440386355434855,-5.601164468150506,-5.889773045258309
1769237766136,124,-4,-3.4531126548665325,-4.669833493549822,-4.692614299544134
1769237766140,125,-3,-2.2637131037712805,-3.643510054204667,-3.496709053131439
1769237766144,126,-2,-1.2972423072488726,-2.6375851694623416,-2.5216441171215735
1769237766148,127,-1,-0.6761438324693934,-1.7684633510419183,-1.8896709856287448
1769237766152,127,-1,-0.4118859483034356,-1.6034350941832105,-1.6136211657627175
1769237766156,127,-1,-0.4066567566097325,-1.6899154486445411,-1.5973014672757433
1769237766160,127,-1,-0.48360495332551,-1.5135757387787412,-1.6646292687394388
1769237766164,127,-1,-0.4558093709209692,-1.760800350494859,-1.6283719679364643
1769237766168,127,-1,-0.2107501767560908,-1.530293802401006,-1.375114187497975
1769237766172,128,0,0.2388161756222904,-0.8091285938502613,-0.9169250828935578
1769237766176,128,0,0.775079488547425,-0.4231703452723789,-0.3715744638473
1769237766180,129,1,1.25318006398438,0.2571033285693711,0.1157694096749488
1769237766184,129,1,1.5746993902890478,0.5316812251581031,0.4465669174583753
1769237766188,129,1,1.700003342790203,0.244408265156427,0.5811856214477764
1769237766192,129,1,1.6056667290063071,0.4657364523971243,0.4958176377372405
1769237766196,129,1,1.2492056931250324,0.3676340443528265,0.1474538951504156
1769237766200,128,0,0.5879787873682554,-0.5214702747162256,-0.5061005842027568
1769237766204,127,-1,-0.3665724245216122,-1.5797568829975948,-1.4518480548312906
1769237766208,126,-2,-1.511764205857927,-2.6328504301901625,-2.5862254314201505
1769237766212,125,-3,-2.662602571552156,-3.5506546938684123,-3.725579466887448
1769237766216,124,-4,-3.607046553076025,-4.607848384661565,-4.66034324990353
1769237766220,123,-5,-4.196596209567704,-5.468658938490308,-5.2430099016295575
1769237766224,123,-5,-4.435536580580267,-5.577990504294523,-5.476389786471679
1769237766228,123,-5,-4.497583913507077,-5.578453489007503,-5.531892643979618
1769237766232,123,-5,-4.619918962438095,-5.527734465947404,-5.645712875127223
1769237766236,123,-5,-4.922855616718023,-5.617670019656031,-5.938834424174708
1769237766240,122,-6,-5.295030328211702,-6.365477876917957,-6.300826916434861
1769237766244,122,-6,-5.46013881030764,-6.679597805458036,-6.455586617628001
1769237766248,122,-6,-5.19488234611341,-6.353593793492946,-6.180106489243254
1769237766252,123,-5,-4.524481173467757,-5.748827293104949,-5.50130278113469
1769237766256,124,-4,-3.727461114525644,-4.300878358868259,-4.699846094950811
1769237766260,125,-3,-3.147412612336485,-3.6449484750642815,-4.118489813557325
1769237766264,124,-4,-2.9799461323428993,-4.366055053655598,-3.9473914337179785
1769237766268,124,-4,-3.1997804829040324,-4.570886000167944,-4.155494115975102
1769237766272,124,-4,-3.625936110052794,-4.5383355049734,-4.562870683617132
1769237766276,124,-4,-4.0063941611526195,-4.392646888419348,-4.926671974765101
1769237766280,124,-4,-4.077474653979682,-4.539347905880656,-4.9925596042277505
1769237766284,123,-5,-3.667794785921489,-5.3794710884541725,-4.589231641459227
1769237766288,124,-4,-2.8450042513210994,-4.529257055385113,-3.774341784938372
1769237766292,126,-2,-1.9176054176167203,-2.5273603866805243,-2.84458483154773
1769237766296,127,-1,-1.1288828545137974,-1.3307600346503876,-2.0385705995481276
1769237766300,128,0,-0.2165022218613712,-0.555179084568266,-1.0993096753292972
1769237766304,129,1,1.6922637344962288,0.7268768562426811,0.8340279179917047
1769237766308,133,5,5.529238653153909,4.346079247750788,4.682014232055549
1769237766312,138,10,11.309839673367264,9.70720723324851,10.456718574824134
1769237766316,144,16,17.45662596533662,15.459036688284968,16.587490212948882
1769237766320,149,21,21.121354758723356,20.777104218310026,20.238030948353213
1769237766324,149,21,19.57452673020143,20.41147579734178,18.688492932829217
1769237766328,140,12,11.882225540831104,11.653532551737,11.00859805549812
1769237766332,127,-1,-0.2870383619466381,-1.568658981342926,-1.1354476224571126
1769237766336,113,-15,-13.357316152597509,-15.236389038501294,-14.175360060553295
1769237766340,103,-25,-23.599776884667808,-25.392985782622087,-24.393868512895857
1769237766344,99,-29,-28.781886428740204,-29.32179276804943,-29.568737161308334
1769237766348,100,-28,-28.756798179246132,-28.51954675839873,-29.554669869114765
1769237766352,103,-25,-24.913053248963056,-25.36159119927735,-25.729979088580063
1769237766356,108,-20,-19.14519469832486,-20.41016078914441,-19.97370418082557
1769237766360,114,-14,-13.066124634325217,-14.176248787163788,-13.889746196131714
1769237766364,120,-8,-7.718899375772153,-8.486682928037318,-8.524832216138423
1769237766368,124,-4,-3.617513168666016,-4.293163831620024,-4.404341782571315
1769237766372,127,-1,-0.8731272412055695,-1.5559583250236204,-1.6484135622142913
1769237766376,128,0,0.687495330280911,-0.1782023515443964,-0.084831533314146
1769237766380,129,1,1.3939204985050415,0.6369029890198061,0.6208138094163016
1769237766384,129,1,1.5887724924710314,0.7788181105130674,0.8163737779669691
1769237766388,129,1,1.5170685844334928,0.5050931971960781,0.7486920148411009
1769237766392,129,1,1.303942079038431,0.708867685894726,0.5411772608301217
1769237766396,129,1,1.0197267661458564,0.5824196755475834,0.2615704250280033
1769237766400,128,0,0.7560908518606755,-0.0654773641690229,0.0009704742797711
1769237766404,128,0,0.6273481497920872,-0.4538558519184228,-0.1247215481371184
1769237766408,128,0,0.6998379973684143,-0.1979590707741154,-0.0480497707291496
1769237766412,129,1,0.943836860300806,0.47384342730482,0.2002232310549692
1769237766416,129,1,1.2738671344491417,0.834650402958443,0.5331720506521318
1769237766420,129,1,1.6268154194797946,0.7672984015236031,0.8882699304713575
1769237766424,129,1,1.9842144111585511,0.7334447181346362,1.2487755330381116
1769237766428,130,2,2.3329048761188313,1.72004866695362,1.6014381951031251
1769237766432,131,3,2.6401130271064637,2.565606286658637,1.9114893923843712
1769237766436,130,2,2.8757447821934075,1.8207576697420935,2.1481013581025565
1769237766440,130,2,3.0350693116150707,1.8134765007932576,2.308359681001417
1769237766444,131,3,3.13503409376833,2.7512893794368587,2.410976703433111
1769237766448,131,3,3.22005533267209,2.762789059713533,2.499851027891884
1769237766452,131,3,3.3874173935771816,2.567096265034058,2.6706000820213047
1769237766456,131,3,3.7758011758245713,2.8918980909749683,3.061100211509528
1769237766460,132,4,4.4842098762229785,3.763878093186064,3.7706215475900224
1769237766464,133,5,5.477929201333007,4.873771878360547,4.764969232995509
1769237766468,134,6,6.568522185017157,5.699012969089809,5.8559382201535355
1769237766472,135,7,7.498941009887204,6.676764083377484,6.786237947193252
1769237766476,136,8,8.087252775847329,7.856207143675578,7.373805346164878
1769237766480,136,8,8.332457667566441,7.801625004126277,7.618891097360618
1769237766484,135,7,8.399506512167575,6.930593898583387,7.688620483833416
1769237766488,136,8,8.499828466659292,7.66242261226615,7.794354228882776
1769237766492,137,9,8.782537667277854,8.813849771407916,8.081284471463407
1769237766496,137,9,9.311356044724375,8.737075626445376,8.609064811790587
1769237766500,137,9,10.069187543948676,8.996329116505047,9.36134143649495
1769237766504,138,10,10.918177622228724,9.772233128302137,10.205200470011428
1769237766508,139,11,11.58128828534301,10.863075941903928,10.86727221449216
1769237766512,140,12,11.770213686329011,11.703724277745858,11.058377882401718
1769237766516,139,11,11.42733077444348,10.864723635880864,10.717739803064566
1769237766520,138,10,10.863654838242695,9.958499926732744,10.154835847210265
1769237766524,138,10,10.617232913008118,9.805773863875675,9.908581909220112
1769237766528,138,10,11.108246154963629,9.91724802670056,10.40011632671776
1769237766532,140,12,12.364070136026877,11.694190869385968,11.65583119607449
1769237766536,142,14,14.029714915867162,13.970380922190136,13.318569777972844
1769237766540,143,15,15.62746362109624,14.88762919810396,14.910006733466956
1769237766544,144,16,16.830244429094456,15.895126702508442,16.10563603855093
1769237766548,145,17,17.550530248941875,16.896532614415296,16.822178010361554
1769237766552,145,17,17.854182407120568,16.725387424530524,17.12790962601278
1769237766556,145,17,17.8574929807757,17.08211251183418,17.137061234856816
1769237766560,146,18,17.71849372732568,17.765280317640205,17.002034867242326
1769237766564,145,17,17.662929633191666,17.10708927418637,16.943968998271572
1769237766568,145,17,17.894377947655478,16.67388577046329,17.16701503655024
1769237766572,145,17,18.36814967398063,17.053719617994386,17.63132550903898
1769237766576,146,18,18.641970797883612,17.791327851837515,17.898893870905354
1769237766580,146,18,18.047076842432368,18.14292921285478,17.301631532506576
1769237766584,144,16,16.13892168238108,15.753225296440544,15.39338373408644
1769237766588,140,12,13.07043503831598,12.044730534475402,12.325527557689307
1769237766592,137,9,9.54669290087677,8.760877432533404,8.801894312118142
1769237766596,133,5,6.373702021343236,5.108823880833962,5.626921711776328
1769237766600,131,3,3.958597235245509,2.950738660813096,3.2065732615423843
1769237766604,130,2,2.144674105478079,1.9604356724955816,1.3849013382039987
1769237766608,128,0,0.4751468678736543,-0.0876589284754452,-0.2920879191743522
1769237766612,126,-2,-1.3638569690732982,-2.1025960744904264,-2.1355926163701486
1769237766616,124,-4,-3.2850971700121567,-3.936892534807582,-4.058307859888289
1769237766620,122,-6,-4.907138776206329,-5.980925270717299,-5.681365867168134
1769237766624,121,-7,-5.903918157957657,-7.013287187969619,-6.681359663920209
1769237766628,121,-7,-6.294052430270468,-7.097458431289033,-7.077436831418754
1769237766632,121,-7,-6.430328578538305,-7.0207549522753805,-7.220900123671496
1769237766636,121,-7,-6.703373042995265,-6.984652221975893,-7.500366124543176
1769237766640,120,-8,-7.219199389991676,-7.850303322119131,-8.020571501474679
1769237766644,119,-9,-7.73379886691734,-9.13039716684586,-8.537756803261162
1769237766648,119,-9,-7.894582935040223,-8.907081369267065,-8.701300164384842
1769237766652,120,-8,-7.562549219701609,-8.185484756061566,-8.374501074419772
1769237766656,120,-8,-6.93453732486439,-7.742812986934835,-7.754396023392885
1769237766660,121,-7,-6.383263699197864,-7.0117808762707545,-7.211212733766161
1769237766664,121,-7,-6.170066750952312,-6.9628113529222535,-7.003700605652992
1769237766668,121,-7,-6.262269968058422,-6.999421431284905,-7.09922773463507
1769237766672,121,-7,-6.387682518119749,-7.101434398926633,-7.227833112609842
1769237766676,120,-8,-6.280320123441881,-7.703351024495503,-7.1254352200892
1769237766680,121,-7,-5.922977020914685,-7.02650081847923,-6.775231004604706
1769237766684,122,-6,-5.577904951181969,-5.867718065958196,-6.43890215646622
1769237766688,122,-6,-5.564938183827198,-6.076870685708504,-6.434876677474797
1769237766692,121,-7,-5.977607674780323,-6.991945632793266,-6.854397591209939
1769237766696,120,-8,-6.588816873851221,-7.71050227413798,-7.4688996751037795
1769237766700,120,-8,-7.014659673920979,-8.022603406807509,-7.896134104816369
1769237766704,120,-8,-6.978329327397286,-7.746366195226244,-7.86343237201324
1769237766708,121,-7,-6.469942613340427,-7.223195333799952,-7.363637399127683
1769237766712,121,-7,-5.7256131637251295,-6.7387753557279595,-6.6312360820007985
1769237766716,122,-6,-5.083452385808481,-5.940267200882102,-5.999833261212242
1769237766720,122,-6,-4.8130631613351325,-5.7277560314051295,-5.736029533030859
1769237766724,122,-6,-4.989927209282038,-5.992243287001747,-5.916448486184471
1769237766728,122,-6,-5.4608709899854295,-5.953552152228284,-6.391386030610622
1769237766732,121,-7,-5.92738620821766,-6.923203345629817,-6.864123108410005
1769237766736,120,-8,-6.120848021156233,-7.743378198045969,-7.064845354421672
1769237766740,121,-7,-5.959627419948724,-6.811622631303667,-6.910467000564237
1769237766744,122,-6,-5.559948187420573,-5.920819977919023,-6.517839256261867
1769237766748,122,-6,-5.097890800392332,-5.913651995724019,-6.064280553371263
1769237766752,122,-6,-4.674307051461137,-5.9706042918209565,-5.65003492980442
1769237766756,122,-6,-4.3152382945530245,-5.593160720495223,-5.299366117262599
1769237766760,123,-5,-4.061995842427321,-4.965181112156116,-5.053064515605616
1769237766764,123,-5,-4.002009156369126,-4.6737690822077695,-4.999479978053632
1769237766768,123,-5,-4.186652609302348,-5.124984285057059,-5.190452136495885
1769237766772,122,-6,-4.533027533303326,-5.714008197809724,-5.54262350852245
1769237766776,122,-6,-4.828241467513534,-5.771178914659565,-5.843375093100168
1769237766780,122,-6,-4.850283957708156,-5.81062433894788,-5.872398985046056
1769237766784,122,-6,-4.519841484062736,-5.674196245828899,-5.551691588419169
1769237766788,123,-5,-3.9753733675092144,-5.167914013426364,-5.018746312179775
1769237766792,123,-5,-3.504800898185142,-4.515857213796759,-4.558795116559329
1769237766796,124,-4,-3.3518565578524115,-4.02350730070091,-4.41326460135525
1769237766800,123,-5,-3.5178450815718634,-4.449721364298908,-4.583034071437337
1769237766804,123,-5,-3.7183071732299258,-5.0140133252144015,-4.785487105990759
1769237766808,123,-5,-3.5572858599231143,-4.766164828455615,-4.6282605120395885
1769237766812,124,-4,-2.810231500603913,-3.839476944509917,-3.890125491769317
1769237766816,125,-3,-1.6154669259552814,-2.7001270436898457,-2.709419953527906
1769237766820,126,-2,-0.4373168377376114,-1.6667222153138943,-1.5461633221668776
1769237766824,127,-1,0.1890504687954444,-0.7991415608249013,-0.9300372452295372
1769237766828,127,-1,-0.0084238242875778,-0.8852310252715876,-1.131191061436326
1769237766832,126,-2,-0.8277038103493735,-1.7139290266318228,-1.9507536782485837
1769237766836,125,-3,-1.6681426559884776,-2.75492229587335,-2.7931952668849664
1769237766840,124,-4,-1.8929552116535633,-3.5831211396344713,-3.0247298979754347
1769237766844,125,-3,-1.258104855213776,-2.7968093853642997,-2.4010608838376
1769237766848,127,-1,-0.0884689453372065,-0.8575468385353204,-1.2448873386768349
1769237766852,128,0,0.9530320390785664,0.3509569302943727,-0.216123096150544
1769237766856,128,0,1.3303146703609587,0.1731792648245282,0.1522988861833822
1769237766860,127,-1,0.9713766462972632,-0.4262390617387286,-0.2102835467326969
1769237766864,127,-1,0.2455762963902574,-0.953701387611726,-0.93699675015044
1769237766868,126,-2,-0.3516199592386052,-1.6202740532016326,-1.537382287551364
1769237766872,126,-2,-0.5479586298323758,-1.816459365604932,-1.7423109956379594
1769237766876,126,-2,-0.4469729665860934,-1.633679036037563,-1.6537092902776065
1769237766880,126,-2,-0.4131919972978528,-1.528153099592367,-1.6316838090257
1769237766884,126,-2,-0.7886113476173082,-1.875197227556579,-2.0153494790291893
1769237766888,125,-3,-1.6379510727086923,-2.591040480008986,-2.8700331704202156
1769237766892,124,-4,-2.7024021550209674,-3.8256685342168586,-3.939075300035648
1769237766896,122,-6,-3.5985736032929254,-5.559986754787479,-4.840297681748237
1769237766900,122,-6,-4.104662988198374,-5.545005801705891,-5.352278250073372
1769237766904,123,-5,-4.291823036865903,-4.850997694686223,-5.546843794880347
1769237766908,122,-6,-4.399798592008574,-5.5000177471226985,-5.663993977832895
1769237766912,122,-6,-4.603657021164727,-5.919449378484248,-5.877307286654359
1769237766916,121,-7,-4.903729163644939,-6.356977201168876,-6.184943764994328
1769237766920,121,-7,-5.20825340799005,-6.783552448840419,-6.494850871730101
1769237766924,121,-7,-5.4739428906699725,-6.5147469678928545,-6.76573329075999
1769237766928,121,-7,-5.7444701022232,-6.797401924898959,-7.043047570552471
1769237766932,120,-8,-6.065774432684267,-7.548051015462273,-7.372212843035752
1769237766936,120,-8,-6.382384502880327,-7.680529006525938,-7.695704316804603
1769237766940,120,-8,-6.521081763549811,-7.456684511492554,-7.838868299809792
1769237766944,120,-8,-6.288344086193825,-7.770094643793845,-7.608608187272319
1769237766948,120,-8,-5.62114658649242,-7.493744646557948,-6.944577629748725
1769237766952,122,-6,-4.67353099910613,-5.754490226257317,-6.005058319871393
1769237766956,123,-5,-3.745108908510812,-4.474896012850014,-5.091858503149304
1769237766960,123,-5,-3.082100819742626,-4.588713586584013,-4.4467203602136
1769237766964,123,-5,-2.6857917858987133,-4.656683095365674,-4.060823817086807
1769237766968,124,-4,-2.223108854123134,-3.47008812822821,-3.5941054073182825
1769237766972,126,-2,-1.0442347470786486,-1.793034231084888,-2.4009336678286743
1769237766976,128,0,1.6588389701907458,0.6922435727237861,0.3134212398068703
1769237766980,133,5,6.450279269036162,5.213246837932873,5.101594747124425
1769237766984,138,10,13.038052856522285,10.642438048584449,11.670542248431186
1769237766988,145,17,19.823047055785317,17.250566633671934,18.429483570274723
1769237766992,151,23,24.148709631300516,23.56533194687231,22.73183773803386
1769237766996,151,23,23.42842589361813,23.376656928371347,21.997491318857275
1769237767000,143,15,16.60191960936575,15.513449563252063,15.16935804468029
1769237767004,131,3,4.949734190786567,3.389718299666553,3.5281267523624553
1769237767008,117,-11,-8.342158008712097,-10.501268922561122,-9.745349837865328
1769237767012,106,-22,-19.6074719439478,-21.5779806522179,-20.995450399517043
1769237767016,100,-28,-26.22897556735182,-27.35577671286302,-27.61576129533901
1769237767020,99,-29,-27.45414576050223,-28.69985073504464,-28.857162553011968
1769237767024,102,-26,-24.255785710297523,-25.311621743177845,-25.685599859474223
1769237767028,108,-20,-18.565579777526125,-19.81340270988928,-20.02012300016956
1769237767032,113,-15,-12.406290822918333,-14.22338891886157,-13.873110666785436
1769237767036,119,-9,-7.282851433917507,-8.632106525461932,-8.747096275229412
1769237767040,122,-6,-3.916933613906176,-5.420014676724371,-5.369605867883801
1769237767044,124,-4,-2.254232888698982,-3.5174334368415745,-3.6959191204723583
1769237767048,125,-3,-1.6752201814165122,-2.6377304727314077,-3.1137223402296352
1769237767052,124,-4,-1.370192883559144,-3.301685202016583,-2.814402799528812
1769237767056,125,-3,-0.778573701701543,-2.517081455242535,-2.233312880271484
1769237767060,126,-2,0.1199151670891598,-1.4238318711933666,-1.345250253418806
1769237767064,127,-1,0.8674001580074411,-0.5177288339810628,-0.6055702961191738
1769237767068,128,0,0.9300304181869512,0.4266746557295509,-0.5475001547856975
1769237767072,126,-2,0.1500981386098243,-1.3460623525467597,-1.3280540501835172
1769237767076,124,-4,-1.0984957769988504,-3.410482438303249,-2.5732063901324675
1769237767080,124,-4,-2.1467809758541607,-3.4595564013251976,-3.616826148841776
1769237767084,124,-4,-2.440018905635754,-3.464629258334409,-3.909052773174456
1769237767088,124,-4,-1.825266093805408,-3.5537656710421395,-3.2991456115299687
1769237767092,125,-3,-0.5833970545719227,-2.329902850411692,-2.065210685817941
1769237767096,127,-1,0.7583883411020942,-0.3509888147090585,-0.7299808889197754
1769237767100,128,0,1.717008643190011,0.4981178112441995,0.2255614594699526
1769237767104,128,0,2.09019170321663,0.6447813018061384,0.5986976637717483
1769237767108,128,0,2.002661982450723,0.3437032578433481,0.5130987526013739
1769237767112,127,-1,1.7564261985568157,-0.1488483314598525,0.269592216960997
1769237767116,128,0,1.6302692605897944,0.5022982659647766,0.1451661332346789
1769237767120,128,0,1.781217082779703,0.7113806043953086,0.2953547742861246
1769237767124,128,0,2.262238644034854,0.480202361097108,0.7735800265424939
1769237767128,129,1,3.0600788031108026,1.53285193337276,1.5686517632775252
1769237767132,130,2,4.091518984864677,2.7369031880009693,2.5988894920885404
1769237767136,131,3,5.191406437583172,3.622586806534536,3.6989822977875058
1769237767140,132,4,6.14890647786723,4.702048604180394,4.657033230744169
1769237767144,133,5,6.794933813118555,5.484347049579366,5.303257908714975
1769237767148,133,5,7.089307771165942,5.601705584488256,5.597692794297159
1769237767152,133,5,7.146713526102629,5.683720349604776,5.655957878794095
1769237767156,133,5,7.178377856010071,5.739895286310105,5.69011313173883
1769237767160,133,5,7.385365690305418,5.644563867901126,5.9008238447697074
1769237767164,134,6,7.872444754846408,6.5832498443635,6.390914228486865
1769237767168,135,7,8.624785147739424,7.557859915078305,7.143609953613723
1769237767172,135,7,9.52810583284784,7.746897329778408,8.04492143707385
1769237767176,136,8,10.391429720493123,8.751673039870461,8.906566036602394
1769237767180,137,9,10.9793983689547,9.66562250414923,9.495791698551582
1769237767184,137,9,11.09769901097756,9.623592065238824,9.618400411550784
1769237767188,137,9,10.721859050502266,9.544884816452733,9.247767140862186
1769237767192,136,8,10.07142858430406,8.812434727767982,8.60134098784795
1769237767196,135,7,9.531555394040884,7.721889368923259,8.064025992532219
1769237767200,135,7,9.443936067773818,7.759439652671018,7.978657691638464
1769237767204,136,8,9.921091134098647,8.583746609410023,8.458514531749175
1769237767208,137,9,10.835429763890955,9.615633301073368,9.375751528579288
1769237767212,138,10,11.977778816097311,10.81928470321374,10.520982250651263
1769237767216,139,11,13.22352836050529,11.71669606454088,11.770234237649012
1769237767220,140,12,14.552546279881716,12.85045383101622,13.104018012141
1769237767224,142,14,15.927387091929832,14.503478260499762,14.48422715235258
1769237767228,143,15,17.17315627701386,15.76705017344603,15.73429934619574
1769237767232,144,16,17.988833817047897,16.7110535895061,16.552425476157634
1769237767236,144,16,18.088321403636662,16.85841269126835,16.653856097270157
1769237767240,143,15,17.35888412460269,15.777391383959053,15.928329532426824
1769237767244,142,14,15.924729516108018,14.563888438916951,14.501319899361103
1769237767248,140,12,14.085259416787329,12.830080315438478,12.671068444788158
1769237767252,138,10,12.175063696121716,10.612747991313704,10.769534736180876
1769237767256,136,8,10.420401627711517,9.102024976961149,9.020811994608078
1769237767260,135,7,8.856546824209058,7.496534705331113,7.459816221571268
1769237767264,133,5,7.339549822884142,5.939777330753586,5.944329535287492
1769237767268,132,4,5.642374240887881,4.484799704673414,4.250290182956428
1769237767272,129,1,3.58887011890264,1.992663130890756,2.203752073278801
1769237767276,127,-1,1.169480153109142,-0.1903024913185211,-0.2054220773823998
1769237767280,125,-3,-1.4094416748497889,-2.2309396489081155,-2.7739379520264587
1769237767284,122,-6,-3.7817247041542337,-5.223393839016921,-5.1382026805832
1769237767288,120,-8,-5.586478860872083,-7.3681132297135505,-6.937088046745538
1769237767292,119,-9,-6.658742553228219,-8.036580053963831,-8.003630337625939
1769237767296,119,-9,-7.100011523670479,-8.163536369300001,-8.438100758192412
1769237767300,119,-9,-7.160985963905821,-8.18254723514299,-8.491318281150622
1769237767304,119,-9,-7.04382358528733,-8.233924357655255,-8.365648221833606
1769237767308,119,-9,-6.809337165870592,-8.334163853889022,-8.12183360356245
1769237767312,119,-9,-6.459374216531979,-7.992297124452128,-7.762435129305644
1769237767316,120,-8,-6.083127812819206,-7.205839498455708,-7.378306894590592
1769237767320,120,-8,-5.90090130642049,-7.042782891948042,-7.190408972866081
1769237767324,120,-8,-6.149874290059773,-7.372640148323342,-7.433814863454768
1769237767328,119,-9,-6.902085077289943,-8.110805113599383,-8.17703180804322
1769237767332,118,-10,-7.952659002808808,-9.22371123740491,-9.213829742234225
1769237767336,117,-11,-8.861147710000404,-9.886329114822283,-10.106435349874412
1769237767340,117,-11,-9.142418040848373,-10.344035458359262,-10.374272747748789
1769237767344,117,-11,-8.527879069564992,-9.98498399285241,-9.7513149431064
1769237767348,119,-9,-7.160139780635893,-8.475013615801355,-8.379066116357112
1769237767352,120,-8,-5.57897472833064,-6.811893030453786,-6.794011405730627
1769237767356,122,-6,-4.45633662080037,-5.2510584494286805,-5.664857613953389
1769237767360,122,-6,-4.216440490331412,-4.95041658333968,-5.41367039241521
1769237767364,121,-7,-4.791072090791842,-6.296378976909255,-5.9719137398842985
1769237767368,120,-8,-5.679301572157014,-7.19021021355163,-6.841332783326557
1769237767372,120,-8,-6.257512893197702,-6.98136144002103,-7.403372467226052
1769237767376,120,-8,-6.127711062220218,-7.111353024825966,-7.263529001201153
1769237767380,120,-8,-5.314493979370699,-6.939213131531364,-6.444808682098996
1769237767384,122,-6,-4.2322818835104155,-5.3279101616767335,-5.356663007565428
1769237767388,123,-5,-3.441585308633766,-4.0819837425051055,-4.556226469069482
1769237767392,123,-5,-3.3145766112843025,-4.091131208946663,-4.415986949037919
1769237767396,122,-6,-3.8183083170692065,-4.937226652666345,-4.904824921498291
1769237767400,121,-7,-4.573064799673066,-6.054685649901506,-5.6440162235931695
1769237767404,121,-7,-5.133066183584696,-6.18436484577915,-6.18814907408098
1769237767408,121,-7,-5.2588211874702875,-6.163289605536833,-6.298727283102666
1769237767412,121,-7,-4.986406051503567,-5.9959168423088,-6.013405634596037
1769237767416,122,-6,-4.5001203385024535,-4.946399291410245,-5.517116831979024
1769237767420,122,-6,-3.9756740755731017,-5.006061863531741,-4.983938571119395
1769237767424,122,-6,-3.5379955489011037,-5.207931434421073,-4.535689053702839
1769237767428,123,-5,-3.3124224377059828,-4.084085439030043,-4.295771035416591
1769237767432,123,-5,-3.428882752249857,-4.0660877988937925,-4.395020076799327
1769237767436,122,-6,-3.9102940010246,-4.784277642954029,-4.858888721105298
1769237767440,122,-6,-4.553842115683334,-5.128424787090703,-5.486282731576285
1769237767444,121,-7,-4.974451250967399,-6.057611847368893,-5.892073801209639
1769237767448,121,-7,-4.839932667857288,-6.194270871853455,-5.743332432595237
1769237767452,122,-6,-4.1284316171597535,-4.927441122117558,-5.0182233647781285
1769237767456,123,-5,-3.1847556943522997,-3.82075859609106,-4.062172019729988
1769237767460,124,-4,-2.510000172405433,-3.073760437530709,-3.375771902515305
1769237767464,124,-4,-2.445740615781444,-3.043594150459149,-3.298213687936813
1769237767468,123,-5,-2.9910564494655913,-4.238015654108117,-3.826377300581644
1769237767472,122,-6,-3.854441954082643,-4.816675031708721,-4.669650866738192
1769237767476,122,-6,-4.6497667129825855,-4.862567464632445,-5.445577886710502
1769237767480,121,-7,-5.083552999265798,-5.980266579532088,-5.863283859818685
1769237767484,121,-7,-5.0542689386344986,-6.073093311455551,-5.820221116720793
1769237767488,122,-6,-4.656185070893974,-5.222235850807509,-5.408084747172664
1769237767492,122,-6,-4.09727780160346,-4.777990694295084,-4.834112719907143
1769237767496,123,-5,-3.569927390502108,-3.8381286667105847,-4.291678086203424
1769237767500,123,-5,-3.1617760291609436,-3.9290830002712873,-3.868359875827048
1769237767504,123,-5,-2.8707265074840542,-4.112530165545943,-3.560308201248649
1769237767508,124,-4,-2.6773314284291705,-3.150330868940391,-3.34738541071399
1769237767512,124,-4,-2.563984583434438,-2.8427276943287745,-3.2141357054377337
1769237767516,124,-4,-2.4588493605201913,-2.664300156140646,-3.0913581929927396
1769237767520,124,-4,-2.2162678763515573,-3.0503437201980717,-2.8332605921606873
1769237767524,124,-4,-1.72384276677488,-2.9654652388497524,-2.3251779248841524
1769237767528,126,-2,-1.0520164242610646,-1.2834513610656615,-1.636555642892822
1769237767532,126,-2,-0.4678258597784039,-0.688046472871179,-1.0356375617023503
1769237767536,126,-2,-0.2634250051312439,-0.7025882736065583,-0.815301332575435
1769237767540,126,-2,-0.5477140289057867,-0.9797142178231288,-1.0828369648962537
1769237767544,125,-3,-1.1792136601333063,-1.9842662671420903,-1.6948072680113424
1769237767548,125,-3,-1.8689767752648525,-2.3191177082411594,-2.3630173047072818
1769237767552,124,-4,-2.342150057456279,-2.544140236013728,-2.815843552670376
1769237767556,124,-4,-2.446219660985416,-2.8052292882719314,-2.902997477040193
1769237767560,124,-4,-2.179526190398403,-2.7598504359841876,-2.621638175111946
1769237767564,125,-3,-1.66270767817089,-2.21937839381801,-2.089317236021632
1769237767568,126,-2,-1.0663858039439036,-1.095493017525312,-1.4748251698790409
1769237767572,126,-2,-0.5148612668893695,-0.6893159497069896,-0.9029712023470852
1769237767576,126,-2,-0.0255697190751302,-0.6099969676473092,-0.3928191639166356
1769237767580,127,-1,0.4592615069819286,0.1652557790786746,0.1119311010781727
1769237767584,128,0,0.9684981666770682,0.8105793137257984,0.6393391290380084
1769237767588,128,0,1.4135879675219802,0.9065849306261704,1.1010268210824885
1769237767592,128,0,1.5936257968674663,1.337898621389649,1.2972817576707771
1769237767596,128,0,1.3017430338249474,1.4751686455451951,1.0228795592924973
1769237767600,127,-1,0.4640781031130789,0.1347358461269507,0.2050885878936177
1769237767604,126,-2,-0.7885494014928314,-1.155597474705674,-1.0256779520955672
1769237767608,125,-3,-2.1699592978313618,-2.127631814742239,-2.3854178773616685
1769237767612,123,-5,-3.375994066742535,-3.588652383365317,-3.572343768930762
1769237767616,122,-6,-4.225969905343192,-4.470803778685542,-4.405925189502353
1769237767620,122,-6,-4.729640488696623,-4.876868350383835,-4.893412234619774
1769237767624,122,-6,-5.038738301203175,-5.114850197671027,-5.1838419832476195
1769237767628,122,-6,-5.305212461254378,-5.20326890329802,-5.429084644420305
1769237767632,121,-7,-5.542101089997539,-5.437028442311426,-5.644667159238737
1769237767636,121,-7,-5.607366797128411,-5.543316292796024,-5.6906178656708715
1769237767640,121,-7,-5.351787637021966,-5.723644360556753,-5.416949915950049
1769237767644,122,-6,-4.821644603835654,-5.275493450676105,-4.867747961878845
1769237767648,123,-5,-4.317300242481233,-4.047863781444386,-4.343325405936298
1769237767652,123,-5,-4.206602015774646,-3.527724727729109,-4.214260905825302
1769237767656,122,-6,-4.629881019917921,-4.369933224679391,-4.622475852544312
1769237767660,121,-7,-5.368517633720053,-5.813401580899161,-5.346200751105815
1769237767664,121,-7,-6.002994691772843,-6.229268843518812,-5.959959604245588
1769237767668,121,-7,-6.200136480809794,-6.057678059780708,-6.1280588003369445
1769237767672,121,-7,-5.864338975088146,-5.493299784563568,-5.7602084939802465
1769237767676,122,-6,-5.073408823596646,-4.247169068200177,-4.945123799474657
1769237767680,123,-5,-3.9652483203255136,-3.903491054810261,-3.828938580445592
1769237767684,124,-4,-2.754816552505479,-3.1697988070578527,-2.623581689823837
1769237767688,125,-3,-1.8200679614783883,-2.0785548225150032,-1.6912442842435604
1769237767692,125,-3,-1.5885664841585307,-1.5018126697242442,-1.4403648664358215
1769237767696,125,-3,-2.086581562761862,-1.0025955876429324,-1.8904450199133953
1769237767700,126,-2,-2.445505450035264,-1.1823288547550632,-2.188332767802997
1769237767704,127,-1,-0.9812000031850454,0.0975700531372902,-0.6800859644427018
1769237767708,130,2,3.774374052500436,2.775699744387662,4.080654783612211
1769237767712,137,9,11.51510954371548,10.390040718927798,11.7950491594734
1769237767716,144,16,19.28920961017287,18.776830615634186,19.543450314662373
1769237767720,149,21,22.48522499817591,20.42119211778388,22.74299011307512
1769237767724,149,21,17.63788374410408,24.16522381570739,17.93038885378292
1769237767728,142,14,5.285184731776546,12.021696745277357,5.6274522544120416
1769237767732,106,-22,-9.58907031144532,-17.412661693649536,-9.194168755950924
1769237767736,104,-24,-20.401197610540397,-24.506864210913573,-19.958170759836307
1769237767740,106,-22,-23.08330599941109,-19.1932348179902,-22.61206780798307
1769237767744,111,-17,-18.23414814791766,-16.935436399852723,-17.769196596323976
1769237767748,119,-9,-9.936991954651576,-8.1145718067729,-9.50267685772625
1769237767752,124,-4,-2.695484862953583,-1.7796126178060394,-2.2821134495420496
1769237767756,128,0,1.059628094008426,1.1388132711620893,1.489235533220978
1769237767760,128,0,1.526258018132577,1.8350460764180456,2.006371526705852
1769237767764,127,-1,0.4196272189324663,-0.5047052004490082,0.9575620716882997
1769237767768,127,-1,-0.6003465582176033,0.0539274465912811,-0.0240289862084921
1769237767772,127,-1,-0.8428464625037546,0.8575547032288964,-0.2558210656181048
1769237767776,127,-1,-0.500853532337636,0.5048701362912653,0.0807706562483221
1769237767780,127,-1,-0.0241421884481403,0.5769636678458063,0.5551562735834241
1769237767784,128,0,0.3669995860165786,0.683344881853952,0.959085001808587
1769237767788,128,0,0.7192660589248197,1.0985945659120953,1.3375595784565273
1769237767792,128,0,1.113912792318126,1.7990703391618157,1.761312391467754
1769237767796,129,1,1.501243744186839,2.5103547311468444,2.171445414245823
1769237767800,129,1,1.7502810654341483,2.6643727665885044,2.435395813428069
1769237767804,130,2,1.8058622089363363,2.56267728908003,2.50267513074076
1769237767808,129,1,1.7657445215974574,2.4255006900295766,2.476280499410485
1769237767812,129,1,1.806504492503889,2.4396330264629245,2.5344032071322258
1769237767816,129,1,2.0433737880452556,2.8670510541831464,2.790424696003841
1769237767820,130,2,2.4558836575087524,3.3528797243454544,3.221400464637622
1769237767824,131,3,2.931227945829782,3.881101450508547,3.713557368587315
1769237767828,131,3,3.3664342703777783,4.307483673854599,4.1643319052894885
1769237767832,131,3,3.730321478013912,4.485872974993506,4.543084900161036
1769237767836,131,3,4.039026773387254,4.882921973543549,4.866211658868197
1769237767840,132,4,4.284645580186214,5.289219643470307,5.126448199902422
1769237767844,132,4,4.399022733904541,5.056442011959598,5.256756730938634
1769237767848,132,4,4.305620380177217,5.232526378440907,5.180854623304373
1769237767852,132,4,4.032805984614544,5.57708441437237,4.92564684706556
1769237767856,131,3,3.781385109105998,4.787694503163801,4.690252327059493
1769237767860,131,3,3.838856795770123,4.373836315946356,4.762226898318415
1769237767864,132,4,4.363738130200971,5.0742265482121205,5.301296920195286
1769237767868,133,5,5.222901812074526,6.303922517249989,6.174549884182983
1769237767872,134,6,6.055765495848799,7.550210346301566,7.020514821011586
1769237767876,134,6,6.530673760958068,7.791925243789502,7.507724105638635
1769237767880,134,6,6.570240267919506,7.370604511868002,7.560869973371382
1769237767884,134,6,6.363208928546932,7.147701750121134,7.370263588999593
1769237767888,134,6,6.193679714609163,7.3326245567306865,7.218503280818059
1769237767892,134,6,6.264127610900591,7.558236655328116,7.304535031410307
1769237767896,134,6,6.6379473835506655,7.785313110772472,7.689929359653576
1769237767900,135,7,7.285233300927682,8.37735354082133,8.346686416599097
1769237767904,136,8,8.147825219007961,9.204330203161849,9.220375671528863
1769237767908,137,9,9.175422509895837,10.381286776925055,10.262639496952255
1769237767912,138,10,10.336278894941922,11.536643388006278,11.44015685162446
1769237767916,139,11,11.61245537190488,12.816522514543207,12.731403783597408
1769237767920,141,13,12.972278907195856,14.339094442991776,14.102369785346577
1769237767924,142,14,14.31941994070244,15.30520014706754,15.457744273617095
1769237767928,143,15,15.458648218906868,16.3885316998629,16.605617202344504
1769237767932,144,16,16.14623702619116,17.544066295855032,17.30471514957697
1769237767936,144,16,16.24306822662009,17.84005831959561,17.415625372901946
1769237767940,144,16,15.87034787923731,17.27695538868078,17.05763223673942
1769237767944,143,15,15.406450817176273,16.466674079169195,16.60765301152172
1769237767948,143,15,15.267890843126455,16.294224842401547,16.481607266230846
1769237767952,143,15,15.616056503541406,16.688219728287574,16.840188801802043
1769237767956,144,16,16.222620880403646,17.717898364171198,17.45432293027044
1769237767960,145,17,16.6045770739255,18.37108649103976,17.84186783577512
1769237767964,144,16,16.31788759447704,17.483618730227473,17.56201612458989
1769237767968,143,15,15.190518304083458,16.29582490424245,16.445884755297165
1769237767972,141,13,13.365385549313466,14.776182289907185,14.635848173206355
1769237767976,139,11,11.185361778729014,12.586311143694004,12.47039405570239
1769237767980,137,9,9.022630409077546,10.547546162849738,10.317750604097323
1769237767984,135,7,7.12602581871608,8.37379435102031,8.427178046414175
1769237767988,133,5,5.533284127153094,6.468452364588362,6.840171149406412
1769237767992,132,4,4.098233928809481,5.666601343838735,5.41315670442345
1769237767996,131,3,2.63954127359424,4.671078529561842,3.964103857763728
1769237768000,129,1,1.1056303357742123,2.4976016470289797,2.4396918017866405
1769237768004,127,-1,-0.3995382370291462,0.4852971098197323,0.9434506845085828
1769237768008,126,-2,-1.7573549114439926,-0.5823521617468146,-0.4060118747477141
1769237768012,125,-3,-2.9835480010953592,-1.2345962912543091,-1.6253761643271998
1769237768016,124,-4,-4.217108373845315,-2.431878126519244,-2.854036243578003
1769237768020,122,-6,-5.563314887408339,-4.360884856501677,-4.195123342923599
1769237768024,121,-7,-6.950615542757056,-5.60738917136495,-5.573995149717319
1769237768028,120,-8,-8.123040698698452,-6.423459422230387,-6.734495252282489
1769237768032,119,-9,-8.764145277912533,-7.362707513530647,-7.363940546502791
1769237768036,119,-9,-8.675656222038622,-7.283924261427042,-7.268533253361538
1769237768040,120,-8,-7.922341929742339,-6.472993674875999,-6.514134055509815
1769237768044,121,-7,-6.861398264559159,-5.4482123630831545,-5.454452258320192
1769237768048,122,-6,-6.0099311467858865,-4.513693163537068,-4.601154169019553
1769237768052,122,-6,-5.786045086877401,-4.251289045859417,-4.369350897803173
1769237768056,122,-6,-6.255164863872571,-4.3813733065847185,-4.826385685092006
1769237768060,121,-7,-7.056154687005769,-5.344894401434022,-5.6161370180926555
1769237768064,120,-8,-7.607482632266407,-6.533990338523521,-6.160899975769025
1769237768068,120,-8,-7.500752688465059,-6.349472012996795,-6.052440201919269
1769237768072,121,-7,-6.804423468203908,-5.388437730118344,-5.356784348043705
1769237768076,122,-6,-6.017497479031919,-4.215804595549745,-4.570195388141689
1769237768080,123,-5,-5.678316252743278,-3.479222154588917,-4.228858350370341
1769237768084,122,-6,-5.935263669740992,-4.359417898305209,-4.479646582858773
1769237768088,121,-7,-6.43311875027606,-5.4710486342255775,-4.967677335940982
1769237768092,121,-7,-6.598444021559112,-5.246730494889228,-5.123124528382925
1769237768096,122,-6,-6.074993980816327,-4.3169172217486445,-4.5949200612069685
1769237768100,123,-5,-4.9734813469989145,-3.3497529502624044,-3.495743093922608
1769237768104,124,-4,-3.789914887446891,-2.400071506770713,-2.3177561882212543
1769237768108,125,-3,-3.088062381127785,-1.4288095605385474,-1.6182431654689011
1769237768112,125,-3,-3.1562706549917996,-1.2332463716414717,-1.6820544680458407
1769237768116,124,-4,-3.8358538739303754,-2.349400764792975,-2.3523565639251784
1769237768120,123,-5,-4.621899547978984,-3.2459519393458147,-3.129274802839511
1769237768124,123,-5,-4.979874415237661,-3.450943267057345,-3.482741987838108
1769237768128,123,-5,-4.677481107140296,-3.342051964192341,-3.1818099369163235
1769237768132,124,-4,-3.9136861176721665,-2.267183276420029,-2.423263852897702
1769237768136,125,-3,-3.163716292139388,-1.3225967352985883,-1.678042656721196
1769237768140,125,-3,-2.8534413266044494,-1.1984958327171389,-1.3681053639328908
1769237768144,125,-3,-3.087951455066575,-1.478301043546682,-1.5975376750571306
1769237768148,124,-4,-3.608490300745243,-2.2544696001288806,-2.1105640018573584
1769237768152,124,-4,-3.9862933101494793,-2.3544656428362147,-2.48351421184065
1769237768156,124,-4,-3.913252252404012,-2.181164362205455,-2.411366640561289
1769237768160,124,-4,-3.408328018034943,-2.3079065955025704,-1.91155818687008
1769237768164,125,-3,-2.814717737305167,-1.2973337026232188,-1.322988216914936
1769237768168,126,-2,-2.5758905843642768,-0.4120326342715712,-1.0861256744720604
1769237768172,125,-3,-2.9232671121504405,-1.1732007377332403,-1.4324052531509022
1769237768176,124,-4,-3.701601888146286,-2.3422366661052765,-2.2081982412791956
1769237768180,123,-5,-4.478179590937743,-3.0931133926995527,-2.98238406154325
1769237768184,123,-5,-4.853317408614513,-3.473425907581441,-3.3565826823048712
1769237768188,123,-5,-4.72205160765375,-3.1785989259647387,-3.2268639550878477
1769237768192,124,-4,-4.2925779673121145,-2.3820167748202756,-2.801557278767464
1769237768196,124,-4,-3.882765552858849,-2.1067325500711167,-2.3971056425431643
1769237768200,124,-4,-3.688149999093471,-2.277170035452069,-2.206567856710266
1769237768204,124,-4,-3.7004606010025145,-2.2739074311811023,-2.2199347907835
1769237768208,124,-4,-3.794403263696418,-2.30745547880456,-2.312457017382333
1769237768212,124,-4,-3.861030410165198,-2.258398967922868,-2.3777128540395447
1769237768216,124,-4,-3.8682151841538657,-2.153606837043759,-2.3861515136266913
1769237768220,124,-4,-3.833812099464564,-2.225442944396173,-2.3563904126620874
1769237768224,124,-4,-3.7801073404833794,-2.2595303409576397,-2.3092201708006463
1769237768228,124,-4,-3.726869814717676,-2.300553230118493,-2.2617264892412585
1769237768232,124,-4,-3.709665183391531,-2.233885266083216,-2.2474201023494844
1769237768236,124,-4,-3.7685888651126302,-2.128616559461134,-2.306451180021829
1769237768240,124,-4,-3.8891814636754094,-2.226370116533234,-2.4266321878025217
1769237768244,124,-4,-3.9532783872739534,-2.2040887279792156,-2.492647560622722
1769237768248,124,-4,-3.783264500435056,-2.327642238768424,-2.3280014909282296
1769237768252,124,-4,-3.2876502407626536,-2.1864265081830134,-1.8397069970436235
1769237768256,125,-3,-2.5939197435039345,-1.1097251458699744,-1.1525935661024187
1769237768260,126,-2,-2.018695355362012,-0.242479277223568,-0.5817506909029213
1769237768264,126,-2,-1.8497481044796371,-0.0976614030766742,-0.415439206394486
1769237768268,126,-2,-2.1013618073989075,-0.4537323575633276,-0.669514065824099
1769237768272,125,-3,-2.4624705519067387,-0.994085347612884,-1.033995384744522
1769237768276,125,-3,-2.5090087997655837,-1.302359405846912,-1.0847171949865322
1769237768280,125,-3,-2.0216021592313336,-0.978478118326598,-0.6018070757629865
1769237768284,127,-1,-1.1446745939578948,0.6772502350522294,0.270023905024034
1769237768288,128,0,-0.2530346223021211,1.8177119926928975,1.1551919029719346
1769237768292,128,0,0.3455153733131708,1.7490677860772137,1.7462000935399256
1769237768296,128,0,0.6006902328182753,1.984691486439152,1.99451217747574
1769237768300,128,0,0.6585740417569699,1.76642523469287,2.0475986580882215
1769237768304,128,0,0.659980544931462,1.9748577550518351,2.045624956064516
1769237768308,129,1,0.6232265556846603,2.5849591424012037,2.0049653210843665
1769237768312,128,0,0.509988646255386,1.9867202551171776,1.8862354234059495
1769237768316,128,0,0.3676741699137041,1.803136360825094,1.7375022696710802
1769237768320,128,0,0.3738609274925315,1.9449163345068032,1.7374774478679664
1769237768324,128,0,0.7217118503935396,1.873065765273649,2.0794765648983815
1769237768328,129,1,1.4462378402616831,2.703103016844212,2.797607795064411
1769237768332,130,2,2.3526889952633163,3.943393070272638,3.6962780651549463
1769237768336,131,3,3.1246396937804732,4.831817390558895,4.4595526900459435
1769237768340,131,3,3.532715934534438,4.980746537030335,4.860051059168036
1769237768344,131,3,3.576556120303717,4.842234966678186,4.899207011687581
1769237768348,131,3,3.455084143605125,4.803108705268082,4.775293318880236
1769237768352,131,3,3.4030254268537776,4.856941175515555,4.719855058448818
1769237768356,131,3,3.5172908940745056,4.974748129736111,4.826798904283736
1769237768360,131,3,3.678415949723481,4.8440664790038985,4.9766003242984125
1769237768364,131,3,3.6056513860479655,5.047436367678365,4.891466490052917
1769237768368,131,3,3.019977290052862,4.609707578408689,4.296037134562585
1769237768372,129,1,1.833379781830722,3.100974302981859,3.1041828071376107
1769237768376,128,0,0.2529504639008106,1.7562340518342563,1.5219807497709006
1769237768380,126,-2,-1.2786410717393668,0.0798233088254432,-0.0112086046112018
1769237768384,125,-3,-2.2931203361870205,-1.1167079780253215,-1.030693614902078
1769237768388,125,-3,-2.548418086638277,-1.2262860458153129,-1.2959452247590435
1769237768392,125,-3,-2.173944693486033,-0.9627554137585086,-0.9347963408386816
1769237768396,126,-2,-1.6084453901468885,-0.2147606086578904,-0.3822717339374187
1769237768400,126,-2,-1.349235843651111,0.1439976884268183,-0.1322565557707913
1769237768404,126,-2,-1.6561177379741203,-0.2019781410916348,-0.4437000098200629
1769237768408,125,-3,-2.396465540690662,-1.0768502958772432,-1.1863103388957188
1769237768412,124,-4,-3.1364212448465585,-2.073180359013435,-1.930117224882578
1769237768416,124,-4,-3.422225371854014,-2.111511722374689,-2.2237635770535036
1769237768420,124,-4,-3.068710148190607,-1.8476707814756583,-1.88086749931528
1769237768424,125,-3,-2.2684126838237417,-1.2646143261045504,-1.0903584164144942
1769237768428,126,-2,-1.452039184981202,0.1303282510055825,-0.2809770253734918
1769237768432,127,-1,-0.9965715068706216,0.6558089936406619,0.1680909911123149
1769237768436,126,-2,-0.9915079289543732,0.2539024766585753,0.1633621906157443
1769237768440,126,-2,-1.2364120149231053,-0.2235333286250476,-0.0954678062095621
1769237768444,125,-3,-1.4418153477394862,-0.8408286384152905,-0.3144721153917527
1769237768448,126,-2,-1.403783626203525,-0.2420994513480356,-0.2836161093020704
1769237768452,127,-1,-0.9479630264592336,1.051235109225113,0.1735896116478965
1769237768456,128,0,0.281358379946838,1.9204253290510849,1.4085860616352086
1769237768460,130,2,2.8526854600827978,4.108083009442858,3.981694653188136
1769237768464,134,6,7.149419656064721,7.898183036877128,8.26945874010801
1769237768468,139,11,12.717929811803115,13.008721266883096,13.8172336581043
1769237768472,145,17,17.91977351423783,18.89976158016942,18.992496079180885
1769237768476,148,20,20.379758082726052,22.057974090123057,21.42972594339288
1769237768480,146,18,18.171120762202,20.032229114269494,19.209960704612833
1769237768484,139,11,11.051078927870169,12.930320961816951,12.091997312904931
1769237768488,128,0,0.8822864390319387,2.022428448806713,1.9335970076156368
1769237768492,117,-11,-9.14606098835277,-9.107729871353396,-8.084255700736787
1769237768496,110,-18,-16.063215800606923,-15.829347677877376,-14.998744263325175
1769237768500,109,-19,-18.45352241893651,-17.023553289901237,-17.399155013547126
1769237768504,111,-17,-16.79425660259207,-14.946451868351817,-15.762306299368184
1769237768508,115,-13,-12.7638950775856,-11.068816872696724,-11.759658818909864
1769237768512,119,-9,-8.176942551915518,-7.019794198616577,-7.194863284469718
1769237768516,122,-6,-4.272572975802316,-3.8835678094429897,-3.2990280061183164
1769237768520,125,-3,-1.5990015985035662,-0.9790205727786546,-0.6210627537947446
1769237768524,127,-1,-0.2241559684797083,1.097863961511024,0.7618996195324068
1769237768528,128,0,0.0888557345401775,1.8589880520455837,1.0763088997353043
1769237768532,127,-1,-0.1828239668289895,1.1623375501816804,0.7957969953918267
1769237768536,126,-2,-0.4480358323060568,-0.1333707680841526,0.5162581786221419
1769237768540,126,-2,-0.2766230086663428,0.3908824583748196,0.6746125318032226
1769237768544,128,0,0.3537843207025748,1.7030004697642953,1.295750859539449
1769237768548,128,0,1.0825702187816144,2.3610693820737487,2.017305998483925
1769237768552,129,1,1.4720374047142446,2.671680796480831,2.399633664883713
1769237768556,128,0,1.3442529277596118,2.362295668735485,2.2649328253938457
1769237768560,128,0,0.8855716685196549,1.9344052140613228,1.8006277081466908
1769237768564,127,-1,0.4673854279626206,1.1560272570908534,1.3781804387284924
1769237768568,127,-1,0.3570308293879074,1.026030438833314,1.2633740427818614
1769237768572,128,0,0.5570300028747712,1.9915742574759496,1.4565736841161976
1769237768576,128,0,0.878060784188196,2.1208745514099094,1.7678045947775245
1769237768580,128,0,1.1401361357234965,2.1258869501495052,2.019264875565019
1769237768584,128,0,1.30489197168573,2.06307429995009,2.1760902776724675
1769237768588,128,0,1.4501915618880166,2.1082213660368363,2.3175217530737378
1769237768592,129,1,1.6669057762490338,3.011322566668874,2.532168943159339
1769237768596,129,1,1.9975669061028571,3.0735915770958933,2.858963042180681
1769237768600,129,1,2.4403241485751543,3.229581404427015,3.2945042177822064
1769237768604,130,2,2.961661582541905,3.9669264573730816,3.806604883850265
1769237768608,130,2,3.4879082698887314,4.266503738136057,4.323994842005026
1769237768612,131,3,3.9096420765303823,4.889315348421885,4.738882243085531
1769237768616,131,3,4.135735499920058,5.2192200345207365,4.9605421919769
1769237768620,131,3,4.174438467359457,5.114200957219523,4.996622215664952
1769237768624,131,3,4.170723141480927,5.083942216719226,4.990590450440379
1769237768628,131,3,4.346409123580937,5.241977343564845,5.16234820507712
1769237768632,132,4,4.8585916143786045,5.896241975441226,5.668064411602981
1769237768636,132,4,5.658499401336393,6.311312046940024,6.460054159118032
1769237768640,133,5,6.4566042934861505,6.978176407131851,7.250811802124354
1769237768644,134,6,6.856733725920194,8.293721789944296,7.6451443593076736
1769237768648,134,6,6.60276000843243,8.058319504007383,7.386757121870114
1769237768652,132,4,5.760227962545542,6.104275412369151,6.54113594206707
1769237768656,131,3,4.680935722848606,5.16747193326917,5.459909808931996
1769237768660,131,3,3.787727735477309,5.084475491341375,4.564570034180272
1769237768664,130,2,3.3646460309999595,4.275512908913058,4.137611410309845
1769237768668,130,2,3.4879777996557806,4.096233232353049,4.255643423930462
1769237768672,131,3,4.088285809940995,5.131894655099772,4.8511068582255135
1769237768676,132,4,5.054754327960499,6.157278582002986,5.814316153935017
1769237768680,133,5,6.296754161370746,7.080470400305697,7.053973597050135
1769237768684,134,6,7.72237059191609,8.360984583943374,8.476674114892532
1769237768688,136,8,9.16972338869826,10.004134036397234,9.9195740054143
1769237768692,137,9,10.386211471772931,11.328524624839256,11.130399808501458
1769237768696,138,10,11.120314692082395,11.922350507511478,11.859362424566331
1769237768700,138,10,11.284797489015132,12.36295296701798,12.021574580868744
1769237768704,138,10,11.067724074309204,12.09565940070986,11.806361387515398
1769237768708,137,9,10.883820204009629,11.318492207434376,11.62687842917624
1769237768712,138,10,11.165139259351395,12.06625345985264,11.910764021101825
1769237768716,139,11,12.104113714558189,13.211543741581176,12.846241244261623
1769237768720,140,12,13.494304763502702,14.066710831119243,14.22714152256378
1769237768724,141,13,14.760580524328008,15.48008742818068,15.483826559667698
1769237768728,142,14,15.192538982724528,15.908779293825972,15.911946237209955
1769237768732,141,13,14.307005388557656,15.579554068258473,15.029529288161305
1769237768736,140,12,12.154556193594226,13.658306143799637,12.883224647511298
1769237768740,135,7,9.338076082330076,9.66119798952263,10.07123545121074
1769237768744,133,5,6.662897862268564,6.928688311111811,7.396955018968803
1769237768748,131,3,4.636223029096012,5.465483863043314,5.3681736749050035
1769237768752,130,2,3.195704961740014,4.152905550787889,3.9240158736513897
1769237768756,129,1,1.8724092573421205,3.0121212129548924,2.5972060192433357
1769237768760,127,-1,0.2309534640159438,1.4442287735691255,0.9540573614040182
1769237768764,125,-3,-1.7829240470832906,-0.9557625892241306,-1.058536209758739
1769237768768,122,-6,-3.846960040619228,-3.524796169684019,-3.1185189244032108
1769237768772,121,-7,-5.565710536078387,-4.863887631469732,-4.8323160291784495
1769237768776,120,-8,-6.780447394608592,-5.921509327726037,-6.043848420055222
1769237768780,119,-9,-7.6268706522802034,-6.565214910199558,-6.890322481656919
1769237768784,119,-9,-8.335723924398886,-6.972389190146093,-7.601299469500006
1769237768788,117,-11,-8.996973402355472,-8.428945605562111,-8.263457993426771
1769237768792,117,-11,-9.503334386873558,-8.962798575169444,-8.7669133253697
1769237768796,117,-11,-9.687331207804974,-8.775883178609448,-8.944813794497827
1769237768800,117,-11,-9.487980301936432,-8.658054073696956,-8.739522926446966
1769237768804,118,-10,-8.995643622885506,-7.903998679740257,-8.244240461829454
1769237768808,118,-10,-8.37329993154901,-7.383234058058393,-7.6216252118472445
1769237768812,119,-9,-7.761305200976396,-7.074022755697837,-7.009144467987618
1769237768816,119,-9,-7.24650468872084,-6.549711623872607,-6.491257924240937
1769237768820,120,-8,-6.878878169831826,-5.913973611652313,-6.118291744136798
1769237768824,120,-8,-6.6743819178880806,-5.595530339438825,-5.908296816880339
1769237768828,120,-8,-6.59183355889167,-5.638768011954824,-5.821155110727891
1769237768832,120,-8,-6.530925883409684,-5.8365205499327795,-5.755634012887175
1769237768836,120,-8,-6.379897245754613,-5.699832780553707,-5.598952966786931
1769237768840,121,-7,-6.077245884445074,-4.7943493729203155,-5.29024751779104
1769237768844,121,-7,-5.639803097062339,-4.627751971560967,-4.847692106140567
1769237768848,121,-7,-5.157777088938097,-4.604009350029431,-4.361616889316011
1769237768852,122,-6,-4.778469168337965,-3.827111553327168,-3.978280128896442
1769237768856,122,-6,-4.667687059352748,-3.689298423277327,-3.862727838607206
1769237768860,122,-6,-4.930885861262152,-3.79290278973289,-4.120198649124274
1769237768864,121,-7,-5.529525091387119,-4.558745616823283,-4.711669940868505
1769237768868,120,-8,-6.261989187055356,-5.676559347308443,-5.43509031858741
1769237768872,120,-8,-6.832593624455668,-5.695863944817057,-5.995724895712698
1769237768876,120,-8,-6.965411886293106,-5.817779680362447,-6.119771444238057
1769237768880,120,-8,-6.510761849557691,-5.62713667795021,-5.658609718914208
1769237768884,121,-7,-5.518476533015354,-4.659496974565549,-4.660882768132692
1769237768888,122,-6,-4.248436328623193,-3.580128375734416,-3.384772394188409
1769237768892,124,-4,-3.0787194011460244,-1.7300818572528798,-2.208162496690896
1769237768896,125,-3,-2.3296075939724856,-0.8054455919761269,-1.451779974712052
1769237768900,124,-4,-2.116125003382306,-1.5650285480559054,-1.2297450876034726
1769237768904,124,-4,-2.3380182432452674,-1.7277130411944028,-1.4404157691759043
1769237768908,124,-4,-2.78538576606303,-1.440218930081577,-1.8748125407144265
1769237768912,124,-4,-3.2433678196330384,-1.894093567762528,-2.3211903151513917
1769237768916,123,-5,-3.539527089632444,-2.5616992759539823,-2.6088593540212095
1769237768920,123,-5,-3.576728355156791,-2.804841409666313,-2.639085522337814
1769237768924,123,-5,-3.376458820298031,-2.4378029243012342,-2.4306273839307053
1769237768928,124,-4,-3.077442930578938,-1.7105314140205006,-2.121335641998043
1769237768932,124,-4,-2.845904595121546,-1.601686191093812,-1.878450024585428
1769237768936,124,-4,-2.7550425870120616,-1.8079354732090105,-1.776111740608291
1769237768940,124,-4,-2.7403353761341496,-1.5434116073530495,-1.7497053771735098
1769237768944,124,-4,-2.668792613441227,-1.6534122653420544,-1.665823194561411
1769237768948,124,-4,-2.457426931368224,-1.4997558235412063,-1.4416752119174867
1769237768952,125,-3,-2.142787891885244,-0.7367883775903735,-1.114666680035577
1769237768956,125,-3,-1.8568192069132523,-0.6852431924123662,-0.8174572554999812
1769237768960,125,-3,-1.7459570443503063,-0.5836717998179854,-0.6962313935471652
1769237768964,125,-3,-1.9054820298992832,-0.6426981955414117,-0.8450550234601191
1769237768968,124,-4,-2.3641587398270643,-1.44175813487066,-1.2914395869956494
1769237768972,124,-4,-3.093821045590513,-1.808292551495282,-2.006912524354941
1769237768976,123,-5,-4.003932778830415,-2.5264440818692626,-2.901669670287921
1769237768980,122,-6,-4.925406913338089,-3.760391517687819,-3.8076674449522674
1769237768984,121,-7,-5.631302332795839,-4.394569345151883,-4.498756746601696
1769237768988,121,-7,-5.921557666454049,-4.709092410937631,-4.7753651272235125
1769237768992,121,-7,-5.732146722733084,-4.4772237912771775,-4.573443390425696
1769237768996,122,-6,-5.190991977956078,-3.834088469674519,-4.01998521897281
1769237769000,122,-6,-4.569847628037715,-3.405143005654544,-3.3853700435457887
1769237769004,123,-5,-4.145368595402225,-2.747224530993338,-2.94576321092042
1769237769008,123,-5,-4.044035724138847,-2.3177998132695357,-2.8284689759890793
1769237769012,123,-5,-4.173663538270669,-2.870181794840072,-2.942144988203827
1769237769016,122,-6,-4.301489899561887,-3.364253205190261,-3.053807018085923
1769237769020,123,-5,-4.224639702010706,-2.8781507927802226,-2.9600968693207337
1769237769024,123,-5,-3.891250588797587,-2.2187106473649387,-2.6096348532462637
1769237769028,124,-4,-3.3809176411469646,-1.8460170974523364,-2.083039418958614
1769237769032,124,-4,-2.798107243717065,-1.2994741015059112,-1.4850188851323949
1769237769036,125,-3,-2.2054436292181787,-0.8864528166199037,-0.8774638024359275
1769237769040,125,-3,-1.6507186318326026,-0.3722436889978497,-0.3074119992102688
1769237769044,126,-2,-1.2222582168960543,0.3686292020271053,0.1370815777488677
1769237769048,126,-2,-1.0370686649813263,0.4950830529287691,0.3393060521687672
1769237769052,126,-2,-1.1462309600789853,0.5104294504149128,0.2488287595455138
1769237769056,126,-2,-1.4400208726038328,0.2137955513970627,-0.0244750561417239
1769237769060,125,-3,-1.653777947752633,-0.3287813359736457,-0.2173870240765629
1769237769064,126,-2,-1.5019302267583332,0.2346692850759488,-0.0467752333621943
1769237769068,126,-2,-0.8686522043622147,0.7599936200724691,0.6021183009533351
1769237769072,127,-1,0.0689524635217222,1.2047972752073712,1.553902628349785
1769237769076,128,0,0.8899512114079537,2.608790354326585,2.390470856191077
1769237769080,129,1,1.1640726658316911,3.2745466033052946,2.68277452138337
1769237769084,128,0,0.7432591155336015,2.6280782078296054,2.2820806092131267
1769237769088,127,-1,-0.1064874737384591,1.4493760178414163,1.453619919256254
1769237769092,126,-2,-0.8587137767050299,0.4635116453037596,0.7236497547369234
1769237769096,126,-2,-1.0586674271429248,0.4865826260606467,0.5460310617339286
1769237769100,127,-1,-0.5748191926957067,1.324601865694705,1.0501921736331077
1769237769104,128,0,0.4000440876411439,2.7005841664614327,2.042022016191158
1769237769108,129,1,1.5334108099671415,3.3357952545013485,3.19057223178259
1769237769112,129,1,2.5281000957377664,3.647061782499081,4.201974690162564
1769237769116,131,3,3.1802746579516827,5.299217761923089,4.874114544005854
1769237769120,131,3,3.3710957001176203,5.545010638740695,5.087147450428942
1769237769124,130,2,3.0748352415045197,4.51459962167051,4.81365106594594
1769237769128,130,2,2.3852340482581016,4.5463292549393355,4.146615657705857
1769237769132,129,1,1.510822334208456,3.4793237458189,3.2941582855462066
1769237769136,128,0,0.7113211500341448,2.4466165480099384,2.515291778558334
1769237769140,128,0,0.188050940092495,2.487550070907417,2.011248671632218
1769237769144,127,-1,-0.023415904704247,1.5481918412917872,1.818870834734445
1769237769148,127,-1,-0.0846087241835571,1.5998851777952745,1.7779938063207068
1769237769152,128,0,-0.2557101690334171,2.4104919521709767,1.6281981718847114
1769237769156,127,-1,-0.7083324516873548,1.5517245393023098,1.1967094270566854
1769237769160,126,-2,-1.3947582884877283,0.3998523701880625,0.5313173596547397
1769237769164,125,-3,-2.0947368064430916,-0.3159417206018302,-0.1463479796143509
1769237769168,125,-3,-2.5933193483587775,-0.5312368877062723,-0.6209445174469624
1769237769172,125,-3,-2.817344393214076,-0.4069492651104165,-0.8210366632967346
1769237769176,125,-3,-2.82364672462322,-0.6185623860304311,-0.8055829007437374
1769237769180,125,-3,-2.69792174035622,-0.4010968854800728,-0.6605288459987221
1769237769184,125,-3,-2.4932153302537468,-0.4574240647366367,-0.4370951742913878
1769237769188,125,-3,-2.2551464719419583,-0.4303275314330059,-0.1786414364082885
1769237769192,126,-2,-2.0656400567256696,0.6005716783451509,0.0341363078527219
1769237769196,126,-2,-2.022781954443699,0.3149874490683119,0.1029279659004838
1769237769200,125,-3,-2.16274636470864,-0.2179007480509724,-0.0103450898404811
1769237769204,126,-2,-2.4050624290426184,0.3165141471114812,-0.2286620685402668
1769237769208,125,-3,-2.587440894446087,-0.141954822984154,-0.3925130570501993
1769237769212,125,-3,-2.579069583649294,-0.6870087733748259,-0.3697967662821437
1769237769216,125,-3,-2.3752160092427177,-0.3507133948160837,-0.1501690472521739
1769237769220,126,-2,-2.042091402956681,0.4870790355784996,0.2057318332107023
1769237769224,127,-1,-1.4869607167580134,1.614245187510008,0.7916220491952861
1769237769228,128,0,-0.2513023319803018,2.6165342697984473,2.0620673974584633
1769237769232,130,2,2.3665320563500023,4.537355924104096,4.712687966818361
1769237769236,134,6,6.767718619143025,8.499003736230696,9.139215944803032
1769237769240,140,12,12.410281556986478,14.637545772606275,14.796717076502066
1769237769244,146,18,17.60217088849894,20.52130355880825,19.994984591935022
1769237769248,148,20,20.028670601471823,22.7200131898345,22.42688567469295
1769237769252,146,18,17.808122502835236,20.441095861622564,20.220371722669036
1769237769256,139,11,10.503332031294002,13.589908369347636,12.943310301689747
1769237769260,128,0,-0.4812794771894473,2.5501341714712527,1.9975534022321295
1769237769264,115,-13,-12.36339309554249,-10.350526804936775,-9.84216586245878
1769237769268,105,-23,-22.087063736454994,-20.3491199758528,-19.52844140436517
1769237769272,101,-27,-27.48173870205882,-24.43824983633676,-24.89745211144313
1769237769276,101,-27,-27.893175687504467,-24.478120713309583,-25.296687487905565
1769237769280,104,-24,-24.10078056462882,-21.353688184011148,-21.4995620155926
1769237769284,110,-18,-17.772081946166885,-15.398826110367397,-15.162757129166632
1769237769288,117,-11,-10.81505857552416,-8.314006090946256,-8.18694610226391
1769237769292,124,-4,-4.827974149199624,-1.4480167349351176,-2.171961955109394
1769237769296,128,0,-0.7251775880659936,2.5242603487572675,1.9611707845012536
1769237769300,129,1,1.37506107765594,3.685929040308066,4.089899838426984
1769237769304,130,2,1.959606216387515,4.562857875042209,4.701262630876701
1769237769308,130,2,1.7530276476609217,4.763289500727841,4.520578989214286
1769237769312,130,2,1.4019725822553006,4.4744948723139055,4.193147737736625
1769237769316,130,2,1.3327287343602283,4.67992913916535,4.143961415845479
1769237769320,130,2,1.7228455259051394,4.544855159267215,4.552127567592531
1769237769324,130,2,2.491878885764772,4.738980498789201,5.3402291899947985
1769237769328,132,4,3.3293464451332926,6.588339837578297,6.198629524985912
1769237769332,133,5,3.8376516664138944,7.678610819116085,6.728219344092305
1769237769336,132,4,3.758034356363897,6.515214657241264,6.669905292202679
1769237769340,131,3,3.122199434853327,5.747024522406284,6.057441126420604
1769237769344,131,3,2.2264851923369777,5.539843560215123,5.188200127078308
1769237769348,130,2,1.4839105902019056,4.78724067861933,4.472672528118972
1769237769352,130,2,1.2600876238579208,4.534437117866217,4.272747189190444
1769237769356,130,2,1.7348736068258956,4.695838826545706,4.767163408113111
1769237769360,131,3,2.808090712874061,5.621935849718379,5.85759876513944
1769237769364,133,5,4.110162972718365,7.637724336380559,7.176984588107533
1769237769368,134,6,5.162892862457773,8.729302605262323,8.248892820214992
1769237769372,134,6,5.6233123225673864,8.59025923697214,8.731385299408691
1769237769376,134,6,5.460217184017768,8.725485028383464,8.593057885832525
1769237769380,134,6,4.958023561312608,8.581404859248451,8.116359326565423
1769237769384,133,5,4.555770498695297,7.698397152871155,7.737825463057672
1769237769388,133,5,4.612422273941862,7.679092792210471,7.815419283959262
1769237769392,134,6,5.224153627542171,8.686524593574564,8.446156380512887
1769237769396,135,7,6.1993723631277025,9.678070973190788,9.439766251024531
1769237769400,136,8,7.202659180161787,10.66223306420918,10.461597192594713
1769237769404,137,9,7.959853172525043,11.59332362862994,11.237946900234238
1769237769408,137,9,8.378409236875576,11.827317611888068,11.676982131977324
1769237769412,137,9,8.51954333679933,11.52789133370276,11.840367251984944
1769237769416,137,9,8.489896469171587,11.936513538209145,11.833667806301076
1769237769420,138,10,8.376096751331493,12.387125871857045,11.74119730880532
1769237769424,137,9,8.265125298961125,11.899184244374313,11.64889540271335
1769237769428,137,9,8.27349848807858,11.534149990692852,11.675056960691306
1769237769432,137,9,8.506945407476804,11.823359075342818,11.927894990759246
1769237769436,138,10,8.985631040888524,12.746390079034835,12.42755727116026
1769237769440,139,11,9.628591846234178,13.525759679311944,13.090703370530608
1769237769444,139,11,10.314459204940269,13.86724580811208,13.79444331773208
1769237769448,140,12,10.944090207323848,14.47472399490393,14.440868099084229
1769237769452,140,12,11.45005277288402,14.998324920749482,14.964925574326308
1769237769456,141,13,11.782226658933276,15.541392187342796,15.317288934270149
1769237769460,141,13,11.922982875034831,15.811272074133733,15.478830862248412
1769237769464,141,13,11.926336521256989,15.579454992845308,15.501421546772823
1769237769468,141,13,11.922299086058798,15.753794194636034,15.514367274230969
1769237769472,141,13,12.051372146141633,15.783494834538336,15.659538274134638
1769237769476,141,13,12.37057436276302,15.74351703790094,15.995939117319988
1769237769480,142,14,12.8211720078243,16.704956760100657,16.465220944532017
1769237769484,143,15,13.305467936386846,17.655368929437152,16.968170161861735
1769237769488,143,15,13.8030054892364,17.70832338039294,17.483162256251067
1769237769492,143,15,14.388696829338976,17.85001542527711,18.08590596343137
1769237769496,144,16,15.106809083872696,18.69205687949157,18.821816676698887
1769237769500,145,17,15.824697046997628,19.830107838322895,19.557335886077595
1769237769504,146,18,16.229767819430975,20.50176171138319,19.977676091723794
1769237769508,145,17,15.985686219729688,19.928237156749812,19.74627926125161
1769237769512,144,16,14.909180680269314,18.59099891736917,18.682814253873406
1769237769516,142,14,13.038264472631,17.02193927437764,16.82864037360721
1769237769520,140,12,10.588917588992668,14.504956605768395,14.399863211164272
1769237769524,137,9,7.875824222498613,11.85667316550106,11.707524933151609
1769237769528,135,7,5.240930734119924,9.61809209353633,9.089342950312382
1769237769532,132,4,2.9707233816823404,6.876173356527854,6.830939189637103
1769237769536,130,2,1.1882052691298162,4.817205141225738,5.058577535663543
1769237769540,129,1,-0.2169716057432014,3.694897038188945,3.665861031510365
1769237769544,128,0,-1.5155402053615337,2.7263522562868787,2.382816427746639
1769237769548,127,-1,-2.917387459577097,1.755137875925766,0.9972747341234794
1769237769552,125,-3,-4.36931720765596,-0.2484882756245978,-0.4393434448386646
1769237769556,123,-5,-5.574880518624408,-2.0240829291025886,-1.6299605289107402
1769237769560,123,-5,-6.245352294943263,-2.4600915710790288,-2.284973362531794
1769237769564,123,-5,-6.355164799192753,-2.065266562029211,-2.3801846203985084
1769237769568,124,-4,-6.1682874965588965,-1.440920958990541,-2.181810569368557
1769237769572,123,-5,-6.036105885979387,-2.01106003622386,-2.0408743874055
1769237769576,123,-5,-6.1724545506151065,-2.2649664410207904,-2.167745138732714
1769237769580,123,-5,-6.579407497048531,-2.201650674960297,-2.561372393288825
1769237769584,122,-6,-7.117621594263325,-3.294599688373995,-3.082844531309452
1769237769588,122,-6,-7.607096693485992,-3.1942796092377232,-3.555668045608037
1769237769592,122,-6,-7.884424296028041,-3.181617265242935,-3.8197037437366266
1769237769596,121,-7,-7.834351928084658,-4.144568390111868,-3.760087794659258
1769237769600,122,-6,-7.4357668012911295,-3.2434431169075744,-3.353564724684019
1769237769604,123,-5,-6.801607965585602,-2.2876195046566012,-2.710623051354374
1769237769608,123,-5,-6.15016610113383,-2.120261530081029,-2.0483331082741723
1769237769612,124,-4,-5.6937689127897,-1.2476384607696884,-1.57927614357093
1769237769616,124,-4,-5.5133779591224625,-1.053394263166397,-1.385859151102908
1769237769620,124,-4,-5.513962307375558,-1.3486060690694872,-1.3748590844646569
1769237769624,124,-4,-5.504808130981439,-1.141745946594855,-1.3563256033839768
1769237769628,124,-4,-5.355963580892383,-1.2363988397779784,-1.1992982377563828
1769237769632,124,-4,-5.109632023510977,-1.094476977027829,-0.944263919303366
1769237769636,125,-3,-4.942523797702069,-0.1804552505863577,-0.7673040160573268
1769237769640,125,-3,-4.996679674595168,-0.2407620652376896,-0.8112569110315926
1769237769644,124,-4,-5.229739158161767,-1.2011718378947966,-1.0347124213404872
1769237769648,124,-4,-5.436153427821446,-1.1676097973130857,-1.2323127829265257
1769237769652,124,-4,-5.430375930335576,-1.1060438211672985,-1.2182976459031658
1769237769656,124,-4,-5.220429792710701,-1.177280471162482,-1.0006412047088686
1769237769660,125,-3,-5.005365937444366,-0.2116981356306211,-0.7783849979378237
1769237769664,125,-3,-4.995213525682753,-0.2136139955675815,-0.7610701497861323
1769237769668,124,-4,-5.217906854834765,-1.1331260184042422,-0.9757335643308004
1769237769672,124,-4,-5.488856100413823,-1.0932772438949712,-1.2375531758031362
1769237769676,124,-4,-5.565856464421494,-1.2078111044872288,-1.3056171220360802
1769237769680,124,-4,-5.347623924284015,-1.1395981487165454,-1.0805816279076998
1769237769684,125,-3,-4.950135239129187,-0.2682165053436335,-0.6789719617405938
1769237769688,125,-3,-4.610209576869771,-0.0379855589772547,-0.3357969154831576
1769237769692,125,-3,-4.503395821889035,-0.1678963682398507,-0.2238372754629414
1769237769696,125,-3,-4.61482263281627,-0.1325139127092887,-0.3270993074074648
1769237769700,125,-3,-4.747455893169084,-0.1940148533546482,-0.4501978491908692
1769237769704,125,-3,-4.65608352266587,-0.1982717758040039,-0.3507898194688704
1769237769708,125,-3,-4.223139499284576,-0.0409440180991405,0.0869566350760095
1769237769712,126,-2,-3.564579315476986,0.8232599462030536,0.7473450520663738
1769237769716,127,-1,-2.9853641589969007,1.922641245670154,1.3271809622129938
1769237769720,127,-1,-2.802765394816867,1.723505539529746,1.5116683315106791
1769237769724,126,-2,-3.1555732037369157,0.9463999619559532,1.1638319549716127
1769237769728,126,-2,-3.920565029804036,0.8182317836878608,0.4064486394011846
1769237769732,125,-3,-4.772587016261764,0.0078978863308192,-0.4378398435341555
1769237769736,124,-4,-5.346599920827228,-1.275462954157014,-1.0063485572245514
1769237769740,124,-4,-5.421809142884646,-1.033525122125296,-1.0789283521482955
1769237769744,125,-3,-5.028674012386761,-0.2842275074722022,-0.6854119894933953
1769237769748,125,-3,-4.409356394606583,0.0923567373980688,-0.0668034065445555
1769237769752,126,-2,-3.86027862364369,0.7579141186625054,0.4821393513024462
1769237769756,126,-2,-3.5695548271172157,0.9643137389842232,0.7750485219069637
1769237769760,126,-2,-3.5474533281562763,0.7634379295112189,0.8020786524452843
1769237769764,126,-2,-3.663044902834132,0.9077011137467108,0.692306924963282
1769237769768,126,-2,-3.735678370838591,0.987174769716646,0.6233931000466175
1769237769772,126,-2,-3.628856804386347,0.8268926633089451,0.7302918081494589
1769237769776,126,-2,-3.319272842018973,0.9747768668810264,1.0376272006968892
1769237769780,127,-1,-2.916707290014297,1.69350827889219,1.4385230247813674
1769237769784,127,-1,-2.6089548498540127,2.0646837009287955,1.7470704577727068
1769237769788,127,-1,-2.54473761874234,1.8248817805400044,1.813847115163474
1769237769792,127,-1,-2.726710507639708,2.0267774088010064,1.633693778072135
1769237769796,127,-1,-3.0009871127438794,1.797688687480982,1.3588400354884511
1769237769800,126,-2,-3.170261584669832,0.8308544836092431,1.1876836052332491
1769237769804,126,-2,-3.1519529862350932,1.0255536910809224,1.2051859997351648
1769237769808,127,-1,-3.034734466250538,1.8283249556068664,1.3230941357125623
1769237769812,127,-1,-2.960328951590631,2.116357783389951,1.397660340497619
1769237769816,127,-1,-2.944789587959121,1.6713803476730655,1.411301949461205
1769237769820,126,-2,-2.841874687778284,0.9803974136499876,1.5111093661852188
1769237769824,127,-1,-2.5000291882840684,1.898449180202415,1.8502842640710135
1769237769828,128,0,-1.9402883912246611,2.9712498431220116,2.4082484528557906
1769237769832,128,0,-1.3592736421340472,3.049339276591509,2.987944292116037
1769237769836,129,1,-0.9541031361933174,3.703088725114026,3.3918480837224076
1769237769840,129,1,-0.7413635477248965,4.004197081617095,3.602762651058559
1769237769844,129,1,-0.5371160526599734,3.817696113235854,3.803701281214851
1769237769848,129,1,-0.1192101007590049,4.153469201105489,4.216659242589435
1769237769852,130,2,0.5651942095952263,4.859355821043073,4.8958363331077654
1769237769856,131,3,1.3357841739213363,5.942379260004864,5.662731928785082
1769237769860,132,4,1.934742054335994,6.757983112226651,6.259948762804203
1769237769864,132,4,2.273885561951354,7.055115458230568,6.5978268867642385
1769237769868,132,4,2.5344289789630756,6.983636383719856,6.855575887186459
1769237769872,132,4,2.9907694528550293,7.01562595354402,7.306733856284341
1769237769876,133,5,3.6876962579278025,7.8618898847726735,7.996652186020236
1769237769880,134,6,4.270400098209802,8.784294729502228,8.571575997250143
1769237769884,134,6,4.165176800121364,9.102367674711966,8.458753192041494
1769237769888,133,5,3.001346582782019,7.91722650399554,7.28861894650264
1769237769892,130,2,0.932055392983926,5.146818306959426,5.215487430170187
1769237769896,128,0,-1.4173930538533055,2.70842917967869,2.864590934535729
1769237769900,126,-2,-3.330799044805417,0.9564049499309888,0.9498095890919036
1769237769904,125,-3,-4.4072557828718,-0.0378589230403374,-0.1312741217949532
1769237769908,125,-3,-4.705723262423515,0.0888264128638791,-0.4390704831044398
1769237769912,125,-3,-4.5853399750252795,0.0473019596317522,-0.3307473504692968
1769237769916,125,-3,-4.425056259377773,-0.2492746076789356,-0.1815155181168262
1769237769920,125,-3,-4.435736617466255,-0.0313561156315124,-0.1999247083675832
1769237769924,125,-3,-4.642112419093845,-0.0953209604578684,-0.4111774484088621
1769237769928,124,-4,-4.9715892270000905,-0.7515723596897745,-0.7446431711821377
1769237769932,124,-4,-5.344169773944202,-1.1146891243545096,-1.1222328706950735
1769237769936,124,-4,-5.697574230737563,-1.0627349042652865,-1.48312296982256
1769237769940,124,-4,-5.957095208383111,-1.2375918344548806,-1.753044578102447
1769237769944,123,-5,-6.0224092127072435,-1.86413336220475,-1.830058909337798
1769237769948,123,-5,-5.824938409361941,-1.9288073350978137,-1.6425934061459186
1769237769952,124,-4,-5.407319357576469,-0.9169514867118816,-1.2317153292378535
1769237769956,125,-3,-4.919140182768601,-0.2349679481425349,-0.7486639188510315
1769237769960,125,-3,-4.509328780268325,-0.1086767870001752,-0.3458196140178813
1769237769964,125,-3,-4.2249003653671995,0.0846301391814685,-0.0725593325745916
1769237769968,125,-3,-4.022719579716302,0.0898873872181539,0.1145919805496776
1769237769972,125,-3,-3.860242600204392,0.1771448182906079,0.260911934011605
1769237769976,126,-2,-3.7213105600532455,0.5879366055491471,0.3863137073570715
1769237769980,126,-2,-3.4898938209835833,1.15312661102161,0.6099104205732697
1769237769984,127,-1,-2.7698532742340087,1.7823543533969828,1.3285846465720648
1769237769988,128,0,-0.8837835455815899,3.4673345868456233,3.2168440635984994
1769237769992,132,4,2.7915696862251327,6.830542988442033,6.891385093750606
1769237769996,137,9,8.263434942427397,11.901449780371731,12.351901451603522
1769237770000,144,16,14.494497181769365,18.92193505442299,18.55802210179885
1769237770004,149,21,19.474662245886837,23.95016674130686,23.50551973621233
1769237770008,149,21,20.897416958416255,24.416604347021902,24.900297554112832
1769237770012,147,19,17.196959255232944,21.800382888071397,21.18631705310245
1769237770016,139,11,8.460203330753146,13.965470102782918,12.450459312584869
1769237770020,126,-2,-3.315549323034172,0.8193190572106257,0.6822763189260845
1769237770024,113,-15,-14.900796587563494,-11.898178722223449,-10.89741535599192
1769237770028,105,-23,-23.185594363966768,-19.65473642075795,-19.185100439132736
1769237770032,103,-25,-26.447020953072094,-22.112823109614375,-22.461973215270422
1769237770036,105,-23,-24.81505335426855,-20.05327356948866,-20.85771083971933
1769237770040,110,-18,-19.813518690596588,-15.156062071434224,-15.888758981051389
1769237770044,115,-13,-13.449316498552571,-9.913873746651666,-9.550667754744728
1769237770048,121,-7,-7.430866375803571,-3.6205885597966385,-3.545167423845367
1769237770052,127,-1,-2.7841160612552467,1.8173550103996952,1.0985341092078684
1769237770056,129,1,0.1823816368096271,4.055529187739783,4.062753349697845
1769237770060,131,3,1.703262662669633,5.729367602270637,5.575620385714023
