timestamp_ms,ecg_u8_raw,ecg_counts_raw_int,ecg_counts_filt_monitor,ecg_counts_filt_diagnostic,ecg_counts_filt_st
1769245320332,123,-5,-6.404781970213824,-4.794463568554347,-4.359397032587628
1769245320336,124,-4,-6.4235591836291865,-4.063097304287589,-4.376824423382207
1769245320339,124,-4,-6.248486689590323,-3.888147279502822,-4.201914593207471
1769245320344,124,-4,-5.874783609004914,-3.900146921232345,-3.8336675743819306
1769245320348,124,-4,-5.375804522034985,-3.697539250967006,-3.3426604469309957
1769245320352,125,-3,-4.860052969192636,-2.8354576161947644,-2.8331985789850567
1769245320356,126,-2,-4.418431704701305,-2.020034360708533,-2.3957539739076417
1769245320359,126,-2,-4.063842139596009,-1.9145433243669805,-2.04566367756074
1769245320364,126,-2,-3.722637439347404,-1.8861598755857665,-1.7103899794688795
1769245320367,126,-2,-3.314635414600663,-1.6814682805587002,-1.3083377549069288
1769245320372,127,-1,-2.848291533351325,-0.8350906399205813,-0.8467489193273984
1769245320376,128,0,-2.414345739315517,0.0061856741648957,-0.417399350760228
1769245320380,128,0,-2.0713772250511067,0.0708152586262561,-0.0806069188281285
1769245320384,128,0,-1.754762462089678,0.1158053574488112,0.2284556156693575
1769245320387,128,0,-1.3256635468876008,0.3538812162327174,0.6506708685582652
1769245320392,129,1,-0.7156965204485222,1.1108591644125403,1.2555808879072947
1769245320396,130,2,-0.00731495640376,2.140102714666831,1.9592830925281532
1769245320400,131,3,0.6419165286179775,2.892607795813629,2.601827357368962
1769245320404,131,3,1.1484910843223215,3.35601273017033,3.0995549631863613
1769245320407,131,3,1.5622381076921046,3.065537251632294,3.5049166918149055
1769245320412,131,3,1.9809904959760003,3.4494039443591946,3.917904410701637
1769245320415,133,5,2.436601308975269,4.816190955392834,4.369131223327732
1769245320420,133,5,2.889501954041152,5.228043222910395,4.815952586559733
1769245320424,133,5,3.3164953339212606,5.062282068686971,5.234285356934441
1769245320428,133,5,3.760047632571883,5.311181889062445,5.668768977112413
1769245320432,134,6,4.277530494649313,6.268121089904361,6.178885069893396
1769245320435,135,7,4.866535723029799,6.9637624379780005,6.761817611419979
1769245320440,135,7,5.4587549208223995,7.167951925572847,7.347350068532611
1769245320444,136,8,5.9791117684391075,8.086575661389125,7.859380937287291
1769245320448,136,8,6.3988951093731155,8.318914634373861,8.26995441908836
1769245320452,136,8,6.73372516172802,8.23684200387688,8.596232966460637
1769245320455,137,9,7.0026366207234165,9.034929529142955,8.858002044592997
1769245320460,137,9,7.201994327761701,9.1336663249808,9.050916409849815
1769245320464,137,9,7.3218880013395555,9.112771881405488,9.163622805629792
1769245320468,137,9,7.376698499820098,9.326088266931473,9.209614829640142
1769245320472,137,9,7.403815291820321,9.185046182320804,9.22671363039874
1769245320476,137,9,7.423266453405189,9.154967150595652,9.236389809294067
1769245320480,137,9,7.401876914209823,9.018157594639964,9.20663051570966
1769245320483,137,9,7.274544146635394,9.255110829175711,9.072063683228762
1769245320488,137,9,7.020700605186049,9.186729808674492,8.81083969653411
1769245320492,136,8,6.719163598920933,8.304715162010385,8.50103135798959
1769245320496,136,8,6.502044246182847,8.08530055792468,8.27507301358817
1769245320500,136,8,6.428426364661896,8.097005979303049,8.192354468618873
1769245320503,136,8,6.396328475154938,8.20528977554122,8.150476395645486
1769245320508,136,8,6.1852095271181025,8.2401087093518,7.928734036090457
1769245320512,135,7,5.595878158290086,7.238551145712595,7.329073392334253
1769245320516,134,6,4.5703313133907555,6.193356779831376,6.29499481567124
1769245320520,133,5,3.2095312447461604,4.9839037428693995,4.927292895320393
1769245320523,131,3,1.7009098481744245,3.3680299657134376,3.4112800000768417
1769245320528,130,2,0.2187637662970258,2.050799888524889,1.9194298159896612
1769245320531,128,0,-1.1494512679007345,0.4661640669325115,0.5397732040773149
1769245320536,127,-1,-2.4215667305555444,-1.0365906363747688,-0.7432934723792959
1769245320540,126,-2,-3.670456942122841,-1.7569149921787424,-2.0013791263975147
1769245320544,125,-3,-4.927782293265256,-2.856048216254993,-3.2669626536505083
1769245320548,123,-5,-6.118055508045441,-4.759010788112913,-4.466058935421347
1769245320551,122,-6,-7.096625770765579,-5.664574370046848,-5.454586111962119
1769245320556,122,-6,-7.770000159814995,-5.944737416754593,-6.138593262452581
1769245320560,121,-7,-8.184801887237498,-6.781678704939954,-6.5639773399895525
1769245320564,121,-7,-8.493537765037486,-6.828821710244676,-6.88284019960262
1769245320568,121,-7,-8.819633410697904,-6.78043428597897,-7.218628214315459
1769245320571,120,-8,-9.140388068577666,-7.620012065864998,-7.548748713691452
1769245320576,120,-8,-9.299518852294147,-8.019129537828086,-7.716960852986813
1769245320579,120,-8,-9.147259062928654,-7.628566638574935,-7.5738948502937244
1769245320584,121,-7,-8.684696669038072,-7.016668758107955,-7.121489633019383
1769245320588,121,-7,-8.08507669504174,-6.523665181644461,-6.533424868157086
1769245320592,122,-6,-7.580232963153928,-5.914748619869578,-6.040770700538266
1769245320596,122,-6,-7.312193202489159,-5.694675173389834,-5.784066021118452
1769245320599,122,-6,-7.261693866640224,-5.937792941616909,-5.743118102451831
1769245320604,122,-6,-7.289843846720417,-5.703774635741505,-5.779473417282879
1769245320608,122,-6,-7.24295312383924,-5.782894752112631,-5.740935526547426
1769245320612,122,-6,-7.038790563428924,-5.7010848213674725,-5.546730308133443
1769245320616,123,-5,-6.686629535813679,-4.834954686017143,-5.206427804810463
1769245320619,123,-5,-6.25411361765903,-4.839569221749746,-4.786474235763308
1769245320624,123,-5,-5.82594652123113,-4.730123970356006,-4.369911872706984
1769245320627,124,-4,-5.478244731523954,-3.780022298536815,-4.032351463893558
1769245320632,124,-4,-5.258188536659455,-3.6741433594073505,-3.8219045466385855
1769245320636,124,-4,-5.165099120718296,-3.868062851887132,-3.738873754020735
1769245320640,124,-4,-5.153897498042973,-3.7710923455277423,-3.738201843850751
1769245320644,124,-4,-5.168018829060269,-3.792369576217229,-3.762939497274358
1769245320647,124,-4,-5.173130103031793,-3.699536348156356,-3.778786168385531
1769245320652,124,-4,-5.163443421088375,-3.738962716381819,-3.780213967717133
1769245320656,124,-4,-5.1462907832147025,-3.807874850703285,-3.7744250121991185
1769245320660,124,-4,-5.128503356510622,-3.78552861279255,-3.7677768927448554
1769245320664,124,-4,-5.113828723502927,-3.7906382087292183,-3.763798122564937
1769245320667,124,-4,-5.103122397528056,-3.665041633377296,-3.7636041835563567
1769245320672,124,-4,-5.092176132298059,-3.7710070709558896,-3.7632980226381414
1769245320675,124,-4,-5.074213215691167,-3.7760088453727536,-3.7561054942555696
1769245320680,124,-4,-5.051571216191,-3.761200641953781,-3.744336585641707
1769245320684,124,-4,-5.045338157826743,-3.859238671584323,-3.7493971940432025
1769245320688,124,-4,-5.088137812661076,-3.5091477319625963,-3.804168344842865
1769245320692,124,-4,-5.204083118023922,-3.9884758045571855,-3.932190104688984
1769245320695,123,-5,-5.394227894864857,-4.486979081138956,-4.133422552785374
1769245320700,124,-4,-5.631778560587939,-4.069062044812673,-4.380832573126708
1769245320704,123,-5,-5.856682747533373,-4.526731558836453,-4.615454474193216
1769245320708,123,-5,-5.97839808750031,-4.8109328076996585,-4.747910596921924
1769245320712,123,-5,-5.913592587430745,-4.705568883059818,-4.694931493330021
1769245320715,123,-5,-5.651097930040932,-4.712250574156346,-4.44468299445304
1769245320720,124,-4,-5.285290592405055,-3.887487982706372,-4.09110011575248
1769245320723,124,-4,-4.970410634814554,-3.619392882644655,-3.78825441589697
1769245320728,124,-4,-4.822238961300668,-3.777569119851908,-3.6515620391698778
1769245320732,124,-4,-4.845227924979428,-3.656377197767855,-3.6851568230518734
1769245320736,124,-4,-4.937116899090893,-3.81575299361167,-3.787162056120061
1769245320740,124,-4,-4.95870632358613,-3.7277022849429895,-3.8192522684897456
1769245320743,124,-4,-4.819077140180774,-3.774168286406091,-3.690958132630645
1769245320748,124,-4,-4.526926432355792,-3.6031528993067368,-3.4107747406259383
1769245320752,125,-3,-4.1785176946040465,-2.8091345831128844,-3.0746988060899243
1769245320756,125,-3,-3.890913565697866,-2.672426743508135,-2.7996440779554286
1769245320760,125,-3,-3.7320981478011945,-2.840991519358765,-2.6531725758022184
1769245320763,125,-3,-3.7001590218372726,-2.6556916534193653,-2.632790886321816
1769245320768,125,-3,-3.7503433232641856,-2.685084321687932,-2.6937042464931196
1769245320771,125,-3,-3.824925447288587,-2.7470088438389655,-2.7788322002795223
1769245320776,125,-3,-3.858145708236324,-2.682488082777563,-2.823068227219379
1769245320780,125,-3,-3.773570508322438,-2.86306122894225,-2.7501262609097545
1769245320784,125,-3,-3.502145952719881,-2.565276037666939,-2.490790019363623
1769245320788,126,-2,-3.0197520998408622,-1.8008723396796595,-2.02077249750156
1769245320791,126,-2,-2.375457555337704,-1.5884453857052017,-1.3889409278026257
1769245320796,127,-1,-1.6824934151006494,-0.8496829656382736,-0.7082994913752754
1769245320800,128,0,-1.0664658186214495,0.3287382295235829,-0.104343526917399
1769245320804,128,0,-0.5981534603840655,0.262295661192081,0.3522178664789771
1769245320808,128,0,-0.2596596364630281,0.3700572193077208,0.6793471493067234
1769245320811,129,1,0.0293859153592594,1.2815670203767895,0.9572306580502132
1769245320816,129,1,0.3486895012268882,1.2501175747872844,1.2651677088760631
1769245320819,129,1,0.7227172487448499,1.2923733661547108,1.6273472883190436
1769245320824,130,2,1.1053104506421136,2.2741512453295143,1.9975083987979223
1769245320828,130,2,1.4081186620890742,2.419777582781339,2.2872972211568348
1769245320832,130,2,1.549272622086899,2.186753665049321,2.415169951234422
1769245320836,130,2,1.4859452234624873,2.418384080775655,2.338980453026924
1769245320839,130,2,1.2178161599214454,2.0730313533427394,2.058949179057537
1769245320844,129,1,0.7791555791614933,1.5723544659493256,1.6092862645880082
1769245320848,129,1,0.235561487837888,1.097714619941295,1.0549039303027208
1769245320852,128,0,-0.3213380636552712,0.5338687887882767,0.4864994647452828
1769245320856,128,0,-0.7986545362614104,0.0953996439065023,-0.0035691493806334
1769245320859,127,-1,-1.149390699685921,-0.6244007354707208,-0.3680185930728017
1769245320864,127,-1,-1.4133506784333414,-0.6567346330925738,-0.6458283839431653
1769245320867,127,-1,-1.7068289251410111,-0.7168512410896137,-0.9525534285776718
1769245320872,126,-2,-2.1477760414394655,-1.579616757515751,-1.4058276913265264
1769245320876,126,-2,-2.763189905466689,-1.8399203944141589,-2.032773826003372
1769245320880,125,-3,-3.452009963049543,-2.621911064896375,-2.7328271269739517
1769245320884,124,-4,-4.039520083271776,-3.6876291011141897,-3.3320236197010336
1769245320887,124,-4,-4.3873993789061485,-3.633261377783758,-3.6927748189017446
1769245320892,124,-4,-4.476771289861498,-3.6639550089561808,-3.7962748830344246
1769245320896,124,-4,-4.405166673452407,-3.7500621567418695,-3.738895225014173
1769245320900,124,-4,-4.310785520204984,-3.668812384230706,-3.657196566544823
1769245320904,124,-4,-4.285328919335814,-3.6668525603477353,-3.642804760273139
1769245320907,124,-4,-4.3276241819455095,-3.597921351055045,-3.696896462864968
1769245320912,124,-4,-4.358176421987611,-3.720383489498422,-3.742381802612438
1769245320915,124,-4,-4.287442475095077,-3.6597942960395606,-3.688509384695431
1769245320920,124,-4,-4.099432161818671,-3.7440978631685167,-3.514248127068427
1769245320924,124,-4,-3.882293196660619,-3.5930939319391424,-3.3039982806903225
1769245320928,125,-3,-3.7573263722559656,-2.6267082731899696,-3.182349675890131
1769245320932,125,-3,-3.756090699523541,-2.7131180453944177,-3.190395986076457
1769245320935,124,-4,-3.784747962095911,-3.6165622425336217,-3.2418318233347527
1769245320940,124,-4,-3.74276389726134,-3.80804542242874,-3.233268960350455
1769245320944,124,-4,-3.641363470353106,-3.492365822404444,-3.1622942758596544
1769245320948,125,-3,-3.4588523152748407,-2.7308466389150468,-2.991907720761525
1769245320952,126,-2,-2.6979984260929077,-1.5639669963201448,-2.2205256253554513
1769245320955,129,1,-0.0308421262736322,1.2391939259979097,0.4670998916319049
1769245320960,135,7,6.397770358626179,7.356237596751253,6.903846626999167
1769245320964,145,17,17.793306298565383,17.353038516062526,18.2802105242255
1769245320968,159,31,33.22066916974322,31.453838010480737,33.66466192543717
1769245320972,176,48,48.970278466009475,48.29657556082952,49.36488906659385
1769245320976,190,62,59.70899987136625,62.374136981088384,60.06496929159212
1769245320980,192,64,61.111982744651215,64.22514297465176,61.449285067902466
1769245320983,180,52,52.33469669610497,52.38526480054273,52.674937889568774
1769245320988,163,35,36.54754283289335,35.42796514551876,36.90654097247159
1769245320992,146,18,19.13816035222393,18.280067931654408,19.517229831703816
1769245320996,132,4,4.898338642956662,4.526622034216526,5.280609469104009
1769245321000,125,-3,-3.932476488702616,-2.8387316870201076,-3.573688520940501
1769245321003,121,-7,-7.794100024769001,-6.471173009428217,-7.478809643016366
1769245321008,120,-8,-8.531520392596919,-7.764514369907959,-8.261023232623717
1769245321012,120,-8,-7.924164685836226,-7.564467201583857,-7.682131586170504
1769245321016,120,-8,-6.970669928171179,-7.61643057418543,-6.7353883994912405
1769245321020,121,-7,-6.035052009419781,-6.656341002902691,-5.793659457920198
1769245321023,123,-5,-5.2941884089461775,-4.579846288042114,-5.04956414574799
1769245321028,124,-4,-4.922877610525558,-3.727075043288562,-4.688882537961295
1769245321031,123,-5,-4.954336935471064,-4.589431028439179,-4.743392863436323
1769245321036,122,-6,-5.161473422243275,-5.6059123802644875,-4.975161721001466
1769245321040,122,-6,-5.208207051321138,-5.598315118223152,-5.039007521702578
1769245321044,123,-5,-4.9297353811480775,-4.594369156626543,-4.770763194365839
1769245321048,124,-4,-4.432419090218354,-3.727364186450307,-4.284149920783156
1769245321051,124,-4,-3.929295304872592,-3.5896668438890997,-3.7969235260315743
1769245321056,124,-4,-3.522538620415184,-3.613450991508372,-3.4087420299863975
1769245321060,124,-4,-3.157587775164996,-3.532946368329167,-3.059756350799523
1769245321064,125,-3,-2.7415432154355415,-2.650480570340767,-2.6558907807952306
1769245321068,126,-2,-2.2516074222385676,-1.6370510399177796,-2.178110318776567
1769245321071,126,-2,-1.7294362141688475,-1.721318960869677,-1.671496203904394
1769245321076,126,-2,-1.2203029878091791,-1.435276615163135,-1.180339202908207
1769245321079,127,-1,-0.7514067909510094,-0.7122623897073767,-0.7282532394646755
1769245321084,127,-1,-0.3481288881204012,-0.4190135172727355,-0.3389668074678011
1769245321088,128,0,-0.0271800423609622,0.1267989973173839,-0.0310221459104081
1769245321092,128,0,0.2421264662526274,0.515171278859039,0.2236402498799871
1769245321096,128,0,0.5456033974767238,0.3486314970059472,0.5105997661926879
1769245321099,128,0,0.9588308988748092,0.5043181483420167,0.907405133919323
1769245321104,129,1,1.4651574046389748,1.4330676304232317,1.398599691608443
1769245321108,130,2,1.9597653202916296,2.2377529950837785,1.8782807489711824
1769245321112,130,2,2.3540828896157326,2.4538334778742144,2.256504259383986
1769245321116,130,2,2.6697474796314076,2.3849511279576996,2.5555832726558565
1769245321119,130,2,3.016670782372195,2.5011843793990174,2.8872232446322523
1769245321124,131,3,3.486189824245826,3.4678850720419554,3.342870020385879
1769245321127,132,4,4.081696684191545,4.195120371347517,3.923883685472849
1769245321132,132,4,4.745847299323046,4.539455516503211,4.571377243445418
1769245321136,133,5,5.424182645794544,5.277892131439337,5.2318909914381955
1769245321140,133,5,6.084073355855596,5.64326317324497,5.875061914407068
1769245321144,134,6,6.6898888483981285,6.337917472179768,6.465945586812475
1769245321147,135,7,7.195902039287132,7.333173013432369,6.957244468072229
1769245321152,135,7,7.58083051791152,7.446315113281449,7.326148821553006
1769245321156,135,7,7.874814684886491,7.33106645072079,7.60334579178071
1769245321160,135,7,8.131959862631387,7.661330357235475,7.84451052640912
1769245321164,136,8,8.378017600575838,8.274970937571366,8.075564833915044
1769245321167,136,8,8.597423943389131,8.468971773420092,8.279493408115767
1769245321172,136,8,8.765679831925118,8.302220789811981,8.430790995383799
1769245321175,136,8,8.873824779461343,8.482373209357634,8.521244574471194
1769245321180,136,8,8.915351645268117,8.543719154588086,8.545875811960821
1769245321184,136,8,8.867144097147323,8.35868702168139,8.482132676558432
1769245321188,136,8,8.70648841614851,8.471657227901506,8.306419496129918
1769245321192,136,8,8.455493463412285,8.26220988416576,8.039671858585603
1769245321195,135,7,8.196493982020625,7.573785769855381,7.764117730797024
1769245321200,135,7,8.019616789897535,7.430358635311909,7.570739030755844
1769245321204,135,7,7.937828343747619,7.493085845604885,7.472944105763246
1769245321208,135,7,7.851612706275373,7.379791377800949,7.370522951184435
1769245321212,135,7,7.602390968975374,7.344949443551725,7.104030632065137
1769245321215,134,6,7.066139973417659,6.547169131902265,6.549763656893929
1769245321220,133,5,6.206480625932766,5.391343432045426,5.672740543108554
1769245321223,132,4,5.0608592342905805,4.614814090235267,4.511386391497691
1769245321228,131,3,3.7023166517220094,3.218929968571347,3.138266853043131
1769245321232,129,1,2.222670869539519,1.587699178924069,1.6437808353208396
1769245321236,128,0,0.7326820081660657,0.28057673247412,0.1375614700040205
1769245321240,126,-2,-0.6551981797671758,-1.332176307833456,-1.2680220527946444
1769245321243,125,-3,-1.8721464346279344,-2.642175067528913,-2.503253430334454
1769245321248,124,-4,-2.9329878406391305,-3.518152440824373,-3.581742570468053
1769245321252,123,-5,-3.9240506614739417,-4.608172434048693,-4.589135189970323
1769245321256,122,-6,-4.929232289954543,-5.563905538240511,-5.609705212040563
1769245321260,121,-7,-5.943851959387638,-6.433582688843083,-6.639881474701438
1769245321263,120,-8,-6.851839999647521,-7.591304871422775,-7.564370323369369
1769245321268,119,-9,-7.500388027495658,-8.488154898185737,-8.230075916015924
1769245321271,119,-9,-7.819637368361264,-8.646253779089207,-8.566281730348976
1769245321276,119,-9,-7.881481802445038,-8.494734087792965,-8.644522923214955
1769245321280,119,-9,-7.83841285954722,-8.502064181411306,-8.617745196601495
1769245321284,119,-9,-7.796912215415055,-8.531403968817065,-8.593014662457755
1769245321288,119,-9,-7.744792562833659,-8.493782491298647,-8.5580738313144
1769245321291,119,-9,-7.599581331041937,-8.653331726059653,-8.429732106038639
1769245321296,119,-9,-7.326112274073682,-8.438094492646357,-8.172340298777252
1769245321300,120,-8,-7.001027769414535,-7.59040812011498,-7.863043824412199
1769245321304,120,-8,-6.753914747060915,-7.39892845572915,-7.632407039631802
1769245321308,120,-8,-6.644004074319849,-7.62767518069127,-7.539820999437615
1769245321311,120,-8,-6.601385755921093,-7.477086839376035,-7.514366363996538
1769245321316,120,-8,-6.494030043820732,-7.621525066101231,-7.422996093958388
1769245321319,120,-8,-6.252109835888739,-7.399829582070765,-7.196186801995374
1769245321324,121,-7,-5.92749600717967,-6.5633306123047,-6.887298865117597
1769245321328,121,-7,-5.638672949704487,-6.448463119831283,-6.615846051250906
1769245321332,121,-7,-5.468114821935526,-6.61874609202708,-6.463564305480156
1769245321336,121,-7,-5.414805695718458,-6.494935038686481,-6.427640690799604
1769245321339,121,-7,-5.42886808890357,-6.5096558342246515,-6.457266767685564
1769245321344,121,-7,-5.467487553102971,-6.45609300021058,-6.510440004580001
1769245321348,121,-7,-5.508970585645776,-6.491107080830448,-6.567073076879475
1769245321352,121,-7,-5.526753998285608,-6.592370828697493,-6.601468295519892
1769245321356,121,-7,-5.472692500180019,-6.477014538431886,-6.564919989178633
1769245321359,121,-7,-5.30313032087513,-6.572769426113483,-6.41241934696665
1769245321364,121,-7,-5.026036040882895,-6.337216026435515,-6.151175673855893
1769245321367,122,-6,-4.713501899267266,-5.598836892722176,-5.853885368396163
1769245321372,122,-6,-4.4547729623232115,-5.450416476287536,-5.610955708008554
1769245321376,122,-6,-4.293460169173478,-5.615948882179896,-5.466281757554415
1769245321380,122,-6,-4.214873945338802,-5.455146651100903,-5.404356808402315
1769245321384,122,-6,-4.1918522303462735,-5.409051969220625,-5.397249383043794
1769245321387,122,-6,-4.230799678390584,-5.531929852849179,-5.451561776370607
1769245321392,122,-6,-4.363831331187366,-5.441404178751488,-5.60018704379124
1769245321396,122,-6,-4.597488788117103,-5.671680315770481,-5.849941109607005
1769245321400,121,-7,-4.8782823231728525,-6.3646409374944435,-6.1467448764190715
1769245321404,121,-7,-5.116458710796204,-6.513871793855299,-6.40027658668476
1769245321407,121,-7,-5.244843722566268,-6.3774281679988185,-6.543709564062983
1769245321412,121,-7,-5.256131302891182,-6.563855272908403,-6.570547527706103
1769245321415,121,-7,-5.193746099632984,-6.560762104220309,-6.524346400549918
1769245321420,121,-7,-5.117488517991248,-6.454424068408491,-6.464210237978233
1769245321424,121,-7,-5.072840304595008,-6.44705922791018,-6.43504151235415
1769245321428,121,-7,-5.074812309563295,-6.379546408189218,-6.452044323466048
1769245321432,121,-7,-5.106408190488548,-6.547202909541541,-6.498821942221503
1769245321435,121,-7,-5.129488553252253,-6.577764431762105,-6.537454232735823
1769245321440,121,-7,-5.101131117337255,-6.415518570816572,-6.5245313229104065
1769245321444,121,-7,-4.985337025279909,-6.523060627408635,-6.423338886098705
1769245321448,121,-7,-4.754793436466268,-6.20967985102233,-6.20655626911214
1769245321452,122,-6,-4.386877964074314,-5.73982789154858,-5.852650621273676
1769245321455,122,-6,-3.8665319685450488,-5.341089529811498,-5.347797265098284
1769245321460,123,-5,-3.2079471469319074,-4.676624411156317,-4.706052805022152
1769245321464,123,-5,-2.485036935691661,-4.25691816929022,-3.9996693817328426
1769245321468,124,-4,-1.829079282713047,-3.4162125192109705,-3.35842578526743
1769245321472,125,-3,-1.3588765186135312,-2.539799819594908,-2.9013082235951777
1769245321476,125,-3,-1.0783926705239508,-2.4941917403531986,-2.633634380214323
1769245321480,125,-3,-0.8426076915310332,-2.56922947545589,-2.4113339573769483
1769245321483,125,-3,-0.455056033572808,-2.3285820625372184,-2.0379910325401407
1769245321488,126,-2,0.1661526361623797,-1.3229858641837042,-1.431487555308247
1769245321492,127,-1,0.8948995405974278,-0.6021684697917058,-0.7177887382871185
1769245321496,127,-1,1.458240990497671,-0.396715311600488,-0.1696662098973589
1769245321500,128,0,1.605793912879178,0.2847262290485971,-0.0373060656089983
1769245321503,127,-1,1.260648931347253,-0.1315431676885871,-0.3971795815170795
1769245321508,126,-2,0.5431202990801787,-1.5459471935168394,-1.1280740153440345
1769245321512,125,-3,-0.3387130867471879,-2.295191973514734,-2.0214689393553806
1769245321516,125,-3,-1.222660335763372,-2.721524011865375,-2.9164917160568296
1769245321520,124,-4,-2.031708597719823,-3.3867033259609185,-3.7383968547186046
1769245321523,123,-5,-2.721673879069994,-4.4329157334648785,-4.443573454007515
1769245321528,122,-6,-3.24483494916738,-5.2541039735271715,-4.982318802996621
1769245321531,122,-6,-3.5903444462031993,-5.50834059552803,-5.341668325209993
1769245321536,122,-6,-3.836607219360853,-5.548135033922732,-5.600251661182094
1769245321540,122,-6,-4.122722219095175,-5.518414638286062,-5.898943099943289
1769245321544,121,-7,-4.548626085456133,-6.314217337846338,-6.3383296898434445
1769245321548,120,-8,-5.102875687948182,-7.343754916436397,-6.905871442506518
1769245321551,120,-8,-5.679334450317179,-7.384228004623839,-7.494546563552698
1769245321556,120,-8,-6.146375506666875,-7.68462590845929,-7.973175357581834
1769245321560,119,-9,-6.406296639328063,-8.350490521595283,-8.244633462168206
1769245321564,119,-9,-6.427773715806078,-8.48332104080459,-8.27754907862197
1769245321568,119,-9,-6.254434361519936,-8.144105217661114,-8.116178439141521
1769245321571,120,-8,-5.97846074149866,-7.562968375309963,-7.854467228411536
1769245321576,120,-8,-5.686992842583114,-7.504503282652318,-7.579738448597133
1769245321579,120,-8,-5.429501748615268,-7.504462407768519,-7.337456653586301
1769245321584,120,-8,-5.234785231273273,-7.3412268263900575,-7.150831848406589
1769245321588,120,-8,-5.132571531277072,-7.239687222854918,-7.049383862908585
1769245321592,121,-7,-5.119678219068226,-6.478880988306432,-7.038610277545037
1769245321596,121,-7,-5.104602777862565,-6.534159613910212,-7.038419754312962
1769245321599,120,-8,-4.9415442329428,-7.503391440265476,-6.905445017700374
1769245321604,120,-8,-4.5619966430239725,-7.3025951852606195,-6.559252398558442
1769245321608,121,-7,-3.9975539510887392,-6.283082747416084,-6.013084785955651
1769245321612,123,-5,-3.076012495651001,-4.406260872647973,-5.085208162095883
1769245321616,126,-2,-0.9365846616310458,-1.5630527926904236,-2.9232700439085173
1769245321619,130,2,4.059021814980049,2.516436493428034,2.0898059712219292
1769245321624,138,10,13.503028104567504,10.70358959257353,11.527665626239784
1769245321627,151,23,27.419833626026215,23.713167416214308,25.41176514871754
1769245321632,167,39,43.12478376822959,39.640374308926056,41.07059075272466
1769245321636,182,54,55.667816608774864,54.43327395120816,53.572704832934946
1769245321640,188,60,60.07524453574194,60.51046849816876,57.95764399867025
1769245321644,181,53,54.133628995656736,53.64859746920413,52.0162529174266
1769245321647,164,36,39.78402793754298,36.71107843043438,37.68582017399593
1769245321652,145,17,22.071607358763732,17.624280076188825,19.99970042158484
1769245321656,131,3,6.395477984726291,3.536408826816294,4.339115811268021
1769245321660,122,-6,-4.021307391806626,-5.467291593397789,-6.087525467553691
1769245321664,117,-11,-8.929343925925954,-10.315317159858589,-11.03055886352634
1769245321667,116,-12,-10.064619118454935,-11.299412236342246,-12.209227448716916
1769245321672,116,-12,-9.498126672008084,-11.45443967251276,-11.673226666746723
1769245321675,116,-12,-8.53606658663541,-11.36032671143196,-10.717944190550298
1769245321680,117,-11,-7.613448843523938,-10.542324682817585,-9.78414248743262
1769245321684,118,-10,-6.783013844084467,-9.1878131851758,-8.94092612294097
1769245321688,120,-8,-6.127135097662454,-7.426097313957516,-8.285090203813738
1769245321692,120,-8,-5.776324729332864,-7.377736383065171,-7.949523795591297
1769245321695,119,-9,-5.728956187510794,-8.407907796543753,-7.922883759915266
1769245321700,119,-9,-5.80817379876235,-8.481917458315621,-8.016483752501344
1769245321704,119,-9,-5.8186982360880455,-8.15553462700812,-8.031689472806068
1769245321708,120,-8,-5.692164784028285,-7.510944877876651,-7.906323387441296
1769245321712,120,-8,-5.458953267742738,-7.244903448421396,-7.678231159482137
1769245321715,120,-8,-5.127340992340723,-7.592495698924826,-7.356735169612818
1769245321720,120,-8,-4.648472746276786,-7.221834578256715,-6.888326682050396
1769245321723,121,-7,-4.0014974599339475,-6.386523019133289,-6.248439000526024
1769245321728,122,-6,-3.2669448327155544,-5.299811611992697,-5.518827866200199
1769245321732,123,-5,-2.5818762795152255,-4.403787475674856,-4.8400646457596626
1769245321736,123,-5,-2.03087831909209,-4.505465216222241,-4.297616712137423
1769245321740,123,-5,-1.6017214527679555,-4.196049196467484,-3.876690690701119
1769245321743,124,-4,-1.238340790192927,-3.4559904201402794,-3.5188644729627097
1769245321748,124,-4,-0.901610541081177,-3.1666727048662673,-3.185835836807306
1769245321752,125,-3,-0.5610014454326342,-2.5664410807136644,-2.8498281294718724
1769245321756,125,-3,-0.1536022885903801,-2.324520435181509,-2.449181938409109
1769245321760,125,-3,0.400299838538058,-2.335695126218912,-1.9027330892859824
1769245321763,126,-2,1.114504587629816,-1.328139373021162,-1.194768036504911
1769245321768,127,-1,1.8824411675244224,-0.2250820825836872,-0.4319189323780746
1769245321771,128,0,2.534489207362105,0.4245005338941816,0.214773451717526
1769245321776,128,0,2.964797611388188,0.7714256966407275,0.6391483726485365
1769245321780,128,0,3.2027901669436933,0.5305201312418577,0.8719654456198882
1769245321784,128,0,3.368979243124691,0.851452218993324,1.034577651330326
1769245321788,129,1,3.57856210214851,1.6194405758352086,1.2410529775958343
1769245321791,129,1,3.886679993397433,1.5415624261986385,1.5448699313228889
1769245321796,129,1,4.294308690269656,1.750673087309091,1.9469454067935548
1769245321800,130,2,4.773303164338346,2.482079932134974,2.4205319584903577
1769245321804,130,2,5.283850945396403,2.9968012808605327,2.926869090770014
1769245321808,131,3,5.78830272251534,3.420743486736024,3.428075088746617
1769245321811,131,3,6.263395070457501,3.7944524381708824,3.899966027520753
1769245321816,132,4,6.702564546221553,4.5027648140602485,4.335437302410613
1769245321819,132,4,7.105109572463035,4.73205881706353,4.734150252401113
1769245321824,132,4,7.46066661821055,4.797945440101718,5.086508844455897
1769245321828,133,5,7.745789207276748,5.580914091434328,5.369176642975456
1769245321832,133,5,7.942677110472735,5.707620955820178,5.563571599382591
1769245321836,133,5,8.062113397786646,5.5477720079036486,5.67985885992384
1769245321839,133,5,8.136424875218296,5.756326907028783,5.750841227264598
1769245321844,133,5,8.178759983038013,5.7491659922047,5.790724443876919
1769245321848,133,5,8.151297654443294,5.660009980592193,5.761910767259506
1769245321852,133,5,7.986056566604196,5.6472511507046885,5.595228679870501
1769245321856,133,5,7.648336188650814,5.607966209430149,5.254709373514424
1769245321859,132,4,7.177588316011795,4.742387188891955,4.780433232291295
1769245321864,131,3,6.652589824573413,3.737309151472723,4.2534480430406045
1769245321867,131,3,6.114832475238012,3.721025246953499,3.716292169855928
1769245321872,131,3,5.544891206836844,3.568277682848123,3.1476335552594072
1769245321876,130,2,4.921128169954773,2.7407638813598534,2.523135198138431
1769245321880,129,1,4.270648923601989,1.6069675262719303,1.8696713405073824
1769245321884,128,0,3.623705247415829,0.889384303805042,1.2197110322242846
1769245321887,128,0,2.9196239586478177,0.5712775415920207,0.5143662987303255
1769245321892,127,-1,1.999055068562166,-0.2647920988283392,-0.4060191918257668
1769245321896,126,-2,0.7290271515090412,-1.3886459740703976,-1.6755729612862362
1769245321900,124,-4,-0.8502540809263213,-3.2517579889811468,-3.2543566142689966
1769245321904,122,-6,-2.505887172481626,-5.254674837715178,-4.909038130651504
1769245321907,121,-7,-3.94798680964099,-6.274559183268233,-6.349916262949088
1769245321912,120,-8,-5.005936096151127,-7.407131924807805,-7.407312467729735
1769245321915,119,-9,-5.707102200619182,-8.188442493181622,-8.109056909851308
1769245321920,119,-9,-6.214159324248373,-8.450327235209478,-8.617088339536933
1769245321924,118,-10,-6.685800833296588,-9.041796770717689,-9.088845525030374
1769245321928,118,-10,-7.1691107470689195,-9.511263593149884,-9.570719329588329
1769245321932,117,-11,-7.595804803799703,-10.130559275886784,-9.994757869627314
1769245321935,117,-11,-7.869430887292862,-10.437522417349824,-10.26562368202138
1769245321940,117,-11,-7.960500475226152,-10.182363357394513,-10.354938274814428
1769245321944,117,-11,-7.931363433828845,-10.289182405554802,-10.325190044785389
1769245321948,117,-11,-7.883671349056038,-10.308907909266567,-10.276983531494706
1769245321952,117,-11,-7.883840593506703,-10.250494145262612,-10.275539559888616
1769245321955,117,-11,-7.923590051269628,-10.352702131462168,-10.31243705436746
1769245321960,117,-11,-7.9343858226786494,-10.181945584024092,-10.31997872734896
1769245321964,117,-11,-7.839886464316479,-10.337895464796288,-10.222558565631877
1769245321968,117,-11,-7.610738200859526,-10.234239048452029,-9.990884842132653
1769245321972,118,-10,-7.2819769789672995,-9.308830590875097,-9.65971087281521
1769245321976,118,-10,-6.91944064565802,-9.265424271938684,-9.294603057252834
1769245321980,118,-10,-6.567698892363389,-9.239776484517304,-8.939929504680649
1769245321983,119,-9,-6.227786224174328,-8.285390398331053,-8.596661548689118
1769245321988,119,-9,-5.879761278154485,-8.290687589520012,-8.244927890610452
1769245321992,119,-9,-5.524138510176668,-8.229386200826337,-7.885374464099078
1769245321996,120,-8,-5.202190045090443,-7.304909679783099,-7.559557353742441
1769245322000,120,-8,-4.972737505565568,-7.183424894748477,-7.326594507449658
1769245322003,120,-8,-4.865311481197367,-7.340973753367972,-7.215793752528906
1769245322008,120,-8,-4.857250453752622,-7.236472158538928,-7.2037535898179
1769245322012,120,-8,-4.895414015498754,-7.267653721096743,-7.2369357878125795
1769245322016,120,-8,-4.934057088693622,-7.228017215030955,-7.270096798381256
1769245322020,120,-8,-4.952432841474973,-7.231339855683244,-7.283369549928563
1769245322023,120,-8,-4.948473460189735,-7.302725927464686,-7.275070534525341
1769245322028,120,-8,-4.928719022494635,-7.266332829364908,-7.251371004796343
1769245322031,120,-8,-4.906617543156553,-7.230165449133255,-7.224984493573039
1769245322036,120,-8,-4.902236053442856,-7.221883435249515,-7.215396581596287
1769245322040,120,-8,-4.93202926179501,-7.216037313890654,-7.239012970327554
1769245322044,120,-8,-4.989654575670383,-7.312679315450528,-7.290113717598941
1769245322048,120,-8,-5.033301693016586,-7.27378872202523,-7.327782044842831
1769245322051,120,-8,-4.998678412006674,-7.179176264209776,-7.28795302189462
1769245322056,120,-8,-4.8425250050982696,-7.275247207588209,-7.126480315353947
1769245322060,120,-8,-4.589990685045636,-7.084369453715219,-6.867566868557877
1769245322064,121,-7,-4.336044111237054,-6.5031976164178715,-6.606658299273679
1769245322068,121,-7,-4.180191226295751,-6.030853650750346,-6.444720020754614
1769245322071,121,-7,-4.148476511064576,-6.447893550652569,-6.408050345626126
1769245322076,120,-8,-4.185405974008345,-6.94600440261157,-6.439484626740249
1769245322079,121,-7,-4.220267346351617,-6.395772702178199,-6.466811791229519
1769245322084,121,-7,-4.219376449406532,-6.206832877701408,-6.456956164696059
1769245322088,121,-7,-4.162011245669023,-6.298635369463692,-6.391020677271523
1769245322092,121,-7,-3.9902877270950814,-6.184997777611527,-6.212074063095078
1769245322096,121,-7,-3.6227753919463135,-6.152888280353869,-5.838329775555624
1769245322099,122,-6,-3.036923590042279,-5.192056496482218,-5.246575152919408
1769245322104,123,-5,-2.3327565203386444,-4.392561084636489,-4.536329171315416
1769245322108,123,-5,-1.6996440406405582,-4.11864363337755,-3.896342836418732
1769245322112,124,-4,-1.2957878880000653,-3.3315107093479157,-3.4842721458170267
1769245322116,124,-4,-1.1263555406517387,-2.991558297566106,-3.3053613054308344
1769245322119,124,-4,-1.0191382349758138,-3.326093706782547,-3.1880993313851995
1769245322124,124,-4,-0.7359262729291629,-3.276824148682429,-2.8952579573232997
1769245322127,125,-3,-0.1499892231662964,-2.1944259764131298,-2.3010923085897534
1769245322132,126,-2,0.6449356865733873,-1.267282603569474,-1.4996485308419607
1769245322136,126,-2,1.3755734575702,-0.9864288254934304,-0.7631710706806979
1769245322140,127,-1,1.7436694206538776,-0.3460094031413784,-0.3882189353467872
1769245322144,127,-1,1.5889620139574894,-0.2517196469312031,-0.5341830942760433
1769245322147,126,-2,0.9653042800851526,-1.204726378504041,-1.147560480635086
1769245322152,125,-3,0.0908924831621711,-2.266789380930285,-2.0109864229146694
1769245322156,124,-4,-0.7867153849122668,-2.899660571219524,-2.877785149100395
1769245322160,124,-4,-1.511364451792789,-3.477041152327179,-3.5926965790354863
1769245322164,123,-5,-2.049259297490111,-4.064520202124071,-4.1223362559830985
1769245322167,123,-5,-2.4430221903662805,-4.41902245888844,-4.508680128813945
1769245322172,122,-6,-2.7578974669990486,-5.0201701596051445,-4.815666845704697
1769245322175,122,-6,-3.062323026914657,-5.10130794910705,-5.110895304695515
1769245322180,122,-6,-3.42707780442328,-5.296812373377321,-5.465359867794264
1769245322184,121,-7,-3.909717758181958,-6.1957109172505636,-5.937473158891964
1769245322188,121,-7,-4.51981658274878,-6.333029251234409,-6.537517065960296
1769245322192,120,-8,-5.1929270657068844,-7.029416005097586,-7.201026834541624
1769245322195,119,-9,-5.805480683908512,-8.117783473561548,-7.803702177326112
1769245322200,119,-9,-6.232749582157141,-8.216849601767574,-8.22019216026015
1769245322204,119,-9,-6.409974751905028,-8.307334813774435,-8.386097471134796
1769245322208,119,-9,-6.351802625635157,-8.193115794263896,-8.3171778246143
1769245322212,119,-9,-6.1289163614121875,-8.14537450011099,-8.084974138497536
1769245322215,119,-9,-5.834745227735235,-7.989074434898227,-7.782937696244829
1769245322220,120,-8,-5.559313155772028,-7.312271431165522,-7.500092445676989
1769245322223,120,-8,-5.36243058811615,-7.2352153909525025,-7.2939109892706915
1769245322228,120,-8,-5.248477583206576,-7.229173630627681,-7.165862027830813
1769245322232,120,-8,-5.1636689079112825,-7.110084258822477,-7.06188650593333
1769245322236,120,-8,-5.024861102561003,-6.9723834351625085,-6.904393621801397
1769245322240,121,-7,-4.76539526194317,-6.348927737444005,-6.635911649454103
1769245322243,121,-7,-4.378834413580179,-6.154933563859699,-6.254196559751777
1769245322248,121,-7,-3.929907889276473,-6.33724111446573,-5.815770842314367
1769245322252,121,-7,-3.456305902568432,-5.943699392393765,-5.341211799973075
1769245322256,123,-5,-2.6890044713826384,-4.142075167569542,-4.549419922714778
1769245322260,126,-2,-0.7053248968426473,-1.1555694034802564,-2.5226007060005604
1769245322263,130,2,4.085067053003254,2.6829867915107064,2.309618696015886
1769245322268,138,10,13.211959454128213,10.806132605119387,11.456505302456389
1769245322271,151,23,26.79422509543453,23.99020741497011,25.030688018965627
1769245322276,166,38,42.4361252074388,38.90160178466679,40.647827862887894
1769245322280,181,53,55.467584802886506,53.853191594886646,53.65747774846477
1769245322284,189,61,60.8845111754197,61.67902154693108,59.07083331404056
1769245322288,183,55,56.02745649119184,55.722930362813955,54.23361517714977
1769245322291,167,39,42.222906912284714,40.09919958904695,40.468253196824186
1769245322296,148,20,24.16326658359018,20.69091818331513,22.45562200702275
1769245322300,131,3,7.411521445084427,4.178727253827522,5.742090761949294
1769245322304,122,-6,-4.261286474534208,-5.57629803403019,-5.915714644765629
1769245322308,116,-12,-10.061796333282388,-10.909342895196437,-11.726488000932187
1769245322311,115,-13,-11.501979615878655,-12.234478811430362,-13.188432488493016
1769245322316,115,-13,-10.78321228784814,-12.048184806709289,-12.482171022330853
1769245322319,115,-13,-9.500705122748636,-12.07281966094787,-11.18994679801834
1769245322324,117,-11,-8.308275559102462,-10.362166573058266,-9.9687232426783
1769245322328,118,-10,-7.308828328867252,-8.983043357921739,-8.936280631519612
1769245322332,119,-9,-6.530854954769584,-8.23147733730265,-8.135533757408016
1769245322336,120,-8,-6.071293777194481,-6.993505275505563,-7.667647876278168
1769245322339,120,-8,-5.9545862014880555,-7.211569992640038,-7.550155470795554
1769245322344,119,-9,-6.015481505827925,-8.168730940351278,-7.606853402051971
1769245322348,119,-9,-5.992844246645267,-8.100498544185168,-7.570981129855232
1769245322352,120,-8,-5.727905961851077,-7.123978520719943,-7.287575769698651
1769245322356,121,-7,-5.243008380085177,-6.077778931150244,-6.787164705252916
1769245322359,121,-7,-4.648560533002017,-6.163607398377081,-6.183665872449142
1769245322364,121,-7,-4.0312325561567794,-6.193377085328141,-5.5595362144933755
1769245322367,122,-6,-3.4458591811728136,-4.992920325271485,-4.963553430626273
1769245322372,123,-5,-2.952388684758774,-4.268304225140648,-4.454778298121187
1769245322376,123,-5,-2.5875635221063575,-3.8752500313519542,-4.074264288706543
1769245322380,124,-4,-2.2938565391969505,-3.438384572536702,-3.7682508181467544
1769245322384,123,-5,-1.929357401765393,-3.8378450445345313,-3.3940743232420982
1769245322387,124,-4,-1.3954699911236288,-3.3503897941992618,-2.8498340273151217
1769245322392,125,-3,-0.7536856146563227,-1.8640916777556673,-2.1956256577210365
1769245322396,126,-2,-0.1830974072629028,-1.2797973970778596,-1.6121066474333283
1769245322400,126,-2,0.1957837366193697,-1.0682375329025784,-1.2213238906387442
1769245322404,126,-2,0.4447150971761012,-1.1213391987658958,-0.9607972534095044
1769245322407,126,-2,0.7468086427567635,-1.129078510885508,-0.6459596935826539
1769245322412,127,-1,1.231206835836964,0.0342558217667736,-0.1480514220700926
1769245322415,128,0,1.8636321125066724,0.7429705162087354,0.4967167858933035
1769245322420,128,0,2.4931796406745934,0.9716466945012384,1.136570518204084
1769245322424,129,1,2.98596495305531,1.8402650106882168,1.639101533810614
1769245322428,129,1,3.319487604669064,1.9159882270839383,1.984079677141538
1769245322432,129,1,3.578099784862769,2.040030232538552,2.256535902943495
1769245322435,130,2,3.8819876564448794,2.7024262718025094,2.5750473372045466
1769245322440,130,2,4.317066863267302,3.065933132980967,3.0232343044942107
1769245322444,131,3,4.902027617102564,3.7296516663158097,3.619059453966094
1769245322448,131,3,5.584631455268672,4.082585415249961,4.311600311805283
1769245322452,132,4,6.2561204937401715,4.859541956235339,4.993727688867581
1769245322455,133,5,6.792928762445701,5.9103476490430635,5.542245425894076
1769245322460,133,5,7.120883584419546,5.857533411084771,5.882558342437045
1769245322464,133,5,7.256588790176917,5.959166788008268,6.031167256298823
1769245322468,133,5,7.286148245866916,5.886460459726238,6.074014470438672
1769245322472,133,5,7.303654542655498,6.044288760234541,6.104093391004226
1769245322476,134,6,7.366015179103771,6.76005351118972,6.17728293249334
1769245322480,133,5,7.481161699889145,6.00885080255677,6.302422189572343
1769245322483,133,5,7.607715535747634,5.830606723118114,6.4402453376559405
1769245322488,134,6,7.669847932494733,7.0455167671714385,6.515343878176162
1769245322492,134,6,7.609982812598679,6.872217959127961,6.468304152886159
1769245322496,133,5,7.4432938466695795,5.96676920178836,6.312921976049025
1769245322500,133,5,7.238094651388717,5.80725010897272,6.118266763555198
1769245322503,133,5,7.027392638979987,6.050460225645458,5.918750528897535
1769245322508,133,5,6.754574310878065,5.8402324815328255,5.658043554520657
1769245322512,132,4,6.321437977134131,5.10108317827168,5.237237450952362
1769245322516,132,4,5.688487981113384,4.740430540086449,4.616092100245821
1769245322520,131,3,4.923805383344485,4.065372271387654,3.862525108721523
1769245322523,130,2,4.148466934577244,2.778479168166947,3.0981856729550006
1769245322528,129,1,3.422531357419654,2.152409975207777,2.3837979977434687
1769245322531,129,1,2.679331821608677,1.7986646858955164,1.6524268178980708
1769245322536,128,0,1.7822086941345674,1.05647607522006,0.7664260900450354
1769245322540,127,-1,0.6564613254685199,-0.2192197212578001,-0.3490497319307954
1769245322544,125,-3,-0.6349652328983408,-1.956888906642806,-1.6298006155875455
1769245322548,124,-4,-1.9437299798496903,-3.0707526205947353,-2.9264443329886687
1769245322551,123,-5,-3.150661082607382,-3.981272391603684,-4.120560525858209
1769245322556,122,-6,-4.225299441459426,-5.127816994267565,-5.183439138106755
1769245322560,121,-7,-5.193072948686215,-6.01673455219996,-6.141148767845302
1769245322564,120,-8,-6.070720608837616,-7.157540965462933,-7.009330852814647
1769245322568,119,-9,-6.8388434098871365,-7.858530018382972,-7.767137350804227
1769245322571,119,-9,-7.4598711224226495,-8.173984998402899,-8.37658353461202
1769245322576,118,-10,-7.90693431751872,-8.920805545244507,-8.811415771189248
1769245322579,118,-10,-8.176403530159,-9.180615045498651,-9.068980464026376
1769245322584,118,-10,-8.28110390115772,-9.018854597744028,-9.162933491188362
1769245322588,118,-10,-8.237421492735717,-8.953684348424781,-9.10973087457559
1769245322592,118,-10,-8.066435483523826,-9.101904466504823,-8.929338040014462
1769245322596,118,-10,-7.81314695483224,-8.927488578643185,-8.665378495905632
1769245322599,119,-9,-7.552308442359564,-8.187234486326325,-8.392643561208255
1769245322604,119,-9,-7.349530099817635,-7.985756312840974,-8.178268625091523
1769245322608,119,-9,-7.206450712498105,-7.986688270046306,-8.024954943008446
1769245322612,119,-9,-7.060351448380958,-8.054597610737346,-7.86928799966304
1769245322616,119,-9,-6.854901502882428,-7.94225146012325,-7.653656545608932
1769245322619,120,-8,-6.606824747200222,-7.167711391684977,-7.394739734293915
1769245322624,120,-8,-6.388447243474682,-6.979429109624462,-7.165855127754496
1769245322627,120,-8,-6.243976634960688,-6.995668940387228,-7.011519668385565
1769245322632,120,-8,-6.135120385761249,-7.01844338444049,-6.892592947406624
1769245322636,120,-8,-5.973101958389786,-6.9705932104718045,-6.719735414978897
1769245322640,121,-7,-5.696192125053995,-6.1180754539551625,-6.431920590292022
1769245322644,121,-7,-5.316628789749133,-6.009437411879162,-6.042349661426634
1769245322647,121,-7,-4.909640907801365,-5.959573958336184,-5.626181134163424
1769245322652,122,-6,-4.568354834586099,-5.03169091187582,-5.275742491221954
1769245322656,122,-6,-4.3554658341056225,-4.949412746639089,-5.05322844931826
1769245322660,122,-6,-4.2755255620879025,-5.1276443942978185,-4.963183133053463
1769245322664,122,-6,-4.28417662337201,-4.966810149075404,-4.961418960360916
1769245322667,122,-6,-4.3250621718887885,-5.007687749700252,-4.991890874862821
1769245322672,122,-6,-4.3611455678824935,-4.957676684947412,-5.017964157626772
1769245322675,122,-6,-4.37944446541906,-5.0075356943045986,-5.026800075847644
1769245322680,122,-6,-4.379724454485451,-5.064856279730377,-5.01790749762452
1769245322684,122,-6,-4.367350624315966,-4.989509706454366,-4.996345378881011
1769245322688,122,-6,-4.354396168225691,-4.998089511415038,-4.974180179906418
1769245322692,122,-6,-4.35852605659675,-4.936250795916681,-4.9692340226577265
1769245322695,122,-6,-4.391920408060427,-5.015842635050659,-4.993614990365369
1769245322700,122,-6,-4.444399850787313,-5.053781062502764,-5.03674371895799
1769245322704,122,-6,-4.472855097324704,-4.950980451927443,-5.05515052741561
1769245322708,122,-6,-4.408508982808758,-5.072964357600448,-4.980269630825454
1769245322712,122,-6,-4.184459013467181,-4.790381980517167,-4.746155152172012
1769245322715,123,-5,-3.772401404801421,-4.203226959559254,-4.325554004129316
1769245322720,123,-5,-3.210186965785785,-3.7930228433600313,-3.756283561076994
1769245322723,124,-4,-2.604283083859554,-3.24197496471784,-3.14335884795872
1769245322728,124,-4,-2.0944129514895353,-2.7347644084201694,-2.6249796049936216
1769245322732,125,-3,-1.7778332158187915,-2.141097408645798,-2.2984085177019216
1769245322736,125,-3,-1.6273367762718718,-1.8271340550218809,-2.137687305446992
1769245322740,125,-3,-1.4764517409891658,-2.1422565002023854,-1.9770949106659148
1769245322743,125,-3,-1.1183266274536403,-1.903705518105352,-1.6094685761849865
1769245322748,126,-2,-0.4615111277978545,-1.0174791390806852,-0.9433264437874732
1769245322752,127,-1,0.3865952953761211,0.0986894692294451,-0.0870987797717695
1769245322756,128,0,1.178837893870447,1.018446870218339,0.7113932120795887
1769245322760,128,0,1.6672630087036011,0.9741922554007764,1.2054485875382028
1769245322763,128,0,1.706418870571133,1.0285353294743844,1.2518337448768304
1769245322768,128,0,1.2771451918962011,1.0328438717487762,0.8321990371705947
1769245322771,127,-1,0.4690327391975071,0.0628770247144827,0.0349249762109391
1769245322776,126,-2,-0.5446211045288583,-0.9047006489071188,-0.9683463136999372
1769245322780,125,-3,-1.5504276056315265,-2.0947022160506847,-1.9650457533727683
1769245322784,124,-4,-2.366926206387548,-2.887661539483494,-2.773919535452337
1769245322788,124,-4,-2.9153098909009625,-3.0423343572760526,-3.3160889293933637
1769245322791,123,-5,-3.2460310574001903,-3.854229876613649,-3.6411873360083686
1769245322796,123,-5,-3.5050066521204015,-3.944839091395486,-3.893530442405525
1769245322800,123,-5,-3.8528073249153536,-4.043468387298907,-4.2326614847026205
1769245322804,122,-6,-4.369184405997814,-4.9359369926332395,-4.739205683175197
1769245322808,122,-6,-4.993580225328456,-4.987836862553511,-5.35467396856244
1769245322811,121,-7,-5.553220442276928,-5.891662736163732,-5.907253750137963
1769245322816,120,-8,-5.8807531249143565,-6.880082348443346,-6.2283494875157785
1769245322819,121,-7,-5.938595646636227,-6.086287032662399,-6.278545398978125
1769245322824,121,-7,-5.835963518378244,-5.878854586041738,-6.166891970163054
1769245322828,121,-7,-5.715622858772473,-6.061899246138063,-6.037831073402433
1769245322832,121,-7,-5.623024968175967,-5.7601895321939285,-5.938593503681313
1769245322836,121,-7,-5.491815709208398,-6.031255090235032,-5.803014326529805
1769245322839,121,-7,-5.254779124576937,-5.88935978151012,-5.561943388962873
1769245322844,122,-6,-4.955077826454858,-5.079010067899321,-5.255293026729568
1769245322848,122,-6,-4.731443754316192,-4.857366983065762,-5.0194363665850315
1769245322852,122,-6,-4.683156375027398,-4.9199248974758625,-4.955197491326212
1769245322856,122,-6,-4.750411707868556,-4.883093208227671,-5.009488575015494
1769245322859,122,-6,-4.741758748286291,-4.99310118142661,-4.998939963111944
1769245322864,122,-6,-4.501166524507873,-5.007400882453582,-4.768893599438163
1769245322867,122,-6,-4.043526750644084,-4.866916193121664,-4.323932263561434
1769245322872,123,-5,-3.438259759542885,-3.9349149353566766,-3.716975501319231
1769245322876,125,-3,-2.3899743995366243,-1.7946787189443827,-2.643587859069239
1769245322880,128,0,0.1862426183624137,0.88477351442822,-0.0270905789074893
1769245322884,133,5,6.047334976001558,6.160077061048754,5.868150692272531
1769245322887,143,15,16.624985864996,15.964623653085075,16.455208889139715
1769245322892,156,28,31.52313133640156,29.277606713254915,31.335752733367045
1769245322896,173,45,47.597095040310975,46.01844786437107,47.37914677595414
1769245322900,188,60,59.673975841627936,61.092661032152,59.43158036237041
1769245322904,192,64,62.93076710525588,64.92976343085772,62.683661681845514
1769245322907,183,55,55.56863690887346,56.14501537125382,55.341054160500086
1769245322912,166,38,39.94318922680881,39.067073559589566,39.75430261684994
1769245322915,146,18,21.316968738436486,19.19873412090526,21.171523965393785
1769245322920,131,3,5.107857487553023,4.004444635462511,4.991549603593056
1769245322924,122,-6,-5.523907540189452,-4.87909389920752,-5.637984935042956
1769245322928,117,-11,-10.389842802125647,-9.956177639168876,-10.525097949029098
1769245322932,116,-12,-11.286666190992786,-10.841181998240495,-11.448690197535315
1769245322935,117,-11,-10.372558480427717,-9.918066698689008,-10.547538654613078
1769245322940,117,-11,-9.055895153086144,-9.93649647323396,-9.221727906806423
1769245322944,118,-10,-7.847551786745358,-8.84730754788426,-7.988408734853449
1769245322948,120,-8,-6.828207613035949,-6.98294503903602,-6.943006603550393
1769245322952,121,-7,-6.076018544318914,-5.786725765618534,-6.176448421315113
1769245322955,122,-6,-5.706133820863997,-5.014753763932507,-5.806327674891491
1769245322960,121,-7,-5.686191456738593,-5.841348068398159,-5.7918725503724655
1769245322964,120,-8,-5.781328459444069,-6.890011016318927,-5.887230364653283
1769245322968,121,-7,-5.730660824134941,-5.9099370450455755,-5.8279071115001155
1769245322972,122,-6,-5.441518736032894,-4.823572608705189,-5.526820778854432
1769245322976,122,-6,-4.992255721372403,-5.026520836735805,-5.069555369738971
1769245322980,122,-6,-4.489319421511269,-4.783351428690798,-4.563798722667938
1769245322983,123,-5,-3.967793799981646,-3.9550932701105497,-4.04018337228579
1769245322988,123,-5,-3.417273422316263,-3.7785279135421694,-3.4841545699185708
1769245322992,124,-4,-2.8514476226480827,-2.9707617684676153,-2.9097481896843953
1769245322996,125,-3,-2.317224360019428,-1.857782294420829,-2.3674295014886404
1769245323000,125,-3,-1.8425114818387964,-1.9735733968771256,-1.8875733829744743
1769245323003,125,-3,-1.406043545201391,-1.7102358623072127,-1.4478762656396085
1769245323008,126,-2,-0.9774813712310416,-1.0126538567432255,-1.0151252314734371
1769245323012,126,-2,-0.5739271170766036,-0.7162634280092064,-0.6050306962451142
1769245323016,127,-1,-0.2487240547425413,-0.1117844946468037,-0.2722247028115945
1769245323020,127,-1,-0.0124771660608901,0.2789815511272596,-0.0294701014924967
1769245323023,127,-1,0.2200694163073606,0.086605779523714,0.2078868404828875
1769245323028,127,-1,0.578474197476359,0.1811428247170983,0.5706644694733805
1769245323031,128,0,1.1180361547962168,1.1485017032006617,1.1154767139976958
1769245323036,129,1,1.7578758446270797,1.9669977959646816,1.7613717153683566
1769245323040,129,1,2.347772181844838,2.27753789895287,2.3571451010141593
1769245323044,130,2,2.801882101294066,3.057924017980295,2.8164544293773774
1769245323048,130,2,3.1689525638920415,3.275560165026798,3.188621523711001
1769245323051,130,2,3.572290781620344,3.030769116376115,3.597770220515107
1769245323056,131,3,4.08198495287755,4.092388668727358,4.113770315542595
1769245323060,132,4,4.648320077799947,5.19314211550339,4.68579566814581
1769245323064,132,4,5.155300407779457,5.129101940948252,5.197484868857161
1769245323068,132,4,5.52550835383224,5.285296221833615,5.572393618081176
1769245323071,133,5,5.772946096902573,5.958611806605949,5.825341308253703
1769245323076,133,5,5.975395760739889,6.213610580181654,6.033719653354057
1769245323079,133,5,6.20684796678064,6.0581913840111765,6.270885315362765
1769245323084,133,5,6.481218059832923,6.322815626799042,6.550830778165348
1769245323088,134,6,6.746789247798208,7.099526413329698,6.822047341479881
1769245323092,134,6,6.940374964847675,7.152447273898084,7.021057901025336
1769245323096,134,6,7.053532073878455,7.004196006064848,7.139191263277725
1769245323099,134,6,7.139613463187363,7.312066311958016,7.230264892601046
1769245323104,134,6,7.248515527983542,7.074384586310422,7.34481850186479
1769245323108,134,6,7.357788136003676,7.392724302541545,7.460226006050958
1769245323112,135,7,7.37781171391882,7.846503596850906,7.485905803217635
1769245323116,134,6,7.230001716733504,7.313484345420279,7.342809608920956
1769245323119,134,6,6.9157337807926,7.02908615537994,7.033194145182947
1769245323124,133,5,6.504275353572884,6.381171184199692,6.627541424866159
1769245323127,133,5,6.059777529411441,6.098516551810628,6.189872131596394
1769245323132,133,5,5.588660123507178,6.165407980658636,5.725169174436339
1769245323136,132,4,5.050076287566671,4.96822425117517,5.191619670867679
1769245323140,131,3,4.396331968467892,4.434513365279422,4.54211494047231
1769245323144,131,3,3.59487059945447,3.961749694187029,3.7453769201634817
1769245323147,129,1,2.6263847499507733,2.566380310879346,2.7826728505137805
1769245323152,129,1,1.4832730378112924,1.6775811453367555,1.645898005705758
1769245323156,127,-1,0.1820240281145255,0.4824375318847231,0.3506546844437368
1769245323160,126,-2,-1.2218619818544705,-1.0662995122433685,-1.0478623565466214
1769245323164,124,-4,-2.6388318121436365,-2.5246923416831377,-2.459537123820244
1769245323167,123,-5,-3.9755128843332983,-3.8956709457035927,-3.7903300248682985
1769245323172,122,-6,-5.165946527229652,-4.912890840642821,-4.974405597169784
1769245323175,121,-7,-6.1774101938121015,-5.8401193616976705,-5.979771800191678
1769245323180,120,-8,-6.997253257754237,-6.804650309227665,-6.794186924530045
1769245323184,119,-9,-7.628132178693562,-7.68655116851559,-7.4200944645525535
1769245323188,119,-9,-8.096466797817223,-7.782046385459852,-7.883542245696972
1769245323192,119,-9,-8.450623286564246,-7.976899163286339,-8.232482840033553
1769245323195,118,-10,-8.737397108737296,-8.791999555880457,-8.51308561081806
1769245323200,118,-10,-8.97410896043511,-8.81694554875982,-8.74248439332196
1769245323204,118,-10,-9.13509483052901,-8.659309014892143,-8.896086083849294
1769245323208,118,-10,-9.161547110028394,-8.795512372359637,-8.916560199821097
1769245323212,118,-10,-9.004588999297921,-8.957039200904902,-8.75510748472436
1769245323215,118,-10,-8.689422882267895,-8.789857860382984,-8.435531044104454
1769245323220,119,-9,-8.34012515329782,-7.821783677622122,-8.080790398208572
1769245323223,119,-9,-8.111029584771831,-7.596856631972986,-7.845320121455595
1769245323228,119,-9,-8.06434706173819,-7.892063076714419,-7.791816999611363
1769245323232,119,-9,-8.108591750301022,-7.797565818779841,-7.828936794011623
1769245323236,119,-9,-8.064324165881237,-7.997470823379126,-7.777502456310954
1769245323240,119,-9,-7.802546851765704,-7.553065105446477,-7.509302945057233
1769245323243,120,-8,-7.339023865724147,-6.859023064931617,-7.040656484998221
1769245323248,120,-8,-6.816126463852703,-6.61077738695336,-6.513302374371
1769245323252,121,-7,-6.398690402615008,-6.051581420812524,-6.0906374024607475
1769245323256,121,-7,-6.165425721754147,-5.7783713808611035,-5.850549476870246
1769245323260,121,-7,-6.067432529085555,-5.711662391843762,-5.744654963416861
1769245323263,121,-7,-5.976726478825676,-5.723020748707404,-5.646167732223384
1769245323268,121,-7,-5.788742814220763,-5.673904656324431,-5.451426466410071
1769245323271,122,-6,-5.502243252543714,-5.030242958403601,-5.159384123102042
1769245323276,122,-6,-5.214804610194477,-4.751090905006945,-4.867040296054867
1769245323280,122,-6,-5.041882347008084,-4.757539486963276,-4.688700649326642
1769245323284,122,-6,-5.029294940542471,-4.626841057629188,-4.669220653756788
1769245323288,122,-6,-5.124928070999353,-4.765720891279826,-4.756643689231657
1769245323291,122,-6,-5.220751004275239,-4.9290722284005755,-4.844267569844424
1769245323296,122,-6,-5.226898740773094,-4.846529891539085,-4.843584804647152
1769245323300,122,-6,-5.127185139161176,-4.636151447943784,-4.738481360576913
1769245323304,122,-6,-4.984644971664634,-4.739047377833764,-4.590701553504082
1769245323308,122,-6,-4.895004945645782,-4.602630202475391,-4.494685988803666
1769245323311,123,-5,-4.912328286132661,-4.13684025746364,-4.504442289313736
1769245323316,122,-6,-4.994619139687748,-4.574036546202392,-4.578807114210179
1769245323319,122,-6,-5.019148148628338,-4.952015018859186,-4.595680966804685
1769245323324,122,-6,-4.867809297877722,-4.342457240951947,-4.437103052478039
1769245323328,123,-5,-4.514294503231821,-4.014128673338483,-4.076775783265703
1769245323332,123,-5,-4.038543896883856,-3.719638874939884,-3.5945722864990315
1769245323336,124,-4,-3.5612687972042103,-2.9393133924484705,-3.1109426593770606
1769245323339,124,-4,-3.157523739843267,-2.652996388927522,-2.7005970278424725
1769245323344,124,-4,-2.816319559788669,-2.5070139935460336,-2.3522756236434437
1769245323348,125,-3,-2.4691664382451948,-1.964596006733832,-1.9973472143579751
1769245323352,125,-3,-2.054097459114628,-1.6241243648109658,-1.5739423389175051
1769245323356,126,-2,-1.558399255855615,-1.1535961224053977,-1.069842076126942
1769245323359,126,-2,-1.01136187602153,-0.312664854656804,-0.5150826498113796
1769245323364,127,-1,-0.4504481782058263,0.1050675945252291,0.0525359445036879
1769245323367,127,-1,0.0899520156599535,0.4583584212479037,0.5992431039215909
1769245323372,128,0,0.5489207533457647,0.9940793769833,1.0651597755935052
1769245323376,128,0,0.8108533885134568,1.1524079054327263,1.3348711352925324
1769245323380,128,0,0.738030513856611,1.5200780660690305,1.2697634925866947
1769245323384,128,0,0.2604147358950157,1.1610205305873107,0.7992629657721695
1769245323387,126,-2,-0.5577788536669499,-0.452740682069022,-0.0115154088997873
1769245323392,126,-2,-1.5437968067376973,-1.2016588042614804,-0.9886843950939228
1769245323396,125,-3,-2.5081511096307803,-1.5679744299324083,-1.9432469297080233
1769245323400,124,-4,-3.3200988707455954,-2.7677611337900134,-2.746221652839781
1769245323404,123,-5,-3.9296554873845233,-3.5373673136933146,-3.348635418123496
1769245323407,123,-5,-4.3600982321198,-3.671423631193526,-3.7731162413714703
1769245323412,123,-5,-4.693013583008348,-4.092090003423557,-4.09979256273515
1769245323415,122,-6,-5.0397600301079075,-4.545325125591917,-4.438975629008356
1769245323420,122,-6,-5.492315560744554,-4.886227484790632,-4.88266464114133
1769245323424,121,-7,-6.06759681557491,-5.296430317243612,-5.448678505188442
1769245323428,121,-7,-6.6797637609803715,-5.95333424411242,-6.051979864079282
1769245323432,120,-8,-7.173982572425665,-6.800747095703904,-6.53766152451945
1769245323435,120,-8,-7.4142629440149665,-6.806468226597481,-6.769241590397118
1769245323440,120,-8,-7.36411505006718,-6.640328252704577,-6.710354211743321
1769245323444,120,-8,-7.096938224894567,-6.46713296042743,-6.435194058012292
1769245323448,121,-7,-6.736509360844044,-5.796897181505853,-6.067938803123623
1769245323452,121,-7,-6.387333788840978,-5.952988063999372,-5.712344904125135
1769245323455,121,-7,-6.105653177982135,-5.638895200227026,-5.42322460170767
1769245323460,122,-6,-5.906528483061897,-4.816658093831126,-5.214475057587348
1769245323464,121,-7,-5.77545774591391,-5.212340609045299,-5.071268820667794
1769245323468,122,-6,-5.677259996123034,-5.083214005517896,-4.959579683389342
1769245323472,122,-6,-5.5759760905795375,-4.630821871847233,-4.846765866391066
1769245323476,122,-6,-5.461330475039262,-4.9725616224890485,-4.726815755230187
1769245323480,122,-6,-5.350416988500175,-4.4913666470878155,-4.618016642170739
1769245323483,122,-6,-5.22872759703275,-4.416568661483627,-4.500543597105453
1769245323488,122,-6,-4.910126762595023,-4.9860871337821715,-4.178547231158775
1769245323492,124,-4,-3.8400231045926247,-2.6037229258561627,-3.0907725641939723
1769245323496,128,0,-0.9699226233773164,0.91318788258158,-0.1910487729865351
1769245323500,132,4,5.054510973473855,5.675899615865135,5.864669760861913
1769245323503,142,14,15.220849197468183,15.529121680037886,16.05149939232271
1769245323508,156,28,29.195911012690782,28.9506828790014,30.027671875712137
1769245323512,172,44,44.70731749597427,45.63598987728523,45.52136214385636
1769245323516,187,59,57.86968459008657,59.490675731630155,58.659617177910945
1769245323520,190,62,64.53509060603373,64.27536935564788,65.3134183051341
1769245323523,191,63,62.09436305411472,63.77995266076186,62.885723712831634
1769245323528,180,52,50.81429660416546,53.75703316026176,51.639729905570064
1769245323531,161,33,33.91994157278535,33.75511223572642,34.78578475567917
1769245323536,142,14,16.225973261794095,15.39557346875302,17.123918893502665
1769245323540,129,1,2.001164437329889,2.530467154427816,2.9145393068093157
1769245323544,121,-7,-6.689958614911548,-5.547212783871753,-5.778994069483401
1769245323548,118,-10,-10.262561022307985,-8.68549580752522,-9.365630684323277
1769245323551,118,-10,-10.604726422466474,-8.973020233544036,-9.721478267318007
1769245323556,118,-10,-9.688340086426663,-8.751355633396326,-8.806595807136345
1769245323560,118,-10,-8.704641163474776,-8.424471171519912,-7.807790636067264
1769245323564,119,-9,-8.01590237590267,-7.53419489439151,-7.093103384929593
1769245323568,120,-8,-7.5788611914429564,-6.686462110589532,-6.631027544691976
1769245323571,121,-7,-7.3151983656761725,-5.9631661943748435,-6.352592009807997
1769245323576,121,-7,-7.189028252654514,-5.747543020405744,-6.22251580660668
1769245323579,120,-8,-7.123614596962981,-6.429002475877651,-6.156712416908147
1769245323584,120,-8,-6.987497305667902,-6.521290043663371,-6.015641023721288
1769245323588,121,-7,-6.694362794287105,-5.653012532219388,-5.711105795625336
1769245323592,122,-6,-6.278476797399202,-4.999249718373206,-5.281749564942437
1769245323596,122,-6,-5.845318368319345,-4.67591930288792,-4.8376967360339185
1769245323599,122,-6,-5.462044089348395,-4.51076184519434,-4.446231702727395
1769245323604,122,-6,-5.112394058426847,-4.43050254334492,-4.088048186774067
1769245323608,123,-5,-4.740919146061366,-3.719727317335878,-3.706065625086693
1769245323612,124,-4,-4.308309206983705,-2.910888767919819,-3.2624165821678925
1769245323616,124,-4,-3.7998540796439584,-2.747305452805645,-2.744231711359254
1769245323619,124,-4,-3.2117433225817904,-2.4214719282095705,-2.1473237681034583
1769245323624,125,-3,-2.5552378376847553,-1.5410912296643824,-1.4812635488105896
1769245323627,126,-2,-1.8653614043554525,-0.5611445600340415,-0.7805771541393564
1769245323632,127,-1,-1.183103906425332,-0.0744246231679203,-0.0874755408785175
1769245323636,127,-1,-0.5254735352617631,0.4681312763286739,0.57976608074858
1769245323640,128,0,0.1147646329863327,1.347039585462832,1.2285821991615031
1769245323644,128,0,0.7333997110859922,1.6905597717317675,1.8562312466967377
1769245323647,129,1,1.286711910162604,2.2418454537468304,2.4201428604293125
1769245323652,130,2,1.717082419743203,3.119022065669468,2.8621586929543468
1769245323656,130,2,2.023233091109814,3.34775875721465,3.179278643440563
1769245323660,130,2,2.302199831296283,3.4086438829346,3.4676567012056805
1769245323664,130,2,2.696451970625078,3.6892242521549825,3.870782193614094
1769245323667,131,3,3.2754236413332514,4.204218105093701,4.459649807721362
1769245323672,132,4,3.968686677981754,5.227206354377345,5.1638840284781535
1769245323675,133,5,4.632330772971945,6.25410149961331,5.838159008748838
1769245323680,133,5,5.189889946655103,6.495978535657202,6.4052371616986195
1769245323684,133,5,5.699699387539024,6.619751004300948,6.924495146970975
1769245323688,134,6,6.276440340750491,7.253137538930821,7.511909564215537
1769245323692,135,7,6.956195764112719,8.234383092219055,8.20308777562697
1769245323695,136,8,7.650838087625201,9.2684532254022,8.908244274424808
1769245323700,136,8,8.227506747874504,9.491456706328355,9.494053433839204
1769245323704,136,8,8.615807751347603,9.6246818166997,9.89149837900781
1769245323708,137,9,8.840570872646207,10.234967309986072,10.126719341162316
1769245323712,137,9,8.974516702665786,10.295604531687982,10.272073464800195
1769245323715,137,9,9.073127625489212,10.236297695437411,10.38170400087258
1769245323720,137,9,9.143491982633066,10.538374063944769,10.462059512572486
1769245323723,137,9,9.156765918883067,10.5785009400129,10.484911664497094
1769245323728,137,9,9.083466829189437,10.261574127713644,10.421763237727257
1769245323732,137,9,8.92182848475603,10.320614559053784,10.27104807641036
1769245323736,137,9,8.699428774957438,10.232574305814415,10.05960541430119
1769245323740,136,8,8.446483012674896,9.55787708793588,9.816910610708309
1769245323743,136,8,8.157573994175348,9.565475404095237,9.537642585898496
1769245323748,136,8,7.772991571690194,9.243099233529977,9.162844934912506
1769245323752,135,7,7.204378247859873,8.41203290938678,8.604761563879855
1769245323756,135,7,6.393638851517321,8.124529513458526,7.805216505187402
1769245323760,133,5,5.357930513055995,6.744274805941932,6.780733090919819
1769245323763,132,4,4.177337891931359,5.292714469417085,5.610695652416297
1769245323768,131,3,2.931005427496142,4.593628046717542,4.373985169240417
1769245323771,130,2,1.6372518696489191,3.0236417229507606,3.0894795625031826
1769245323776,128,0,0.2516974829966041,1.597094353649672,1.7139392475057025
1769245323780,127,-1,-1.270772222743922,0.2799976747422887,0.2028080032521708
1769245323784,125,-3,-2.894650903870586,-1.290063213082876,-1.409248765940363
1769245323788,124,-4,-4.47182334301307,-2.7576012740351015,-2.9754341818435313
1769245323791,122,-6,-5.806410219828756,-4.684608371708259,-4.300108633016331
1769245323796,121,-7,-6.784504652401614,-5.554296548650488,-5.268551977056596
1769245323800,121,-7,-7.456059382628718,-5.648729162463916,-5.93015822084598
1769245323804,120,-8,-7.979466852565242,-6.287177974111174,-6.443394899109037
1769245323808,120,-8,-8.472020808463355,-6.827530051728567,-6.9254578825093365
1769245323811,119,-9,-8.908614474843588,-7.538802590713737,-7.350835813397881
1769245323816,119,-9,-9.16082391139193,-7.697187842952556,-7.591347643355007
1769245323819,119,-9,-9.130613547491572,-7.483256774869619,-7.550134367079498
1769245323824,119,-9,-8.85498713598332,-7.44187414629735,-7.265081078289006
1769245323828,120,-8,-8.497741699508401,-6.706478715608603,-6.89932120202121
1769245323832,120,-8,-8.242171952998552,-6.572019299696962,-6.634357749628625
1769245323836,120,-8,-8.169121950482623,-6.714645220032522,-6.549914726751451
1769245323839,120,-8,-8.206736766783838,-6.369527545642647,-6.574946889757063
1769245323844,120,-8,-8.184146758805548,-6.639271734989948,-6.54055487143304
1769245323848,120,-8,-7.95369463449334,-6.443898117935542,-6.300167297067139
1769245323852,121,-7,-7.501418319916781,-5.834624281243684,-5.839011502216059
1769245323856,121,-7,-6.965233420760334,-5.4197804231837265,-5.293415408737456
1769245323859,122,-6,-6.537147979625935,-4.631125052209962,-4.85481211716883
1769245323864,122,-6,-6.316983441797242,-4.420076489469669,-4.623752072919066
1769245323867,122,-6,-6.238888360976053,-4.61611847941852,-4.535081508465358
1769245323872,122,-6,-6.141983145505756,-4.684569312474212,-4.427667073784303
1769245323876,122,-6,-5.925035005666573,-4.48852295175808,-4.199844894287766
1769245323880,123,-5,-5.636201974510617,-3.602625023745526,-3.9002221848782064
1769245323884,123,-5,-5.409611918203575,-3.389158449401913,-3.663731186258003
1769245323887,123,-5,-5.3189579028936915,-3.700433278302592,-3.5638374811632887
1769245323892,123,-5,-5.30126745562904,-3.5276466796909243,-3.5362677835256098
1769245323896,123,-5,-5.222271657011636,-3.6597490353781943,-3.4459698194557213
1769245323900,123,-5,-5.007233923595631,-3.399259241512921,-3.2191340138295543
1769245323904,124,-4,-4.705714973300797,-2.5817262576194437,-2.9071101526421232
1769245323907,124,-4,-4.438970359068216,-2.517503500719293,-2.6316950725742716
1769245323912,124,-4,-4.2971897602033415,-2.6651368214946145,-2.4815084706603594
1769245323915,124,-4,-4.285576617388503,-2.5300718659482517,-2.4597329234949386
1769245323920,124,-4,-4.346780668697182,-2.4954266950928288,-2.50885127549823
1769245323924,124,-4,-4.41274819215325,-2.4976468237054457,-2.56266826469316
1769245323928,124,-4,-4.439214002883434,-2.567829765153202,-2.5787718331593874
1769245323932,124,-4,-4.417744550513479,-2.613508610232349,-2.5487850807128933
1769245323935,124,-4,-4.376507634966728,-2.546372149729215,-2.499327679743359
1769245323940,124,-4,-4.36636119421996,-2.4857911428002875,-2.47969861723654
1769245323944,124,-4,-4.423869607557332,-2.4851888794398937,-2.526191176190963
1769245323948,124,-4,-4.525725794988145,-2.575640781584186,-2.6164721292668545
1769245323952,124,-4,-4.574143264888024,-2.579074620615653,-2.653864916145103
1769245323955,124,-4,-4.443713049088701,-2.570335502380204,-2.5132659341919688
1769245323960,124,-4,-4.0702980339236525,-2.446390656937625,-2.130260596715255
1769245323964,125,-3,-3.511387809555945,-1.5204240091261294,-1.5622668510917146
1769245323968,126,-2,-2.9167692623153068,-0.5163840689634512,-0.959068120991722
1769245323972,126,-2,-2.428340336580394,-0.6251717365407301,-0.4618190008580108
1769245323976,126,-2,-2.093935858829264,-0.5056435718311854,-0.1172856716003202
1769245323980,127,-1,-1.8535503877590511,0.48890878603868,0.1344637166298198
1769245323983,127,-1,-1.585474679901742,0.558614833933984,0.4138566486354363
1769245323988,127,-1,-1.1757683177950458,0.4132049503711366,0.8339181680098775
1769245323992,128,0,-0.5847221396182174,1.4935309832446433,1.4345385955626937
1769245323996,129,1,0.1209333131446996,2.3540605217817303,2.149410623026988
1769245324000,129,1,0.7947594785426422,2.672035238639205,2.8320608649286454
1769245324003,130,2,1.2784688284945136,3.345954651395135,3.324074445607671
1769245324008,130,2,1.4624294338488184,3.683168105709911,3.5163045326346594
1769245324012,130,2,1.306656472388566,3.2083871913927453,3.3698999328808306
1769245324016,129,1,0.8297600132243952,2.6747220459179797,2.904144836730728
1769245324020,129,1,0.0990588524479552,2.3481681794093223,2.1853447880276873
1769245324023,128,0,-0.761962297337957,1.6688230265794948,1.3349252323489682
1769245324028,127,-1,-1.583239729087668,0.4192320824217436,0.5221126737919711
1769245324031,126,-2,-2.2182605353701432,-0.5633327520067936,-0.1052922160711455
1769245324036,126,-2,-2.6420838388865593,-0.4746834714773693,-0.5206817116937115
1769245324040,126,-2,-2.975694989011904,-0.5692621865374587,-0.8448457747932978
1769245324044,125,-3,-3.3884387538925655,-1.3290299818223623,-1.2480270201291752
1769245324048,125,-3,-3.958326471551408,-1.6191142172796895,-1.8086943763846164
1769245324051,124,-4,-4.618804497636997,-2.464202742311224,-2.4598818225062833
1769245324056,123,-5,-5.234517788939337,-3.607105195777964,-3.0659868957645706
1769245324060,123,-5,-5.722314379989079,-3.4042351140956946,-3.544585188585926
1769245324064,123,-5,-6.09742774764891,-3.483239450332264,-3.91162998428976
1769245324068,122,-6,-6.414029526622993,-4.438734624236182,-4.220366902680014
1769245324071,122,-6,-6.679323713970422,-4.62510382709734,-4.476028116372739
1769245324076,122,-6,-6.827616352325993,-4.449979471544162,-4.612702780371149
1769245324079,122,-6,-6.765121817654276,-4.567765044330573,-4.5393498261505645
1769245324084,122,-6,-6.443981008665301,-4.266933334920759,-4.211228086956261
1769245324088,123,-5,-5.9218348873696245,-3.6645917442191456,-3.6856852203236232
1769245324092,123,-5,-5.368922438834048,-3.340462165514014,-3.1284707507857688
1769245324096,124,-4,-4.994687719675953,-2.788470255613828,-2.743818555628323
1769245324099,124,-4,-4.9131157321279035,-2.180553276886091,-2.6447754682009372
1769245324104,124,-4,-5.040201187331233,-2.6612552688986932,-2.753012125256274
1769245324108,123,-5,-5.136146037076994,-3.231572439366485,-2.8383342075724656
1769245324112,124,-4,-4.998478942267674,-2.746394330080958,-2.704663042789428
1769245324116,124,-4,-4.644227617490903,-2.431693178272017,-2.364640623831152
1769245324119,124,-4,-4.257009946464168,-2.45373908398935,-1.9859817789202456
1769245324124,125,-3,-3.811688806621981,-1.4505294606883814,-1.5268126672465063
1769245324127,127,-1,-2.5687394650648128,0.6857966060418539,-0.2455670290519918
1769245324132,131,3,1.1057620063900222,4.245473962464882,3.473738484642947
1769245324136,138,10,9.131567783084378,11.661556087579704,11.525592515283602
1769245324140,150,22,22.309715789381617,23.427027229911328,24.6985385652544
1769245324144,165,37,38.89052208103941,38.7179975075141,41.251622218995
1769245324147,183,55,54.34904136283147,56.57499234777416,56.680247733195266
1769245324152,195,67,63.08234449322399,68.30040592298454,65.39869076227191
1769245324156,192,64,61.31941842409793,65.63165283453958,63.64416499111976
1769245324160,178,50,49.34297723166856,51.324552187102014,51.6996347673523
1769245324164,158,30,31.40176961790754,31.86658920363768,33.80496378350288
1769245324167,141,13,13.37151031615576,14.37604279899185,15.81702885281381
1769245324172,129,1,-0.1712665357782974,2.6732933060051445,2.2923450150529736
1769245324175,122,-6,-7.618574855861011,-4.671700467774538,-5.16716064057259
1769245324180,119,-9,-10.069697819047432,-7.322834012537371,-7.646998676934578
1769245324184,120,-8,-9.81782139712923,-6.5066805734184765,-7.417417535353325
1769245324188,120,-8,-8.815453284941785,-6.3454322824397655,-6.4154034309309225
1769245324192,120,-8,-7.982184280226668,-6.522629768484162,-5.560765115316868
1769245324195,121,-7,-7.420293002343038,-5.479850987028102,-4.9685864001581965
1769245324200,122,-6,-6.98913280605861,-4.432986571642965,-4.514116292305175
1769245324204,123,-5,-6.648278678667199,-3.4970432563544245,-4.165789127292549
1769245324208,123,-5,-6.421132348366388,-3.3040243039971564,-3.943417900232554
1769245324212,122,-6,-6.252247067983993,-4.595794193916125,-3.779373599492969
1769245324215,122,-6,-6.0256139971103275,-4.301942099717801,-3.5481173926065344
1769245324220,124,-4,-5.696946095264269,-2.6108771071351105,-3.206750782978248
1769245324223,124,-4,-5.3266375288244445,-2.357439650058501,-2.8245018988236694
1769245324228,124,-4,-4.97125031583027,-2.404192530987799,-2.463466567298248
1769245324232,124,-4,-4.604412464876786,-2.529257226128875,-2.0944047888855257
1769245324236,124,-4,-4.178219542585291,-2.257836534699875,-1.6635924497565877
1769245324240,126,-2,-3.7175196266830306,-0.7116352935121217,-1.1946444917877677
1769245324243,126,-2,-3.293957260422662,-0.2003328006089564,-0.7626961034018168
1769245324248,126,-2,-2.910746840800476,-0.6157638484062219,-0.3734973770073011
1769245324252,126,-2,-2.466651354335661,-0.2551929313428677,0.075460005003207
1769245324256,127,-1,-1.863558398459043,0.4852465563299893,0.6843784158731756
1769245324260,128,0,-1.1302979489252163,1.54146582815845,1.4240272091185775
1769245324263,129,1,-0.4162797147051307,2.5897231027324294,2.143266873879162
1769245324268,129,1,0.1316601765931035,2.5488164284806345,2.695345306252387
1769245324271,129,1,0.4758286715606641,2.643956569565036,3.0445664766134204
1769245324276,130,2,0.6929036561298502,3.573828068340375,3.2686414829443686
1769245324280,130,2,0.908933303057176,3.4848094078521608,3.492222840551902
1769245324284,130,2,1.2318930183420158,3.642438807073422,3.821241964544904
1769245324288,131,3,1.710684357247196,4.523281172540911,4.304214182306362
1769245324291,131,3,2.3216968021829025,4.661543256374848,4.9188935523592345
1769245324296,132,4,2.98706578332599,5.600838948707939,5.588815761443795
1769245324300,133,5,3.624354177817544,6.451657188203626,6.23164352514425
1769245324304,133,5,4.201650970982992,6.694798139591146,6.814600906373122
1769245324308,134,6,4.753969123346687,7.477442159581526,7.372105810100044
1769245324311,134,6,5.3410714568315845,7.718661678856272,7.964106988213567
1769245324316,135,7,5.9821376329417255,8.562046856721745,8.610140893402026
1769245324319,136,8,6.629722058041521,9.511122983453616,9.262622802881614
1769245324324,136,8,7.207847690801276,9.64178640828418,9.845120293732313
1769245324328,137,9,7.674513958473613,10.537795858315182,10.315584833132172
1769245324332,137,9,8.046254948653585,10.680761037176037,10.691230319062589
1769245324336,137,9,8.363731597104312,10.59287423500229,11.013488936728354
1769245324339,138,10,8.639689231516499,11.523819212238722,11.294937808372351
1769245324344,138,10,8.84829150948816,11.624886260321508,11.508563072113816
1769245324348,138,10,8.964404641126812,11.56309929860085,11.628284410857342
1769245324352,138,10,9.00103123958936,11.69074505280865,11.667513247005523
1769245324356,138,10,8.998458532329511,11.554708066546926,11.66799439639125
1769245324359,138,10,8.979716929060485,11.622489883894836,11.653852984955057
1769245324364,138,10,8.926872811674478,11.506278560374646,11.606705107807612
1769245324367,138,10,8.807811535726252,11.71040754264261,11.492716222619917
1769245324372,138,10,8.620288401768445,11.561739862473113,11.308407009760025
1769245324376,137,9,8.388424242988478,10.665133286246796,11.078521620258671
1769245324380,137,9,8.097578346336572,10.57144200055475,10.7900557265508
1769245324384,137,9,7.642626080149858,10.51751260050726,10.338558281347398
1769245324387,136,8,6.873541359602619,9.768224202850764,9.57333045681158
1769245324392,135,7,5.717029427109574,8.468388537475667,8.42047426564713
1769245324396,133,5,4.257270310266797,6.80877018009407,6.964458544123751
1769245324400,132,4,2.6922976144722583,5.403044664224571,5.403645744244712
1769245324404,130,2,1.203429983963353,3.7212170231181543,3.9187410172695647
1769245324407,129,1,-0.1495516377829564,2.5772777687023014,2.568441647813552
1769245324412,128,0,-1.4296539591622697,1.672787794417842,1.2896220402027805
1769245324415,126,-2,-2.7375181405966975,-0.3616564648831151,-0.0170244312176002
1769245324420,125,-3,-4.116964953126858,-1.468558344035095,-1.3938497221834796
1769245324424,124,-4,-5.5124980005636965,-2.3332650474938257,-2.7852854722778337
1769245324428,122,-6,-6.792513708061833,-4.421445827143,-4.060934830679575
1769245324432,121,-7,-7.818664036840298,-5.240722491826088,-5.0836944671584074
1769245324435,121,-7,-8.519093535880959,-5.479982289251294,-5.782139143507892
1769245324440,120,-8,-8.917746676478107,-6.334320076832496,-6.179683442375964
1769245324444,120,-8,-9.104103641268368,-6.441011981180625,-6.3647482582257755
1769245324448,120,-8,-9.17060519975022,-6.322344396004583,-6.429053701188321
1769245324452,120,-8,-9.160481851792914,-6.292352174798289,-6.415949093593606
1769245324455,120,-8,-9.059127446807093,-6.442113999111112,-6.311481985853663
1769245324460,120,-8,-8.833948092218403,-6.3559008263043415,-6.08377127433639
1769245324464,121,-7,-8.48778330850306,-5.413628121733212,-5.736054150838566
1769245324468,121,-7,-8.079105269644346,-5.324777821332808,-5.326419172796881
1769245324472,121,-7,-7.696697278018174,-5.2771117072784754,-4.942634746232999
1769245324476,122,-6,-7.41189877842982,-4.436022062907142,-4.6555794373987105
1769245324480,122,-6,-7.236651468615511,-4.378349188404343,-4.477941862807729
1769245324483,122,-6,-7.1141225690294085,-4.3654945162923005,-4.3537496142857
1769245324488,122,-6,-6.961150011300718,-4.357243353582051,-4.199589117234245
1769245324492,122,-6,-6.73934146923087,-4.226320885574566,-3.976281476882877
1769245324496,123,-5,-6.487083945183157,-3.4711969093102093,-3.722256043443611
1769245324500,123,-5,-6.272129365831486,-3.3495782737241977,-3.5060216655986514
1769245324503,123,-5,-6.112781130222891,-3.371082929638056,-3.34596604828799
1769245324508,123,-5,-5.9571077789200535,-3.3404045911974727,-3.1892353853647504
1769245324512,123,-5,-5.743840451963653,-3.219254090880286,-2.9740401608473546
1769245324516,124,-4,-5.474151502414376,-2.482276899122456,-2.7024576663131037
1769245324520,124,-4,-5.216602125423825,-2.313182464587454,-2.444315918078974
1769245324523,124,-4,-5.048973868411165,-2.412136985311308,-2.2772588070006914
1769245324528,124,-4,-5.002922539283692,-2.2606392326652687,-2.2313976013273074
1769245324531,124,-4,-5.0545421993959785,-2.307923651906521,-2.2816481036318126
1769245324536,124,-4,-5.146446204209054,-2.3729034882401163,-2.371125468031293
1769245324540,124,-4,-5.209817552552239,-2.417073038830684,-2.4326195403238047
1769245324544,124,-4,-5.180139273409002,-2.2889026879593635,-2.4026444890376704
1769245324548,124,-4,-5.019897146101836,-2.3648644636468363,-2.2431786828006626
1769245324551,124,-4,-4.746936548039529,-2.1990333589230717,-1.9707420180718724
1769245324556,125,-3,-4.4393491222095225,-1.467115448524264,-1.6627461404495616
1769245324560,125,-3,-4.193895800034186,-1.3183175970461334,-1.4163799143001734
1769245324564,125,-3,-4.0632072952796205,-1.363479775791785,-1.285001485097362
1769245324568,125,-3,-4.0290702394813325,-1.277079754725908,-1.2506449565790634
1769245324571,125,-3,-4.03721706415573,-1.287265364269614,-1.2588523823638786
1769245324576,125,-3,-4.057462122776989,-1.354323685383355,-1.279261130677509
1769245324579,125,-3,-4.108671764142915,-1.444100319215102,-1.330821391633743
1769245324584,125,-3,-4.221812497548257,-1.1777386431287824,-1.4445758481114164
1769245324588,125,-3,-4.375530609472394,-1.495561285652395,-1.5987062245381478
1769245324592,124,-4,-4.471758519016536,-2.015683243739704,-1.694351971807981
1769245324596,125,-3,-4.382784928973823,-1.661000329209671,-1.6039185599166843
1769245324599,125,-3,-4.02917790425008,-1.0939945710031034,-1.2495196048283663
1769245324604,126,-2,-3.4259536353797033,-0.5151885644459446,-0.6475894535225153
1769245324608,126,-2,-2.6795286578043935,-0.147191994592029,0.0959744522863785
1769245324612,127,-1,-1.953417140369257,0.6611788249477166,0.8195926854862039
1769245324616,128,0,-1.4091393433296775,1.630087342327553,1.3629931235777957
1769245324619,128,0,-1.1272615055244517,1.6650214536695307,1.6453025216129404
1769245324624,128,0,-1.0511796352055307,1.7159541030300658,1.722201107945618
1769245324627,128,0,-1.0100325452647518,1.6665415023623071,1.763923371383448
1769245324632,128,0,-0.8216836467742279,1.8283580619131028,1.952212052415379
1769245324636,129,1,-0.4066863590484559,2.4773354603376925,2.366137651009888
1769245324640,129,1,0.1642514214962611,2.8368937598768422,2.9349103532919285
1769245324644,130,2,0.7121251694238897,3.563686257883996,3.4800111097165027
1769245324647,130,2,1.0433086299884315,3.844706732497767,3.808606846381098
1769245324652,130,2,1.0360237719253027,3.634732488128148,3.7995388681447215
1769245324656,130,2,0.6787155408869117,3.675309459248653,3.441525166307118
1769245324660,129,1,0.0537965096093049,2.6663005495191863,2.816878586898107
1769245324664,128,0,-0.7097955332661714,1.739479465210329,2.0537908510828897
1769245324667,128,0,-1.4804495771625463,1.7159427238940106,1.282560846829775
1769245324672,127,-1,-2.149419290969995,0.7337900933799029,0.6112203190025522
1769245324675,126,-2,-2.655882255011227,-0.4025816339727508,0.101458885754049
1769245324680,126,-2,-3.020266374594529,-0.2383165368449957,-0.2656459311375774
1769245324684,126,-2,-3.348087994178363,-0.3428691244046375,-0.5952165455735896
1769245324688,125,-3,-3.7680682260190297,-1.1658855778229404,-1.016778747666403
1769245324692,125,-3,-4.339234103778453,-1.4072431106719967,-1.5899312402051469
1769245324695,124,-4,-5.007370749272542,-2.234546064161804,-2.2600542209982044
1769245324700,123,-5,-5.646702343601521,-3.422836610537951,-2.9008312761373833
1769245324704,123,-5,-6.140325146568675,-3.1053063521704107,-3.3956912176372933
1769245324708,123,-5,-6.426360272878696,-3.396432426959046,-3.683509584013716
1769245324712,122,-6,-6.4908159717848415,-4.178414399759747,-3.750253795599399
1769245324715,123,-5,-6.347783138571849,-3.435831818303001,-3.609300286977327
1769245324720,123,-5,-6.039779572819564,-3.250975300631478,-3.303233799965259
1769245324723,123,-5,-5.646115214911022,-3.2135650922617893,-2.912721841513166
1769245324728,124,-4,-5.272206741880694,-2.2990465314468462,-2.5441941424604244
1769245324732,124,-4,-5.0142037885016855,-2.243539011704997,-2.2921889772541086
1769245324736,124,-4,-4.918849475397296,-2.4010924815210655,-2.1992198211292715
1769245324740,124,-4,-4.962929133702489,-2.2465365416265635,-2.239010559403986
1769245324743,124,-4,-5.060451598392723,-2.227475639532271,-2.328529078150139
1769245324748,124,-4,-5.097350650678329,-2.2293304041251085,-2.3630076220862315
1769245324752,124,-4,-4.997530529966216,-2.3330018511758768,-2.275104973164084
1769245324756,124,-4,-4.795645194067193,-2.2903541239819623,-2.098111409153412
1769245324760,124,-4,-4.620009938959441,-2.3693118038991043,-1.9458670490573395
1769245324763,124,-4,-4.464106073916232,-2.066440629116241,-1.7935373798485887
1769245324768,126,-2,-3.76630840304365,-0.3752631146881102,-1.0732703168312017
1769245324771,129,1,-1.1094797167519843,2.8263854338099623,1.618113197108229
1769245324776,135,7,5.456855539977067,8.568980409934207,8.206103057015397
1769245324780,145,17,17.228987431947278,18.75320481018059,19.970225022897168
1769245324784,160,32,33.30486366759957,33.89904770133465,36.01163830425248
1769245324788,178,50,49.87630747692749,51.616085412717496,52.54031408618458
1769245324791,192,64,61.358503788988735,65.92842733048238,63.99074487848076
1769245324796,195,67,63.10264111972178,68.36030401714979,65.72560680280552
1769245324800,183,55,54.037667862213155,56.95770028142584,56.676026459607385
1769245324804,165,37,37.37247390815561,38.616609965995586,40.04350583111871
1769245324808,146,18,18.82811698839763,19.90097919082001,21.53229647808362
1769245324811,132,4,3.652360834400466,5.757695907980055,6.370589576339712
1769245324816,124,-4,-5.6129439865918815,-2.389633289053747,-2.909412439952379
1769245324819,120,-8,-9.437347546446686,-6.183332203676562,-6.76933886172611
1769245324824,120,-8,-9.96923118494199,-6.317089733777592,-7.337603644409056
1769245324828,120,-8,-9.312114810205124,-6.17687845214549,-6.699431491797858
1769245324832,119,-9,-8.565677213536217,-7.195149186791042,-5.948869936310617
1769245324836,120,-8,-7.933884645659626,-6.377882649836744,-5.299015793341014
1769245324839,122,-6,-7.350279815662939,-4.149699741994038,-4.700172068751128
1769245324844,123,-5,-6.882192277305948,-3.396636156831997,-4.231750588385772
1769245324848,122,-6,-6.666815839628464,-4.088458821778869,-4.0298389895757865
1769245324852,122,-6,-6.680324496764669,-4.302070072478604,-4.059302196169269
1769245324856,122,-6,-6.701593760908679,-4.218258638946609,-4.088846217214217
1769245324859,122,-6,-6.501234224528919,-4.2685845746352555,-3.888372038951448
1769245324864,123,-5,-6.026048563829739,-3.2994125186886807,-3.411739392153174
1769245324867,124,-4,-5.398277237274297,-2.1680089196441767,-2.7876601637202274
1769245324872,124,-4,-4.773148628986172,-2.2457910015584583,-2.171007316488959
1769245324876,124,-4,-4.227183187569965,-2.2219622393141645,-1.6328468003706271
1769245324880,125,-3,-3.7628258877182783,-1.2400438360566106,-1.172099034994868
1769245324884,126,-2,-3.3573023586553847,-0.3517434883783104,-0.7680964570560396
1769245324887,126,-2,-2.9708970603049525,-0.08201781198319,-0.3851367729845938
1769245324892,126,-2,-2.543500936381527,-0.3692728752353251,0.0362817409322675
1769245324896,126,-2,-2.039994455656013,-0.016037127048242,0.5337642855779811
1769245324900,128,0,-1.503595867813842,1.518363576653896,1.0654112589261178
1769245324904,128,0,-1.0273892814602252,1.9475992651211695,1.5369611486450006
1769245324907,128,0,-0.6587921505681171,1.564382878696591,1.900038455941758
1769245324912,128,0,-0.3505236727512687,2.048361536409971,2.202838618390987
1769245324915,129,1,-0.0116374854838188,2.539742696598142,2.5374132777732683
1769245324920,129,1,0.4113887481942091,3.007296137290246,2.9567675760361727
1769245324924,130,2,0.9110304622943832,3.469660691514659,3.4518760634154324
1769245324928,130,2,1.4565486739702034,4.0186564676639955,3.991324998523012
1769245324932,131,3,2.0340455445244485,4.656655089599715,4.562095723009257
1769245324935,131,3,2.645114175781032,4.8688979831001085,5.167280867759423
1769245324940,132,4,3.278369211457213,5.784173931998153,5.796052275404979
1769245324944,133,5,3.9012857450133898,6.61860698948943,6.414936870871585
1769245324948,133,5,4.490962992046896,6.950970981182298,6.999695088045696
1769245324952,134,6,5.0657740149957835,7.673269696810786,7.568479910742252
1769245324955,134,6,5.670426061749017,7.904633786864974,8.16699061769022
1769245324960,135,7,6.3225059415608325,8.739775764407845,8.81368696747569
1769245324964,136,8,6.979757317572082,9.6908214326633,9.46603578901682
1769245324968,136,8,7.568138599234152,9.882981528858696,10.049038411997202
1769245324972,137,9,8.043115319102668,10.744065357502272,10.517820156770934
1769245324976,137,9,8.419703907781827,10.857648393083789,10.888206665906509
1769245324980,137,9,8.741464738491688,10.778564687993304,11.20474450977449
1769245324983,138,10,9.026513252659129,11.689059526529336,11.48530475331408
1769245324988,138,10,9.252819489694367,11.879515146920594,11.706461937251714
1769245324992,138,10,9.393801817863991,11.76245030499778,11.840821217073374
1769245324996,138,10,9.452345589334566,11.854981882280352,11.892193710351473
1769245325000,138,10,9.450382819147524,11.780749448876604,11.88414699699155
1769245325003,138,10,9.395431887520733,11.706105480115982,11.824599044369128
1769245325008,138,10,9.274366780675123,11.876876724871243,11.69915403809298
1769245325012,138,10,9.081224528175456,11.769005533756332,11.500489812575433
1769245325016,137,9,8.831081908612177,10.87368924216078,11.24373674052064
1769245325020,137,9,8.525594044988251,10.7460080195934,10.93152555023971
1769245325023,137,9,8.106844302065648,10.782124310474968,10.506379744984866
1769245325028,136,8,7.465468665461657,9.777135017280957,9.858678212147671
1769245325031,135,7,6.510479785625369,8.929154989435677,8.897486670078074
1769245325036,134,6,5.239260670889113,7.676486123021362,7.620792175447661
1769245325040,132,4,3.74827402286186,5.983976034247265,6.12523030597889
1769245325044,131,3,2.181048180789344,4.525140084326605,4.553352530702189
1769245325048,129,1,0.6557976069239593,3.0698658709920226,3.022004627418592
1769245325051,128,0,-0.781986047785932,1.6541800043796888,1.5764914987328076
1769245325056,126,-2,-2.1618367963208796,-0.0549458958973101,0.1887126422629577
1769245325060,125,-3,-3.5463839435090216,-1.2497552801852958,-1.20237451983783
1769245325064,124,-4,-4.959549989080916,-2.283318482370825,-2.6205444031775142
1769245325068,122,-6,-6.325367802519915,-4.03996445988337,-3.990900636632104
1769245325071,121,-7,-7.475928799277257,-5.287790571580068,-5.146494761304725
1769245325076,120,-8,-8.245443355580715,-6.033566281822322,-5.921845948112411
1769245325079,120,-8,-8.584885188121836,-6.334197741538905,-6.267952259700375
1769245325084,120,-8,-8.601370886246356,-6.139983853440828,-6.291774618798706
1769245325088,120,-8,-8.489953113835185,-6.183589725449401,-6.1877537172551635
1769245325092,120,-8,-8.415648445047541,-6.133429958496428,-6.120077530177736
1769245325096,120,-8,-8.433113832903524,-6.154822901707365,-6.143159720154155
1769245325099,120,-8,-8.48839666708313,-6.267360339919825,-6.203643716571533
1769245325104,120,-8,-8.484786872489039,-6.134463091928056,-6.205474909145681
1769245325108,120,-8,-8.360330613758942,-6.223636587297476,-6.086725078848473
1769245325112,120,-8,-8.125599259614477,-6.022765823628872,-5.8578313228301555
1769245325116,121,-7,-7.839071413154083,-5.303395045994052,-5.577688694478185
1769245325119,121,-7,-7.547433954848341,-5.091575595636147,-5.29337043592231
1769245325124,121,-7,-7.255209872315315,-5.319638402944499,-5.008669369160596
1769245325127,121,-7,-6.957504524639838,-5.001853247171212,-4.717363329263492
1769245325132,122,-6,-6.68741039238068,-4.236188815657075,-4.452330123167022
1769245325136,122,-6,-6.5034673376371614,-4.085074275932464,-4.273328239091445
1769245325140,122,-6,-6.421024108531135,-4.302221167187507,-4.196806055768363
1769245325144,122,-6,-6.371980571450239,-4.109863424894625,-4.154465323443946
1769245325147,122,-6,-6.251259800754361,-4.17724417939325,-4.0403140491235465
1769245325152,122,-6,-6.010318783717049,-4.065051018364935,-3.805460323153099
1769245325156,123,-5,-5.704161037077085,-3.230689588920621,-3.5054439961512753
1769245325160,123,-5,-5.444053411952108,-3.156741031354111,-3.2520092889848287
1769245325164,123,-5,-5.302212195037527,-3.259191745930386,-3.116911933744726
1769245325167,123,-5,-5.257874326436053,-2.9790713104075497,-3.078484660846029
1769245325172,123,-5,-5.2254386594775095,-3.302224061942616,-3.0510779722610915
1769245325175,123,-5,-5.1261967449624635,-2.9313674647412395,-2.9570830117478923
1769245325180,124,-4,-4.939061633216219,-2.4900255185823528,-2.7763825641837125
1769245325184,123,-5,-4.702599812103332,-2.887494682643879,-2.547156292616335
1769245325188,124,-4,-4.483611796014742,-2.3450540998581575,-2.334956782962724
1769245325192,124,-4,-4.336412948454596,-1.9351741273087928,-2.1934890889971546
1769245325195,124,-4,-4.271778991966791,-2.2704503223047587,-2.1340696592641324
1769245325200,124,-4,-4.255667561951152,-2.1738814126418977,-2.123566550618507
1769245325204,124,-4,-4.243360324057554,-2.144927352881317,-2.1176963318704787
1769245325208,124,-4,-4.220920488059778,-2.134853869259167,-2.1022132497546857
1769245325212,124,-4,-4.214124927422615,-2.070162583244848,-2.1020576701126092
1769245325215,124,-4,-4.253765374831337,-2.1857087339090113,-2.14733141074009
1769245325220,124,-4,-4.324859234192637,-2.2028207698735187,-2.2232488560868835
1769245325223,124,-4,-4.343958703593655,-2.133304223985271,-2.24735340655447
1769245325228,124,-4,-4.194874460316712,-2.1266111284362488,-2.10422890482587
1769245325232,124,-4,-3.810949359965962,-2.059556556708571,-1.7270846775906787
1769245325236,125,-3,-3.2417989826096743,-1.203093378520921,-1.1648898532543934
1769245325240,126,-2,-2.636294965566412,-0.1537843064005575,-0.5659515522181504
1769245325243,126,-2,-2.1422026763109105,-0.1907175183760903,-0.0776693874074747
1769245325248,126,-2,-1.8038214027871715,-0.0455805940980431,0.2555828120292684
1769245325252,127,-1,-1.5395836005886463,0.8589271247069685,0.5146411122050227
1769245325256,127,-1,-1.2111322663668929,0.8870620943703482,0.837298644081595
1769245325260,127,-1,-0.7329310410470722,0.7709996776341399,1.3095940992046835
1769245325263,128,0,-0.1451458320208885,1.899527864598392,1.892045791647034
1769245325268,129,1,0.413250325027654,2.876590940792962,2.4451503494151754
1769245325271,129,1,0.8143627285279313,2.9341455584755316,2.839966428302591
1769245325276,129,1,1.024749137938909,2.8384564721388768,3.0432846723324065
1769245325280,129,1,1.073820744203223,2.8018941558604067,3.085895891654338
1769245325284,129,1,0.954478323678883,2.908858822339522,2.9613416274003685
1769245325288,129,1,0.58629107088056,2.8497533809295517,2.5883570961507427
1769245325291,128,0,-0.1049504158516161,2.001239269849556,1.8917234700703385
1769245325296,127,-1,-1.0755429914713397,0.7618538774636909,0.9152107837297347
1769245325300,126,-2,-2.1414634023563934,-0.1138370880178665,-0.1563423224235498
1769245325304,125,-3,-3.0757241550978858,-1.1548992317622406,-1.0954716529570452
1769245325308,124,-4,-3.7448756371631498,-2.1008001948734942,-1.7691556637874708
1769245325311,124,-4,-4.173672316582623,-1.983200030655555,-2.2031994686902916
1769245325316,124,-4,-4.492369839833916,-2.291115120705991,-2.5285434864657708
1769245325319,123,-5,-4.823827420594196,-3.0199049814778993,-2.867394254458133
1769245325324,123,-5,-5.21299492715945,-3.269047631329662,-3.2630596637801172
1769245325328,122,-6,-5.6419734349759265,-3.9680460333575738,-3.696729337044925
1769245325332,122,-6,-6.07907462155969,-4.0943352614518265,-4.137611471845145
1769245325336,122,-6,-6.492143269507103,-4.1743636734347405,-4.555109091960787
1769245325339,121,-7,-6.826365711753883,-5.121943040989924,-4.894634800143298
1769245325344,121,-7,-7.003931894640155,-5.173681204130014,-5.077239458133631
1769245325348,121,-7,-6.971152387349005,-5.045079022935815,-5.048894301735511
1769245325352,121,-7,-6.747449502720176,-5.006400521006853,-4.830761623371704
1769245325356,122,-6,-6.419465440949018,-4.245394573329583,-4.511253085478409
1769245325359,122,-6,-6.0849599138639725,-4.030525066528087,-4.186390498734308
1769245325364,122,-6,-5.803615831038645,-4.292015043552608,-3.910445239306762
1769245325367,122,-6,-5.589224415222129,-3.889994195022092,-3.693475459501123
1769245325372,123,-5,-5.4183089243792715,-3.173323859712293,-3.5160443507352785
1769245325376,123,-5,-5.230847028053745,-3.045155416800892,-3.3290776668864455
1769245325380,123,-5,-4.957996651567326,-3.2121651930603248,-3.072317887151827
1769245325384,123,-5,-4.601263391532818,-3.1383022088084407,-2.7436643222615387
1769245325387,123,-5,-4.25816788031368,-3.004186567293047,-2.424459797952874
1769245325392,124,-4,-3.911430994624757,-2.0888840516765956,-2.0801494038677455
1769245325396,126,-2,-2.9792387401022316,-0.0604888650428374,-1.1253820006842754
1769245325400,129,1,-0.001650953725127,2.7933138107699085,1.8843519237622923
1769245325404,135,7,6.9717922504328715,8.863613133960563,8.875316243513936
1769245325407,146,18,19.098726310058023,20.016437791012407,20.990053746711133
1769245325412,161,33,35.19940322322647,34.879685635737495,37.053136767522346
1769245325415,178,50,51.20002569339549,52.05384810207007,53.00926427209562
1769245325420,192,64,61.473422012586866,65.64925781695273,63.25056351667699
1769245325424,192,64,61.6560619942272,66.00215923752931,63.42488638310941
1769245325428,179,51,51.18531562590752,52.778886947224706,52.97133190786176
1769245325432,160,32,33.74425237662067,34.07943468794994,35.5643278049287
1769245325435,142,14,15.260088904412347,15.873251857068782,17.11271581300951
1769245325440,128,0,0.8541334162368681,1.9195148354759224,2.7177592625016027
1769245325444,121,-7,-7.281672263750197,-5.1354842448832,-5.437147962804122
1769245325448,119,-9,-10.007531877640623,-7.058207786010029,-8.202544916113986
1769245325452,119,-9,-9.754762165179802,-7.123960900470845,-7.98819763887607
1769245325455,119,-9,-8.745568417346213,-6.947003612133134,-6.9970401853818025
1769245325460,119,-9,-8.055600356539141,-7.290422698521509,-6.299600859826634
1769245325464,119,-9,-7.761520333791321,-6.8375939624532025,-5.983966164270077
1769245325468,121,-7,-7.595098738273205,-5.384120179704747,-5.801215998845626
1769245325472,121,-7,-7.399983296740935,-4.786561157547618,-5.607746009812241
1769245325476,121,-7,-7.16999406294441,-5.315761501987739,-5.3944664140949135
1769245325480,120,-8,-6.91803159121433,-5.907552841662066,-5.1603844535653804
1769245325483,121,-7,-6.6372277370617905,-5.157314618612193,-4.887638726249314
1769245325488,122,-6,-6.341833694809081,-4.088968754474942,-4.591147796289507
1769245325492,122,-6,-6.055422130114954,-4.036546065357464,-4.30261936423063
1769245325496,122,-6,-5.748496964468396,-4.130509395761111,-3.9982093747485377
1769245325500,122,-6,-5.339444932050999,-4.027682351575573,-3.5954105529943683
1769245325503,123,-5,-4.784953481375978,-3.057590593539123,-3.0472622974623533
1769245325508,124,-4,-4.150360366814562,-2.134011315868669,-2.417359432950602
1769245325512,124,-4,-3.5665790847887813,-2.007044788530553,-1.8372558835788355
1769245325516,125,-3,-3.1136246237734704,-1.170425136474557,-1.3878499055538034
1769245325520,125,-3,-2.74910661968491,-0.9567730288844593,-1.0266800728802978
1769245325523,125,-3,-2.3491853519191,-1.154681320810138,-0.6296293900216594
1769245325528,126,-2,-1.818513125638614,0.0410113799631597,-0.1019736554882928
1769245325531,127,-1,-1.1661383392634357,0.7730443969274421,0.5461406076045239
1769245325536,127,-1,-0.4894338086166834,1.081174382430771,1.2173849528531109
1769245325540,128,0,0.101284055812813,1.7823012682820436,1.802986390026988
1769245325544,128,0,0.5511748309017397,2.120652663724342,2.2494066816325016
1769245325548,129,1,0.8892359823620595,2.7912836911275645,2.5852502100010986
1769245325551,129,1,1.2133990575111482,3.022362599825253,2.907095210312728
1769245325556,129,1,1.6359305326620597,2.8390883853048248,3.3264261611200157
1769245325560,130,2,2.213796496338806,4.016272059551527,3.9003300385403854
1769245325564,131,3,2.913879323256753,4.927226434732178,4.5961855342637135
1769245325568,131,3,3.640815770964195,4.966785781201892,5.319105338450726
1769245325571,132,4,4.301364167175635,5.902801266326006,5.975934049163236
1769245325576,133,5,4.858070151840449,6.909065251551853,6.5288986002631635
1769245325580,133,5,5.340467236469576,6.978981869779727,7.0076645458719975
1769245325584,133,5,5.806391397423082,6.969462012009421,7.470924506175087
1769245325588,134,6,6.286094908473851,7.937923679273183,7.94903667515282
1769245325592,135,7,6.769295260399574,8.963464396148687,8.43015391842309
1769245325596,135,7,7.245882840814167,8.814231184970026,8.902725668824965
1769245325600,135,7,7.731239280084949,9.110235620229728,9.38292884615328
1769245325604,136,8,8.224647241438156,9.83008836716714,9.872176189234311
1769245325608,136,8,8.654515257563638,10.095258808377672,10.299598350879489
1769245325612,137,9,8.90331221730514,10.837013082757126,10.546248080131628
1769245325616,137,9,8.91175338494228,10.905310288488964,10.551524774029662
1769245325620,136,8,8.752266780777672,10.075256163325635,10.388612157158851
1769245325624,136,8,8.581177608225259,9.805636538007477,10.215376618633575
1769245325628,136,8,8.514390852989624,10.208993067672964,10.147325368493648
1769245325632,137,9,8.553929011162127,10.66145201151355,10.184341007554387
1769245325636,136,8,8.617433231876241,10.165569858064346,10.243305771021776
1769245325640,136,8,8.603401114402619,9.75904271928658,10.224585765528133
1769245325644,136,8,8.423446624654893,10.15412184220931,10.041715581865423
1769245325648,136,8,8.014221207685434,9.867954124214894,9.630954096548162
1769245325652,135,7,7.358851032235105,8.987674908200155,8.973854391773937
1769245325656,134,6,6.494992500185499,7.924405928506188,8.107586252856903
1769245325660,133,5,5.4802704984983635,6.900258910853943,7.0903431420712515
1769245325664,132,4,4.344605043662213,6.122375196907693,5.952175151853163
1769245325668,131,3,3.0823994003807904,4.79788424541307,4.687016051526017
1769245325672,129,1,1.6865105286300874,3.1861001909308557,3.2877924238944507
1769245325676,128,0,0.1792275575590953,1.658754169097243,1.777625610699541
1769245325680,126,-2,-1.3856652674323184,0.2105993543144872,0.2107843249248824
1769245325684,125,-3,-2.934472924041867,-1.2099272251826356,-1.339530225762232
1769245325688,123,-5,-4.382022205284379,-2.8680359310233765,-2.788885075536128
1769245325692,122,-6,-5.644182434560676,-4.078750261769354,-4.053289316285922
1769245325696,121,-7,-6.662262282081472,-5.127260909203342,-5.073784244474939
1769245325700,120,-8,-7.424110653263327,-5.936017700932857,-5.838173715252871
1769245325704,120,-8,-7.960653655687658,-6.143897658916122,-6.377475639667257
1769245325708,119,-9,-8.320616300182204,-6.8411214119738935,-6.740055513374371
1769245325712,119,-9,-8.547202799190584,-7.151337602391632,-6.9684690345658495
1769245325716,119,-9,-8.669530307210662,-6.98412507744967,-7.091903696807635
1769245325720,119,-9,-8.700016109021574,-7.135299922626299,-7.123821101568368
1769245325724,119,-9,-8.633960871748728,-6.918044449122732,-7.060259044582961
1769245325728,119,-9,-8.465024918357571,-7.052943033625267,-6.894173463186429
1769245325732,119,-9,-8.216129695334399,-6.937062719988874,-6.647193093417657
1769245325736,120,-8,-7.949869523222561,-6.149567555816635,-6.381866458950884
1769245325740,120,-8,-7.729253648178513,-6.028449521112931,-6.162543801656018
1769245325744,120,-8,-7.561800591846416,-5.97277238360681,-5.997577271552898
1769245325748,120,-8,-7.396307026092565,-6.024264852374506,-5.834865013761712
1769245325752,120,-8,-7.186043527939628,-5.917677481307857,-5.626282020066953
1769245325756,121,-7,-6.94597942702975,-5.17562849797071,-5.3868225381980475
1769245325760,121,-7,-6.732241799190929,-5.001660032912681,-5.1739434844812875
1769245325764,121,-7,-6.567747443365117,-4.991001200879515,-5.011328773998314
1769245325768,121,-7,-6.4074632099271005,-5.001724453443883,-4.853266922829237
1769245325772,121,-7,-6.188946575773844,-4.9127934675565745,-4.636411296854156
1769245325776,122,-6,-5.909870979962636,-4.18958520580295,-4.3586222013557006
1769245325780,122,-6,-5.644297569707735,-3.966852627427248,-4.094697568859744
1769245325784,122,-6,-5.482636955163753,-4.0381717307362806,-3.9349590584679817
1769245325788,122,-6,-5.458938956782162,-3.9252667355814,-3.9125816105665567
1769245325792,122,-6,-5.528276843031758,-3.994105738322254,-3.982374120074707
1769245325796,122,-6,-5.601160461454745,-4.091863998321952,-4.055790469640227
1769245325800,122,-6,-5.601480231508921,-4.069059626028481,-4.057700647651929
1769245325804,122,-6,-5.511642579320812,-3.9126595734291767,-3.970136513664723
1769245325808,122,-6,-5.3814753610497235,-4.06007102277704,-3.8415768876693095
1769245325812,122,-6,-5.291297994673135,-3.821207225588144,-3.7518444254451584
1769245325816,123,-5,-5.283870550436484,-3.2959134516418347,-3.744789213394477
1769245325820,122,-6,-5.317030046960522,-3.819423912389561,-3.7793650712803153
1769245325824,122,-6,-5.293599845581102,-4.195625767245837,-3.7579787128150146
1769245325828,122,-6,-5.153876092862088,-3.7282270260863295,-3.619735222996513
1769245325832,123,-5,-4.932671442321278,-3.1760073186402593,-3.399117578201963
1769245325836,123,-5,-4.7094864054343795,-2.914277690423876,-3.1761483387029528
1769245325840,123,-5,-4.50438743557142,-3.1898968045583835,-2.9712599757571176
1769245325844,123,-5,-4.23744049054629,-2.843464782917514,-2.704694571757896
1769245325848,124,-4,-3.798414693357164,-2.0387197911894672,-2.2666649762679225
1769245325852,124,-4,-3.1623737522608755,-1.903063544447146,-1.6324926585868842
1769245325856,125,-3,-2.4485462830865075,-1.1237088894959832,-0.9208601157066588
1769245325860,126,-2,-1.8635605865727465,-0.0133004757484431,-0.3375129403750465
1769245325864,126,-2,-1.556054678216982,0.01832655393683,-0.0306699715256026
1769245325868,126,-2,-1.4904136659112956,0.0627503191201552,0.0352383639409612
1769245325872,126,-2,-1.452110467379507,0.0447627725336574,0.0745322277531721
1769245325876,126,-2,-1.1957868141213992,-0.1039957083112115,0.3319857747261809
1769245325880,127,-1,-0.6225235886537077,1.0224289601346652,0.9053593080664049
1769245325884,128,0,0.1518619420642528,1.9608624593610624,1.6778738855545263
1769245325888,128,0,0.8760769677335098,2.1358199591077742,2.3986691677332113
1769245325892,129,1,1.3097243029941854,2.985078054236383,2.829228313261897
1769245325896,129,1,1.3284188360248317,2.93834080285642,2.8470675007880923
1769245325900,128,0,0.941577012899733,2.0179784632177777,2.4618815229339277
1769245325904,128,0,0.2510621577415637,1.9337167793804768,1.7737819401511885
1769245325908,127,-1,-0.5974700724498954,1.2228691921739243,0.9261100557059094
1769245325912,126,-2,-1.4520951658578969,-0.160658418690349,0.0701276795548717
1769245325916,125,-3,-2.197047728782376,-0.8293310946772845,-0.6769199239116896
1769245325920,125,-3,-2.796073413477063,-1.285080040431048,-1.2770452925087938
1769245325924,124,-4,-3.2957604536301854,-1.691010008793265,-1.7766981456120718
1769245325928,124,-4,-3.7702161694097014,-2.1812293702640604,-2.251102990038646
1769245325932,123,-5,-4.252931738418248,-2.7393795483822125,-2.734431804878278
1769245325936,123,-5,-4.720921615187738,-3.225910540888908,-3.203148986736136
1769245325940,122,-6,-5.140439559753211,-3.931995112854278,-3.6226876225135767
1769245325944,122,-6,-5.51497985002741,-3.9707917807096544,-3.9967913558984782
1769245325948,122,-6,-5.874577415679049,-3.963289033782901,-4.356589836991145
1769245325952,121,-7,-6.218092796288381,-4.868063254217552,-4.701237578295237
1769245325956,121,-7,-6.481442644914199,-5.172536687400847,-4.965386964628883
1769245325960,121,-7,-6.575834553518402,-4.9123289500967555,-5.05877108050437
1769245325964,121,-7,-6.460058809246746,-5.047304531074857,-4.9404569922992945
1769245325968,121,-7,-6.178633332466334,-4.817452593931391,-4.657487882989915
1769245325972,122,-6,-5.836708909400985,-4.0395651759896465,-4.317968877226217
1769245325976,122,-6,-5.5406420101031895,-3.9722806361858254,-4.028260361981034
1769245325980,122,-6,-5.357207460156378,-4.139527932724431,-3.850207371870281
1769245325984,122,-6,-5.311999105456506,-3.793788775280595,-3.802480312954752
1769245325988,122,-6,-5.391042506197655,-4.069597915894306,-3.869415335737808
1769245325992,122,-6,-5.508566210449027,-3.774896286715512,-3.973582583600733
1769245325996,123,-5,-5.483832921048377,-3.207692499889338,-3.947852768377043
1769245326000,122,-6,-5.128131295064189,-3.9530937062464737,-3.609685481003877
1769245326004,122,-6,-4.439698006430277,-3.9150061716664246,-2.947369895401808
1769245326008,123,-5,-3.6746119048774295,-2.997461281873619,-2.1968088090169333
1769245326012,125,-3,-3.0029358531558263,-0.782353956602357,-1.5141466777878048
1769245326016,128,0,-1.832612804998341,1.77931446425206,-0.311521070960759
1769245326020,129,1,1.552533902397494,3.087783264741608,3.1077488798774873
1769245326024,136,8,9.31817748834077,10.018917753563798,10.88826745009714
1769245326028,149,21,22.40573607102739,23.108397494468555,23.96243949288253
1769245326032,164,36,38.94591434736628,38.114545991480085,40.46855280264432
1769245326036,182,54,54.1808391896132,55.93572205751926,55.666505400244425
1769245326040,193,65,62.442130957180034,66.94681331967084,63.905167715809746
1769245326044,189,61,60.17329790939769,63.03934495918075,61.637982281577685
1769245326048,175,47,47.99147274465765,49.07874268690371,49.48225527524422
1769245326052,156,28,30.330476929054953,30.051075677911548,31.86081033893118
1769245326056,139,11,12.955705377720609,13.072254337930154,14.519222046886108
1769245326060,128,0,0.1112569600395456,1.9416137275183676,1.6832663740895544
1769245326064,121,-7,-6.928106827444928,-4.923466421716244,-5.376330834282157
1769245326068,119,-9,-9.379099174306637,-6.890278015474474,-7.862498766062885
1769245326072,119,-9,-9.373002053272922,-7.084486301469106,-7.884506299944787
1769245326076,118,-10,-8.568654352452462,-7.776977357919829,-7.085729208189665
1769245326080,119,-9,-7.708373926088156,-7.2073568018135825,-6.208889771664394
1769245326084,120,-8,-6.960537728008133,-5.726982651782922,-5.436979035503753
1769245326088,122,-6,-6.38672708409834,-4.096947746753023,-4.84900045557485
1769245326092,122,-6,-6.076819298386056,-3.916602869939662,-4.541899098176926
1769245326096,121,-7,-6.0287059100988,-4.928883579085557,-4.506191163619973
1769245326100,121,-7,-6.093836431005792,-5.075691625428173,-4.580152726354384
1769245326104,121,-7,-6.10080645259867,-4.758764139621213,-4.585938511260484
1769245326108,122,-6,-5.986451594470561,-4.141342773360316,-4.4646786643733005
1769245326112,122,-6,-5.773572374358519,-3.8005397516937474,-4.2472850775098046
1769245326116,122,-6,-5.4585064934285406,-4.121686029301735,-3.9332651088692554
1769245326120,122,-6,-4.981323414055499,-3.822454465501842,-3.4594500693821373
1769245326124,123,-5,-4.3200426728052514,-2.998746025280147,-2.799573620126811
1769245326128,124,-4,-3.574507260707707,-1.9201230511677103,-2.0528262292828092
1769245326132,125,-3,-2.91446831417123,-0.9717629280846044,-1.3911680470545864
1769245326136,125,-3,-2.4354611086414732,-1.0239405964284871,-0.9115827841029952
1769245326140,125,-3,-2.0769760139849085,-0.8391448866589966,-0.5528684874666476
1769245326144,126,-2,-1.6857056486883382,-0.0324009025383054,-0.1606469950468474
1769245326148,126,-2,-1.1550193081900095,0.1755960270618044,0.3713829745851966
1769245326152,127,-1,-0.5099263615841774,0.8957098390640701,1.0168881611365792
1769245326156,128,0,0.1257930561261687,2.1351274199244408,1.6515243222290836
1769245326160,128,0,0.633909130882348,2.0037006815489167,2.1582207066673895
1769245326164,128,0,0.981328159697356,2.1150543456197397,2.505677451556063
1769245326168,129,1,1.2241078459658992,3.0781343141181665,2.7503446020799185
1769245326172,129,1,1.461656883552298,2.935817931402484,2.9901849408908077
1769245326176,129,1,1.7875741359266453,3.1560841676886966,3.3172032429852165
1769245326180,130,2,2.2547130554653547,3.958665152589285,3.78407888767999
1769245326184,130,2,2.856440368579227,4.1728511917459095,4.385178123645507
1769245326188,131,3,3.532430322842109,5.052274288488114,5.061039522761176
1769245326192,132,4,4.2028276455885365,5.914162433410215,5.7318153616704315
1769245326196,132,4,4.812427121506742,6.24595803097467,6.3418859829942535
1769245326200,133,5,5.3525594522532485,6.80967445715356,6.88248186470485
1769245326204,133,5,5.84592377139671,7.39040958343527,7.376570980808572
1769245326208,134,6,6.314402863570364,7.79266354601743,7.846137847845487
1769245326212,134,6,6.76261650737323,8.200905141563496,8.295412063300795
1769245326216,135,7,7.187194951057305,8.96939369817282,8.720517246647315
1769245326220,135,7,7.589810187793437,9.069567608415207,9.123160579028792
1769245326224,135,7,7.96781739208785,9.171592775155633,9.501230077191895
1769245326228,136,8,8.290004024857346,9.982848848012328,9.823729733039077
1769245326232,136,8,8.495277711251319,10.033519368808292,10.029203821294873
1769245326236,136,8,8.530737382556204,10.142170154165187,10.064660360067071
1769245326240,136,8,8.396114440289889,9.893669197042383,9.930529971830191
1769245326244,135,7,8.152904401118164,9.37307223472984,9.688870594938738
1769245326248,136,8,7.895902866435176,9.75430111110884,9.433865804819634
1769245326252,135,7,7.711769336154009,9.29773939357478,9.250970685054307
1769245326256,135,7,7.6379560726311855,8.866292308460327,9.177219784152088
1769245326260,135,7,7.629167761228723,9.187230115227456,9.167846416023048
1769245326264,135,7,7.557246834324393,9.096103283883505,9.09528771351278
1769245326268,135,7,7.26536429242149,8.985560872027296,8.803136018464219
1769245326272,134,6,6.648528158552925,8.149669379999217,8.186981567319016
1769245326276,133,5,5.702030583686403,6.926878222693269,7.242384946235145
1769245326280,132,4,4.511803459951059,6.230747125818761,6.054392770383634
1769245326284,131,3,3.2074988200611623,4.966993608525887,4.751254001024264
1769245326288,129,1,1.9047216278284969,3.1835675941145105,3.4483384517361255
1769245326292,128,0,0.6538914167154903,1.9258339218079152,2.197175157039686
1769245326296,127,-1,-0.5730228362695104,1.1714710265510555,0.9705782774556811
1769245326300,126,-2,-1.8327431507925944,-0.0081301106213262,-0.2884037154579277
1769245326304,124,-4,-3.133150884630803,-1.7972762962051605,-1.5880620549269835
1769245326308,123,-5,-4.404186604943654,-3.041290264380499,-2.8582634318719995
1769245326312,122,-6,-5.543960881359498,-3.847623054969964,-3.9970367474912663
1769245326316,121,-7,-6.487460757524043,-5.0497695653841115,-4.93961722865545
1769245326320,120,-8,-7.232898969066433,-5.773199570273078,-5.684389789437234
1769245326324,120,-8,-7.812151009189641,-6.029964327723947,-6.263038492709918
1769245326328,119,-9,-8.241520604142229,-6.803152089561418,-6.691609454336836
1769245326332,119,-9,-8.499736299168282,-7.088398867813351,-6.948884968079899
1769245326336,119,-9,-8.552338969993116,-6.796699213219563,-7.000665039471762
1769245326340,119,-9,-8.40100491147128,-7.020762910372977,-6.848661628302357
1769245326344,119,-9,-8.114626272529897,-6.780631545078616,-6.561592100923823
1769245326348,120,-8,-7.808385747971147,-6.030053373930824,-6.254728650574354
1769245326352,120,-8,-7.5759983708812415,-5.898182221659755,-6.022008712719684
1769245326356,120,-8,-7.4294221382717245,-5.929272956730985,-5.87496382709926
1769245326360,120,-8,-7.305627613455795,-5.9415280901294665,-5.749667276983823
1769245326364,120,-8,-7.134428908383049,-5.790358343445427,-5.576045940067648
1769245326368,121,-7,-6.8949856839320205,-5.082572211585972,-5.334886295459417
1769245326372,121,-7,-6.610393522130608,-4.778314857227869,-5.050518847456481
1769245326376,121,-7,-6.311545274409682,-5.091953396333344,-4.752763805363625
1769245326380,121,-7,-6.026331546444881,-4.740703047332959,-4.46727179063255
1769245326384,122,-6,-5.788392204830747,-4.000874440108008,-4.227150452370237
1769245326388,122,-6,-5.619612885999016,-3.885635675382131,-4.05597623768544
1769245326392,122,-6,-5.492728404778384,-3.924743302027037,-3.9279564235545577
1769245326396,122,-6,-5.33589563954674,-3.9910092237494026,-3.77078528510045
1769245326400,122,-6,-5.098238935122591,-3.785085485832341,-3.532391024596543
1769245326404,123,-5,-4.808671721184824,-3.0101556169139134,-3.241624998377484
1769245326408,123,-5,-4.557313104305324,-2.8235818943274316,-2.989420852071576
1769245326412,123,-5,-4.418207446314222,-3.005484904005106,-2.84993364887178
1769245326416,123,-5,-4.3950692612352515,-2.8872004179387427,-2.826014483933769
1769245326420,123,-5,-4.434707676498814,-2.8996290768646378,-2.8639346497677893
1769245326424,123,-5,-4.477761459013465,-2.906193893658964,-2.9049091115490873
1769245326428,123,-5,-4.494331885900003,-2.893537605657208,-2.919994939597429
1769245326432,123,-5,-4.485857926215983,-2.9457733482112514,-2.9108833211865255
1769245326436,123,-5,-4.4684884824417495,-2.918657679613811,-2.893152286839909
1769245326440,123,-5,-4.457449577159544,-2.895693904181716,-2.8813529692495647
1769245326444,123,-5,-4.45938878067972,-2.8985129848593503,-2.8819485698391474
1769245326448,123,-5,-4.471100426142497,-2.894607746974577,-2.89200085787904
1769245326452,123,-5,-4.482740708460648,-2.925770944553045,-2.9020055944067953
1769245326456,123,-5,-4.484519824179665,-2.9382973456005756,-2.9023510380073194
1769245326460,123,-5,-4.473950789052127,-2.8827953035931264,-2.890590721882973
1769245326464,123,-5,-4.459103385376903,-2.9104430968257993,-2.874777265427427
1769245326468,123,-5,-4.454953678567673,-2.877279268711558,-2.86981329020104
1769245326472,123,-5,-4.473195118407082,-2.9104643228013796,-2.887235092530853
1769245326476,123,-5,-4.508531031902805,-2.978386216229731,-2.921503178618034
1769245326480,123,-5,-4.527467285464857,-2.8183453520705544,-2.938836942856644
1769245326484,123,-5,-4.4684782064759405,-3.006498216990837,-2.87757423462311
1769245326488,123,-5,-4.2593315815520985,-2.74682125884585,-2.665823992874449
1769245326492,124,-4,-3.847214058285876,-2.0293621430909856,-2.251615223317377
1769245326496,124,-4,-3.2297987544009295,-1.8697679325906031,-1.633360432746691
1769245326500,125,-3,-2.4743910441235095,-0.9088413127617732,-0.8782418795529492
1769245326504,126,-2,-1.7114464605900477,0.0516688477394842,-0.1156021200518075
1769245326508,126,-2,-1.0926057852589293,0.2376150974500182,0.5042360497843514
1769245326512,127,-1,-0.7212164773684613,0.9707044530533098,0.8782450482409707
1769245326516,127,-1,-0.5875062203641903,1.1609718098090531,1.0151059747269835
