timestamp_ms,ecg_u8_raw,ecg_counts_raw_int,ecg_counts_filt_monitor,ecg_counts_filt_diagnostic,ecg_counts_filt_st
1769234661424,120,-8,-1.707137309395928,-7.781828166078061,-7.919570672953084
1769234661428,120,-8,-1.3675170261794043,-7.464156566068798,-7.625208135238638
1769234661432,121,-7,-0.9961306857881178,-7.0698017958627055,-7.300995024410838
1769234661436,120,-8,-0.5385340563304297,-7.478042709394019,-6.891685712549203
1769234661440,121,-7,0.0178717350654524,-6.621528893551984,-6.381844223338003
1769234661444,122,-6,0.570317137585385,-5.673686904052776,-5.8725709145660865
1769234661448,122,-6,0.9614723217325782,-5.572362447947339,-5.522351144765292
1769234661452,123,-5,1.1376699884308037,-4.94879803754655,-5.387331633193257
1769234661456,122,-6,1.2371051252877845,-5.595223467062128,-5.330497695827497
1769234661460,122,-6,1.4887862774251843,-5.490157929526213,-5.121775117256503
1769234661464,123,-5,1.993456194505024,-4.785229245927923,-4.658613192502344
1769234661468,123,-5,2.5966275704906203,-4.448387045913991,-4.095112861816631
1769234661472,125,-3,2.9975025416834837,-3.060167969545634,-3.733344134754657
1769234661476,124,-4,3.0117035726323578,-3.468987219651267,-3.7585226846943063
1769234661480,123,-5,2.741299298724611,-4.619019341816485,-4.067389843333924
1769234661484,123,-5,2.4867726214237655,-4.6421769850989225,-4.357715155697559
1769234661488,123,-5,2.492450474133149,-4.5751288603619855,-4.385617802759796
1769234661492,124,-4,2.7728477050888194,-3.927619048328969,-4.13925120822697
1769234661496,124,-4,3.159534324496208,-3.5545244073997617,-3.7888578737449783
1769234661500,124,-4,3.478091398119936,-3.548281128220852,-3.5075405705557485
1769234661504,124,-4,3.667102879302071,-3.7033253370438,-3.353712846877182
1769234661508,124,-4,3.757845580863928,-3.506262774547815,-3.294702820961433
1769234661512,125,-3,3.78926976141036,-2.990241988666323,-3.292838915446431
1769234661516,124,-4,3.765884046626754,-3.444890318400277,-3.3455597992005557
1769234661520,124,-4,3.6809395620658902,-3.65841598879304,-3.460325316129414
1769234661524,124,-4,3.554862561259793,-3.597014923694666,-3.616474398256991
1769234661528,124,-4,3.442528296456171,-3.598654714526146,-3.758732935191533
1769234661532,124,-4,3.39757883546482,-3.897078790874734,-3.8326373490443015
1769234661536,123,-5,3.4154836970515055,-4.478349182653467,-3.841661451834038
1769234661540,124,-4,3.411157709182606,-3.642799207248592,-3.871036366701357
1769234661544,124,-4,3.2773077525942877,-3.5927249004918704,-4.029698101794746
1769234661548,123,-5,2.9828642809293373,-4.6188261668690505,-4.349749639685976
1769234661552,123,-5,2.6017981528579224,-4.843252251162584,-4.756035533130606
1769234661556,122,-6,2.2276516909713955,-5.503822250021418,-5.153096825883264
1769234661560,122,-6,1.8650843980789704,-5.626453121588769,-5.536265173918968
1769234661564,122,-6,1.420845783192252,-5.576923768731825,-6.000861468239852
1769234661568,121,-7,0.7995340902222889,-6.661659021061562,-6.643908739795278
1769234661572,120,-8,-0.0101386066071668,-7.745835100029567,-7.47592344535609
1769234661576,119,-9,-0.9504275196684135,-8.60851007719685,-8.436940756127676
1769234661580,118,-10,-1.9743239120499665,-9.49964125279604,-9.478677799118094
1769234661584,117,-11,-3.080803114652906,-10.70302071166258,-10.600834351451704
1769234661588,116,-12,-4.259671340382177,-11.52854188890825,-11.79490821648425
1769234661592,115,-13,-5.415532016316307,-12.831430375882174,-12.966526838401265
1769234661596,113,-15,-6.375206499084031,-14.556124616012616,-13.942317353987844
1769234661600,113,-15,-6.997132728506735,-14.480155929155016,-14.57994597873996
1769234661604,113,-15,-7.287231730861222,-14.788964154250063,-14.884591782758864
1769234661608,112,-16,-7.409194425843446,-15.357072871293624,-15.019438176882309
1769234661612,113,-15,-7.569636108950102,-15.022581587998786,-15.191304541369968
1769234661616,112,-16,-7.862963141238677,-15.342720673382374,-15.495651558893618
1769234661620,112,-16,-8.199154020442474,-15.675719300991451,-15.843070231133666
1769234661624,111,-17,-8.384635669589537,-16.631746815928953,-16.038985281399903
1769234661628,111,-17,-8.295610712721835,-16.431382917596117,-15.958221672164123
1769234661632,113,-15,-7.979137903784579,-14.99445690470198,-15.648243594796751
1769234661636,112,-16,-7.57857665741906,-15.281430272607729,-15.254278611760236
1769234661640,113,-15,-7.171721744886401,-14.799215180024092,-14.855009095588144
1769234661644,113,-15,-6.709236651632326,-14.456442244244052,-14.39999717449445
1769234661648,113,-15,-6.121606035154023,-14.61968226883821,-13.818286315147487
1769234661652,115,-13,-5.466616027429358,-12.800865956204865,-13.1676038531403
1769234661656,115,-13,-4.942911049756756,-12.376516519321973,-12.647402450143533
1769234661660,115,-13,-4.741793686157559,-12.820425635672247,-12.449126974706695
1769234661664,115,-13,-4.876699499086772,-12.283163810663437,-12.585629433030151
1769234661668,115,-13,-5.146654483493087,-12.94164908319861,-12.855795530997964
1769234661672,114,-14,-5.267993254567387,-13.343828818071772,-12.976644548336084
1769234661676,115,-13,-5.072919738350243,-12.851652516475507,-12.781171369742804
1769234661680,115,-13,-4.62233308186932,-12.34722406398684,-12.330501350486632
1769234661684,116,-12,-4.147411403828215,-11.684652604802546,-11.855398133077005
1769234661688,116,-12,-3.8721683281953463,-11.642029208009538,-11.579148547454448
1769234661692,116,-12,-3.861418296163467,-11.51086707351201,-11.56589861114522
1769234661696,116,-12,-4.006649140712524,-11.766233780446612,-11.706720232313163
1769234661700,115,-13,-4.141042327617569,-12.336417498449991,-11.834886058675758
1769234661704,116,-12,-4.169342544101125,-11.74855671619276,-11.856079460822118
1769234661708,116,-12,-4.098990657271141,-11.537174756455364,-11.779119809821989
1769234661712,116,-12,-3.9686660952980146,-11.610004662203048,-11.64317317595312
1769234661716,116,-12,-3.7772242070642656,-11.632267593239051,-11.446047071982258
1769234661720,116,-12,-3.498965942053847,-11.475741869329584,-11.160598228421508
1769234661724,117,-11,-3.1563288539764085,-10.588381777787724,-10.808922948037935
1769234661728,117,-11,-2.8519221003123465,-10.716980279846853,-10.49444446344434
1769234661732,117,-11,-2.7103399377313364,-10.365205525827411,-10.34259362544334
1769234661736,118,-10,-2.777847788501187,-9.899417214680224,-10.39959177420392
1769234661740,116,-12,-2.973407195143624,-11.155458186550764,-10.583664862775551
1769234661744,117,-11,-3.138808092849604,-10.963717759280902,-10.736237633078147
1769234661748,117,-11,-3.143331217019298,-10.276450059863295,-10.727161329903604
1769234661752,117,-11,-2.955804650584873,-10.817217055009484,-10.525963679974163
1769234661756,117,-11,-2.6424931232298334,-10.403564423318066,-10.198915523835351
1769234661760,118,-10,-2.3126089104618544,-9.62718546935199,-9.854971087638985
1769234661764,118,-10,-2.055509417503098,-9.555742396480648,-9.5834480979868
1769234661768,118,-10,-1.9100481906298312,-9.592818449897218,-9.4228976411873
1769234661772,118,-10,-1.882314022649168,-9.5555326392253,-9.37867999677999
1769234661776,118,-10,-1.9785957331548296,-9.568214646850302,-9.45688018802998
1769234661780,118,-10,-2.19897156063227,-9.509022571246613,-9.658408809281024
1769234661784,118,-10,-2.490293023041275,-9.648757130262345,-9.930926134866786
1769234661788,117,-11,-2.7268026106315335,-10.497953236020733,-10.148428563759532
1769234661792,117,-11,-2.770142882982098,-10.618324152168729,-10.17202399584782
1769234661796,118,-10,-2.5659478614837186,-9.49102312493778,-9.947727915931328
1769234661800,118,-10,-2.186223814576099,-9.551506714445209,-9.548238251049092
1769234661804,118,-10,-1.7854928328350046,-9.655516657493656,-9.12768047636675
1769234661808,119,-9,-1.5149602005080285,-8.408660126469023,-8.836000510448706
1769234661812,119,-9,-1.451625807118586,-8.762761576966467,-8.749528853816027
1769234661816,118,-10,-1.5757906995337918,-9.268772573459614,-8.849218257553808
1769234661820,119,-9,-1.8038970388900184,-8.782633667933165,-9.052974284384868
1769234661824,118,-10,-2.0512664118064152,-9.446237991841526,-9.277129502531254
1769234661828,118,-10,-2.2817401088209195,-9.54821788312972,-9.484945199234147
1769234661832,118,-10,-2.5152884140085785,-9.67527346390056,-9.694584956758415
1769234661836,117,-11,-2.7890791007482214,-10.251255070990528,-9.942162522689571
1769234661840,118,-10,-3.0917588454735156,-9.872404979752648,-10.21734542811478
1769234661844,117,-11,-3.3214239413465085,-10.28021126298342,-10.420046454728602
1769234661848,117,-11,-3.32603290361675,-10.76495408821027,-10.39852273530683
1769234661852,117,-11,-3.0233247055219894,-10.388702978813113,-10.069216867720709
1769234661856,118,-10,-2.4984404152549415,-9.539447069205847,-9.51656930257642
1769234661860,119,-9,-1.9660396494850392,-8.57504704445456,-8.956168660179443
1769234661864,119,-9,-1.6114533852965065,-8.546505874786334,-8.574204295216255
1769234661868,119,-9,-1.4588297402642132,-8.531209176863364,-8.393837360891746
1769234661872,119,-9,-1.389418948201952,-8.557335738779454,-8.294444016320961
1769234661876,119,-9,-1.2748144907923318,-8.405630898739645,-8.147448418170526
1769234661880,120,-8,-1.0812038809017526,-7.6410025861607345,-7.921331534378245
1769234661884,120,-8,-0.8567435365434077,-7.512343220720448,-7.66666987410117
1769234661888,120,-8,-0.6545151174401753,-7.512770920179448,-7.4363591287845106
1769234661892,120,-8,-0.4980301658612198,-7.601756455104186,-7.2513342564613374
1769234661896,120,-8,-0.4119951245556494,-7.317092014428677,-7.134130174028517
1769234661900,121,-7,-0.4428238831588147,-6.740140212942563,-7.131282250554947
1769234661904,120,-8,-0.6131307783664433,-7.368222573123631,-7.267050473730476
1769234661908,120,-8,-0.854826294742437,-7.668767199443047,-7.474847367628058
1769234661912,120,-8,-1.0076416242807582,-7.413472444487059,-7.594953763057172
1769234661916,120,-8,-0.9100438405499924,-7.52324488993942,-7.46526369750697
1769234661920,120,-8,-0.52286332041805,-7.481574530027129,-7.045342883633962
1769234661924,121,-7,0.0158738000950999,-6.636895510997111,-6.4726315321271235
1769234661928,122,-6,0.4707757577488785,-5.3515991089846455,-5.983401165959555
1769234661932,122,-6,0.6759835038129869,-5.757497856215314,-5.744487706349699
1769234661936,121,-7,0.6430434205280195,-6.152464851152856,-5.743733175209541
1769234661940,122,-6,0.5111185094668085,-5.834023310094651,-5.840517770138837
1769234661944,121,-7,0.4047655068305733,-6.29522589995668,-5.9101536266432095
1769234661948,122,-6,0.3531790462721209,-5.6204143215192035,-5.92498372766327
1769234661952,122,-6,0.3363244082534422,-5.54031855519226,-5.906222065409846
1769234661956,121,-7,0.3733235373594938,-6.291625968744131,-5.8341078045657255
1769234661960,122,-6,0.5343167397350685,-5.750211595503991,-5.637286347103986
1769234661964,122,-6,0.8640419687970406,-5.306413105876463,-5.2712070498297825
1769234661968,123,-5,1.3088504349654209,-4.635208005337316,-4.790668559687582
1769234661972,123,-5,1.723312138351956,-4.47011265553493,-4.341105151285805
1769234661976,123,-5,1.9497210099830025,-4.37241318482868,-4.078723535048008
1769234661980,124,-4,1.916144918116293,-3.6663758523488896,-4.074366569170931
1769234661984,123,-5,1.6953538161927213,-4.357435098474937,-4.255912477018736
1769234661988,123,-5,1.478329277147746,-4.5993200279860895,-4.433983203091014
1769234661992,123,-5,1.458272602672131,-4.432927336554448,-4.416478258736293
1769234661996,123,-5,1.6942425472996048,-4.45298689439192,-4.144336638043864
1769234662000,124,-4,2.0587229358898984,-3.5377370208117465,-3.744228135172151
1769234662004,124,-4,2.3182330172696695,-3.4869475316886014,-3.4485376615684085
1769234662008,124,-4,2.2926720421393805,-3.46064841745996,-3.436636025228438
1769234662012,124,-4,1.977442406695903,-3.5135781521085208,-3.71307159546902
1769234662016,123,-5,1.541122295177398,-4.4305453344108585,-4.109751422501679
1769234662020,123,-5,1.205531287722839,-4.4830308657729185,-4.405621191974973
1769234662024,123,-5,1.1031373221514649,-4.588003599548597,-4.469146447203702
1769234662028,123,-5,1.218295367304834,-4.276637606201827,-4.316667628797692
1769234662032,124,-4,1.440012911170257,-3.719480141768897,-4.058813627905703
1769234662036,123,-5,1.657712303632133,-4.188188016274784,-3.8046140500355783
1769234662040,124,-4,1.814218403156807,-3.7500116354353943,-3.6098784666407417
1769234662044,124,-4,1.898277989172708,-3.284430301432674,-3.486141138676861
1769234662048,124,-4,1.9191163641160032,-3.5656262393986387,-3.425711400358689
1769234662052,124,-4,1.8948906712588585,-3.4095839598466093,-3.411482420936821
1769234662056,124,-4,1.8488409426150576,-3.468037002799559,-3.419900207932778
1769234662060,124,-4,1.8008788247430818,-3.51844851418497,-3.430104565395139
1769234662064,124,-4,1.7593402922053636,-3.4354072882262106,-3.433316807395266
1769234662068,124,-4,1.7225632908935995,-3.455002909976555,-3.4315781167166066
1769234662072,124,-4,1.6881254073094856,-3.4316657717035945,-3.4279149719701496
1769234662076,124,-4,1.6576557220208723,-3.4914693407927957,-3.4207905691421305
1769234662080,124,-4,1.630909972292334,-3.464827900375881,-3.409921010710436
1769234662084,124,-4,1.598320525585069,-3.484318025597201,-3.4043191118461777
1769234662088,124,-4,1.5468039000868954,-3.385874324893554,-3.4171461350672385
1769234662092,124,-4,1.4789176871468577,-3.444600485512195,-3.4465692992552066
1769234662096,124,-4,1.4249624334093247,-3.5255620005049235,-3.4629522311896164
1769234662100,124,-4,1.4271117316988264,-3.365390435211886,-3.423998753900562
1769234662104,124,-4,1.5019293008882189,-3.640849780125915,-3.312326785208686
1769234662108,124,-4,1.6183453235506924,-3.133767428631426,-3.158359742451363
1769234662112,125,-3,1.7236944546970985,-2.7149038892664983,-3.0149394473274365
1769234662116,124,-4,1.8029194174547631,-3.233249568038036,-2.897893762055222
1769234662120,125,-3,1.9140495857858184,-2.651561677873988,-2.74980165489421
1769234662124,125,-3,2.158448683992559,-2.365073644351623,-2.4690892865504455
1769234662128,125,-3,2.603087683639713,-2.353509451523632,-1.987845130513464
1769234662132,126,-2,3.2199008545632526,-1.4831388810461203,-1.3336649431783143
1769234662136,127,-1,3.904391104669313,-0.4549090688010777,-0.6120233115593146
1769234662140,128,0,4.56688368114764,0.5776422125627709,0.0861897013769568
1769234662144,128,0,5.202457189871756,0.4025098528185316,0.7567437180084942
1769234662148,128,0,5.852412388887401,0.918108493169898,1.4429912322296228
1769234662152,130,2,6.497341467660151,2.2731497836918315,2.1257982919157588
1769234662156,130,2,7.015074316180522,2.768226901417406,2.680459078904646
1769234662160,131,3,7.2583676907657635,3.415481573885304,2.9575994718798295
1769234662164,130,2,7.15616912945765,2.504068672286914,2.88760898227765
1769234662168,129,1,6.725554117291921,1.9184576866906191,2.4910347296288675
1769234662172,130,2,6.014462077108759,2.211449351707355,1.8169858982434128
1769234662176,128,0,5.082051604262523,0.911406942884314,0.9222161527194892
1769234662180,128,0,4.043387404762142,0.2317274914825866,-0.0809713447590365
1769234662184,126,-2,3.0853022638954704,-1.253095890784589,-1.0057955414845765
1769234662188,125,-3,2.3821265819490547,-2.3393043628693357,-1.6761168611346076
1769234662192,126,-2,1.9765434768009589,-1.5055420187548207,-2.0483295590123927
1769234662196,125,-3,1.7534603014906651,-2.3326038237729065,-2.2381109519376805
1769234662200,125,-3,1.5404734052324756,-2.557061157600196,-2.418315236221742
1769234662204,125,-3,1.240599181202659,-2.3683339375425843,-2.68527628418251
1769234662208,124,-4,0.8843518730156514,-3.320283497503721,-3.0076517194488
1769234662212,124,-4,0.5731672934020042,-3.4126240398609275,-3.284367925123252
1769234662216,124,-4,0.3781008797837364,-3.483936550774436,-3.446003209731637
1769234662220,124,-4,0.281651970388022,-3.327586031441726,-3.511376752054238
1769234662224,124,-4,0.1973041614432076,-3.6102442338807754,-3.5663280724734565
1769234662228,123,-5,0.0342334852675452,-4.066715368500503,-3.6994342834466303
1769234662232,124,-4,-0.2399066132367671,-3.649908638883554,-3.941524305236429
1769234662236,123,-5,-0.5638636823325855,-4.239987007421403,-4.2319664154192616
1769234662240,123,-5,-0.7947997993114972,-4.53171503524542,-4.429721625520314
1769234662244,123,-5,-0.7825045647188977,-4.398878292524849,-4.385747658830862
1769234662248,123,-5,-0.4810518820748224,-4.269755408428382,-4.0539574745360305
1769234662252,124,-4,-0.025791929739837,-3.4334377605785353,-3.56896667110916
1769234662256,124,-4,0.2940616245308773,-3.4409979223376768,-3.220072673335048
1769234662260,124,-4,0.1796630190933226,-3.295805054617556,-3.3076199421635404
1769234662264,124,-4,-0.4753784258624614,-3.632717044518405,-3.939291197805104
1769234662268,122,-6,-1.4269329444924974,-5.028857754365024,-4.86898468827213
1769234662272,122,-6,-2.050221709198161,-5.6667783443236734,-5.466007924105201
1769234662276,122,-6,-1.4444227825778744,-5.185431829469667,-4.824014495316447
1769234662280,126,-2,1.3815484402145253,-1.506580774390244,-1.9528458538839024
1769234662284,132,4,7.2566060524961316,4.590393775530923,3.967706612085375
1769234662288,140,12,16.467931169553545,12.781022387544674,13.213690971717469
1769234662292,152,24,28.266653834560348,24.513015135978844,25.03010358471397
1769234662296,164,36,40.523693527495695,36.67281900502145,37.29074969477508
1769234662300,174,46,49.96752767967989,46.62400927719229,46.73479996468721
1769234662304,178,50,53.22233618585827,50.49705300980847,49.999596583775144
1769234662308,173,45,48.3193587037685,45.80907910220247,45.12515117600188
1769234662312,161,33,35.87759033556531,33.510594691396385,32.7300861802871
1769234662316,143,15,19.16218801372986,15.60092887733615,16.070079383589047
1769234662320,126,-2,2.8212727954235906,-1.1772970424254636,-0.2207765741960785
1769234662324,115,-13,-9.08001076138938,-12.725926341607927,-12.08921686397717
1769234662328,109,-19,-14.649315871811764,-17.801313131597432,-17.646539358404354
1769234662332,111,-17,-14.556363389328222,-16.929349676021065,-17.555403811235163
1769234662336,113,-15,-11.17266696473914,-13.873204848714051,-14.173044708767211
1769234662340,118,-10,-7.130973933730551,-9.75691053629332,-10.118984252608524
1769234662344,120,-8,-4.1675263410904,-7.1396203320775715,-7.125122867793466
1769234662348,121,-7,-2.753121408261973,-6.374280182479001,-5.668871172792275
1769234662352,122,-6,-2.4504455407969292,-5.393956442005206,-5.325524868331859
1769234662356,122,-6,-2.557108780755849,-5.3226531256412954,-5.402666810160733
1769234662360,122,-6,-2.5935012262314823,-5.364146702843266,-5.421754786774596
1769234662364,122,-6,-2.4514554169504637,-5.426429840152396,-5.267691065124415
1769234662368,122,-6,-2.27054606776586,-5.149146434539829,-5.072037757226517
1769234662372,123,-5,-2.2135421621399427,-4.543962122644305,-4.994549480389638
1769234662376,122,-6,-2.305359994709966,-5.206012597370003,-5.062241374112489
1769234662380,122,-6,-2.4310179333632305,-5.422432075099732,-5.163489144735506
1769234662384,122,-6,-2.4660269744806773,-5.381356985524368,-5.175746778060253
1769234662388,122,-6,-2.402110522190378,-5.1582859119031435,-5.091258302643618
1769234662392,123,-5,-2.344598304463932,-4.540913593590665,-5.0149569420532005
1769234662396,122,-6,-2.3960964969699723,-5.16452330115911,-5.048159050544023
1769234662400,122,-6,-2.553889361817876,-5.470933204041349,-5.186700960467726
1769234662404,122,-6,-2.715422129776967,-5.29670736572641,-5.327836841899052
1769234662408,122,-6,-2.766892958625971,-5.262482835519733,-5.35894744384469
1769234662412,122,-6,-2.6663534623986234,-5.381357271251642,-5.239139481680468
1769234662416,122,-6,-2.460974002279246,-5.337606019463391,-5.0155481455071005
1769234662420,123,-5,-2.2356361988328857,-4.233841373418629,-4.772411849679523
1769234662424,123,-5,-2.0382110633728736,-4.579964983120093,-4.5570020818688874
1769234662428,122,-6,-1.8484386261168624,-4.916327728705804,-4.348818083821897
1769234662432,124,-4,-1.6184725450827795,-3.7543123426605503,-4.100485501189022
1769234662436,123,-5,-1.3389598878678537,-3.9031216339515455,-3.803573782287434
1769234662440,124,-4,-1.063573976167195,-3.6764563336196625,-3.511961689979086
1769234662444,124,-4,-0.874579733447082,-3.1106087172936028,-3.3068454488054244
1769234662448,124,-4,-0.8224896243756095,-3.378575399194797,-3.2374786555950585
1769234662452,124,-4,-0.883939708377611,-3.293481514262442,-3.280594841259087
1769234662456,124,-4,-0.966494015373335,-3.3032779476973753,-3.345364692238048
1769234662460,124,-4,-0.9629784564924724,-3.301734188691332,-3.3261264940715893
1769234662464,124,-4,-0.8281053144887531,-3.4308543207164974,-3.1773262712372308
1769234662468,124,-4,-0.6248618806477833,-3.0752798202238836,-2.9600980513829733
1769234662472,125,-3,-0.4900851639824948,-2.576882437224601,-2.809739108177804
1769234662476,124,-4,-0.5222583238268208,-2.9717801601354994,-2.82498491681068
1769234662480,125,-3,-0.6732081861449295,-2.659726711878595,-2.9592082550051444
1769234662484,124,-4,-0.7494076372197966,-3.0034956058928586,-3.019966352449055
1769234662488,124,-4,-0.5498523239434521,-3.5547727698872627,-2.806000366148135
1769234662492,125,-3,-0.0379407798262763,-2.03988274080543,-2.2800053975914674
1769234662496,126,-2,0.6088015054690703,-1.4751729727102072,-1.619434974689388
1769234662500,126,-2,1.1271969433049844,-1.1904645001913818,-1.087716233252446
1769234662504,127,-1,1.3639307835550092,-0.3572580395888085,-0.8377990616273328
1769234662508,126,-2,1.3667328356693282,-1.3346016389887323,-0.8210384882065482
1769234662512,126,-2,1.305581507056324,-1.1237788024734314,-0.8670883570960206
1769234662516,127,-1,1.3153546620290415,-0.447141347733794,-0.841914417226284
1769234662520,126,-2,1.4053530954649276,-1.1497864608780832,-0.7376039145991726
1769234662524,127,-1,1.4959870462195104,-0.3762911418474683,-0.6344725328564527
1769234662528,127,-1,1.5210315088201027,-0.3521755725149837,-0.5981959281215223
1769234662532,126,-2,1.4886594419413872,-1.0493115777245112,-0.6190662957542117
1769234662536,127,-1,1.450622135787015,-0.5489655024416664,-0.6439755325531913
1769234662540,126,-2,1.4283590760970335,-0.9551139998470916,-0.6517342885261483
1769234662544,127,-1,1.389991786765182,-0.6201792897259422,-0.6761285155687877
1769234662548,127,-1,1.30842669745567,-0.0489786845592417,-0.745733807902424
1769234662552,126,-2,1.225328226688433,-1.371339917888066,-0.817966359133824
1769234662556,126,-2,1.232134710916284,-1.225185180295611,-0.7991260713361115
1769234662560,127,-1,1.384800593111498,-0.167731047760306,-0.6326818817414837
1769234662564,127,-1,1.6535918692427267,-0.5211286664866992,-0.3503318766382004
1769234662568,127,-1,1.9581947423185193,0.0095167270919438,-0.0344405957995159
1769234662572,128,0,2.23266356289868,0.4529942824644648,0.2494379832006376
1769234662576,127,-1,2.445811408098912,0.0454095920509058,0.4726299966312717
1769234662580,128,0,2.5753905238871595,0.5671654880621038,0.6148190313710752
1769234662584,128,0,2.5963066681473648,0.7347183944423824,0.6501023664033223
1769234662588,128,0,2.5177113646759324,0.8224626356312914,0.5849383044751222
1769234662592,128,0,2.419885978896631,0.5889272760178135,0.4980292570513706
1769234662596,127,-1,2.4128619437168517,-0.0219196536787037,0.5005339845382214
1769234662600,128,0,2.5248259485827513,0.6222390222529972,0.622842836559395
1769234662604,128,0,2.6334190187668436,0.7178762521439076,0.7432740607117245
1769234662608,128,0,2.533560174717852,0.8498844201062754,0.6555079814422422
1769234662612,128,0,2.0950996093531615,0.5785841673502579,0.2281409114928063
1769234662616,126,-2,1.3610575564035403,-1.0064871331529197,-0.4955476598944279
1769234662620,126,-2,0.4937521995614162,-1.3700382540436036,-1.3520448126260671
1769234662624,125,-3,-0.3690056291513119,-2.2769519103889815,-2.202966972147612
1769234662628,124,-4,-1.2021586538132434,-3.127792128330466,-3.023837306009163
1769234662632,124,-4,-2.051137209749511,-3.423348931096953,-3.86104706026332
1769234662636,122,-6,-2.9217042748226367,-4.990539882451653,-4.720781661546493
1769234662640,122,-6,-3.727079650021783,-5.385943270841502,-5.515897779044948
1769234662644,121,-7,-4.352968886143753,-6.221401144978724,-6.1313856108461335
1769234662648,120,-8,-4.777828295943005,-7.191301786108612,-6.545379118748369
1769234662652,121,-7,-5.121047351594473,-6.3045440607968875,-6.877645259947105
1769234662656,120,-8,-5.554119371836507,-7.1140561241796245,-7.300052546910361
1769234662660,119,-9,-6.147514086852946,-8.252028667186702,-7.882643152589681
1769234662664,119,-9,-6.795022997453988,-8.328291444645828,-8.518436862444336
1769234662668,118,-10,-7.283085947821151,-9.08205638116248,-8.993858091509747
1769234662672,118,-10,-7.443862458137471,-9.38559502970153,-9.14202298794958
1769234662676,118,-10,-7.271367255817275,-8.9942654504475,-8.958190674565738
1769234662680,119,-9,-6.918584016741201,-8.389076377556574,-8.59598754401896
1769234662684,119,-9,-6.588949361040381,-8.145411931098781,-8.258082010512178
1769234662688,119,-9,-6.415980566512995,-8.273529760318414,-8.075838160057284
1769234662692,119,-9,-6.4180471422573,-8.166985284938011,-8.065687792589355
1769234662696,119,-9,-6.53135361299578,-8.184387500279804,-8.164156580814678
1769234662700,119,-9,-6.661566956140599,-8.209297126792194,-8.279681755538551
1769234662704,119,-9,-6.715127783164696,-8.271965994229276,-8.321603370907514
1769234662708,119,-9,-6.626172562576737,-8.170353268704092,-8.224279002210844
1769234662712,119,-9,-6.40119009873444,-8.206580396522813,-7.991349460657001
1769234662716,119,-9,-6.150162195451819,-8.169995445468693,-7.729679021558418
1769234662720,120,-8,-6.037119165871389,-7.174399269499793,-7.603034890475503
1769234662724,120,-8,-6.144646645928224,-7.3047848773227715,-7.696385570120096
1769234662728,119,-9,-6.366246000051914,-8.128631816347195,-7.905180185035777
1769234662732,119,-9,-6.460823153977032,-8.195582469342137,-7.988075609336901
1769234662736,119,-9,-6.25319092672204,-8.226558590745785,-7.768891531846197
1769234662740,120,-8,-5.797593477617723,-7.033610690946489,-7.301960388879365
1769234662744,121,-7,-5.34217154550239,-6.472983830176108,-6.835992472615696
1769234662748,120,-8,-5.126025821839029,-6.903743813216307,-6.60945875072886
1769234662752,121,-7,-5.192979030965962,-6.421373738898706,-6.664467242975163
1769234662756,120,-8,-5.370929860917469,-7.012220148584511,-6.828022982095812
1769234662760,120,-8,-5.409524249837874,-7.201470483204589,-6.850976877129256
1769234662764,121,-7,-5.1505994059464335,-6.309616435340727,-6.5776120286238005
1769234662768,121,-7,-4.61021090044877,-5.989026485062965,-6.0254611638095135
1769234662772,122,-6,-3.945699429392626,-5.382490645104019,-5.351044535139291
1769234662776,122,-6,-3.3644072491895805,-4.985330173222236,-4.759580787840624
1769234662780,123,-5,-3.036219642193413,-4.284358649506812,-4.419510677099888
1769234662784,123,-5,-3.037029233566616,-4.132933619779321,-4.4065691076647635
1769234662788,122,-6,-3.332975310503355,-5.1866782145969115,-4.68740045034353
1769234662792,122,-6,-3.804966502055759,-5.14206131248005,-5.143902193837815
1769234662796,122,-6,-4.292033254622442,-5.236292429188685,-5.616487194230371
1769234662800,121,-7,-4.635018286004924,-6.027458410696194,-5.946613832885624
1769234662804,121,-7,-4.72793561869168,-6.32747701037391,-6.0273174444200155
1769234662808,121,-7,-4.570830989395248,-5.997402759634446,-5.857324264094321
1769234662812,122,-6,-4.274749902497867,-5.2813451213130715,-5.547649472083335
1769234662816,122,-6,-3.988775519557348,-5.139763040486647,-5.248077675853277
1769234662820,122,-6,-3.803622366934328,-5.06411381619577,-5.049133355055342
1769234662824,122,-6,-3.7182377821124617,-5.293548631011724,-4.948922607050736
1769234662828,122,-6,-3.682735316602379,-4.991993093161383,-4.897797449108207
1769234662832,123,-5,-3.6532347557082954,-4.268298493074571,-4.853273741792956
1769234662836,122,-6,-3.610991410390546,-5.175843562738804,-4.797148326566557
1769234662840,122,-6,-3.560270763904074,-4.965793238407738,-4.7325350169249845
1769234662844,123,-5,-3.525380916876478,-4.402308997390253,-4.6826594028567525
1769234662848,122,-6,-3.534653986575671,-4.840318305936735,-4.676381499715017
1769234662852,123,-5,-3.5894584228861675,-4.4062939546740765,-4.71626171246741
1769234662856,122,-6,-3.6529414997660146,-5.046080063030353,-4.765538968080687
1769234662860,122,-6,-3.679399108756609,-5.05198425585168,-4.777415421477288
1769234662864,123,-5,-3.650154168588689,-4.319979093614238,-4.732274413255099
1769234662868,122,-6,-3.568903405507377,-4.8695102740614296,-4.633927880687375
1769234662872,123,-5,-3.4228444618579164,-4.384260718266342,-4.470552239990223
1769234662876,123,-5,-3.164950098188686,-4.043999417902478,-4.196254274864819
1769234662880,123,-5,-2.7562128707938376,-4.0416031924193305,-3.7725554939027264
1769234662884,124,-4,-2.242858990682123,-3.3249382390088296,-3.245174544736948
1769234662888,124,-4,-1.7931222156574655,-2.7953390465625443,-2.781090822662877
1769234662892,125,-3,-1.6324354706261903,-2.498102542662145,-2.604595831738115
1769234662896,124,-4,-1.89706161103399,-2.868294024799651,-2.851706752032637
1769234662900,124,-4,-2.5091830721783395,-3.2405170046031677,-3.445318372175472
1769234662904,123,-5,-3.182876286838152,-4.103252663847401,-4.100456008014188
1769234662908,122,-6,-3.582354126693998,-4.95302904005562,-4.481888026329012
1769234662912,123,-5,-3.530589585561548,-4.387200442011533,-4.412942517502895
1769234662916,123,-5,-3.111697589789312,-3.8767482962402617,-3.978172067728593
1769234662920,124,-4,-2.5902503278285116,-3.308978156794253,-3.4420646763532083
1769234662924,124,-4,-2.2228908661621145,-2.9303034214682993,-3.059916835445539
1769234662928,124,-4,-2.1148802122966153,-3.1665836179729236,-2.935030365762026
1769234662932,124,-4,-2.2085609222116793,-3.1308371049258144,-3.009027483370764
1769234662936,124,-4,-2.3657650319117827,-3.1238519100193214,-3.145249171669694
1769234662940,124,-4,-2.4512595099096472,-3.057224613154484,-3.2109354099251934
1769234662944,124,-4,-2.3713453852597364,-3.130395036181389,-3.1135368112853135
1769234662948,124,-4,-2.0880292452453064,-2.9645436205832283,-2.814070102843043
1769234662952,125,-3,-1.6341911850708204,-2.3132140694414227,-2.343643877528569
1769234662956,125,-3,-1.1157239421588447,-1.925315029944236,-1.8073725952357351
1769234662960,126,-2,-0.6732499944067221,-1.2485953921231752,-1.3463872660092733
1769234662964,126,-2,-0.4120282733192306,-0.8943479610561331,-1.0665904059748812
1769234662968,126,-2,-0.3487936826091489,-1.1917369797500774,-0.9845495776851632
1769234662972,126,-2,-0.4162799413060472,-1.0868904514672957,-1.0324890529245505
1769234662976,126,-2,-0.5146286164305769,-1.1054470558989713,-1.1107889039419705
1769234662980,126,-2,-0.5632354430086859,-1.1070330178871948,-1.1398178126224094
1769234662984,126,-2,-0.5250454091967529,-0.9194341338016412,-1.0830368214559225
1769234662988,126,-2,-0.412072027548501,-1.2391147047734616,-0.951941187535724
1769234662992,126,-2,-0.2822059538817671,-0.9465086775142328,-0.8037394134447915
1769234662996,127,-1,-0.2155331155375162,-0.3057775571235275,-0.7184316879739305
1769234663000,126,-2,-0.267531356561506,-0.834787737853719,-0.751420088373268
1769234663004,126,-2,-0.431404543999009,-1.183736138071799,-0.8953196019359184
1769234663008,126,-2,-0.6396956472684594,-0.9540366572469106,-1.0825056108171638
1769234663012,126,-2,-0.7938368981298614,-1.2084188569718095,-1.2155151949720109
1769234663016,126,-2,-0.7972567928228171,-1.0751075901808098,-1.199057936373141
1769234663020,126,-2,-0.5937040608435966,-0.96727496492357,-0.9766835354443956
1769234663024,126,-2,-0.2124861675601028,-1.1036826707592724,-0.5764347370161735
1769234663028,127,-1,0.2179466778656871,0.0646856406690914,-0.1263517276145496
1769234663032,128,0,0.5301120590430362,0.7137232447749908,0.205338524243857
1769234663036,127,-1,0.6195266239898589,0.0465630256376261,0.3140235585646418
1769234663040,127,-1,0.4976239681048402,-0.0538628780116974,0.212247866354172
1769234663044,127,-1,0.2569775168087922,-0.029217971886623,-0.0068191075691961
1769234663048,127,-1,0.0056833830273137,0.0570851656341457,-0.2361013474536528
1769234663052,127,-1,-0.1682116098046215,-0.3201563886105125,-0.3888136910961699
1769234663056,126,-2,-0.2100210624910323,-0.8550663071912517,-0.4104045799180791
1769234663060,127,-1,-0.1170277801397974,-0.158223682258134,-0.2977985824078555
1769234663064,127,-1,0.0504996874552334,0.1150821057244457,-0.1112123268483273
1769234663068,127,-1,0.1896153190001004,-0.0800913337289437,0.0468129696648067
1769234663072,127,-1,0.1980212660800773,-0.1602340127471762,0.0751566581964229
1769234663076,127,-1,0.0213134657560645,-0.0136964918654505,-0.0798282628573892
1769234663080,127,-1,-0.3047742185746214,0.0425137144030292,-0.3831331281214341
1769234663084,126,-2,-0.6409441504090065,-1.087420061806261,-0.6969921709534606
1769234663088,126,-2,-0.7957293609433784,-0.8338989171320403,-0.8308975748355707
1769234663092,127,-1,-0.633868511846353,-0.405273406260179,-0.649360719310973
1769234663096,126,-2,-0.1708012287792164,-0.7569441176396792,-0.1667635982082207
1769234663100,128,0,0.4236385856343294,0.8295940333537242,0.4479753868706646
1769234663104,128,0,0.9269568058366088,1.131283785684324,0.9722889147834346
1769234663108,128,0,1.2032982343823828,0.97140917374689,1.2694628866792563
1769234663112,129,1,1.275930564676634,1.806323354561591,1.3623038550007884
1769234663116,128,0,1.2788230809263446,1.0233313650199791,1.3855442123530377
1769234663120,128,0,1.336697011757881,1.0993863628744194,1.4650616628541269
1769234663124,129,1,1.4895274109359868,1.8701180163889377,1.6406150668784654
1769234663128,129,1,1.7331786500612778,2.2684414439429843,1.9063671284858776
1769234663132,130,2,2.114595629625053,2.511000433393124,2.3082199822641525
1769234663136,129,1,2.7420741639119486,2.3381025232653014,2.9554129006187315
1769234663140,131,3,3.665449488931764,3.8014978278442575,3.899148964902507
1769234663144,132,4,4.749221454720015,5.189123511385241,5.003745599557626
1769234663148,133,5,5.69075932627683,5.995687261468421,5.965452168306533
1769234663152,134,6,6.18761002155672,6.7635635912587935,6.48177344859699
1769234663156,133,5,6.112270735216228,6.145405324187989,6.426550051413968
1769234663160,133,5,5.56015089779907,5.931489906818117,5.896232680404758
1769234663164,132,4,4.758020214493666,5.1684793470999875,5.117033676769083
1769234663168,131,3,3.922723054653856,3.963352384016615,4.304167676536699
1769234663172,131,3,3.17024845594033,3.896637368508368,3.5724008141557553
1769234663176,130,2,2.5137686048332557,2.963743480991247,2.935039987630324
1769234663180,129,1,1.9175484904969544,2.1592132238342723,2.3575796698336253
1769234663184,129,1,1.347451991352998,1.948101593470844,1.8070829745515873
1769234663188,128,0,0.7879790828858155,1.2217966106737306,1.2683348560297776
1769234663192,128,0,0.2365447345201846,0.6513053980626018,0.7381911686636815
1769234663196,127,-1,-0.3013716157968638,0.2329016362421596,0.221373652291085
1769234663200,127,-1,-0.8058673183985323,-0.1170968657099273,-0.2625856527858101
1769234663204,126,-2,-1.2357566112754657,-0.7363675904559657,-0.6722839984702602
1769234663208,126,-2,-1.5397399093143451,-1.0720887913803487,-0.9560080899525594
1769234663212,126,-2,-1.685647013533473,-1.030454988750872,-1.0816277785683304
1769234663216,126,-2,-1.684013247839261,-1.0730159391237994,-1.0601693091465465
1769234663220,126,-2,-1.5865931896361205,-0.8044344380556401,-0.9435562058612884
1769234663224,126,-2,-1.464906183460552,-1.016140966920879,-0.8027622768795484
1769234663228,126,-2,-1.3832290405329666,-0.778971032934664,-0.7013815547528354
1769234663232,127,-1,-1.373785378302847,-0.2784148633986352,-0.6713447534422284
1769234663236,126,-2,-1.4266258816718094,-0.8512665471751295,-0.7026306965011971
1769234663240,126,-2,-1.5125308024741018,-0.9679180058548486,-0.766402374101709
1769234663244,126,-2,-1.6275434528772634,-0.8779102906735046,-0.8605389430442114
1769234663248,126,-2,-1.8062196671233088,-0.8441134800933847,-1.0225527797620653
1769234663252,126,-2,-2.0628664771731247,-1.2267635598036857,-1.2679148118565136
1769234663256,125,-3,-2.2782552887146945,-1.8647229884676169,-1.4738327843907713
1769234663260,126,-2,-2.0853304534006503,-0.9606378377600596,-1.2656710192026714
1769234663264,127,-1,-0.8119900306900028,0.1523906777555739,0.0352122483531136
1769234663268,130,2,2.448071490599412,3.1383798038070028,3.334184956747479
1769234663272,137,9,8.56037610592044,9.859695056023432,9.485936274674197
1769234663276,146,18,17.855473180867136,19.0156340518578,18.806311670809297
1769234663280,157,29,29.545644237485376,30.23982864516084,30.50060175952912
1769234663284,168,40,41.37471822837904,40.907349226211565,42.31983841954644
1769234663288,177,49,49.93114561823833,50.44980135940395,50.86832310228849
1769234663292,182,54,51.83769482549661,54.523953768152865,52.7818993418777
1769234663296,174,46,45.415634498891365,47.330574894904146,46.38582419021213
1769234663300,160,32,31.83686145276389,32.94442951148922,32.84776748369555
1769234663304,142,14,14.879450791849658,15.148217741156836,15.936125466641109
1769234663308,126,-2,-0.7140691461864535,-0.6935926454702339,0.3810929752334209
1769234663312,117,-11,-11.31333910133396,-10.312675363846594,-10.196918530168952
1769234663316,112,-16,-15.703475793598304,-14.686081840049283,-14.584553032586392
1769234663320,114,-14,-15.011563483305416,-13.044399502695947,-13.900290084235609
1769234663324,117,-11,-11.56839705264183,-9.822944798922428,-10.461296114470956
1769234663328,120,-8,-7.573554725768205,-6.788258038473929,-6.456814752778048
1769234663332,124,-4,-4.325001450252913,-3.1874139164040955,-3.1833875434711913
1769234663336,125,-3,-2.2091125739710753,-1.7870924182295356,-1.0345488472317252
1769234663340,127,-1,-1.1132682852132865,0.0620893073766436,0.0918914188284383
1769234663344,128,0,-0.7932855791026698,1.1255073122626396,0.4330434140740576
1769234663348,127,-1,-0.9886202004926256,0.1916246257051238,0.2495477548694987
1769234663352,127,-1,-1.4026777732550713,-0.0656891048473183,-0.1562044531954708
1769234663356,126,-2,-1.7441493243811,-0.9395073726740288,-0.4867849289395962
1769234663360,126,-2,-1.85549315449008,-0.7024562600889465,-0.5826860153571454
1769234663364,127,-1,-1.790671708390838,-0.1225809896820591,-0.4999746202086751
1769234663368,126,-2,-1.7359947919090426,-0.550668925928181,-0.4278074083071806
1769234663372,127,-1,-1.8296634836885208,-0.288090766690958,-0.5055046412900605
1769234663376,126,-2,-2.035473301745504,-0.7159797461932863,-0.6963998839081399
1769234663380,126,-2,-2.1748743367796703,-0.8649880806749943,-0.8211145113972277
1769234663384,126,-2,-2.0842309956056715,-0.986397739336574,-0.7155590976852718
1769234663388,126,-2,-1.7581783422199733,-0.6380945801256841,-0.3744748817919766
1769234663392,128,0,-1.351627759683775,0.7955766641071088,0.0468820730559461
1769234663396,127,-1,-1.0435481226079055,0.2448906961130486,0.3695295130941638
1769234663400,127,-1,-0.8967718406566219,0.2040274682221231,0.5307820988731354
1769234663404,128,0,-0.8412546476931233,0.921550656246508,0.6002881581340395
1769234663408,127,-1,-0.7799582594245811,0.5125875477907417,0.6745922756783622
1769234663412,128,0,-0.7108377937456654,0.6015050776493651,0.7563932649534644
1769234663416,127,-1,-0.7536521627388828,0.5605129866888984,0.7273172357877427
1769234663420,128,0,-1.043566632543441,0.829970382611282,0.4523588866338598
1769234663424,127,-1,-1.5667633961338776,0.3609012351241172,-0.0561642094565839
1769234663428,126,-2,-2.094473263541175,-0.9447553355437176,-0.5707340717009469
1769234663432,126,-2,-2.3142841616162295,-0.9348807713551892,-0.7784691425829826
1769234663436,126,-2,-2.0708975827361975,-0.8016448320749779,-0.5227647155342446
1769234663440,127,-1,-1.4980355788119435,0.1180176592430253,0.0630440455776644
1769234663444,128,0,-0.9080676996049482,1.2106268461418543,0.6657510100155566
1769234663448,128,0,-0.5355816241009932,1.086472981118145,1.0500055607735954
1769234663452,128,0,-0.3731225006417784,1.159874590901451,1.2236540703891414
1769234663456,128,0,-0.2447332194513853,1.0511354674127285,1.3637166712137974
1769234663460,128,0,-0.0279416174476858,1.3309793940165582,1.5930185576868603
1769234663464,129,1,0.206543362648742,2.0169712526977444,1.839953469578342
1769234663468,129,1,0.2774402597224632,2.2658028292139174,1.9221597185400552
1769234663472,129,1,0.1093058945166423,2.0541935864927012,1.7643959481750604
1769234663476,128,0,-0.141336634736406,1.108602083875657,1.5245801290826722
1769234663480,128,0,-0.1814385135594802,1.3604044721269246,1.496593902984925
1769234663484,129,1,0.1894529366665636,1.9544086148725088,1.8799330210075484
1769234663488,129,1,0.9236382455691524,2.383278687905041,2.6250431446287124
1769234663492,131,3,1.7679049715790358,3.962371965667126,3.477899277239552
1769234663496,131,3,2.449309522921266,4.195728603588587,4.166691859589361
1769234663500,131,3,2.842383891102749,4.323312676311633,4.5681502004601695
1769234663504,132,4,2.9988171328273214,4.958048760733999,4.7354325260081644
1769234663508,131,3,3.0525941793202613,4.451387224552847,4.802002085385114
1769234663512,132,4,3.1083414251949155,4.876354040593678,4.870153033422276
1769234663516,132,4,3.2044564623311302,5.349402704020917,4.975844360270963
1769234663520,132,4,3.348010896626473,5.153303760431914,5.125840797366926
1769234663524,132,4,3.5463606657657385,5.152524453928764,5.329930368774233
1769234663528,132,4,3.789464473522566,5.290595179978989,5.5809945336264155
1769234663532,133,5,4.026282327144983,6.029589170563577,5.828454980636794
1769234663536,133,5,4.199777684196002,6.270815247372448,6.013049555099908
1769234663540,133,5,4.318760730303882,6.199860689408781,6.141288972151328
1769234663544,133,5,4.47125161463253,6.159529312635086,6.300961437195967
1769234663548,133,5,4.736809453438818,6.270009656296759,6.57295052822513
1769234663552,134,6,5.078082443925743,7.091552232580368,6.921001271136941
1769234663556,134,6,5.332251336636963,7.239674395661811,7.182434695657356
1769234663560,134,6,5.329309195223196,7.243675044458768,7.186973789968518
1769234663564,134,6,5.039276829278606,7.139999159157038,6.904521605137498
1769234663568,133,5,4.619785336155774,6.279325239935318,6.492756230859287
1769234663572,133,5,4.319342519090022,6.1279528103083205,6.2002058649177325
1769234663576,133,5,4.310045833852194,6.216324113468629,6.198797984584145
1769234663580,133,5,4.577573233125403,6.321421129362831,6.473655947197358
1769234663584,134,6,4.945313422468068,7.040995072440839,6.847286612910184
1769234663588,134,6,5.198187993066036,7.429052026329442,7.104237606367962
1769234663592,134,6,5.193236009418132,6.955908143306783,7.10271436952977
1769234663596,133,5,4.87181735209945,6.450849319517093,6.786252847756389
1769234663600,133,5,4.203345919463591,6.0971571257247925,6.125190491771488
1769234663604,132,4,3.1674864765399793,5.267336201186638,5.097606317909612
1769234663608,131,3,1.8182047996396271,4.246686731068689,3.755142277211376
1769234663612,129,1,0.340777767059941,2.130039200660562,2.282636335644712
1769234663616,127,-1,-1.0092333089096472,0.3249673708659508,0.9370131464268432
1769234663620,127,-1,-2.0625754445898576,0.2413904729818358,-0.1116550196004922
1769234663624,126,-2,-2.843189732700498,-0.8702841510671356,-0.8879567009919069
1769234663628,125,-3,-3.523905349516413,-1.580015806041045,-1.5652711643288677
1769234663632,125,-3,-4.277541933441218,-2.015549352910499,-2.3156325757712257
1769234663636,123,-5,-5.150539240828349,-3.536959532327584,-3.1842976750950847
1769234663640,123,-5,-6.042546452091188,-3.837921796464172,-4.070869272315198
1769234663644,122,-6,-6.783380308759691,-4.826617691066784,-4.806269838720519
1769234663648,121,-7,-7.240120478489323,-5.545485120721301,-5.258570145354435
1769234663652,122,-6,-7.384000692307823,-5.06011931767641,-5.399048060961919
1769234663656,121,-7,-7.2839450469205405,-5.448918054704879,-5.296070052250086
1769234663660,122,-6,-7.046638097303178,-4.922351111441157,-5.055960618709837
1769234663664,122,-6,-6.757475532841099,-4.72462284748954,-4.764231861523385
1769234663668,122,-6,-6.465635620088882,-4.61509228587992,-4.470138035771225
1769234663672,123,-5,-6.211782091684009,-3.98152024852946,-4.213817012882046
1769234663676,122,-6,-6.056603823771342,-4.481936312571147,-4.055302025248755
1769234663680,123,-5,-6.063879620830191,-3.908158779929437,-4.058735667074542
1769234663684,123,-5,-6.235885521324125,-3.6836386993343937,-4.22770540148397
1769234663688,122,-6,-6.465906561471558,-4.665316324529643,-4.456058588086495
1769234663692,122,-6,-6.58356676626594,-4.879422875144133,-4.572383909193839
1769234663696,122,-6,-6.476969748136801,-4.579969835649624,-4.463635694856112
1769234663700,123,-5,-6.176037928686277,-3.7886984609678778,-4.160057884879059
1769234663704,123,-5,-5.811899376807248,-3.7809512168588295,-3.7939874765273585
1769234663708,123,-5,-5.499713511894086,-3.5348363319439775,-3.4810733279914317
1769234663712,124,-4,-5.264825109922157,-2.9993255614720207,-3.245966889794936
1769234663716,123,-5,-5.072312267438251,-3.4375222117696898,-3.052731928369291
1769234663720,124,-4,-4.909706555020023,-2.9255473918521115,-2.888615957481812
1769234663724,124,-4,-4.8237005309679715,-2.608805006199545,-2.8009686112445555
1769234663728,124,-4,-4.866175556713413,-2.6762506670248225,-2.8423673307054385
1769234663732,124,-4,-5.008870041295505,-2.847874387570636,-2.9843772104875774
1769234663736,123,-5,-5.126533074689547,-3.555556088644055,-3.1011681657485406
1769234663740,124,-4,-5.076459243186227,-2.8342262901808652,-3.0502011973888448
1769234663744,124,-4,-4.804001772858818,-2.614268783922016,-2.77763070468333
1769234663748,124,-4,-4.387213361196148,-2.701322762106033,-2.361717781965508
1769234663752,125,-3,-3.992612754313744,-1.7303831532544358,-1.9683079035267128
1769234663756,125,-3,-3.773805536179301,-1.7288146057433582,-1.7503955173795822
1769234663760,125,-3,-3.7762746411481234,-1.6101318387915442,-1.7533257813881071
1769234663764,125,-3,-3.9144440244645655,-1.8255748678498664,-1.8913331560431823
1769234663768,124,-4,-4.041683913022084,-2.46294266545757,-2.0176162514853506
1769234663772,125,-3,-4.054899353195369,-1.917043226852133,-2.0298729005247207
1769234663776,125,-3,-3.9432265041372743,-1.5791482691612453,-1.9188945304547755
1769234663780,125,-3,-3.7551970116145617,-1.6842476565650848,-1.7338764706091678
1769234663784,125,-3,-3.546114819511833,-1.7954186783596835,-1.5286056293964951
1769234663788,125,-3,-3.3644912434470307,-1.3774731608939823,-1.3493299481300154
1769234663792,126,-2,-3.259394410940261,-1.0729346018757706,-1.2444530459197856
1769234663796,125,-3,-3.2596865796502437,-1.3323355617122872,-1.2441921988417497
1769234663800,126,-2,-3.331186180071494,-0.9732488213913412,-1.3160974633479958
1769234663804,125,-3,-3.372095263704694,-1.4433401222716318,-1.3589455939215167
1769234663808,125,-3,-3.280272044042998,-1.7088392085251376,-1.2701124737136302
1769234663812,126,-2,-3.043569385256601,-0.739422495330946,-1.0368698741223494
1769234663816,126,-2,-2.7651313756552773,-0.6165070370161387,-0.7618652645122
1769234663820,126,-2,-2.593058349489769,-0.7128882299987084,-0.5924336041748375
1769234663824,126,-2,-2.612322978873175,-0.6303063082224498,-0.6130879551418317
1769234663828,126,-2,-2.7817866555248085,-0.5361152644168357,-0.7834941817116969
1769234663832,126,-2,-2.959961829670092,-0.8766628903576216,-0.9637083741729487
1769234663836,125,-3,-3.0070022974091315,-1.4632846746060033,-1.014580628553419
1769234663840,126,-2,-2.8939868755811724,-0.8533945727908354,-0.9064640960425536
1769234663844,126,-2,-2.7261430337773556,-0.44525282797178,-0.7431907333276415
1769234663848,126,-2,-2.646700295089569,-0.7083175565764137,-0.6668969222322186
1769234663852,126,-2,-2.697810598824955,-0.6862359311367917,-0.7197213875771207
1769234663856,126,-2,-2.7605974247532084,-0.6292186662329089,-0.7840954900339011
1769234663860,126,-2,-2.6334072621876663,-0.6901648108407892,-0.66000775185005
1769234663864,126,-2,-2.197924762614578,-0.5525647649521377,-0.2296018967522003
1769234663868,127,-1,-1.5461890933185765,0.4080264819568948,0.4160896136410288
1769234663872,128,0,-0.9530263373761514,1.229072735144025,1.0036009509869388
1769234663876,128,0,-0.6926319967742525,1.4621213859189712,1.2594675821132322
1769234663880,128,0,-0.8372259663706343,1.2413597568876231,1.1114825420890422
1769234663884,127,-1,-1.2057022723079769,0.5271943944110746,0.7402720455717322
1769234663888,127,-1,-1.5074531149728192,0.3761113384352538,0.4355637114346629
1769234663892,127,-1,-1.560890160141703,0.2498247865984653,0.3778843592761063
1769234663896,127,-1,-1.4082262369205116,0.5045473753513606,0.5243958202059468
1769234663900,128,0,-1.2441870475509642,1.179025641014813,0.680941734779251
1769234663904,127,-1,-1.236476376781945,0.6528634032176077,0.6816238302987263
1769234663908,127,-1,-1.3962909752463388,0.2382878647733023,0.5169097453145297
1769234663912,127,-1,-1.5906378066794684,0.4194829105794105,0.3195421022234374
1769234663916,127,-1,-1.6559771705548978,0.3589543181881107,0.2509707613610681
1769234663920,127,-1,-1.5100837203804838,0.3269406132848997,0.391594780433675
1769234663924,127,-1,-1.1936678204446562,0.5810980963640331,0.7007144616117109
1769234663928,128,0,-0.8331699209625096,1.269136954585636,1.0532413899710718
1769234663932,128,0,-0.5578097621303897,1.4623038553405698,1.3213390665920934
1769234663936,128,0,-0.4276215913567851,1.2850236478806898,1.445638595785748
1769234663940,128,0,-0.4185318717768123,1.4600415062318282,1.4498898220016645
1769234663944,128,0,-0.4615879540415026,1.463862995409779,1.4018663353907372
1769234663948,128,0,-0.4942333231368088,1.3950808113023463,1.3629625453513663
1769234663952,128,0,-0.4893134888745831,1.3792984591069244,1.3602387479065554
1769234663956,128,0,-0.4567444727281973,1.3567293598312602,1.3848083466879293
1769234663960,128,0,-0.4264711006944901,1.4453798748900557,1.407825082290156
1769234663964,128,0,-0.4221231910982852,1.4802834815139176,1.4058054717317965
1769234663968,128,0,-0.4394649002333162,1.4136662396166222,1.3821643518835798
1769234663972,128,0,-0.4472197139766527,1.3690276209240029,1.3672521226553125
1769234663976,128,0,-0.4151338377684541,1.3916050500167103,1.3911908295162856
1769234663980,128,0,-0.3497370044462087,1.4340015251758846,1.448271687360822
1769234663984,128,0,-0.3052728160300215,1.5196067895302072,1.4851952533123487
1769234663988,128,0,-0.3512395695403079,1.3955467637171908,1.4323569103850256
1769234663992,128,0,-0.5126034921020368,1.400162718913085,1.263515480966389
1769234663996,128,0,-0.7312509718848614,1.3832708552405506,1.0358744004202671
1769234664000,127,-1,-0.8943506438796835,0.469531191429877,0.8631579057347762
1769234664004,127,-1,-0.9160704027404436,0.496604804537307,0.8330008015981774
1769234664008,128,0,-0.7894475214877179,1.4697889145334977,0.952784152886854
1769234664012,128,0,-0.5434581583614049,1.3010797244920091,1.192029219000374
1769234664016,128,0,-0.1540196755509773,1.5563662194102656,1.573212696260382
1769234664020,129,1,0.4722264445040656,2.2731907150797603,2.1895911995064
1769234664024,129,1,1.3982320379716358,2.7489156161450334,3.105215366855975
1769234664028,131,3,2.535428391414799,4.213487117312781,4.2325059215277605
1769234664032,132,4,3.636911609921232,5.597378848706942,5.324745185119888
1769234664036,133,5,4.437542013493013,6.278336863068091,6.116527100392773
1769234664040,133,5,4.828384131819522,6.568765397611048,6.498719023301529
1769234664044,133,5,4.912001396254821,6.479762878266099,6.573704294159977
1769234664048,133,5,4.889700519885582,6.474630791987239,6.542391994354177
1769234664052,133,5,4.87892643798702,6.396786303915709,6.521806719139003
1769234664056,133,5,4.815425667042504,6.475921559261305,6.447648169375066
1769234664060,133,5,4.51919429403638,6.43124541136068,6.14032679032247
1769234664064,132,4,3.86389515305908,5.598150977491807,5.474139132825666
1769234664068,131,3,2.903391424527805,4.398723866580683,4.503472772145897
1769234664072,130,2,1.8498374824086588,3.4640274626320045,3.4406502496236886
1769234664076,129,1,0.9271456095005306,2.476554847025458,2.5092225225536056
1769234664080,128,0,0.2264908182597539,1.4211827505679138,1.7993168032756608
1769234664084,128,0,-0.317813092039055,1.662996314479651,1.243912169430318
1769234664088,128,0,-0.826197239932746,1.3257701697095017,0.7224190377988273
1769234664092,126,-2,-1.3585754097779077,-0.4382938165901925,0.1768791039664184
1769234664096,126,-2,-1.8971184268727963,-0.5783293604776267,-0.3725789211813424
1769234664100,126,-2,-2.4101212245198154,-0.5295615684831045,-0.8944101311483208
1769234664104,125,-3,-2.8918477733148196,-1.3329106619049451,-1.3853305341096682
1769234664108,125,-3,-3.3366014973662077,-1.687944193880108,-1.8413734790314789
1769234664112,124,-4,-3.707919756775409,-2.3722622374156384,-2.2254389060386193
1769234664116,124,-4,-3.957652775882781,-2.650725093812904,-2.4878826576576665
1769234664120,124,-4,-4.067398584300526,-2.415336049869149,-2.6098572759559904
1769234664124,124,-4,-4.054555544103959,-2.429805503613577,-2.6090357307371015
1769234664128,124,-4,-3.938094534474891,-2.572547560141231,-2.5039957908136237
1769234664132,124,-4,-3.7108051436266214,-2.445801397779373,-2.2866279950472066
1769234664136,125,-3,-3.352814224735995,-1.5927052645656192,-1.9372431817554632
1769234664140,125,-3,-2.879515265448143,-1.4151947177383837,-1.473277404514245
1769234664144,125,-3,-2.391936557751526,-1.4370189742678354,-0.9987595962497736
1769234664148,126,-2,-2.080909777491966,-0.5095520950850818,-0.7065408127943044
1769234664152,126,-2,-2.1328780506806138,-0.5157447178032473,-0.7817019722099744
1769234664156,125,-3,-2.5340491938115814,-1.4881611322035462,-1.204513621068874
1769234664160,125,-3,-2.853962544446759,-1.515552142991695,-1.5366251322642852
1769234664164,126,-2,-2.1441792397264257,-0.2864771124815896,-0.8256902757136539
1769234664168,129,1,0.9086318622433094,2.3408132461803657,2.2369429572518693
1769234664172,135,7,7.493872257600517,8.69824841865359,8.828429190507002
1769234664176,146,18,17.933748380025204,19.29799956385635,19.258116521158684
1769234664180,158,30,31.00265291021328,31.75136225708889,32.295820543893676
1769234664184,171,43,43.771654404656566,44.45149594176751,45.02057854948818
1769234664188,180,52,52.32217424914875,53.63519322804762,53.52991936136161
1769234664192,182,54,53.24781296339384,55.360589804089585,54.43185171559382
1769234664196,174,46,45.30507044093184,47.660305442717416,46.48783551825217
1769234664200,158,30,30.27269601300168,31.329665500900223,31.470589192754396
1769234664204,139,11,12.387965539651551,12.94004424472282,13.603850958379804
1769234664208,124,-4,-3.4417986557459948,-2.8342400563972294,-2.2198916327766254
1769234664212,113,-15,-13.6819010415118,-13.08487570824911,-12.474916965462429
1769234664216,111,-17,-17.365879322435,-15.792513400534066,-16.192937991013718
1769234664220,112,-16,-15.925441600122078,-14.22102681521979,-14.793972019833191
1769234664224,116,-12,-11.97627483409948,-10.43133990390808,-10.87911430937945
1769234664228,120,-8,-7.9028813787535235,-6.563769488408374,-6.823845619322217
1769234664232,122,-6,-5.0099684062800485,-4.266521651249093,-3.933745726153825
1769234664236,124,-4,-3.493401420627642,-2.686072502307705,-2.413444443241006
1769234664240,124,-4,-2.9445804998200695,-2.210556708875732,-1.8649917695148337
1769234664244,125,-3,-2.8880353284330664,-1.5012858740175077,-1.819404483812184
1769234664248,125,-3,-3.0276222870789273,-1.4070845404513714,-1.9797466400602144
1769234664252,124,-4,-3.2162570739235754,-2.4587212524300424,-2.192263916827254
1769234664256,124,-4,-3.357712064341028,-2.4190508826547172,-2.353530227823953
1769234664260,124,-4,-3.382321532774249,-2.479344241593176,-2.391541027488166
1769234664264,124,-4,-3.273370688853948,-2.1947454891679907,-2.2928417205976626
1769234664268,125,-3,-3.0668678913890095,-1.698352028403742,-2.098119336999049
1769234664272,124,-4,-2.81648383565754,-2.147649266959075,-1.8627825087891972
1769234664276,125,-3,-2.5699711902777116,-1.7000147973332669,-1.6329781290805554
1769234664280,125,-3,-2.373654417212533,-1.1886183825703962,-1.4527270979077846
1769234664284,125,-3,-2.275188506883435,-1.4394809832697384,-1.3688049918264715
1769234664288,125,-3,-2.30214755016771,-1.4726447189379723,-1.4094324639821347
1769234664292,125,-3,-2.431461491250638,-1.2884618756504758,-1.55270198103267
1769234664296,125,-3,-2.5821016873634597,-1.615995287762238,-1.7181937363552895
1769234664300,124,-4,-2.6494661156852075,-2.167420074904784,-1.8009586714635368
1769234664304,125,-3,-2.563582313915388,-1.511749621619488,-1.730284921562424
1769234664308,125,-3,-2.3239174219785608,-1.3162087542168583,-1.505304009884702
1769234664312,125,-3,-1.9812987196514096,-1.461168946915212,-1.1771099150908877
1769234664316,126,-2,-1.5891359661846425,-0.4028905768345339,-0.7996509094261505
1769234664320,126,-2,-1.173785412255891,-0.3529129670521426,-0.3995932368888099
1769234664324,126,-2,-0.7522758155392459,-0.3390375302618276,0.0062458805388207
1769234664328,127,-1,-0.3756090292380465,0.5897155600427106,0.3673130352171599
1769234664332,127,-1,-0.1411357311195371,0.5934434327978174,0.5864595965095571
1769234664336,127,-1,-0.1411692624858282,0.6246701908286749,0.5713589093353085
1769234664340,127,-1,-0.3829721456715287,0.5949129260660749,0.3148674107030961
1769234664344,126,-2,-0.7541115033853403,-0.2362923912994547,-0.070409171313222
1769234664348,126,-2,-1.072283476251899,-0.5121197805454958,-0.4024467997596233
1769234664352,126,-2,-1.18566057191751,-0.2640271179267808,-0.5302499675967182
1769234664356,126,-2,-1.0504579667939131,-0.4970050663166512,-0.4107319008828896
1769234664360,126,-2,-0.736088095232372,-0.2641960646443002,-0.1131768399513255
1769234664364,127,-1,-0.3612917458138247,0.6626116926415645,0.2446491782251471
1769234664368,127,-1,-0.007100504361875,0.5763632956682033,0.5831108299329966
1769234664372,127,-1,0.3336005381699858,0.7032664439750738,0.910344808365512
1769234664376,128,0,0.738233874631951,1.5386919347310304,1.303259694694865
1769234664380,128,0,1.290007219341824,1.73192649278222,1.8426726016448396
1769234664384,129,1,2.013476408510037,2.690753097010334,2.550581116590598
1769234664388,130,2,2.8376096595855884,3.5636909672427652,3.3558880430183984
1769234664392,130,2,3.593213013970772,3.7459080102743503,4.092475062345274
1769234664396,131,3,4.059590745156626,4.513418497059275,4.543129402437522
1769234664400,131,3,4.077207013871995,4.78611436419718,4.5487541795598965
1769234664404,131,3,3.686580981610674,4.642323580457633,4.147121145864364
1769234664408,130,2,3.1737393305676846,3.659489015970412,3.621471315382269
1769234664412,129,1,2.9264138101548856,2.641183024341112,3.3590148986078927
1769234664416,130,2,3.1729527469315633,3.6749604136655782,3.5891204690802896
1769234664420,131,3,3.8194049971340474,4.620298154759231,4.218933606848854
1769234664424,131,3,4.532590331687496,4.863368939469632,4.91620182436556
1769234664428,132,4,4.997538868663089,5.450790845339316,5.366597988047112
1769234664432,132,4,5.135932493773117,5.861214562734433,5.491599939075511
1769234664436,132,4,5.119624072709449,5.478729309005308,5.462236064973182
1769234664440,131,3,5.1809225667544965,4.813513745068236,5.510154693355525
1769234664444,132,4,5.3866420484914865,5.752481745287568,5.7016720070801705
1769234664448,133,5,5.580061066508639,6.534036737359671,5.87967404934001
1769234664452,132,4,5.541560063799219,5.8578084069535965,5.8251430215045845
1769234664456,132,4,5.206738718105537,5.435628605977463,5.475429577754726
1769234664460,131,3,4.737867364568622,4.920157333974494,4.993873178651924
1769234664464,131,3,4.402848209047119,4.646248788206825,4.6472526616320495
1769234664468,131,3,4.38435200421468,4.68134826632805,4.616043961309293
1769234664472,131,3,4.6701463405081745,4.756356394171637,4.887065814399851
1769234664476,132,4,5.087860655567525,5.514350799490952,5.289006235117554
1769234664480,132,4,5.437785416313312,5.900732516869964,5.6240557084887035
1769234664484,132,4,5.614240213037792,5.65543429011982,5.7876230827124875
1769234664488,132,4,5.627047927695384,5.710749941380645,5.78884274431709
1769234664492,132,4,5.525711722024663,5.7835229537317545,5.675192487276055
1769234664496,132,4,5.308509195285001,5.428321848921209,5.443511351403028
1769234664500,131,3,4.896428562437103,5.110045763303689,5.015733142998729
1769234664504,131,3,4.188071087094902,4.3587910212595835,4.293199969214331
1769234664508,129,1,3.1538039476577127,3.139979024304795,3.2479155699535305
1769234664512,129,1,1.9056517078417567,2.3007583932893203,1.9903560402334728
1769234664516,127,-1,0.6842397270301714,0.9675391200688644,0.757895768431319
1769234664520,126,-2,-0.2624024550456747,-0.4145763055150326,-0.2028202682934645
1769234664524,125,-3,-0.8546310901639249,-1.1076608099121037,-0.8103745564634695
1769234664528,125,-3,-1.272655376625934,-1.3239203409097615,-1.2425218410664414
1769234664532,125,-3,-1.8441894466868805,-1.2598970849549618,-1.8265546961064312
1769234664536,124,-4,-2.7782253764192077,-2.402660607197243,-2.7725189015941956
1769234664540,122,-6,-3.9677958987211817,-4.077923405573938,-3.973603337710149
1769234664544,121,-7,-5.052469832398548,-5.379100063458845,-5.068395151401193
1769234664548,120,-8,-5.6923130750610085,-6.066299548844937,-5.717155587956403
1769234664552,121,-7,-5.804278434512986,-5.452432680114969,-5.839308590024117
1769234664556,121,-7,-5.565554713390958,-5.201663930424139,-5.614279435845837
1769234664560,121,-7,-5.228656891639613,-5.244186535347094,-5.293335937361088
1769234664564,121,-7,-4.951294447893914,-5.20537706532021,-5.030084376823711
1769234664568,121,-7,-4.768798507998492,-5.229347993875219,-4.8572403434701865
1769234664572,122,-6,-4.658089227267757,-4.25809330095794,-4.753395063346541
1769234664576,122,-6,-4.582762597913252,-4.356317411399031,-4.6859882110888496
1769234664580,121,-7,-4.49775638446375,-5.07183761852048,-4.61198024404007
1769234664584,122,-6,-4.364509347349978,-4.351456351215339,-4.491828338580534
1769234664588,122,-6,-4.190132404129111,-4.093937551668768,-4.330342755428995
1769234664592,122,-6,-4.046193098715728,-4.342768994646139,-4.197282638544999
1769234664596,122,-6,-4.032918002049776,-4.250016320852594,-4.192624712791377
1769234664600,122,-6,-4.202763101243194,-4.124838239921997,-4.370455300492419
1769234664604,122,-6,-4.49620821850195,-4.330300137110051,-4.673344876236973
1769234664608,121,-7,-4.7562821938771,-5.059521791838925,-4.944415409391855
1769234664612,121,-7,-4.840729200335884,-5.3956080414155,-5.039290832304412
1769234664616,121,-7,-4.744544922045875,-5.106874698561898,-4.951567484738789
1769234664620,122,-6,-4.599451892328697,-4.279047028330958,-4.8143547483662426
1769234664624,122,-6,-4.532460424078045,-4.138139703419781,-4.7567621909251825
1769234664628,121,-7,-4.535147542647767,-5.253389476062803,-4.769982670762756
1769234664632,121,-7,-4.494271472956881,-5.184094892565974,-4.738526122729704
1769234664636,122,-6,-4.340639038868435,-4.260646691464884,-4.592442656705363
1769234664640,122,-6,-4.134100507092235,-4.130093378257777,-4.393161960254112
1769234664644,122,-6,-3.9936826890322497,-4.2172766341581776,-4.261075633852668
1769234664648,122,-6,-3.9657090669042256,-4.2136801243470146,-4.241897518583349
1769234664652,122,-6,-3.972869682136975,-4.163213963208932,-4.256940129408177
1769234664656,122,-6,-3.8847471349602056,-4.291876085466496,-4.17558122730099
1769234664660,122,-6,-3.634759838809325,-4.030298375480697,-3.932420859521698
1769234664664,123,-5,-3.279827350337015,-3.306108228546487,-3.585478885480844
1769234664668,123,-5,-2.9596704838996724,-3.1141338202581603,-3.2740504114143385
1769234664672,123,-5,-2.7997777272360995,-3.229957029359263,-3.1219910189535662
1769234664676,123,-5,-2.835744209134837,-3.236849708290884,-3.164031504411009
1769234664680,123,-5,-2.9997870573866434,-2.999714946182259,-3.3334091719743526
1769234664684,123,-5,-3.1642341980036157,-3.365629584944357,-3.503917575251143
1769234664688,122,-6,-3.21885148771031,-3.98539114760062,-3.565304133456857
1769234664692,123,-5,-3.1404103858831296,-3.388521060007307,-3.493219725394733
1769234664696,123,-5,-2.9979955766768667,-3.0211345219309043,-3.356331876178885
1769234664700,123,-5,-2.8812558639140704,-3.1967670385357057,-3.2450266033879656
1769234664704,123,-5,-2.820510609380645,-3.132165220956737,-3.1903474024930984
1769234664708,123,-5,-2.7822380184483784,-3.2047982906326533,-3.15855654927625
1769234664712,123,-5,-2.740745824214157,-3.171698925056045,-3.123064554901678
1769234664716,123,-5,-2.741280352192391,-3.1917482766399004,-3.128448940099936
1769234664720,123,-5,-2.8750864483964893,-3.009569248477397,-3.26614202317698
1769234664724,123,-5,-3.1779812656640942,-3.2579112201492473,-3.5727804920881985
1769234664728,122,-6,-3.5520549155097276,-4.108159823386399,-3.951128175994107
1769234664732,122,-6,-3.801919684099677,-4.214712492228729,-4.205807712030394
1769234664736,122,-6,-3.770757031396999,-4.176980718309178,-4.179402176137925
1769234664740,122,-6,-3.4620552100489013,-3.919824171820774,-3.874697779587164
1769234664744,123,-5,-3.038425285994995,-3.371537609999825,-3.4543344223325883
1769234664748,123,-5,-2.6910522291651136,-2.9291295873754395,-3.110582076666839
1769234664752,124,-4,-2.4865444233595637,-2.4361982546492276,-2.9108770907811228
1769234664756,123,-5,-2.3303368755823533,-2.9038494339998016,-2.75944122214068
1769234664760,123,-5,-2.088646310170103,-3.162691859171149,-2.5201063359651803
1769234664764,124,-4,-1.7463388473249717,-2.101845525001163,-2.1776228754251
1769234664768,125,-3,-1.4237508146884097,-1.1579054650597422,-1.85560616007682
1769234664772,125,-3,-1.2328904928137374,-1.234579221859292,-1.6689264801610395
1769234664776,124,-4,-1.1537415295068776,-2.0431605520414613,-1.596091309711609
1769234664780,124,-4,-1.0868664186399328,-2.022142096378579,-1.5335009492284262
1769234664784,125,-3,-1.005823437181303,-1.2032487800492442,-1.4529090112235543
1769234664788,125,-3,-1.0015491432316357,-1.0238769984848402,-1.44745855218122
1769234664792,125,-3,-1.154711014177028,-1.3760431536007975,-1.6007875270333234
1769234664796,124,-4,-1.3944797648731322,-1.839984397229853,-1.8426036064559184
1769234664800,124,-4,-1.5222005146695603,-2.240638744793919,-1.9728592665160145
1769234664804,124,-4,-1.3892487595909395,-1.9436492571488069,-1.8419432415613608
1769234664808,125,-3,-1.0507781190745282,-1.2464516282259763,-1.505149334143914
1769234664812,125,-3,-0.7430099258981879,-1.1548782537926556,-1.198860614060821
1769234664816,125,-3,-0.7006792500868291,-0.9915666309382556,-1.1573330258614316
1769234664820,125,-3,-0.970168427808144,-1.1235804613528655,-1.4265111361772551
1769234664824,124,-4,-1.372204393612255,-2.0091538226027947,-1.827462766602568
1769234664828,124,-4,-1.6445391363616992,-2.1703433313585716,-2.0988785326936528
1769234664832,124,-4,-1.6488730939366265,-2.197152283434769,-2.103341402820276
1769234664836,124,-4,-1.4708957157708982,-1.9051333400593589,-1.926781805572307
1769234664840,125,-3,-1.3313055851046187,-1.2181860351257088,-1.789068242845561
1769234664844,124,-4,-1.3894998970942962,-1.864211038752598,-1.8479146959223187
1769234664848,124,-4,-1.609785994825373,-2.3308869140778725,-2.066471953405449
1769234664852,124,-4,-1.7913273929035571,-1.975514253737933,-2.244660745448204
1769234664856,124,-4,-1.7193115977972415,-2.119425849407423,-2.1697781694335148
1769234664860,124,-4,-1.3159611642963085,-1.9811710416068664,-1.765471064633873
1769234664864,125,-3,-0.6924680715545317,-1.0501932479833784,-1.1426553687872882
1769234664868,126,-2,-0.0755674331311251,-0.1737805429328619,-0.5267747348306222
1769234664872,126,-2,0.3356902787394291,-0.046111231213288,-0.1155142363407105
1769234664876,126,-2,0.4783637927801385,-0.085081934792516,0.0290515774729692
1769234664880,126,-2,0.4284276036104566,0.0544721151211745,-0.0172673271605947
1769234664884,126,-2,0.3194243146984634,-0.0975294129115977,-0.1221918721319789
1769234664888,126,-2,0.2547832791716953,-0.0943050722327825,-0.1837480843025866
1769234664892,126,-2,0.2687644626609282,-0.0765576201088473,-0.1681819057684724
1769234664896,126,-2,0.3360115542906188,-0.0664117584939385,-0.1001548893760871
1769234664900,126,-2,0.400152890797159,0.1032045723592997,-0.0348931060165682
1769234664904,126,-2,0.3988153222264268,-0.1705291894261975,-0.0341199013224828
1769234664908,126,-2,0.2829453466794804,0.0223023334476943,-0.1470372033928704
1769234664912,126,-2,0.0358135224852362,-0.1472263228128155,-0.3908326790050638
1769234664916,125,-3,-0.3133728450788917,-1.0237814867753907,-0.7365238830426066
1769234664920,125,-3,-0.6930596747143665,-0.8373875759857738,-1.112601877801156
1769234664924,125,-3,-1.0122531197203457,-1.3042450345965038,-1.4281839784600845
1769234664928,124,-4,-1.1948251894013917,-1.7399654986565836,-1.6072195680601002
1769234664932,125,-3,-1.2146608374222818,-1.3986030668988314,-1.6235902501090138
1769234664936,124,-4,-1.1144928355179498,-1.7390140212756842,-1.520231210900448
1769234664940,125,-3,-0.9896270511243702,-1.075314387792646,-1.3927671085469693
1769234664944,125,-3,-0.940383252404046,-1.1022207763673206,-1.3412069206347297
1769234664948,124,-4,-1.0249233317633524,-1.8504076217083532,-1.4225569333172638
1769234664952,125,-3,-1.2379461644156835,-1.3290784321955416,-1.6306410595146517
1769234664956,124,-4,-1.5103891449771445,-1.7182311784729325,-1.8969300825485216
1769234664960,124,-4,-1.721396391651031,-2.1293135740763827,-2.1020694501943846
1769234664964,124,-4,-1.7356257172731129,-1.994839598259222,-2.1118066144692325
1769234664968,124,-4,-1.4719192434056867,-1.934501446462656,-1.844921763262939
1769234664972,125,-3,-0.9675324281746008,-1.246633015524066,-1.337738234048353
1769234664976,125,-3,-0.3822436262449511,-0.7181259856202896,-0.7489981360231297
1769234664980,126,-2,0.0786347278433066,-0.1718165625127029,-0.2835991092659303
1769234664984,126,-2,0.2812392948396889,0.1140418107275805,-0.0757797438592567
1769234664988,126,-2,0.2400324621835567,-0.0338367832953017,-0.111598731624421
1769234664992,126,-2,0.0936099114910677,-0.1598685961630225,-0.2524100230843428
1769234664996,125,-3,-0.0068964220823775,-0.6874130851501026,-0.3468270195739777
1769234665000,126,-2,-0.0061160466134759,-0.309005115900299,-0.3400620013108459
1769234665004,126,-2,0.041442930195658,0.4197224494460882,-0.2878164619731558
1769234665008,126,-2,0.0473644560316728,-0.442523294109166,-0.2786194302725414
1769234665012,125,-3,-0.0369462645763383,-0.6467912132392842,-0.3595087515636379
1769234665016,126,-2,-0.2134268467411919,-0.1885769460944268,-0.5308741475993908
1769234665020,125,-3,-0.4667539161050786,-0.851296420957439,-0.7774409607576847
1769234665024,125,-3,-0.7710459923719076,-0.8942139585358826,-1.0745366643005425
1769234665028,125,-3,-1.0705292279658116,-1.2386355787322931,-1.367453887543986
1769234665032,124,-4,-1.2754323108685552,-1.6961740429480938,-1.56680849759579
1769234665036,125,-3,-1.2985212149380287,-1.2231644342555457,-1.5852171285055108
1769234665040,124,-4,-1.1128115253989657,-1.7276053867598111,-1.3951859961355204
1769234665044,125,-3,-0.7820222018390877,-1.0223812647333033,-1.05968841302567
1769234665048,126,-2,-0.4282305889462762,-0.0759032864666502,-0.7000033345748586
1769234665052,125,-3,-0.1539596682275428,-0.8152848320891086,-0.4182829297733557
1769234665056,126,-2,0.0188516583444123,-0.1367031009166918,-0.2373457030385651
1769234665060,126,-2,0.1437202853911576,0.2823238769655277,-0.1057420029453658
1769234665064,126,-2,0.2813066750760681,-0.1039128831498769,0.0359205012637235
1769234665068,126,-2,0.4129709558630262,0.1431729483811691,0.1704035266711886
1769234665072,126,-2,0.4065647549480502,-0.0999003799218651,0.1684405196239019
1769234665076,126,-2,0.0972373373463737,0.2218782944379685,-0.1335720364312002
1769234665080,126,-2,-0.5408997314406251,-0.0792226170628493,-0.7629080586727655
1769234665084,124,-4,-1.2785479827788602,-1.7212464429565244,-1.492256299159732
1769234665088,124,-4,-1.719334063862246,-2.185126610560368,-1.925980699331516
1769234665092,124,-4,-1.5645735589411205,-1.7783898421051123,-1.765246808706269
1769234665096,125,-3,-0.8407841780001328,-1.0542705619045745,-1.0365144280931902
1769234665100,126,-2,0.109797754819222,0.2055889582697307,-0.0818970616989802
1769234665104,127,-1,0.8707356561975912,1.049379308432513,0.6830212385493716
1769234665108,127,-1,1.2279192667646857,1.0374092484925086,1.0455438370395584
1769234665112,127,-1,1.2722917493467638,1.0360330685487522,1.097523062644997
1769234665116,127,-1,1.2786537506620776,1.119596626535457,1.113222864866194
1769234665120,127,-1,1.4890507428473263,1.0898041637335465,1.332802005812213
1769234665124,128,0,1.9787123745065471,2.179453034841358,1.8295164580223244
1769234665128,129,1,2.6780221084950373,2.9749691911996785,2.533346883345859
1769234665132,129,1,3.475839637072036,3.0496287928016903,3.3348409267584542
1769234665136,130,2,4.281187150347756,4.19400857159585,4.145274007862609
1769234665140,131,3,5.004304832038401,4.957268306336087,4.875552506449691
1769234665144,131,3,5.519948389996608,5.429522163497054,5.399085934200508
1769234665148,132,4,5.682698548162691,5.701083790203798,5.56863272191009
1769234665152,131,3,5.39468971124195,5.353587101631685,5.285789907121766
1769234665156,131,3,4.6684657984287,4.914524223080898,4.56439571584105
1769234665160,129,1,3.630408920883941,3.2135880138903703,3.5328254733361404
1769234665164,128,0,2.4649449136443833,2.2836980489322527,2.3760457393970484
1769234665168,128,0,1.352517951812597,1.8068121331973936,1.272604010549412
1769234665172,126,-2,0.441738257823171,0.3269811200919764,0.3685904585793214
1769234665176,126,-2,-0.1661052453620838,-0.0933511049550239,-0.2350505721748951
1769234665180,125,-3,-0.4568095761156662,-0.7258219709604125,-0.5219742914595362
1769234665184,125,-3,-0.5393670007010725,-0.7499833410228284,-0.5990881645585239
1769234665188,126,-2,-0.6057258937944334,-0.1286367267580961,-0.6584090542779493
1769234665192,125,-3,-0.8049799733335776,-0.7119069553418138,-0.850437986139333
1769234665196,125,-3,-1.132482444690063,-1.0552570868191202,-1.171127062712617
1769234665200,124,-4,-1.4459826015819477,-1.739458695758646,-1.477657551523735
1769234665204,124,-4,-1.6003815604459806,-1.6963501131167085,-1.6247736706202394
1769234665208,125,-3,-1.5742200588924185,-1.1695482863196731,-1.5920720044394072
1769234665212,124,-4,-1.478181279363024,-1.60222807772341,-1.4912239294552063
1769234665216,125,-3,-1.4566680941510497,-1.2144280753741032,-1.4660173794855351
1769234665220,124,-4,-1.579861695502177,-1.4907383755606969,-1.5846652156792356
1769234665224,124,-4,-1.8060868853193328,-1.9956250670929712,-1.8038904725236948
1769234665228,124,-4,-2.02064950543373,-1.766756124881023,-2.0091397829452147
1769234665232,124,-4,-2.106933536068751,-2.0213668533359836,-2.085504044332531
1769234665236,124,-4,-2.009737858077182,-1.7692916024591578,-1.979838737299654
1769234665240,124,-4,-1.7757112084028916,-1.891595789571453,-1.7404107922139678
1769234665244,124,-4,-1.553534140980237,-1.630518836958429,-1.516951373027965
1769234665248,125,-3,-1.5196232639544165,-1.0102033750062829,-1.4855130841974005
1769234665252,124,-4,-1.718509943997491,-1.850253610194197,-1.687218628784178
1769234665256,124,-4,-1.8729259353605856,-1.8298309941786293,-1.8385913540221837
1769234665260,125,-3,-1.2690936568453408,-0.8947919226603622,-1.2207202242088542
1769234665264,127,-1,1.1711521579638808,1.4546420398927675,1.2436286931816305
1769234665268,133,5,6.551667372228842,6.923690978022655,6.649742927895
1769234665272,141,13,15.41320468404484,15.257960820035674,15.526205784400544
1769234665276,153,25,27.08966300662146,27.102051814487,27.198938812005753
1769234665280,165,37,39.375937017436335,39.159080506770344,39.465452576120136
1769234665284,174,46,48.87447700094388,48.44818725358082,48.940998442257474
1769234665288,179,51,52.11926000933883,52.91207301127965,52.174754426459394
1769234665292,174,46,47.10702282412895,48.2895845728531,47.17184531135783
1769234665296,161,33,34.4602084020637,35.040759806048484,34.55233337150892
1769234665300,143,15,17.462088347473806,17.22101519135989,17.588874330314983
1769234665304,126,-2,0.7826192625859605,0.4307410986234979,0.9383872704220506
1769234665308,114,-14,-11.477767358835688,-11.998756550212988,-11.308499487783902
1769234665312,108,-20,-17.35537777164425,-17.71039649062486,-17.191071104594627
1769234665316,110,-18,-17.39596604876182,-15.891313148833795,-17.250020660980404
1769234665320,113,-15,-13.812130788385788,-12.851730713375217,-13.686104185989947
1769234665324,116,-12,-9.127210265110312,-9.488766421069409,-9.009196581409384
1769234665328,121,-7,-5.142950865121738,-5.079381648852209,-5.014444128938498
1769234665332,123,-5,-2.613274524879929,-2.636206228814612,-2.461350539804288
1769234665336,125,-3,-1.464731626610143,-0.905135480356828,-1.2899002624565237
1769234665340,125,-3,-1.2110823974923877,-0.8587754453372936,-1.0242597412305887
1769234665344,124,-4,-1.3255347091506835,-1.4219069889828186,-1.137989401752852
1769234665348,125,-3,-1.4780520647135875,-1.1655499029461445,-1.2939293536509415
1769234665352,124,-4,-1.598379931690924,-1.4915395073430504,-1.414909136285534
1769234665356,125,-3,-1.7704707903053172,-1.0196312096889129,-1.5828519037279936
1769234665360,124,-4,-2.0539187739823066,-1.7189954843981856,-1.8591783702359912
1769234665364,123,-5,-2.379440336715747,-2.532217832807442,-2.177092649269238
1769234665368,124,-4,-2.592758792766837,-2.07747132506723,-2.383806266827045
1769234665372,123,-5,-2.5832005963778637,-2.514723994847956,-2.3690559139877596
1769234665376,124,-4,-2.3698765009301,-1.988878585789346,-2.151472123060864
1769234665380,124,-4,-2.0761946734204617,-1.6822092031434095,-1.8534991096500304
1769234665384,124,-4,-1.825694239400544,-1.5815359921956336,-1.5980463376360008
1769234665388,125,-3,-1.6508712293324637,-1.0202776878171351,-1.417787295893737
1769234665392,124,-4,-1.4899042646467082,-1.5320731563711631,-1.2514676221084085
1769234665396,125,-3,-1.270809714659956,-0.9575995085121028,-1.0273806639805307
1769234665400,125,-3,-1.004194921132128,-0.6388549783607438,-0.7560029282161662
1769234665404,125,-3,-0.793566726223228,-0.650583788705908,-0.5406582947757086
1769234665408,126,-2,-0.7458134357737816,0.0784531175507923,-0.4881611190219299
1769234665412,125,-3,-0.8613151621481987,-0.6079264687988983,-0.5986899259221987
1769234665416,125,-3,-1.0102426906358333,-0.8626429893032563,-0.7420685816336188
1769234665420,125,-3,-1.0250568849481048,-0.6611003748894635,-0.750853392132927
1769234665424,125,-3,-0.8288911470449736,-0.6602293775692465,-0.5490718049422527
1769234665428,126,-2,-0.4881374915352625,0.1356230154401154,-0.2039967232770243
1769234665432,126,-2,-0.1551164943354264,0.3439088020697602,0.132422665118993
1769234665436,126,-2,0.034524592106768,0.2278171381767681,0.3260124327002769
1769234665440,126,-2,0.0255940612530056,0.2834578418079601,0.3223926041421395
1769234665444,126,-2,-0.1560856689112313,0.3924062853891661,0.1464807450798875
1769234665448,126,-2,-0.4379081859334479,0.1065780966999998,-0.1303440402641564
1769234665452,125,-3,-0.7420496574168687,-0.6094118461818236,-0.4299135404067979
1769234665456,125,-3,-1.0184050803454778,-0.7542653677165658,-0.7008495688740004
1769234665460,125,-3,-1.2444846485754564,-0.7454946666614197,-0.9207411500390024
1769234665464,125,-3,-1.385512132988331,-0.5195423820191318,-1.0564211802875432
1769234665468,125,-3,-1.3668116178904306,-1.017771458448537,-1.0339607987154062
1769234665472,124,-4,-1.1210995062465676,-1.4102627676500854,-0.7847453454590823
1769234665476,126,-2,-0.6809091443983784,0.0584491076444644,-0.3397118406541739
1769234665480,126,-2,-0.2032180715550495,0.4648770254817757,0.1440060984538416
1769234665484,126,-2,0.1281281635669924,0.3186577843673985,0.4810867787758067
1769234665488,127,-1,0.2377717875949169,1.0959855456685632,0.5952390028243694
1769234665492,126,-2,0.1996434012022214,0.5928413324570203,0.561017217159661
1769234665496,126,-2,0.1443278610849888,-0.027850222157147,0.510402032385961
1769234665500,126,-2,0.1286096299653865,0.6957637814742927,0.5006116287651
1769234665504,127,-1,0.1035101456774258,1.0170712992827893,0.4816149945411747
1769234665508,126,-2,0.010627649525938,0.4633153150029583,0.3939487449541421
1769234665512,126,-2,-0.1082228641611822,0.2623628337150863,0.279647816187403
1769234665516,126,-2,-0.1149030105823865,0.2639316692434388,0.2776828499151254
1769234665520,126,-2,0.1104571464544187,0.5242908502040775,0.5081671347628764
1769234665524,127,-1,0.5588892347681247,1.1080668456614262,0.9618595924278568
1769234665528,127,-1,1.086840315523241,1.4965577454461916,1.4950840034524198
1769234665532,128,0,1.5180120540586262,2.1763880708621697,1.9315267064223651
1769234665536,128,0,1.7683120876899283,2.422708666400074,2.1868966384969033
1769234665540,128,0,1.891393733033469,2.354695310436494,2.314821584637293
1769234665544,128,0,2.0059548408144634,2.3165073782398853,2.43448134367069
1769234665548,128,0,2.1728495681351156,2.312615170698813,2.607104924232685
1769234665552,129,1,2.345063685129507,3.378385562936619,2.7853166855653697
1769234665556,129,1,2.4420552505028095,3.2681175004187524,2.8880565416495125
1769234665560,128,0,2.4640153351605663,2.49404573501779,2.9155837940900016
1769234665564,129,1,2.519152892556926,3.248392751460984,2.976275804731335
1769234665568,129,1,2.735489528694939,3.342459823555277,3.1978506182919
1769234665572,129,1,3.142428747105493,3.438248621152606,3.609599080079715
1769234665576,130,2,3.625693591269149,4.184306239750523,4.097892600500514
1769234665580,130,2,3.9975042808437062,4.6504257942134295,4.47557306396221
1769234665584,131,3,4.135325541577328,5.06386034899394,4.6198961778581795
1769234665588,130,2,4.074709774390691,4.582220622201005,4.565838214853571
1769234665592,130,2,3.962248954853438,4.203577541797623,4.459735850731781
1769234665596,130,2,3.8980364861586225,4.448722383127077,4.401526065983887
1769234665600,130,2,3.811788263993256,4.437323136618041,4.320532958293729
1769234665604,130,2,3.4933779232789184,4.245790778227308,4.006546608597485
1769234665608,129,1,2.754818128296134,3.498424334998391,3.272507865957129
1769234665612,128,0,1.583428823350053,2.2210901372586704,2.1072204684743148
1769234665616,126,-2,0.163022905644911,0.5426295193244428,0.6949984301467669
1769234665620,125,-3,-1.2392707291353182,-0.7138469614706593,-0.6984619907547627
1769234665624,124,-4,-2.419070691473626,-1.5081158340007843,-1.8710404356788928
1769234665628,123,-5,-3.312582942788062,-2.7690494458380708,-2.759730319554824
1769234665632,122,-6,-3.981377415879832,-3.4520989856136035,-3.424599449721553
1769234665636,122,-6,-4.539822891462402,-3.779316195435208,-3.977917618669085
1769234665640,121,-7,-5.072008497542911,-4.37287004485982,-4.503110196782646
1769234665644,121,-7,-5.5801083887730325,-4.810735489958626,-5.003231417845773
1769234665648,120,-8,-5.99575090746441,-5.4592038737634425,-5.411044794886278
1769234665652,120,-8,-6.2478853813569195,-5.711436914723173,-5.656062070774707
1769234665656,120,-8,-6.331590979183836,-5.53008259558125,-5.733432985733116
1769234665660,120,-8,-6.317908547959518,-5.56748240135509,-5.713939652519407
1769234665664,120,-8,-6.298764839106612,-5.6193116483095045,-5.6889038280582405
1769234665668,120,-8,-6.3173427603406065,-5.597862624505688,-5.7008150622388305
1769234665672,120,-8,-6.338975355576028,-5.566084992085798,-5.714732313887017
1769234665676,120,-8,-6.27865440427102,-5.659916239666664,-5.6460374136839455
1769234665680,120,-8,-6.05942884036254,-5.392404164034575,-5.41862217137661
1769234665684,121,-7,-5.6594281094590535,-4.799889445531625,-5.011352346225687
1769234665688,121,-7,-5.121555140235965,-4.3455763426860905,-4.467116675676198
1769234665692,122,-6,-4.532536380114673,-3.838952425872906,-3.8718031395688937
1769234665696,122,-6,-3.9928541675673617,-3.3373986506110556,-3.325085664777858
1769234665700,123,-5,-3.587041085876838,-2.7106509017782687,-2.9115696465222585
1769234665704,123,-5,-3.355635506262739,-2.4540408849630193,-2.672405454857151
1769234665708,123,-5,-3.281649408482654,-2.642232867251654,-2.590718521488334
1769234665712,123,-5,-3.3064826800517526,-2.558557936592315,-2.6073833558763035
1769234665716,123,-5,-3.364767848863145,-2.550460472358329,-2.6568354470561273
1769234665720,123,-5,-3.4086802810390457,-2.535089437756063,-2.691969706725645
1769234665724,123,-5,-3.4110084566022767,-2.531527668397208,-2.686499171977267
1769234665728,123,-5,-3.366110044069801,-2.59956364720816,-2.634793509366492
1769234665732,123,-5,-3.3039445318110556,-2.5233237689121655,-2.565819164880624
1769234665736,123,-5,-3.298133963414432,-2.617400603026377,-2.552279659933915
1769234665740,123,-5,-3.433633438169835,-2.415696078877848,-2.679188993635888
1769234665744,123,-5,-3.7361140047749255,-2.626568616948349,-2.972845456176674
1769234665748,122,-6,-4.120473489427993,-3.4877577805308366,-3.3483282252389106
1769234665752,122,-6,-4.417687809766106,-3.587026823367359,-3.6362865426953457
1769234665756,122,-6,-4.470435954405936,-3.582252308504839,-3.679447043710208
1769234665760,122,-6,-4.223305390996313,-3.376809860587294,-3.423165112043527
1769234665764,123,-5,-3.744284652470763,-2.675982403333932,-2.9361470547982975
1769234665768,123,-5,-3.17855382419443,-2.359479769082295,-2.363362717274932
1769234665772,124,-4,-2.681131326623196,-1.7483376130545194,-1.858715321995848
1769234665776,124,-4,-2.3693359518820776,-1.3685122381045207,-1.5383656361887366
1769234665780,124,-4,-2.3028358169457377,-1.6018086191837404,-1.4617527642531134
1769234665784,124,-4,-2.476269765875023,-1.392177800987144,-1.62449322871047
1769234665788,124,-4,-2.815808674909988,-1.616592980407524,-1.954115005742656
1769234665792,123,-5,-3.1934501666340465,-2.486222880938112,-2.3230941527478586
1769234665796,123,-5,-3.473413887707082,-2.6017272079047093,-2.594875843538216
1769234665800,123,-5,-3.5709379142123643,-2.360248253093878,-2.6834431504183613
1769234665804,123,-5,-3.4803985002394753,-2.5841468693955547,-2.5825209991740063
1769234665808,123,-5,-3.2536726502081708,-2.393988493778835,-2.3447139272967186
1769234665812,124,-4,-2.951683905541135,-1.6918989038686565,-2.032839989769273
1769234665816,124,-4,-2.6126716699604313,-1.395048338381325,-1.6863573874304876
1769234665820,124,-4,-2.2694211721029123,-1.5309139678584112,-1.3366680913166376
1769234665824,124,-4,-1.9967868706286644,-1.3929390849973464,-1.0555476815283649
1769234665828,125,-3,-1.912032844334208,-0.5336325271779525,-0.958815874013768
1769234665832,125,-3,-2.0772949581720725,-0.5533627169339543,-1.1104720020402177
1769234665836,124,-4,-2.381204846739324,-1.511940059567075,-1.4023078769102295
1769234665840,124,-4,-2.553482357375793,-1.39636377401939,-1.565398135809453
1769234665844,124,-4,-2.360741782779638,-1.4921353448908723,-1.3650685305503336
1769234665848,124,-4,-1.8335818387678913,-1.400528588007182,-0.8298634194398966
1769234665852,126,-2,-1.2993100804582265,0.3314262445549989,-0.2864445915709466
1769234665856,126,-2,-1.1460763925853574,0.6383558935818349,-0.1235504940868565
1769234665860,125,-3,-1.5024884408087855,-0.5668827948096467,-0.4697174558578045
1769234665864,124,-4,-2.120534918900308,-1.242568867145296,-1.075934612894706
1769234665868,124,-4,-2.5667090702154636,-1.6866850601998196,-1.5087937347392324
1769234665872,124,-4,-2.5422555063264705,-1.309508488395075,-1.471668812988544
1769234665876,125,-3,-2.0642345493455565,-0.7071580629209202,-0.9837441890448316
1769234665880,125,-3,-1.399465849959756,-0.2101322228206543,-0.3116045353083172
1769234665884,126,-2,-0.8541270195817279,0.4767758443796548,0.2408494407403971
1769234665888,126,-2,-0.5967829881065265,0.5200695614075068,0.5071553774302752
1769234665892,126,-2,-0.6191663005194039,0.6068894366321655,0.4961298398771351
1769234665896,126,-2,-0.8159837060319219,0.2974272965474789,0.3123344321993315
1769234665900,125,-3,-1.086542275077198,-0.0829951811538156,0.0551118919251547
1769234665904,126,-2,-1.369997456308962,0.2933319312322444,-0.216228741011103
1769234665908,125,-3,-1.6091018515788966,-0.2267283916723459,-0.4453618590202095
1769234665912,125,-3,-1.7193528534640534,-0.6489228432112157,-0.547190819858725
1769234665916,125,-3,-1.6301577039516046,-0.4251748278777643,-0.4493271645473808
1769234665920,125,-3,-1.3648877726713975,-0.2937046238436547,-0.1737195428003439
1769234665924,126,-2,-1.0576789129007345,0.4655962100859894,0.1453946811720663
1769234665928,126,-2,-0.8598007325286521,0.700025675704433,0.3555070052990847
1769234665932,126,-2,-0.8103167577626564,0.364029188123526,0.4164098547922249
1769234665936,126,-2,-0.7965817914930184,0.6468775986153448,0.4405668258671309
1769234665940,126,-2,-0.6528088976509772,0.6309237388268459,0.5945477182643428
1769234665944,126,-2,-0.3157797252841099,0.5579576514781543,0.9424529527068348
1769234665948,127,-1,0.10436616854954,1.6735564213375071,1.3740396369468504
1769234665952,128,0,0.4114959644985969,2.358502500772621,1.6921873475190834
1769234665956,127,-1,0.4910677706570576,1.726965709713773,1.7819027164391683
1769234665960,127,-1,0.3946408357659783,1.5364196780432136,1.695534548769024
1769234665964,127,-1,0.2642158741616471,1.6878889105636663,1.5760549491713325
1769234665968,127,-1,0.18597528091707,1.5687213809066998,1.5096146768841143
1769234665972,127,-1,0.1236565149790343,1.4803633674296843,1.4590431520444138
1769234665976,127,-1,-0.0117377408700374,1.6550045364672012,1.3345199327467672
1769234665980,127,-1,-0.2355314596393507,1.6057084987698151,1.1208566026450777
1769234665984,126,-2,-0.440017641794532,0.6544736559877595,0.9268529036123778
1769234665988,126,-2,-0.4795799656448014,0.6044612597622524,0.898869290231735
1769234665992,127,-1,-0.307113693638233,1.4941567553389334,1.08320542899452
1769234665996,127,-1,-0.0242375781165804,1.6538364073370349,1.376807977063349
1769234666000,127,-1,0.1952315593990485,1.6530416563450574,1.605784757841826
1769234666004,127,-1,0.2240837229086776,1.602178317533667,1.6442669027949266
1769234666008,127,-1,0.0456701117639493,1.681302756321939,1.4765468259666643
1769234666012,127,-1,-0.2611752990147664,1.442012766393927,1.1812184999369146
1769234666016,126,-2,-0.5856523972447301,0.7324704354070115,0.868601670083774
1769234666020,126,-2,-0.8518908258704049,0.6268856694025668,0.6143056707240855
1769234666024,126,-2,-1.0444507970746475,0.6064809803498048,0.4330696685513366
1769234666028,126,-2,-1.1766680152834434,0.7318226795077141,0.3106219382348725
1769234666032,126,-2,-1.2457774126134158,0.3828495278428538,0.2500776308713841
1769234666036,125,-3,-1.2378290019297329,-0.1448750092599375,0.2673191191957367
1769234666040,126,-2,-1.1761578014439276,0.5171641142635024,0.3403871171384756
1769234666044,126,-2,-1.1339872740681636,0.7208332508846877,0.3950767830480304
1769234666048,126,-2,-1.1702437320104648,0.6592073265829728,0.3703404248845146
1769234666052,126,-2,-1.258595365398803,0.4511976285473016,0.291801770210389
1769234666056,125,-3,-1.306164194491865,-0.1376270720787853,0.253458667606637
1769234666060,126,-2,-1.2527670565125848,0.4798799728144507,0.31660576685938
1769234666064,126,-2,-1.1394458704033068,0.8226120311948273,0.4401626229577935
1769234666068,126,-2,-1.0675036837644265,0.5381858113430222,0.5224174823668764
1769234666072,126,-2,-1.089678561905648,0.6376404920035423,0.5107025646553662
1769234666076,126,-2,-1.1396928769767127,0.6862337756648274,0.4714812113578783
1769234666080,126,-2,-1.064123843280973,0.6677719638814561,0.5579293656420268
1769234666084,126,-2,-0.7334161806442268,0.6704432784281117,0.8990760357066029
1769234666088,127,-1,-0.1461633976156655,1.6893393136650476,1.4959250964133142
1769234666092,128,0,0.5581286665050567,2.5581415934747698,2.2089635861957717
1769234666096,128,0,1.1909683514290346,2.7526370145645487,2.8502193758830825
1769234666100,129,1,1.6389006894613956,3.6514095654273655,3.307057204436623
1769234666104,129,1,1.926690832606745,3.6713318895330262,3.604829115238678
1769234666108,129,1,2.1830252857757597,3.724788943195162,3.872195839346419
1769234666112,130,2,2.546985687719779,4.565451314250018,4.247572709463715
1769234666116,130,2,3.0875745861425656,4.755668939582396,4.798915526356097
1769234666120,131,3,3.782146472174908,5.691204066026643,5.502697615416909
1769234666124,132,4,4.542674309335511,6.619415617599757,6.270855588962825
1769234666128,132,4,5.246213189550391,6.822302619532432,6.98147214229991
1769234666132,133,5,5.746976612959086,7.482624009712521,7.490089468291121
1769234666136,133,5,5.894073732236645,7.88048656247226,7.646320888162536
1769234666140,133,5,5.5868202234133415,7.574367080246615,7.348992895025975
1769234666144,132,4,4.847428241468427,6.745761453324798,6.6196742990992306
1769234666148,131,3,3.8440550756778102,5.739115822440297,5.626238164987113
1769234666152,130,2,2.8241467506778486,4.564706932732105,4.615834204509067
1769234666156,129,1,1.9949144747963152,3.865145614987527,3.7951131656742976
1769234666160,129,1,1.4322192835616574,3.5814758600930725,3.239751589973281
1769234666164,128,0,1.0719064375654463,2.7731903406884895,2.88640748764578
1769234666168,128,0,0.7765722072154125,2.7343280365290723,2.5988254118130873
1769234666172,128,0,0.4300945721284309,2.5883139869630996,2.2610649305355057
1769234666176,127,-1,0.0033189267725843,1.8769750146762123,1.843078096770832
1769234666180,127,-1,-0.4506253440415373,1.583867900419715,1.397251044139468
1769234666184,126,-2,-0.8668988945118596,0.7896017180032773,0.9886082719096758
1769234666188,126,-2,-1.241699241381358,0.7397369107272782,0.6214807837046148
1769234666192,126,-2,-1.6330371024540304,0.6193676023148997,0.2379244542042911
1769234666196,125,-3,-2.084508779810606,-0.1413680207889345,-0.2058964246412826
1769234666200,125,-3,-2.551498572822819,-0.3517007002138737,-0.6653636012803512
1769234666204,124,-4,-2.9118710907451812,-1.291877951835989,-1.018270056085849
1769234666208,124,-4,-3.055417183899994,-1.1297926030315617,-1.1547252331333375
1769234666212,125,-3,-2.9670524474580224,-0.4974129166505767,-1.0598047760726097
1769234666216,124,-4,-2.7348127745579793,-0.9855950790411698,-0.8205515405514621
1769234666220,125,-3,-2.492145362837549,-0.4776108682700462,-0.5690433869080116
1769234666224,125,-3,-2.3483386557317902,-0.1765015960974443,-0.415277087314712
1769234666228,125,-3,-2.3469105089446027,-0.2000511180311295,-0.4062904695037312
1769234666232,125,-3,-2.4631432424022055,-0.431632810455075,-0.5207659262857163
1769234666236,124,-4,-2.6196796647099463,-0.9742976736381814,-0.6806414814728434
1769234666240,125,-3,-2.6602480879355523,-0.5115564746528365,-0.7238162523804017
1769234666244,125,-3,-2.2321650306058496,-0.0949607668741308,-0.2898664384566798
1769234666248,127,-1,-0.6372326968418884,1.7183074897234725,1.323520525955923
1769234666252,131,3,3.155559413861303,5.690727631490494,5.143478505193258
1769234666256,137,9,10.141093980849412,11.965350682169149,12.153348253521354
1769234666260,148,20,20.568653067817113,22.527402679901527,22.589561154233333
1769234666264,160,32,33.22471040903109,34.95137300012208,35.23358132260292
1769234666268,172,44,45.23213810774432,46.61411773154497,47.21599025649003
1769234666272,180,52,52.7570851785951,54.893313983946626,54.719078522339096
1769234666276,181,53,52.53709492778333,55.69790927998357,54.4947118371553
1769234666280,172,44,43.54314669777482,46.818033154010045,45.518477482579485
1769234666284,155,27,27.789315008605644,29.62175204788829,29.79819970854544
1769234666288,136,8,9.664534709072342,10.957124126584713,11.709421154002989
1769234666292,121,-7,-5.944344307260085,-4.358035781475154,-3.8756174812707407
1769234666296,111,-17,-15.688619479481432,-14.008893982950674,-13.617158661482678
1769234666300,109,-19,-18.84370149731734,-16.334391243680727,-16.78887825073653
1769234666304,111,-17,-17.003054295639018,-14.26254945899798,-14.972456222115952
1769234666308,115,-13,-12.797131520921926,-10.098595234355166,-10.783122924683797
1769234666312,119,-9,-8.518899208963449,-6.355543469021017,-6.503822891700217
1769234666316,121,-7,-5.376959978976188,-3.979218136430407,-3.343940765442321
1769234666320,124,-4,-3.5352854414149864,-1.340371410724138,-1.478094809276152
1769234666324,125,-3,-2.6028848940596374,-0.2698938818182301,-0.528373363876455
1769234666328,125,-3,-2.1266509965419336,-0.0207960388632062,-0.048232407766152
1769234666332,126,-2,-1.8488683823864471,0.5159426999587193,0.2235001406602321
1769234666336,125,-3,-1.7305319641377084,0.2678461554744011,0.3349531545117608
1769234666340,126,-2,-1.8414680967704764,0.3458748139722261,0.2233567627179065
1769234666344,125,-3,-2.2145340990377513,0.1606093558459831,-0.1436538472772834
1769234666348,125,-3,-2.743590977420572,-0.5095132408571343,-0.664466974668299
1769234666352,124,-4,-3.1896823425460443,-0.9309480858904182,-1.104673221211525
1769234666356,124,-4,-3.307980028077558,-1.26583715661044,-1.2204752139730122
1769234666360,124,-4,-3.016112066767845,-1.1196081791998984,-0.9276703050284868
1769234666364,125,-3,-2.4654037460358853,-0.2937842528269359,-0.3759426596549371
1769234666368,126,-2,-1.9351637195120803,0.8999341222917239,0.155484462347851
1769234666372,126,-2,-1.6280574792745957,0.7446084914508138,0.4639600384425282
1769234666376,125,-3,-1.54806668276517,0.0210991966605345,0.5465333525234182
1769234666380,126,-2,-1.5589249381294472,0.6581110271133654,0.5399451334470653
1769234666384,126,-2,-1.5356769657058362,0.9211462816144622,0.5675212023687641
1769234666388,126,-2,-1.4538906818172808,0.7307393532487172,0.6514506441620793
1769234666392,126,-2,-1.3650994202705589,0.9346167514886988,0.7400179981329185
1769234666396,126,-2,-1.3248345187663526,0.8581278005985298,0.7797843600711392
1769234666400,126,-2,-1.3483517379477703,0.8169987631719942,0.7575108499898602
1769234666404,126,-2,-1.409309405635092,0.815156343958521,0.6994751998899313
1769234666408,126,-2,-1.456946782115094,0.8241483796697409,0.6546814244704005
1769234666412,126,-2,-1.434284867054494,0.9247650966792272,0.6787512378841094
1769234666416,126,-2,-1.3009531088565558,0.8269409697577588,0.8124671298361132
1769234666420,126,-2,-1.0599648651831213,0.924350347977784,1.054120591927855
1769234666424,127,-1,-0.7638092813128661,1.6633682575048174,1.351597081559527
1769234666428,127,-1,-0.4804993594001558,2.074654514905424,1.6360388282832088
1769234666432,127,-1,-0.2466408989211208,1.6448586641241072,1.870159726979344
1769234666436,127,-1,-0.057509383175885,2.1668014921793093,2.0590943825900494
1769234666440,128,0,0.0994404733963474,2.5780760056904364,2.2163351308035155
1769234666444,127,-1,0.2142479162417995,2.0131257411021832,2.3323618244247046
1769234666448,128,0,0.2674147900033523,2.807750892687464,2.3871941621810406
1769234666452,128,0,0.2722719639895379,2.88127445430289,2.393255727511126
1769234666456,127,-1,0.2913329629196537,2.010133344378732,2.4125299701968053
1769234666460,128,0,0.3908645945916427,2.6835726996437805,2.5113304952849047
1769234666464,128,0,0.5684602823019909,2.9815889427532714,2.687657489913769
1769234666468,128,0,0.7286842298654257,2.828665257951732,2.846842528805148
1769234666472,128,0,0.7413515558783164,2.938055390191082,2.859515004493835
1769234666476,128,0,0.5457825856652367,2.933544966196126,2.664978119679593
1769234666480,128,0,0.2245961760594612,2.7841573988290915,2.344878126669817
1769234666484,127,-1,-0.0212377126044103,1.8933321505205185,2.0993275635414435
1769234666488,127,-1,0.0006321957832238,1.9558746092390615,2.1206439092491545
1769234666492,128,0,0.3357603038325079,2.84830469446803,2.454768846820792
1769234666496,128,0,0.8509495663889416,3.0453957274799377,2.9688562599007513
1769234666500,129,1,1.335472939180183,3.6647509271150898,3.4524801026577308
1769234666504,129,1,1.6446473529573788,4.055041499300924,3.7610638109861414
1769234666508,129,1,1.7685480626494825,3.802589680197845,3.8843687754030944
1769234666512,129,1,1.784977914507354,4.0373202673104345,3.8997567976746663
1769234666516,129,1,1.756487158455816,3.9049836920432712,3.869812990475976
1769234666520,129,1,1.674302367667167,3.7441144074539134,3.786370181210926
1769234666524,129,1,1.5050777357706642,4.105615138267128,3.6167302322604233
1769234666528,129,1,1.29467932623652,3.658571046598525,3.4069477066671734
1769234666532,128,0,1.2139651311197213,3.3299209915518695,3.3273666094957557
1769234666536,129,1,1.4713762915858255,3.542059485820597,3.5850468745532384
1769234666540,129,1,2.14435331527357,4.1599823573036865,4.255740966832374
1769234666544,131,3,3.070490545530767,5.71810142322512,5.176897376917445
1769234666548,131,3,3.896822012046991,6.042769199165122,5.998182609609494
1769234666552,131,3,4.265272832986435,6.0380772186111376,6.364860146813985
1769234666556,132,4,4.02935157351833,6.766422140723337,6.130726248717549
1769234666560,131,3,3.3778006481213843,6.018068507541146,5.481510994982935
1769234666564,130,2,2.7601009408981017,4.805647381306979,4.864322996720071
1769234666568,129,1,2.607804010840603,4.077656856035224,4.711228614191197
1769234666572,130,2,3.028894627643583,4.955869012444332,5.1310561592396
1769234666576,132,4,3.735112987339868,6.934585565467902,5.834358396245348
1769234666580,132,4,4.273635276899054,6.805395232455494,6.367441647605453
1769234666584,131,3,4.339701209463243,6.085863805358082,6.428050604592759
1769234666588,131,3,3.8962885098626847,5.796294217851717,5.983014660757974
1769234666592,130,2,3.0709865898730144,5.259982352525175,5.160355721494828
1769234666596,130,2,2.015744010639033,4.653096754709038,4.108349768631453
1769234666600,128,0,0.8666059016252332,3.105033018860567,2.9594399378663363
1769234666604,127,-1,-0.2375249544259217,1.8373958661478735,1.8523390655530292
1769234666608,126,-2,-1.176942049964086,1.0312775266254997,0.908931878287388
1769234666612,125,-3,-1.921643345406661,0.0827928635611079,0.1608356835795326
1769234666616,125,-3,-2.5689318173133495,-0.2047656204597019,-0.4891608555109572
1769234666620,124,-4,-3.2871243369212024,-0.935368266228254,-1.209534792654658
1769234666624,123,-5,-4.193978875443261,-2.1614492908401397,-2.1175118554231576
1769234666628,122,-6,-5.257396512635054,-2.9053736209141814,-3.180567362079735
1769234666632,121,-7,-6.289050704684971,-4.000659412566196,-4.211217479954418
1769234666636,120,-8,-7.039325338674898,-5.092851032995949,-4.9616181708226135
1769234666640,120,-8,-7.340954582193502,-4.998247375109151,-5.265582229990523
1769234666644,120,-8,-7.215994577769375,-5.074762634171444,-5.144480110973808
1769234666648,120,-8,-6.873495687134393,-4.990016762284993,-4.8055987233348105
1769234666652,121,-7,-6.586499678091079,-3.870668387601266,-4.5207671818269946
1769234666656,121,-7,-6.520515210758033,-4.2549643463801115,-4.4555671511890775
1769234666660,120,-8,-6.634375792378927,-4.752231476869688,-4.569577824107754
1769234666664,121,-7,-6.730348403273353,-4.324521700819943,-4.665700190300599
1769234666668,120,-8,-6.611362058533088,-4.727550182362573,-4.547217479639977
1769234666672,121,-7,-6.216660317933351,-4.0885578111147405,-4.153621688469638
1769234666676,122,-6,-5.634698434115418,-3.0648546155576533,-3.5735375503437825
1769234666680,122,-6,-5.004023900568766,-2.8330902313455724,-2.9453449794699473
1769234666684,123,-5,-4.406226703024551,-2.3018253857205853,-2.3499874019336007
1769234666688,123,-5,-3.8455747930172586,-1.6638603059835655,-1.790978079228528
1769234666692,124,-4,-3.313329719926366,-1.2051320213454937,-1.259305007547764
1769234666696,124,-4,-2.852796278373206,-0.8844920294930696,-0.7987435691281717
1769234666700,125,-3,-2.550243801622725,0.0229369640055896,-0.4964822852103556
1769234666704,125,-3,-2.459571742287695,-0.1559362961647199,-0.4070637425694912
1769234666708,124,-4,-2.5413299520518926,-0.7685416454870384,-0.4908459571014232
1769234666712,125,-3,-2.6840756762478213,-0.128695492345463,-0.6355084293566451
1769234666716,124,-4,-2.7907899670926093,-0.9003442627784493,-0.743162448556522
1769234666720,124,-4,-2.846649462731549,-0.9514410402794248,-0.7988840128465742
1769234666724,125,-3,-2.901772441269481,-0.114520445163841,-0.8536824614562555
1769234666728,124,-4,-2.9872333729562213,-0.8489622792353315,-0.9396762152481511
1769234666732,124,-4,-3.057448349201728,-0.9932133385741656,-1.0113770720242958
1769234666736,124,-4,-3.030180299037327,-1.0563150579102722,-0.9858012002171757
1769234666740,124,-4,-2.885020552616035,-0.7202540371987141,-0.8419258524852355
1769234666744,125,-3,-2.7094097727483675,-0.3365293112464464,-0.6670234592745716
1769234666748,124,-4,-2.6345203155486225,-0.6113526488503784,-0.592179753286985
1769234666752,125,-3,-2.7156269260307404,-0.20938682989089,-0.6727320312096139
1769234666756,124,-4,-2.864732069596678,-0.8569541851497227,-0.821299567626717
1769234666760,124,-4,-2.8990580429639277,-0.8295274883883264,-0.855923539883725
1769234666764,125,-3,-2.67535932324207,-0.2597216067806362,-0.6333204942259396
1769234666768,124,-4,-2.2091873129933597,-0.6019359827824817,-0.1679481337839057
1769234666772,126,-2,-1.679775645043287,0.718413034118291,0.3617282414068812
1769234666776,126,-2,-1.302694852534788,1.3006365041744914,0.7394601127798621
1769234666780,126,-2,-1.169544098891824,0.9960855909800124,0.8725483072862668
1769234666784,126,-2,-1.203947196127675,0.9685901054985132,0.8375364628025319
1769234666788,125,-3,-1.282069407848521,0.1911128945173481,0.7592746405513608
1769234666792,126,-2,-1.389241357728006,0.8788546729884454,0.6524919974393548
1769234666796,126,-2,-1.634915551900858,1.2561556263157674,0.4069206662009064
1769234666800,125,-3,-2.1052903618965377,-0.0271675120319452,-0.0633757771144738
1769234666804,124,-4,-2.716234817849603,-0.8698136031070565,-0.6728544854126395
1769234666808,124,-4,-3.220349097835504,-1.0624001967161476,-1.17407032199284
1769234666812,124,-4,-3.3575516984416796,-0.8009825377255524,-1.3090821267140758
1769234666816,124,-4,-3.026616214353798,-1.0613635934798995,-0.9783001838866424
1769234666820,124,-4,-2.367791029710105,-0.6528090491708416,-0.3210904880379726
1769234666824,126,-2,-1.7010858579487442,0.7964348240122845,0.3443663318469008
1769234666828,126,-2,-1.3339941855356048,1.234312671048925,0.7113199567758453
1769234666832,126,-2,-1.3561231846191906,0.9450358470035204,0.6904054794242023
1769234666836,125,-3,-1.586159846101187,0.1784062646785678,0.4636780698016167
1769234666840,125,-3,-1.721544602068526,0.1978081035070316,0.3336013467896661
1769234666844,126,-2,-1.55572282736727,0.9263570181773102,0.5041901856049915
1769234666848,126,-2,-1.083243000729077,1.1520024673304272,0.9775570117061948
1769234666852,127,-1,-0.4508910959908359,1.9992345216040452,1.606606836336793
1769234666856,127,-1,0.1451249677027635,2.1951667396582195,2.1990772224898834
1769234666860,127,-1,0.5244814820150001,2.169561566095042,2.579217318474688
1769234666864,128,0,0.5652517731271218,3.0231553284306756,2.625562703690409
1769234666868,128,0,0.2725849452407629,3.011708194485651,2.3394631766007765
1769234666872,127,-1,-0.1698664762945514,2.200795626694635,1.901077882151211
1769234666876,126,-2,-0.4753466407082469,0.9881964860012776,1.5971586030773084
1769234666880,126,-2,-0.4560351355617333,1.42470362351654,1.6172217587206503
1769234666884,128,0,-0.1792699416155845,2.792781952465333,1.894558517835062
1769234666888,127,-1,0.081708824178355,2.2325918434317855,2.1560578761877833
1769234666892,127,-1,0.0595840773489646,2.048828148981595,2.1355993238536812
1769234666896,127,-1,-0.3171014846053073,2.0980731230572824,1.762908958265906
1769234666900,126,-2,-0.8875278548485779,1.397603054785841,1.1980609023504836
1769234666904,126,-2,-1.375106649971481,0.7778345496707637,0.715557800879131
1769234666908,125,-3,-1.5681454919485052,0.3252068513842125,0.5257765188559338
1769234666912,126,-2,-1.4451681651297836,0.9510829652442072,0.6504392581170262
1769234666916,126,-2,-1.158328380041589,1.217687793514897,0.9384733304201268
1769234666920,126,-2,-0.8919188894336798,1.3300697410317737,1.2067709412987209
1769234666924,127,-1,-0.7153069808917167,1.7992580007922248,1.3869805279663128
1769234666928,126,-2,-0.5515397528889527,1.414445325566273,1.5564688437558163
1769234666932,127,-1,-0.278273731826762,1.7743899707086306,1.83662353580342
1769234666936,127,-1,0.1368069014911268,2.527927500997327,2.2573648502550903
1769234666940,128,0,0.583112677144668,2.9435214308459092,2.7059959102839564
1769234666944,128,0,0.8658372043160498,3.286991767176745,2.9883464505544035
1769234666948,128,0,0.810038119183758,2.893742587315394,2.933042220825564
1769234666952,127,-1,0.3398585020704632,2.3317415757998825,2.4675517337168635
1769234666956,127,-1,-0.4768975496966541,1.9901129449840975,1.6594350751447968
1769234666960,126,-2,-1.411329334102286,1.4859567002121077,0.7342422354277636
1769234666964,125,-3,-2.1221968963555593,-0.1832726788469214,0.0301754912572436
1769234666968,124,-4,-2.3084211335878315,-0.6876681443173065,-0.1523625220235969
1769234666972,126,-2,-1.8963059163644025,1.0286353720739807,0.261428026679614
1769234666976,126,-2,-1.112281055174657,1.1874135497519769,1.0471040688210524
1769234666980,126,-2,-0.3656120401107969,1.463988425726383,1.797506435007338
1769234666984,128,0,-0.0121879630843551,2.7226025577391484,2.157357528694316
1769234666988,127,-1,-0.1489252986821383,2.53781034165253,2.0282259342283826
1769234666992,127,-1,-0.5757392058363444,1.708156416386493,1.6085305039336049
1769234666996,125,-3,-0.9662650837869108,0.602070999905548,1.2245144774568737
1769234667000,126,-2,-1.121928297623574,1.0526942405882642,1.0750647652705418
1769234667004,127,-1,-1.0887706038264202,2.1487123491395423,1.1136418966077957
1769234667008,126,-2,-1.0432832364014617,1.1933448980255736,1.163625383629449
1769234667012,126,-2,-1.087059823391614,0.9557328141398664,1.1247495421493263
1769234667016,126,-2,-1.157443786304985,1.5026112550241373,1.061017134159123
1769234667020,126,-2,-1.1121336239908894,1.039846762723646,1.1143680370027051
1769234667024,126,-2,-0.880997981264903,1.3001958729078522,1.353358469829002
1769234667028,127,-1,-0.5451200006608659,2.0174887256905807,1.695729963867963
1769234667032,127,-1,-0.2811649539309302,2.1306423280123368,1.9649087392004383
1769234667036,127,-1,-0.2223146255389638,2.4009124932096153,2.0290155311615936
1769234667040,127,-1,-0.3559333782778263,2.072451432434363,1.90239668995734
1769234667044,126,-2,-0.5416651999003451,1.3907677706522743,1.7259544694835385
1769234667048,127,-1,-0.619340016239728,1.8721948202367769,1.6581643629935343
1769234667052,127,-1,-0.5018750648757563,2.3452606906170854,1.7835565678232357
1769234667056,127,-1,-0.1920840447687143,2.1751385802471237,2.0988791439941887
1769234667060,127,-1,0.2481632722226894,2.325736603038092,2.544592137970928
1769234667064,128,0,0.7342099135952815,3.178687492434378,3.038219766433679
1769234667068,129,1,1.2027207171583636,4.075114733629543,3.516004201035672
1769234667072,129,1,1.6598870479684469,4.189394230839287,3.9823880603123
1769234667076,129,1,2.1824587130506097,4.328085344072573,4.513590162056239
1769234667080,130,2,2.842961459791443,5.199356775679538,5.18285108667059
1769234667084,131,3,3.620605483393092,6.336997283095063,5.969569605141209
1769234667088,132,4,4.387160488145986,6.916280903982035,6.744695646567852
1769234667092,132,4,4.977776725644755,7.403758040364065,7.342830555302395
1769234667096,133,5,5.274186084924191,8.091684552090438,7.646481999262886
1769234667100,132,4,5.232723556197714,7.488047556354092,7.613526826773375
1769234667104,132,4,4.859787604467084,7.026857647190672,7.250991528541383
1769234667108,132,4,4.191185519490515,7.294870753968504,6.593563258560842
1769234667112,131,3,3.3085175019042525,6.009298502860471,5.721301903926094
1769234667116,129,1,2.353109029818684,4.537284560057104,4.775352320588363
1769234667120,129,1,1.482814379426488,4.036461775926165,3.914422207807939
1769234667124,128,0,0.7918842732758266,3.5002985426061235,3.233061745635258
1769234667128,128,0,0.2701831571085209,2.8596193990030505,2.7207373883619757
1769234667132,127,-1,-0.1629589217980811,2.452833152055446,2.296920917235667
1769234667136,127,-1,-0.587974808355378,2.1454258584930948,1.8821468993230748
1769234667140,126,-2,-1.0338260337408465,1.3889184709181213,1.4479262479161017
1769234667144,126,-2,-1.4706088769145853,1.2160131420780615,1.023117960791159
1769234667148,126,-2,-1.838066760500214,1.1184799857413186,0.6664311331858357
1769234667152,125,-3,-2.0933327572538523,0.277298461369786,0.4206906932368985
1769234667156,125,-3,-2.2555436525797337,0.2901190247066627,0.2684081125130459
1769234667160,125,-3,-2.408103331082339,0.3002746868039576,0.1273559917370339
1769234667164,125,-3,-2.6311365847505575,0.2625342298671715,-0.0834055462138319
1769234667168,125,-3,-2.9071225024448304,0.1678246644446046,-0.3478149452920336
1769234667172,124,-4,-3.1009764318076902,-0.8092571283355592,-0.5306423644555012
1769234667176,124,-4,-3.0625896290633623,-0.5474239121339233,-0.4801348175088513
1769234667180,125,-3,-2.768719336521277,0.0982921094036277,-0.1721601344581111
1769234667184,125,-3,-2.367562995609284,0.5008979389208879,0.2438289329870118
1769234667188,126,-2,-2.0857877137533096,0.9813599992555117,0.5385779242131039
1769234667192,125,-3,-2.0869310940133627,0.3614100132378399,0.5463088642671261
1769234667196,125,-3,-2.3821759000750684,0.3525054289317011,0.2554849869893796
1769234667200,125,-3,-2.799664160397003,0.1210739342725242,-0.1589650726312994
1769234667204,124,-4,-2.9508847277986385,-0.422771102774472,-0.3017808522445975
1769234667208,126,-2,-2.171625481439912,0.8842251884900896,0.4980621433949972
1769234667212,128,0,0.4836276252038288,3.536848447284946,3.1862828075237974
1769234667216,134,6,6.045133789666952,9.175367372298725,8.783181698206697
1769234667220,143,15,15.124754380188536,18.28191222585412,17.88567288934742
1769234667224,154,26,27.204277109286572,29.514117201803767,29.966892002281373
1769234667228,167,39,40.10886473738777,41.88336627715787,42.85697620294204
1769234667232,177,49,50.216961756129976,52.68721176774499,52.949386556757744
1769234667236,183,55,53.69364189448194,57.873304445764745,56.42394022819948
1769234667240,177,49,48.33333947594477,52.66976443279698,51.08208113780111
1769234667244,163,35,34.94553635596841,38.03361117569091,37.73131788022346
1769234667248,144,16,17.28044776026436,19.411249179017656,20.11232106721628
1769234667252,127,-1,0.3951610236551275,2.213120924955741,3.267614923695
1769234667256,116,-12,-11.583624491169829,-8.655324679717774,-8.68944833372927
1769234667260,111,-17,-17.00088853836727,-13.6172262013254,-14.107331159522635
1769234667264,111,-17,-16.794164516700747,-13.741929951046352,-13.913817073868575
1769234667268,115,-13,-13.410157914439534,-9.670784312264043,-10.539252539054642
1769234667272,119,-9,-9.348113655652202,-5.837689714206613,-6.470928552377296
1769234667276,121,-7,-6.162194906480188,-3.551829698182434,-3.2615905932422504
1769234667280,123,-5,-4.285286748125628,-1.7334383002314255,-1.3517317867083016
1769234667284,124,-4,-3.4597170782750752,-0.5999729813914398,-0.4946022278063062
1769234667288,125,-3,-3.264782939708986,0.24005191899094,-0.277483954618555
1769234667292,125,-3,-3.377310313275293,0.2097625636173572,-0.378058212328253
1769234667296,124,-4,-3.569725423321361,-0.5352848379797583,-0.5629346473959136
1769234667300,124,-4,-3.661118944211049,-0.7758199582702674,-0.6440300201710034
1769234667304,124,-4,-3.550738656265335,-0.4734787338528585,-0.5178069033077994
1769234667308,125,-3,-3.275700833898301,0.0984765447671134,-0.223839506691847
1769234667312,125,-3,-2.986275730264998,0.3838468850459122,0.0839838174478329
1769234667316,125,-3,-2.8342936967964807,0.3014873670406834,0.2528905338611014
1769234667320,125,-3,-2.8634542357267305,0.3800909721790946,0.2406648978378638
1769234667324,125,-3,-2.979395258263711,0.4441375185132288,0.1428456635263035
1769234667328,125,-3,-3.0084840058481825,0.1457345846353797,0.1325138860636259
1769234667332,125,-3,-2.80105538511131,0.4104684475442006,0.3580695255176094
1769234667336,126,-2,-2.3175869159662437,1.2389047839097462,0.8587049209839481
1769234667340,126,-2,-1.6504094406168617,1.4978116696825776,1.5429760076604686
1769234667344,127,-1,-0.9709299075359288,2.3302515642680746,2.240273132805347
1769234667348,128,0,-0.4339884086812313,3.2992262849016107,2.7953591109640783
1769234667352,128,0,-0.0994459356311143,3.2520851055155457,3.14758951455986
1769234667356,128,0,0.0721196545500744,3.4217693387974837,3.3368652970106165
1769234667360,128,0,0.1486382657256242,3.3245284870892275,3.4326579573709557
1769234667364,128,0,0.1560671624803156,3.531016352053022,3.4613514400579675
1769234667368,129,1,0.0880636974166184,4.130146959430238,3.4147749398931873
1769234667372,128,0,-0.0219465847320627,3.429743408194468,3.324010620915387
1769234667376,128,0,-0.0735235065237047,3.2582004497717127,3.2892236522436913
1769234667380,128,0,0.0200982485001268,3.5046339524405368,3.399342937776735
1769234667384,128,0,0.2196635570323939,3.371301264551435,3.6176517282857734
1769234667388,129,1,0.3567035798983118,4.313864248897261,3.7764275417225894
1769234667392,129,1,0.2785162974825497,4.292545126420286,3.7215382584194714
1769234667396,128,0,0.0134065265185068,3.3541017821931822,3.4788783781782664
1769234667400,128,0,-0.2186475206609246,3.4819481299642665,3.266636356890675
1769234667404,128,0,-0.1882194990677372,3.3463733535153284,3.3144096134141963
1769234667408,128,0,0.1185027273218444,3.4247394087226146,3.6384356487804106
1769234667412,129,1,0.4431233246525514,4.181204800964248,3.983182118278004
1769234667416,129,1,0.4540446654221395,4.482174966351394,4.017542071103928
1769234667420,129,1,0.0632543553946409,4.37131653983637,3.65117238624493
1769234667424,128,0,-0.4247993724096837,3.443803399345545,3.1861312835873457
1769234667428,127,-1,-0.5188024574285204,2.3888674829065772,3.1135067111165804
1769234667432,128,0,0.0346228961171666,3.205990820252548,3.6874299378722264
1769234667436,130,2,0.9921088641988683,5.512613618474039,4.664449092889175
1769234667440,131,3,1.784321749641362,6.3361044543130856,5.475426132644799
1769234667444,130,2,1.972726889109348,5.497397381878153,5.684009068866222
1769234667448,130,2,1.5874623760154516,5.372677285102002,5.322689462699417
1769234667452,130,2,1.0828419692131346,5.176637684057278,4.845065042205683
1769234667456,129,1,0.988633515137664,4.627186056939593,4.777457124032499
1769234667460,130,2,1.5426921812134204,5.18967369059933,5.354899874920825
1769234667464,131,3,2.5604038198537893,6.731326598163879,6.392555542189353
1769234667468,133,5,3.607812942526604,8.118022996946184,7.458347324326114
1769234667472,133,5,4.320844352250477,8.43513697920665,8.191067605847481
1769234667476,133,5,4.61191915713094,8.412877917351558,8.505598381144782
1769234667480,133,5,4.628376878312253,8.364608117582232,8.549316393025258
1769234667484,133,5,4.560595218393384,8.662287183456833,8.509486125896467
1769234667488,134,6,4.50126896867704,9.124222207091288,8.475089308119571
1769234667492,133,5,4.446930149038366,8.517925129029955,8.442078638034936
1769234667496,133,5,4.371354643298239,8.283537008713461,8.387233935120873
1769234667500,133,5,4.2710482436480595,8.55443079416958,8.310160775792482
1769234667504,133,5,4.165401202855142,8.465937350724303,8.230348345739408
1769234667508,133,5,4.086078785448706,8.362838159831178,8.177222687791366
1769234667512,133,5,4.067905966737342,8.284673834623128,8.183898141059796
1769234667516,133,5,4.129175787462232,8.533027008393336,8.269024317386368
1769234667520,133,5,4.2462684665117205,8.322584294695966,8.410382301627784
1769234667524,133,5,4.3517899450659305,8.701831601979483,8.541111981318437
1769234667528,134,6,4.372998068414031,9.195198075099732,8.587691980895432
1769234667532,133,5,4.281267598861382,8.398930241524578,8.52077645377638
1769234667536,133,5,4.099158004481934,8.517683362606663,8.363414953650487
1769234667540,133,5,3.853374508144335,8.254036159582931,8.143370299263427
1769234667544,132,4,3.52640741037468,7.876764275279079,7.843299593313624
1769234667548,133,5,3.0625907709538014,7.990518670321677,7.40639497150201
1769234667552,131,3,2.420417759075785,6.650448537960989,6.789716241800396
1769234667556,131,3,1.611316609311133,6.271797944934006,6.0044595541527475
1769234667560,130,2,0.6824805249425236,5.49128191111415,5.099492862031493
