timestamp_ms,ecg_u8_raw,ecg_counts_raw_int,ecg_counts_filt_monitor,ecg_counts_filt_diagnostic,ecg_counts_filt_st
1770452218204,126,-2,-0.9836194929452288,-2.522191496008994,-2.659841565843264
1770452218208,125,-3,-2.2771329913536245,-3.81754673464672,-3.952706946740671
1770452218212,123,-5,-3.446374644412632,-5.3513688353208275,-5.12230637735263
1770452218216,123,-5,-4.178498241341945,-6.039327646687088,-5.854797555933887
1770452218220,123,-5,-4.466549832212896,-5.913341432555051,-6.142578920394749
1770452218224,123,-5,-4.528653907082327,-5.705796752060374,-6.203493095536977
1770452218228,123,-5,-4.545859625937805,-5.70662964592282,-6.218425610573074
1770452218232,122,-6,-4.477056703343797,-6.34049428110472,-6.146735306559686
1770452218236,123,-5,-4.1266535966046405,-6.142510923152512,-5.794819868634352
1770452218240,124,-4,-3.384875950228299,-4.693391377945005,-5.0554380310837015
1770452218244,125,-3,-2.391002481440845,-3.9831160057303983,-4.067736869626883
1770452218248,125,-3,-1.4401259134765465,-3.3829116456570287,-3.122351952919617
1770452218252,127,-1,-0.6722493256625628,-1.6336030573973246,-2.353478790185047
1770452218256,128,0,0.2293062680819284,-0.8818464868873759,-1.442363985435425
1770452218260,129,1,2.056008531779337,0.1154770503343001,0.3984623500914228
1770452218264,133,5,5.680147220507758,4.170030583568692,4.033320085938103
1770452218268,138,10,11.411828161249986,9.534945588101492,9.765298594237096
1770452218272,145,17,18.508239738971703,16.439389257817137,16.850332062675076
1770452218276,153,25,25.215264623224773,24.0912878840194,23.540382138014277
1770452218280,157,29,29.423370360367105,28.134183710221365,27.736118280211336
1770452218284,157,29,29.630877401436308,28.133142984055695,27.94374988780465
1770452218288,153,25,25.687074468970263,24.588232559376515,24.012808156336668
1770452218292,146,18,18.886534109480593,17.360332001140755,17.23049308880239
1770452218296,138,10,11.345638337539295,9.22479183712072,9.703539532440455
1770452218300,132,4,5.005611684197817,3.02323421778577,3.367199629019882
1770452218304,128,0,0.8302234886026936,-0.7233087441284236,-0.8146255423209671
1770452218308,126,-2,-1.3663530005234723,-2.513947549935894,-3.0227056004808395
1770452218312,125,-3,-2.4531948478686365,-3.5329441329143343,-4.11913444439247
1770452218316,124,-4,-3.278080803654798,-4.851178858447409,-4.946387320430817
1770452218320,123,-5,-4.206163895388308,-5.9260917890599645,-5.868837210569076
1770452218324,122,-6,-5.1172014135038815,-6.739128211448138,-6.770129681857272
1770452218328,121,-7,-5.7218081508870915,-7.521761081821772,-7.366517279467919
1770452218332,121,-7,-5.884437496734159,-7.444498609447566,-7.526181691989682
1770452218336,122,-6,-5.723483164093512,-6.971984338468029,-7.367507594004886
1770452218340,122,-6,-5.481172408148248,-6.744672139169007,-7.129509040376263
1770452218344,122,-6,-5.3329104296026815,-6.965802735418666,-6.983400842506934
1770452218348,121,-7,-5.307129749694208,-7.24379545931785,-6.9554027961453375
1770452218352,122,-6,-5.340144984220403,-6.724306206737409,-6.983276524083247
1770452218356,122,-6,-5.363953272692192,-6.655374748125832,-7.0026424698787615
1770452218360,122,-6,-5.33929733389483,-7.047603579957123,-6.97657015895676
1770452218364,122,-6,-5.240414795155225,-6.672659625464274,-6.878416780536506
1770452218368,122,-6,-5.04198256916814,-6.494621078512387,-6.680098663089895
1770452218372,122,-6,-4.728114969185368,-6.497403130026746,-6.363967980377176
1770452218376,123,-5,-4.303249049913902,-5.799420287967549,-5.935366763198224
1770452218380,124,-4,-3.7844860421233055,-4.948661318760055,-5.413861066710894
1770452218384,124,-4,-3.1898444326761566,-4.711529928878566,-4.818650400779405
1770452218388,124,-4,-2.5549170079402233,-4.49108523901465,-4.183897704817884
1770452218392,125,-3,-1.967598965732052,-3.4481389043357464,-3.5953292737852927
1770452218396,126,-2,-1.558006769321954,-2.844259832761554,-3.1827345021788203
1770452218400,126,-2,-1.4143048051527336,-2.8790530750712966,-3.0358077732404363
1770452218404,126,-2,-1.4943962704421316,-2.7744602851376445,-3.11367391120422
1770452218408,125,-3,-1.6363409807352294,-3.4218066438807284,-3.253977145690443
1770452218412,125,-3,-1.6781338303487812,-3.5075984617560647,-3.2936340360930245
1770452218416,126,-2,-1.578894302910407,-2.7430519456984186,-3.1916825007973384
1770452218420,126,-2,-1.4256560004145828,-2.971887628939154,-3.036134231986634
1770452218424,126,-2,-1.326311810789043,-2.6658665086328512,-2.9353938691692827
1770452218428,126,-2,-1.3029198010208431,-2.5123643055108147,-2.910583297532785
1770452218432,125,-3,-1.2893087808714707,-3.442621867787598,-2.8942328522767697
1770452218436,126,-2,-1.2187974771081416,-2.7365313645122256,-2.8199489558608923
1770452218440,127,-1,-1.0943579606720082,-1.9988278896428169,-2.692510712011629
1770452218444,126,-2,-0.9701396436109044,-2.5858784868496105,-2.566922029896369
1770452218448,126,-2,-0.8839146735254576,-2.613671612434035,-2.4795247278980272
1770452218452,126,-2,-0.8161343303843047,-2.3148762029436663,-2.4090160245831695
1770452218456,127,-1,-0.6925375953938461,-1.8652848655968783,-2.281298828529642
1770452218460,127,-1,-0.4095771889354123,-1.8215616846726437,-1.9942547576904444
1770452218464,127,-1,0.1196951737031631,-1.7543439369529368,-1.46172606984577
1770452218468,128,0,0.9053728713127832,-0.4425361461667589,-0.6735122529102238
1770452218472,129,1,1.848912390467783,0.5368039715743378,0.272050383547773
1770452218476,130,2,2.7753005390539554,1.264141000236488,1.2002765109314946
1770452218480,131,3,3.5055830615400088,2.1357590197104237,1.9329973386188883
1770452218484,131,3,3.916143559349456,2.2445087449168075,2.3471630918505273
1770452218488,131,3,3.961081568082296,2.6082842626930978,2.396292314153163
1770452218492,131,3,3.668854733498589,2.4539280433406,2.107607457722854
1770452218496,130,2,3.124230040790855,1.3880798746457303,1.5655286060848133
1770452218500,130,2,2.4386448515057184,1.0405193442887746,0.882533697862844
1770452218504,129,1,1.7243323800552686,0.3569074299474091,0.1719977728595367
1770452218508,128,0,1.0940063190574567,-0.5065916390302903,-0.4535586588535881
1770452218512,128,0,0.6792162828318477,-0.4198391285371193,-0.8638742356167834
1770452218516,128,0,0.623610495560878,-0.713746484109659,-0.9160260342292584
1770452218520,128,0,1.0166165305743176,-0.8319638217864536,-0.5198948990128134
1770452218524,129,1,1.8013151208874694,0.2580211558488776,0.2684406478312722
1770452218528,130,2,2.7496355017114804,1.5783750868810218,1.220441361050883
1770452218532,131,3,3.5561456165053325,2.5072111160149313,2.0297344089713283
1770452218536,131,3,3.982261515465777,2.3946021991895776,2.4581602467799746
1770452218540,131,3,3.9334614024662895,2.0590575491987044,2.412682014803304
1770452218544,131,3,3.4381604244025796,2.4065713357135197,1.9222976845161104
1770452218548,130,2,2.594303373312766,1.3999770299329513,1.084178178246899
1770452218552,128,0,1.5390110314356622,-0.2785938916154105,0.0345581563457579
1770452218556,128,0,0.4335159708691304,-0.7979267262335807,-1.065849778113085
1770452218560,127,-1,-0.5606203855767349,-1.7223790170910929,-2.0560400358089375
1770452218564,126,-2,-1.320063650663561,-2.8121478125538344,-2.8128096232713795
1770452218568,125,-3,-1.8067516535489436,-3.3522170251007353,-3.2970134465562557
1770452218572,125,-3,-2.096202308713552,-3.550033162053574,-3.582570399045249
1770452218576,125,-3,-2.343889996560997,-3.4502453872733203,-3.824532443761395
1770452218580,125,-3,-2.6863218944344234,-4.098432015378277,-4.160727149567114
1770452218584,124,-4,-3.1476600836551523,-4.38816763462847,-4.617057951194932
1770452218588,124,-4,-3.640780773393803,-4.7958357354774,-5.106713958648375
1770452218592,122,-6,-4.0738423010048574,-6.09643276072655,-5.536467562655134
1770452218596,123,-5,-4.462610792376783,-5.853110419801723,-5.920782192424147
1770452218600,123,-5,-4.920638021385382,-5.706228504641551,-6.373462930638811
1770452218604,122,-6,-5.515054644424772,-6.722601356926291,-6.96251902587439
1770452218608,121,-7,-6.13340610038692,-7.513115651538165,-7.575427745147663
1770452218612,120,-8,-6.515171999586756,-8.310109230876748,-7.951209920097802
1770452218616,121,-7,-6.433047775206362,-7.688198353744724,-7.863197856819352
1770452218620,122,-6,-5.861248099092987,-6.763314290441707,-7.286743313656148
1770452218624,122,-6,-4.998364687773396,-6.712457839803573,-6.420232944435452
1770452218628,123,-5,-4.148006690112553,-5.470591447415624,-5.5659342462859716
1770452218632,124,-4,-3.550406699325629,-4.377766753906705,-4.963520957590276
1770452218636,124,-4,-3.2702069109823215,-4.609820945698758,-4.6781708606681525
1770452218640,124,-4,-3.2102156594843856,-4.787739250583096,-4.612812247102735
1770452218644,124,-4,-3.233378616711189,-4.693430604591191,-4.629712490055532
1770452218648,124,-4,-3.2775986928010883,-4.468245727973963,-4.6667154233877115
1770452218652,124,-4,-3.3541239824027715,-4.38265390579851,-4.736407057715379
1770452218656,124,-4,-3.449287312648284,-4.588218829142848,-4.826595713341593
1770452218660,124,-4,-3.460386947256961,-4.762971615820432,-4.834380115895741
1770452218664,124,-4,-3.2589378387189143,-4.725681693458441,-4.629278042221953
1770452218668,124,-4,-2.8261669127084943,-4.406122513825123,-4.190711481350288
1770452218672,125,-3,-2.3077766964518505,-3.472031109681808,-3.664772431441786
1770452218676,126,-2,-1.905057682578975,-2.435241607526396,-3.254814601822196
1770452218680,126,-2,-1.7000214076368412,-2.9195808201194864,-3.0441009268639294
1770452218684,125,-3,-1.601470743554262,-3.5334906216089523,-2.9408341282389063
1770452218688,126,-2,-1.4731431763269085,-2.62111667734043,-2.8077777115976597
1770452218692,126,-2,-1.303174134300638,-2.24354228523552,-2.63279092045504
1770452218696,126,-2,-1.2365371816437565,-2.6304121511550864,-2.560531266242805
1770452218700,126,-2,-1.4407799451169845,-2.6817827566221055,-2.7580280224706435
1770452218704,126,-2,-1.92631305180916,-2.776500426355725,-3.236134643468529
1770452218708,125,-3,-2.476663558183824,-3.3808052086619544,-3.779658298736974
1770452218712,124,-4,-2.770171155906015,-4.48997717417269,-4.067311211120716
1770452218716,124,-4,-2.6249637547219034,-4.328834771386629,-3.91641759494282
1770452218720,126,-2,-2.1630575979011155,-2.9586190286278025,-3.4487348077635325
1770452218724,126,-2,-1.7266776161343202,-2.477591814262582,-3.007253964959306
1770452218728,126,-2,-1.6078267014866463,-2.6993514609784137,-2.8840666692030865
1770452218732,125,-3,-1.8374302115470793,-3.167966602165217,-3.1086465015009557
1770452218736,125,-3,-2.2111456495388317,-3.6160658467170306,-3.4752503015927267
1770452218740,125,-3,-2.4919575189522605,-3.6628274830066134,-3.747315677140167
1770452218744,125,-3,-2.584297506843339,-3.707759135860207,-3.831289095198378
1770452218748,125,-3,-2.541624510457589,-3.532788434546031,-3.7823543582837056
1770452218752,125,-3,-2.4459065816933503,-3.2571203417266537,-3.6824195161345217
1770452218756,125,-3,-2.306885291016166,-3.5796379421560123,-3.5394681058127273
1770452218760,125,-3,-2.0824615992754483,-3.6059699581444935,-3.3095848227563733
1770452218764,126,-2,-1.77762456303763,-2.794811412277812,-2.9976113615423468
1770452218768,126,-2,-1.492313319210493,-2.412661007798537,-2.704916759242735
1770452218772,126,-2,-1.3525567208149107,-2.389250131515692,-2.558732557196212
1770452218776,126,-2,-1.3940476393217132,-2.414337630699731,-2.5944976556696075
1770452218780,126,-2,-1.517465408704187,-2.7526335590568483,-2.7118572326808006
1770452218784,126,-2,-1.5589883241295457,-2.637585464932214,-2.746537499703949
1770452218788,126,-2,-1.412624961964997,-2.5502640899180182,-2.593067907013139
1770452218792,126,-2,-1.103805280173949,-2.265345154054483,-2.277712403874082
1770452218796,127,-1,-0.7634665435285479,-1.480304187637976,-1.931763726507599
1770452218800,127,-1,-0.5360500996255346,-1.6948222976974152,-1.69928402258724
1770452218804,127,-1,-0.5014124055432292,-1.6675820039649354,-1.659394996775318
1770452218808,127,-1,-0.6629642962426614,-1.5162526088039283,-1.8150107239249205
1770452218812,126,-2,-0.9863430263351568,-2.311529594216676,-2.1317618645816374
1770452218816,126,-2,-1.4331611569899163,-2.3744290460797743,-2.571605819096696
1770452218820,126,-2,-1.9533407795188984,-2.8064296963417803,-3.0848882578491876
1770452218824,125,-3,-2.4527431131304964,-3.5256543618928404,-3.577674329847023
1770452218828,125,-3,-2.789172826182414,-3.658656308458003,-3.907676489177215
1770452218832,124,-4,-2.8282861642849193,-4.168891837395518,-3.940545374713966
1770452218836,125,-3,-2.5263719182984596,-3.474918205787981,-3.632966390011549
1770452218840,126,-2,-1.9692189172266368,-2.6922282947377147,-3.0710195682017334
1770452218844,126,-2,-1.3300934020791324,-2.617431590679463,-2.4273314753955386
1770452218848,127,-1,-0.7768542843398056,-1.5723164390722693,-1.8684166756444252
1770452218852,127,-1,-0.390908702364181,-1.2451077696044608,-1.475005035448083
1770452218856,127,-1,-0.1441033544013203,-1.3810869244647734,-1.219947920524544
1770452218860,128,0,0.0591533585236883,-0.7566450612397464,-1.0097410402726448
1770452218864,128,0,0.3043675575332631,-0.5333787878828078,-0.760128807847248
1770452218868,128,0,0.603259091401732,-0.6639223017734294,-0.458376132848057
1770452218872,128,0,0.8893902357862822,-0.1385860826180625,-0.168392574694956
1770452218876,129,1,1.090476766900018,0.5433249821315312,0.039328421847083
1770452218880,129,1,1.2355567514526382,0.3138722157511271,0.1934563719239344
1770452218884,129,1,1.499088229719736,0.4681049119136844,0.4663082326447068
1770452218888,130,2,2.1078483781674677,1.261953476325261,1.0821976897944283
1770452218892,130,2,3.1488601706134247,2.0178571718832377,2.1269676251447676
1770452218896,132,4,4.419429254366707,3.3489974581892508,3.398868618977585
1770452218900,133,5,5.4585246968813355,4.582121733300267,4.439280048555075
1770452218904,134,6,5.782426313373696,5.198230783392271,4.766783434521877
1770452218908,133,5,5.188433491738156,4.510657357729033,4.179722291408878
1770452218912,131,3,3.911010618904141,2.808537421640861,2.9119956537503575
1770452218916,130,2,2.502547854548431,1.5220041232065555,1.5139362621375698
1770452218920,129,1,1.5111444335220297,0.5081307699124102,0.5308689403510591
1770452218924,129,1,1.1729569691673074,0.2360914720194556,0.1970037018055419
1770452218928,129,1,1.312992926760366,0.531282379844494,0.337594365176479
1770452218932,129,1,1.4936199301610222,0.7551130016303624,0.5175010372122586
1770452218936,129,1,1.2908079498030531,0.6124330068054917,0.3160502568246912
1770452218940,128,0,0.5201740925961398,-0.5725846859406905,-0.4489913673122792
1770452218944,127,-1,-0.6989286585655468,-1.655890760752179,-1.65883215035567
1770452218948,126,-2,-2.0334574154726757,-2.593575059569671,-2.98329644292254
1770452218952,124,-4,-3.100758631339549,-4.07398050399771,-4.0426953192032515
1770452218956,124,-4,-3.62887912764778,-4.593549399454869,-4.566239730312862
1770452218960,124,-4,-3.5600682380170445,-4.259921414072407,-4.495578825191146
1770452218964,125,-3,-3.0610359336836703,-4.035025120598144,-3.9961095102482176
1770452218968,125,-3,-2.4343486391499445,-3.137562730638425,-3.368765024087578
1770452218972,126,-2,-1.974635945399103,-2.5692552523878667,-2.9061330778174557
1770452218976,125,-3,-1.8422056404104732,-3.0738581347145235,-2.7669877485968617
1770452218980,126,-2,-2.007444411330911,-2.7320561025319345,-2.9225519846090484
1770452218984,126,-2,-2.2773082972655936,-2.5967689660344107,-3.1833826427783745
1770452218988,125,-3,-2.3926105730683083,-3.506930875163671,-3.294201332360292
1770452218992,125,-3,-2.167448463416288,-3.2550540298506645,-3.0701584953764836
1770452218996,126,-2,-1.5945264305114597,-2.299843221187209,-2.5010998249656313
1770452219000,127,-1,-0.8147405777495638,-1.5516803661705,-1.7226537269053048
1770452219004,128,0,0.0706725781758209,-0.6922289525477165,-0.8316480464150957
1770452219008,129,1,1.2234277985728252,0.5374060442761865,0.3336135891293876
1770452219012,131,3,3.128655830268037,2.7526312706206104,2.2530081567698295
1770452219016,134,6,6.358161541513954,5.673133016083883,5.491583572083799
1770452219020,138,10,11.093479884541072,9.532263559891396,10.227569392409544
1770452219024,144,16,16.700543206118848,15.226971137819891,15.8283666242519
1770452219028,150,22,21.735592424198177,21.640706485194677,20.854518804085632
1770452219032,153,25,24.52351112990356,24.643794297812672,23.636455117280764
1770452219036,151,23,24.003581198860346,22.785017980967837,23.11875364652103
1770452219040,148,20,20.29500214455018,19.42337039077638,19.422134662413495
1770452219044,143,15,14.633553803554536,14.341249963770746,13.777563687708756
1770452219048,136,8,8.754361446241466,7.5253042372108,7.911949316582057
1770452219052,131,3,4.095964912020586,2.832743677232548,3.2582054507704767
1770452219056,129,1,1.2542050587500695,0.5913254170874241,0.4120978832686663
1770452219060,128,0,-0.0540999976943914,-0.3114459635676805,-0.9051801604774912
1770452219064,128,0,-0.577769191090937,-0.9691669864062756,-1.4360456779622557
1770452219068,126,-2,-1.0012733341463869,-2.1070980843640883,-1.8596012425817856
1770452219072,126,-2,-1.6341389322573034,-2.57542219978835,-2.4846035435468155
1770452219076,125,-3,-2.4166422357981925,-2.9448549523720913,-3.25616532409915
1770452219080,125,-3,-3.1156679374514216,-3.784784780161429,-3.9477611756398905
1770452219084,124,-4,-3.5403921658971584,-4.476609469523722,-4.371514592147746
1770452219088,124,-4,-3.6705963498518495,-4.562522739875808,-4.504995909160375
1770452219092,124,-4,-3.6509050483834335,-4.161125117046841,-4.488426379046758
1770452219096,124,-4,-3.6648288211878746,-4.265096006939935,-4.502244927240929
1770452219100,124,-4,-3.779463088609546,-4.539219834156779,-4.613145818448
1770452219104,124,-4,-3.881944497321566,-4.606314621012724,-4.710085521360353
1770452219108,124,-4,-3.762012390019934,-4.531672172777508,-4.585628136714287
1770452219112,124,-4,-3.2829862847836218,-4.079776698004221,-4.105335741235685
1770452219116,125,-3,-2.5174494074017533,-3.410718574119648,-3.3420967340194627
1770452219120,126,-2,-1.745194129790403,-2.3027361837032947,-2.573747798665732
1770452219124,127,-1,-1.3018554564853129,-1.8738112515130176,-2.132703840576996
1770452219128,126,-2,-1.369926689850371,-2.2469710493261656,-2.198983187451849
1770452219132,126,-2,-1.8475692863478117,-2.3468441151924493,-2.671003829741984
1770452219136,125,-3,-2.3838277219843116,-3.156334711240123,-3.2010761496692512
1770452219140,125,-3,-2.569009749883276,-3.488488948546223,-3.383545918645998
1770452219144,126,-2,-2.177803010691496,-2.7175664580664445,-2.994680200187675
1770452219148,126,-2,-1.32365741519697,-2.342545914358115,-2.1457271129508486
1770452219152,127,-1,-0.4173449287866904,-1.292844579214275,-1.2434887376060466
1770452219156,128,0,0.072420416601812,-0.1446694642273497,-0.7542975299784521
1770452219160,128,0,-0.0786215088006376,-0.5214843951116004,-0.9029150121835294
1770452219164,127,-1,-0.6971223984365771,-1.6521829542133055,-1.518021511599735
1770452219168,126,-2,-1.3361986041105598,-2.400852911459025,-2.1546133408206645
1770452219172,126,-2,-1.5882325650624356,-2.25606179715089,-2.4061521055792205
1770452219176,126,-2,-1.343122976955121,-2.1003489538935245,-2.1626227363388817
1770452219180,127,-1,-0.8054325966613443,-1.602364591058255,-1.6277471123210825
1770452219184,128,0,-0.2878676188391412,-0.482543093601235,-1.1130036876110403
1770452219188,128,0,0.0320872735500431,-0.6409395874458214,-0.7948116521873658
1770452219192,127,-1,0.1970584179201417,-0.9687777101165856,-0.629987837024099
1770452219196,128,0,0.3533408843511713,-0.3914685186025823,-0.4726751258594854
1770452219200,128,0,0.5722425895145061,-0.275704806509529,-0.2531000817405761
1770452219204,129,1,0.7877327974961669,0.2241357849880924,-0.0387509155126725
1770452219208,129,1,0.8920854310564857,0.6330072519969097,0.0628907895054609
1770452219212,128,0,0.8697954516516646,-0.2120541889430121,0.0381994523070127
1770452219216,128,0,0.8301725183339422,-0.177954334963504,-0.0021755091024192
1770452219220,129,1,0.9199842410817188,0.5960087281872317,0.0876695545859169
1770452219224,129,1,1.209969707923532,0.3158041898840305,0.3765173315008008
1770452219228,129,1,1.6485332716325023,0.6040783314398694,0.8120752811594518
1770452219232,130,2,2.106053746904018,1.7836021409039802,1.2659997889745798
1770452219236,130,2,2.4705819900804853,1.843456403804004,1.6283517659520106
1770452219240,130,2,2.723231699969184,1.6184632765802411,1.881122866869932
1770452219244,131,3,2.937535821891454,2.282390020747631,2.096358197663495
1770452219248,131,3,3.209474366253509,2.689709464142816,2.36704652860362
1770452219252,131,3,3.572339598347956,2.6492783159107756,2.7249661450273117
1770452219256,131,3,3.9496082757659186,3.0392483004911854,3.0956000777398516
1770452219260,132,4,4.1830646216259915,3.415601840280469,3.3246544520516657
1770452219264,132,4,4.146593940437436,3.519887503632369,3.2881503859597183
1770452219268,132,4,3.8879041375273977,3.4660430840562695,3.0322137697540756
1770452219272,131,3,3.672647059480326,2.8530575428491685,2.818658221891258
1770452219276,131,3,3.8391296971435938,2.8716229403176508,2.9828158417079393
1770452219280,132,4,4.524858658160762,3.5966648449761287,3.662123943191932
1770452219284,133,5,5.4736028819194456,4.361451024594586,4.602817019195654
1770452219288,134,6,6.118612454009645,5.656227521075294,5.241147377167484
1770452219292,134,6,5.937513666995633,5.636376417938314,5.056577407537882
1770452219296,132,4,4.835821703379381,4.117320391843188,3.954888974873304
1770452219300,131,3,3.254455096434463,2.352764218937369,2.37585623559023
1770452219304,129,1,1.8965677141459836,0.6207564103292624,1.0201164181227655
1770452219308,129,1,1.2715734200407849,0.4402496233245589,0.393926746929033
1770452219312,129,1,1.3911234391382568,0.8275237454665851,0.5072056391318818
1770452219316,129,1,1.8127041076571713,1.006812322948614,0.9189763101662064
1770452219320,130,2,1.9569684042922504,1.4008976242406732,1.0540514315973866
1770452219324,129,1,1.4558692872191794,0.6660966167462008,0.54814448303822
1770452219328,128,0,0.3193044134781106,-0.6917309218137284,-0.5882542904535852
1770452219332,126,-2,-1.133433900480541,-1.9470710196553431,-2.038628956935609
1770452219336,125,-3,-2.4815966499981794,-3.259317828425634,-3.3860553981192676
1770452219340,124,-4,-3.4061678109478053,-4.27348675888296,-4.313655189169504
1770452219344,124,-4,-3.793342733748606,-4.65290292648316,-4.707092842732665
1770452219348,124,-4,-3.7236514294208543,-4.375497564952212,-4.644717431694715
1770452219352,124,-4,-3.389793312118415,-4.2284448711429565,-4.317035672298741
1770452219356,124,-4,-3.003474681760361,-3.9857275272358934,-3.9347235966957848
1770452219360,125,-3,-2.7300368055335245,-3.507048623887171,-3.663657807469865
1770452219364,125,-3,-2.6555097663699465,-3.42445413641699,-3.5913716297919884
1770452219368,125,-3,-2.7791900097494815,-3.590298427238562,-3.7183051935988383
1770452219372,124,-4,-3.032418922383399,-4.0020091644997295,-3.9757357434974314
1770452219376,124,-4,-3.31851849502906,-4.195539075537315,-4.266147380271752
1770452219380,124,-4,-3.5505300828924837,-4.278264066523464,-4.5019838329770945
1770452219384,124,-4,-3.665187093314366,-4.630662913642749,-4.62008595717267
1770452219388,124,-4,-3.61789379445311,-4.396150781390467,-4.576376342972045
1770452219392,124,-4,-3.3822965862564507,-4.146884004359997,-4.344896178890734
1770452219396,124,-4,-2.967847261776364,-4.083588346086662,-3.935126673763403
1770452219400,125,-3,-2.43993293698888,-3.3144300704440046,-3.412266283273271
1770452219404,126,-2,-1.910202374530514,-2.6357831792491373,-2.887631362752246
1770452219408,126,-2,-1.4858233521721078,-2.3388977879301596,-2.467750151352786
1770452219412,126,-2,-1.208841750947149,-2.219591535634474,-2.1940385332571877
1770452219416,126,-2,-1.0301840389039765,-1.9861871387056245,-2.0177066312362566
1770452219420,127,-1,-0.8363581493869682,-1.3913018873382903,-1.826555417899872
1770452219424,127,-1,-0.5187936514602214,-1.554953323564154,-1.5130474476112536
1770452219428,127,-1,-0.0573807327003921,-1.3926419303621729,-1.0569178439652294
1770452219432,128,0,0.434114279832503,-0.1685185465142167,-0.571138972120315
1770452219436,128,0,0.7510371680504234,-0.0085184178772892,-0.2596915602344324
1770452219440,128,0,0.7150308202846067,-0.3662116340172022,-0.3003805785084323
1770452219444,128,0,0.281502293980432,-0.553288031935586,-0.7374496122702807
1770452219448,127,-1,-0.4375321625833086,-1.3920557796388255,-1.4592023923870725
1770452219452,126,-2,-1.2394388257024933,-2.1738705882310674,-2.2639104057413633
1770452219456,125,-3,-1.9333838945965316,-2.944075888629386,-2.961499863013785
1770452219460,125,-3,-2.414902212219095,-3.4718952264532685,-3.4476611248675333
1770452219464,125,-3,-2.6736264278820334,-3.351242851921986,-3.711612409781763
1770452219468,125,-3,-2.745555455482271,-3.6690652685117864,-3.7885157800677938
1770452219472,124,-4,-2.662739677107703,-3.8167962146442553,-3.709614655464398
1770452219476,125,-3,-2.443323057071952,-3.332024354364454,-3.493140353617428
1770452219480,125,-3,-2.114900807958068,-3.048423008114012,-3.167937750762942
1770452219484,126,-2,-1.7344062872554165,-2.7413009988590176,-2.792212498783877
1770452219488,126,-2,-1.3827897981335129,-2.320602214522536,-2.446645610333856
1770452219492,126,-2,-1.1391299267484536,-2.076087096980439,-2.208340491671031
1770452219496,126,-2,-1.0475329807970415,-2.1642112504334143,-2.119528723766858
1770452219500,126,-2,-1.0876697362216068,-2.0780213304091317,-2.1603078060863172
1770452219504,127,-1,-1.164636229161133,-1.8140310264524009,-2.238545865253924
1770452219508,126,-2,-1.1459429272453427,-2.1332223152441454,-2.224198287830034
1770452219512,126,-2,-0.9578335715514892,-2.3299778533753916,-2.0430978621431435
1770452219516,126,-2,-0.6852186550000767,-1.856882065743976,-1.7774694217231517
1770452219520,127,-1,-0.5640365457470358,-1.3655346025287356,-1.6610435950037536
1770452219524,127,-1,-0.8168827899335973,-1.5468411248797658,-1.9162764996509831
1770452219528,126,-2,-1.4406982840622458,-2.320461642442709,-2.541294134299448
1770452219532,125,-3,-2.140474556479619,-3.2257633009474667,-3.242262617163395
1770452219536,124,-4,-2.4989200596179777,-3.861397780932873,-3.6027131602845457
1770452219540,125,-3,-2.2648303464018893,-3.4245006428731894,-3.3721514336122085
1770452219544,126,-2,-1.531685686475043,-2.3869319542169674,-2.644331162590497
1770452219548,127,-1,-0.6689039104557544,-1.514976935721732,-1.7877655021124004
1770452219552,127,-1,-0.0726873686815384,-0.994403235750976,-1.1967955688436032
1770452219556,127,-1,0.0664024739102669,-1.1084212112715162,-1.0607310747768397
1770452219560,127,-1,-0.1752399621133682,-1.1740122221177134,-1.30371199946376
1770452219564,127,-1,-0.5704460124783907,-1.5875898228714609,-1.7001316046345814
1770452219568,126,-2,-0.9200526155874136,-2.326360627947775,-2.051828983882454
1770452219572,126,-2,-1.156002904248833,-2.13343818063644,-2.29081315678311
1770452219576,126,-2,-1.3037773945837718,-2.000271125427467,-2.442266741054003
1770452219580,126,-2,-1.3638326736018456,-2.249502529373201,-2.506010565250984
1770452219584,126,-2,-1.2497531543186082,-2.4902047834031373,-2.394627413873276
1770452219588,126,-2,-0.859225557868277,-2.414173749131579,-2.005621006726682
1770452219592,127,-1,-0.201580893444659,-1.024252760592028,-1.3499143076838718
1770452219596,128,0,0.5611536967381119,-0.1150038319107035,-0.5912612751844608
1770452219600,128,0,1.2049299677318497,-0.1155786791267858,0.0470988805677905
1770452219604,129,1,1.5810157997513508,0.4098575014883966,0.4194101649012537
1770452219608,129,1,1.7007214291190118,0.6735205983223418,0.5387248443287175
1770452219612,129,1,1.7354340280152272,0.9184042260757712,0.5750419789291272
1770452219616,129,1,1.9373945023148575,0.9243224747597656,0.7778587325479611
1770452219620,129,1,2.4981273357242797,0.8986750421242107,1.3370797504395615
1770452219624,131,3,3.4072469643355987,2.3887496253364726,2.242249669198749
1770452219628,132,4,4.413104822334792,3.7322561948166086,3.242663049524169
1770452219632,132,4,5.131692325320185,3.84745386705697,3.956167591746002
1770452219636,132,4,5.238368746607497,4.008376218720514,4.060181391298968
1770452219640,132,4,4.627766960838676,3.844932518106034,3.4499317476354023
1770452219644,131,3,3.463878069966343,2.4215759189923833,2.287942939229408
1770452219648,129,1,2.101182186898924,0.7578304131583986,0.926519720607958
1770452219652,128,0,0.9158489695178424,-0.2083566311530437,-0.2594299496444117
1770452219656,127,-1,0.139448860863779,-0.8913372532050111,-1.038121094015464
1770452219660,127,-1,-0.2114009309003413,-1.2475312353518904,-1.3916301630939585
1770452219664,127,-1,-0.2854607759257243,-1.4683089513526038,-1.4674359103645584
1770452219668,127,-1,-0.2810696795031819,-1.3267597593994425,-1.4638515909317784
1770452219672,127,-1,-0.3452959512512442,-1.1406307581627788,-1.5290687518293669
1770452219676,126,-2,-0.5454198293572444,-1.9221198069994947,-1.7310044685866406
1770452219680,126,-2,-0.9112783190754926,-2.233724753688347,-2.098566153308349
1770452219684,126,-2,-1.4814239121734183,-2.4213384036093655,-2.6688020774995467
1770452219688,125,-3,-2.2782091395834496,-3.409805898192562,-3.4637831313786727
1770452219692,124,-4,-3.2196615457747764,-3.99973152658644,-4.402921001941745
1770452219696,123,-5,-4.072067764342544,-5.093819078303051,-5.254267544169356
1770452219700,122,-6,-4.53961112751675,-6.015437563675978,-5.72261088960132
1770452219704,123,-5,-4.46084459802457,-5.640186717461594,-5.645631784312332
1770452219708,123,-5,-3.9544778262539926,-5.160990370644183,-5.140621019987736
1770452219712,124,-4,-3.3680095781422685,-4.2483650735623595,-4.554218380424849
1770452219716,124,-4,-3.042306699772781,-3.816136972335883,-4.227482647781958
1770452219720,124,-4,-3.0691094298503208,-4.303118727775695,-4.2531774867587595
1770452219724,124,-4,-3.2299401674674564,-4.330122485993716,-4.413854009664198
1770452219728,124,-4,-3.151365088606483,-4.461394833864728,-4.336010102777376
1770452219732,124,-4,-2.5321841216880276,-3.9409235577038566,-3.7168633249235663
1770452219736,126,-2,-1.2505900012926277,-2.078332021637885,-2.432611734367428
1770452219740,128,0,0.7141953592087811,-0.0498450484140864,-0.4620472128026631
1770452219744,131,3,3.418931196509168,2.447064356661996,2.249364232387528
1770452219748,134,6,6.9483277745448575,5.760838931577956,5.782462854332362
1770452219752,138,10,11.19143446977415,9.844426610589528,10.02357530578582
1770452219756,142,14,15.570759025866002,14.16922453777664,14.396224074708927
1770452219760,146,18,19.016821981066418,17.701087248428415,17.8355614625231
1770452219764,148,20,20.352733842703323,19.72180936229435,19.169762375638136
1770452219768,147,19,18.935514629411216,18.46973121495258,17.757881932328715
1770452219772,142,14,15.130679353034555,14.139696510505996,13.963583412201224
1770452219776,137,9,10.228626403780153,8.884924267201885,9.073152209597186
1770452219780,132,4,5.784979929218135,4.0033912205136835,4.637921330599928
1770452219784,130,2,2.8069764076460535,1.4570278649346395,1.6622043321980002
1770452219788,129,1,1.335561934232733,0.7613761652477954,0.1867382480112397
1770452219792,128,0,0.6648438032029698,-0.1234425400401624,-0.4910654770644911
1770452219796,127,-1,-0.0383683251797397,-0.8609813053010058,-1.1987585147718098
1770452219800,126,-2,-1.198289183612844,-2.229309943697717,-2.3559993343953005
1770452219804,124,-4,-2.7069588703815457,-4.345680845140254,-3.854773127548977
1770452219808,123,-5,-4.177232937343988,-5.373818179967806,-5.312819892574864
1770452219812,122,-6,-5.281717077921944,-6.00292155442793,-6.409065391693615
1770452219816,121,-7,-5.921326891795973,-6.922577063282702,-7.047233973930267
1770452219820,121,-7,-6.185492996114031,-7.197610314118771,-7.314047232358927
1770452219824,121,-7,-6.22885492493126,-7.338353923404138,-7.358749132288484
1770452219828,121,-7,-6.180591746002205,-7.407905502310575,-7.307171696022264
1770452219832,121,-7,-6.109565428136486,-6.908013573958901,-7.228997232842793
1770452219836,121,-7,-6.019921478271507,-7.0194912930774,-7.131605985230152
1770452219840,121,-7,-5.866816815462458,-7.095109056520521,-6.972754610223441
1770452219844,122,-6,-5.596861472813961,-6.415883770723362,-6.699490501614024
1770452219848,122,-6,-5.199207485629327,-6.361881496925071,-6.299659208383435
1770452219852,122,-6,-4.730973355644993,-5.8772887370073175,-5.828612981202857
1770452219856,123,-5,-4.2886767267346695,-5.069656096244351,-5.38182669663748
1770452219860,123,-5,-3.935649478588893,-5.011492238681856,-5.022782601573594
1770452219864,124,-4,-3.6385436657704022,-4.515318888132979,-4.719059093201539
1770452219868,124,-4,-3.2743676193239386,-4.2469449886603785,-4.348569616920431
1770452219872,124,-4,-2.7212435570878,-3.9666923611545,-3.7898911338217514
1770452219876,125,-3,-1.9725489856828136,-2.954618171917531,-3.0365339517034116
1770452219880,126,-2,-1.1816483749793738,-2.122294693941033,-2.241787630405388
1770452219884,127,-1,-0.592634472269377,-1.3958682633147883,-1.6491563175523591
1770452219888,127,-1,-0.4047503107543857,-1.3718765824801022,-1.4567012106831396
1770452219892,126,-2,-0.667379745801141,-1.7976653241214524,-1.7129127772875694
1770452219896,126,-2,-1.2664542924038371,-2.1346763163516753,-2.3041817033910785
1770452219900,125,-3,-1.9908096341372132,-2.9009413935739037,-3.0208775876320844
1770452219904,125,-3,-2.6279298969291274,-3.640530077273506,-3.651597441265923
1770452219908,124,-4,-3.041444432989169,-4.098156172479911,-4.059747576509893
1770452219912,124,-4,-3.1992714804541618,-4.039037773108904,-4.212240979285122
1770452219916,124,-4,-3.146332467935304,-3.9095362542874903,-4.153268154431206
1770452219920,124,-4,-2.950561119442104,-4.053826210500027,-3.9508240427414703
1770452219924,125,-3,-2.6663219840850045,-3.5683376848456896,-3.6599620090501297
1770452219928,125,-3,-2.334918994039945,-3.0688818868023544,-3.3225681963756974
1770452219932,125,-3,-2.0050973800744045,-3.129838592828759,-2.9870693844893985
1770452219936,125,-3,-1.7401751955808291,-2.7382576960712464,-2.7157463016397645
1770452219940,126,-2,-1.58769292486078,-2.2426800207137565,-2.555546740499248
1770452219944,126,-2,-1.522344518785003,-2.3864032776172768,-2.4816677926704536
1770452219948,126,-2,-1.417399682173243,-2.203261215970668,-2.368331692848071
1770452219952,126,-2,-1.1004022476004107,-2.022791387707789,-2.043636837477786
1770452219956,126,-2,-0.4775774401701997,-1.773923774783345,-1.4140131458784908
1770452219960,128,0,0.3699519739272829,-0.2439768761279792,-0.5607223429673917
1770452219964,129,1,1.20955894105284,0.6651259070647595,0.2840853490732065
1770452219968,129,1,1.789858478111197,0.713629454082124,0.8705796262516134
1770452219972,129,1,1.9817148522875376,1.122253643998254,1.0709530099114442
1770452219976,129,1,1.8374288551920248,1.0518434277126305,0.9367356599725848
1770452219980,129,1,1.549558744977409,0.96985966728772,0.6582113809679317
1770452219984,129,1,1.3383282187145715,0.4445321950222427,0.4545421851764385
1770452219988,128,0,1.3220705617611417,-0.0442479775831377,0.4451709200635625
1770452219992,129,1,1.4543836290716343,0.905462048683728,0.5849063991847463
1770452219996,129,1,1.590295722047243,1.2702751199844138,0.7284411329732954
1770452220000,129,1,1.6326378031186686,0.7766862489134005,0.7779004983177662
1770452220004,129,1,1.6173887698757463,0.6310834538944023,0.7698594293971169
1770452220008,129,1,1.6560366494819017,0.7977621590690209,0.8171116163695586
1770452220012,129,1,1.8069159497137028,1.0514971373927575,0.9781291645812522
1770452220016,129,1,2.013944833961495,1.1804659224344738,1.1952222948307485
1770452220020,130,2,2.165141584306308,1.8380122306846012,1.3545437165774026
1770452220024,130,2,2.1921161144077796,1.6331742552830633,1.3876304789721483
1770452220028,129,1,2.095213250481578,0.7352122160985773,1.2968354125401502
1770452220032,129,1,1.87486232843529,1.1919843544114963,1.0845966980310815
1770452220036,129,1,1.4694718299164686,0.999722872719342,0.6892778360271147
1770452220040,128,0,0.7947764181626809,0.0850183048725914,0.0248779265091152
1770452220044,128,0,-0.1480870430835027,-0.625694878501198,-0.9089569344938628
1770452220048,126,-2,-1.2183685645350562,-2.00276588978566,-1.97156404826018
1770452220052,125,-3,-2.206491276198252,-3.0505767081008113,-2.9523688583161523
1770452220056,124,-4,-2.9733476698995087,-3.760179357886208,-3.711148287940759
1770452220060,124,-4,-3.5307950728722424,-4.09504039157348,-4.259347832054858
1770452220064,124,-4,-3.9881616761179375,-4.4672281542315275,-4.706914289152721
1770452220068,123,-5,-4.414738070981756,-5.120564252184983,-5.124355376244415
1770452220072,123,-5,-4.750614922498315,-4.973942714657676,-5.452363710725423
1770452220076,122,-6,-4.860577545272951,-5.7743662443204755,-5.554828822724314
1770452220080,122,-6,-4.690581239102431,-6.100519705826425,-5.376331667813907
1770452220084,124,-4,-4.367673268386003,-4.401649966439487,-5.044043240127579
1770452220088,124,-4,-4.118908159958303,-4.213900752621065,-4.786444467361992
1770452220092,123,-5,-4.074577265361051,-4.861042399328621,-4.73416410405123
1770452220096,123,-5,-4.158679869455903,-4.872189239313077,-4.809752258406055
1770452220100,123,-5,-4.177447154857269,-4.996180147591305,-4.818513017289362
1770452220104,124,-4,-4.0063406997817275,-4.485696701269712,-4.637219614371126
1770452220108,124,-4,-3.694625964182128,-4.106477349891932,-4.3171668803932475
1770452220112,124,-4,-3.4136048014848868,-3.976643328913209,-4.029773082662022
1770452220116,124,-4,-3.3205481646171515,-3.720908468759872,-3.930208980628508
1770452220120,124,-4,-3.45596121864947,-4.156673687480685,-4.056952219906587
1770452220124,124,-4,-3.7337627393594057,-4.312521872574265,-4.324095732227698
1770452220128,124,-4,-4.005391380651773,-4.2444559691633055,-4.585101336197036
1770452220132,123,-5,-4.1450416725066095,-4.857664183921106,-4.715864156025985
1770452220136,123,-5,-4.1109612385612735,-4.783947212721882,-4.6745897439993005
1770452220140,124,-4,-3.954433865106884,-4.126778562564912,-4.5112744056079475
1770452220144,124,-4,-3.772207926165255,-4.290223296227921,-4.3214258093100515
1770452220148,124,-4,-3.63523832781143,-4.289234882805827,-4.175670907115452
1770452220152,124,-4,-3.544878384626376,-3.760884541520718,-4.076040574668106
1770452220156,124,-4,-3.4446863515205877,-3.905669934895425,-3.967040757523426
1770452220160,124,-4,-3.276111912338638,-3.9715596001079185,-3.7904235996029394
1770452220164,125,-3,-3.0352793545675976,-3.438286519604859,-3.5419507359342215
1770452220168,125,-3,-2.7810122575908034,-3.136951726820855,-3.2800812883448884
1770452220172,125,-3,-2.5813384064027565,-2.8680081815775167,-3.0726714239973703
1770452220176,125,-3,-2.447345337506301,-2.8317015920374167,-2.9305734225177447
1770452220180,125,-3,-2.320276593679565,-2.985476838436481,-2.794957817637268
1770452220184,126,-2,-2.1232894791563988,-2.472592696473992,-2.589541472804584
1770452220188,126,-2,-1.8268736430804784,-2.022368327956405,-2.285559926977208
1770452220192,126,-2,-1.475025432860839,-2.023436727837539,-1.9268972214100235
1770452220196,126,-2,-1.1616844684014864,-1.6151492724081198,-1.606602379607496
1770452220200,127,-1,-0.9764593795674594,-1.2286884751851666,-1.4138951958692492
1770452220204,127,-1,-0.9482023184575434,-1.2116440348160915,-1.3781405955428874
1770452220208,127,-1,-1.0251059017293878,-1.2553384569516328,-1.4477684729630038
1770452220212,126,-2,-1.1183677199196946,-1.79174674239127,-1.5333530723079924
1770452220216,126,-2,-1.1784140042809286,-1.8150642210124897,-1.5851972292357366
1770452220220,127,-1,-1.2245162555643707,-1.0394392580868457,-1.623948319614729
1770452220224,127,-1,-1.2936307201892845,-1.3789574778296911,-1.6877003148894487
1770452220228,126,-2,-1.3757627033594757,-2.0712309230225383,-1.7651399223249835
1770452220232,126,-2,-1.418839662561209,-1.9589885941372975,-1.8016222084083156
1770452220236,126,-2,-1.3836594388752137,-1.643015932491984,-1.757591034895612
1770452220240,127,-1,-1.2609965301423829,-1.2084050325798037,-1.6263774735470988
1770452220244,127,-1,-1.0336395523808937,-1.180103263243435,-1.392940243161649
1770452220248,127,-1,-0.6641019791852343,-1.2616199726992374,-1.018906715543071
1770452220252,127,-1,-0.1573241463285222,-0.7486587218289229,-0.5069085231342652
1770452220256,128,0,0.3746503130601251,0.1430153370024488,0.031375791372701
1770452220260,129,1,0.75113636555899,1.0103651560549096,0.4135701078510432
1770452220264,129,1,0.8499375633029809,0.647752024104886,0.5168479524619014
1770452220268,128,0,0.6941667979920749,-0.1077111512649545,0.3660888511355378
1770452220272,128,0,0.4183117481381873,0.1414937480570376,0.097304689777236
1770452220276,128,0,0.1730478428581798,0.208377981508858,-0.1400483052922014
1770452220280,128,0,0.0670870658076501,-0.0007166644598883,-0.2397942211472918
1770452220284,128,0,0.1581348436312986,-0.3239476582037597,-0.1450985124326225
1770452220288,128,0,0.4486902675681303,-0.123803727732207,0.1477573621269701
1770452220292,129,1,0.8829705656524107,1.1684319259388414,0.5846886272912668
1770452220296,129,1,1.3756862625718125,1.1609600146460195,1.0816939087512898
1770452220300,129,1,1.8674038460598856,1.088228276271654,1.5798821646806185
1770452220304,131,3,2.365368289253206,2.606578003806811,2.085418963130295
1770452220308,131,3,2.939950772669981,2.960390877701908,2.6661165255067596
1770452220312,131,3,3.666054238968713,3.075794630397052,3.395056603285454
1770452220316,132,4,4.524372080453579,4.2619143029365,4.253671120032647
1770452220320,133,5,5.334339179961383,5.012582224459584,5.0638851672578005
1770452220324,134,6,5.812552320427414,5.693028245182529,5.5443760576602275
1770452220328,134,6,5.7602023122488415,5.9217187231574275,5.496827816160268
1770452220332,133,5,5.24554045456727,5.0596081383265075,4.9886602495330195
1770452220336,132,4,4.611754836330338,4.328054513597875,4.3615810143282365
1770452220340,132,4,4.265065224037934,3.9233637713483582,4.020022041952469
1770452220344,132,4,4.383587697863028,3.8462478554812023,4.140343748635426
1770452220348,133,5,4.769540002052603,4.771946155215013,4.52414072831955
1770452220352,133,5,4.964742532339917,5.221009765666654,4.7152561171973115
1770452220356,132,4,4.545620721301539,4.156433274716372,4.294585564822668
1770452220360,131,3,3.3888280846344077,3.103598030251422,3.142321592829834
1770452220364,130,2,1.7488902219596096,1.699946966335404,1.5116366570590387
1770452220368,128,0,0.1310502997101237,-0.087847815420456,-0.0981212508673157
1770452220372,127,-1,-0.9606751344072348,-0.8744730155982676,-1.1880066224476953
1770452220376,126,-2,-1.288970361133031,-1.776247080485799,-1.520184683724456
1770452220380,126,-2,-1.0302629832387846,-1.9217705668498084,-1.2662533787810832
1770452220384,128,0,-0.6813177579868699,-0.2676069727611232,-0.9192147514851948
1770452220388,128,0,-0.7323896602093707,-0.0961681212159202,-0.96930560140218
1770452220392,126,-2,-1.324823490889344,-1.8611070512367147,-1.5594826945678109
1770452220396,125,-3,-2.174238484854442,-2.799194297477061,-2.4062250990556806
1770452220400,125,-3,-2.8216526967173925,-2.8871106980671315,-3.0509745348909565
1770452220404,125,-3,-2.983182017638594,-3.289870097650513,-3.2107904336883086
1770452220408,125,-3,-2.7088918261946207,-3.023908027869659,-2.936974756560983
1770452220412,126,-2,-2.257071192763336,-1.9202027991668744,-2.488564936301623
1770452220416,126,-2,-1.8287127132393992,-1.758903886537096,-2.065895185597025
1770452220420,126,-2,-1.3975787799309654,-1.913785061173882,-1.6400167223339457
1770452220424,127,-1,-0.757638289543382,-1.2718873161388144,-1.0013308927489744
1770452220428,128,0,0.3048897117218152,0.0222062127715689,0.0652093542934744
1770452220432,130,2,1.9091740796800143,2.0292525625227373,1.6756477254926736
1770452220436,132,4,4.118033702009885,4.311920823585123,3.887178963876006
1770452220440,135,7,6.984313753302012,7.001362147653566,6.749310276359276
1770452220444,138,10,10.440721601982098,9.824351029292556,10.196714360383012
1770452220448,141,13,14.075854017617743,12.969037763795416,13.823065691573053
1770452220452,145,17,17.067557904238967,17.07219036333774,16.809379580106167
1770452220456,147,19,18.493426198161544,19.313014006975088,18.232664105031027
1770452220460,146,18,17.880370336833572,17.94495451314598,17.618391729420516
1770452220464,143,15,15.552279762714212,14.929675789410783,15.290638588304097
1770452220468,140,12,12.454395839018671,11.839752683793288,12.19476576163537
1770452220472,137,9,9.580492813846202,9.236877231294091,9.322057097304018
1770452220476,135,7,7.446937790082881,7.1902982317235065,7.1850189865212615
1770452220480,134,6,5.965667780690359,6.052766235792909,5.694327056365772
1770452220484,133,5,4.715359758007125,4.8949148584428945,4.431951081097899
1770452220488,131,3,3.3328089435527057,2.79527952117402,3.040129126398067
1770452220492,129,1,1.739010641834161,1.366569539303086,1.4429442913637844
1770452220496,128,0,0.1137202314217136,0.0053710300396012,-0.181424600402924
1770452220500,126,-2,-1.273704120346108,-1.6883237652343988,-1.568052449210488
1770452220504,126,-2,-2.2244252281020107,-2.375300005844664,-2.521747624426007
1770452220508,125,-3,-2.6817486818507974,-2.92170132872553,-2.986550426356978
1770452220512,125,-3,-2.721049945776363,-2.9058281419480063,-3.0359000576675363
1770452220516,125,-3,-2.5042242829887593,-2.718413695617822,-2.8286460773375968
1770452220520,125,-3,-2.2309397616465065,-2.9251863450037394,-2.562311246989672
1770452220524,126,-2,-2.08120683385149,-2.1518668700144827,-2.4171230948594085
1770452220528,126,-2,-2.1386124645786775,-2.1076879169385823,-2.4787445682453324
1770452220532,125,-3,-2.3313851667144125,-2.762209495710007,-2.6770873548503005
1770452220536,125,-3,-2.459949763307828,-2.7906034971222664,-2.812408091618613
1770452220540,125,-3,-2.321308045009003,-2.889360084143382,-2.680661925730861
1770452220544,126,-2,-1.8417220864639623,-2.1221436652443346,-2.2079760446365393
1770452220548,127,-1,-1.111904333530584,-1.1708623287161253,-1.485941067297993
1770452220552,127,-1,-0.3114892489202907,-0.6548626356597804,-0.6945382591365397
1770452220556,128,0,0.3921252671870745,0.0842266553692244,-0.0001395256236159
1770452220560,128,0,0.8870492955662792,0.2788204617235481,0.4865706376732167
1770452220564,129,1,1.1036706046874505,0.6899185277914448,0.6957565042441166
1770452220568,129,1,1.0046434271744056,1.0485011355014615,0.5887843594080431
1770452220572,128,0,0.6068429373210726,0.1325486154918185,0.182062851267138
1770452220576,127,-1,0.0039185975389661,-0.7071933730661031,-0.4298450530394585
1770452220580,127,-1,-0.6436816387858797,-0.8737924772007617,-1.0856986107296414
1770452220584,127,-1,-1.1453707665431914,-1.2142146507155247,-1.5952439507375489
1770452220588,126,-2,-1.3309141236245203,-1.9544460388355844,-1.7889609358378653
1770452220592,126,-2,-1.113600594675095,-1.9219067113568953,-1.580616790078668
1770452220596,127,-1,-0.54171993438564,-0.5823814367408446,-1.0190419078462882
1770452220600,128,0,0.2062165585659685,-0.0217265204202714,-0.2829879833661118
1770452220604,128,0,0.8886787392336284,-0.0518861429193693,0.3869913099762162
1770452220608,129,1,1.291922435194059,0.91955810808767,0.7788581499523279
1770452220612,129,1,1.3117685925525897,1.1717101990373355,0.7893127896030303
1770452220616,128,0,1.0064525927823438,0.3773711173375865,0.4760911034576044
1770452220620,128,0,0.5880638768185991,-0.0050242841313777,0.049979334627815
1770452220624,128,0,0.3335240811365485,-0.0334200709494706,-0.2135899884898053
1770452220628,128,0,0.4502287341737612,-0.0909672675964936,-0.1082309338014633
1770452220632,128,0,0.9686486041021768,0.1873218382112533,0.3967636455613814
1770452220636,129,1,1.7231451816687464,1.3967751439587186,1.1372791439873515
1770452220640,130,2,2.437443876808295,1.963405698181108,1.838801850274598
1770452220644,130,2,2.8725279624953775,2.0244632772959426,2.262972177104374
1770452220648,131,3,2.952396233365601,2.8540475714720235,2.332987286916094
1770452220652,130,2,2.78812751066306,2.2449896314639366,2.158713848367104
1770452220656,129,1,2.5790692130179775,1.369444902076736,1.93892222620617
1770452220660,130,2,2.4603403911299813,1.9777210457475745,1.8084834549185704
1770452220664,130,2,2.4198639008456464,2.0615271303230474,1.754901540797254
1770452220668,130,2,2.3495200523276747,1.7787204812904185,1.670208496559836
1770452220672,129,1,2.1683603893786985,1.3984066539913238,1.4748318010184032
1770452220676,129,1,1.9039212355153348,1.1545564097814331,1.197868516143158
1770452220680,129,1,1.6816761147607937,1.2593960041759762,0.9650287856003932
1770452220684,129,1,1.6533419922870152,0.7570064250273867,0.9267904286771358
1770452220688,129,1,1.9184528365338744,1.1083681632861966,1.180901949527649
1770452220692,130,2,2.477768245514132,2.111319559634568,1.7268362813289548
1770452220696,130,2,3.229973613510566,2.392299689192437,2.4633875064565443
1770452220700,131,3,3.999136751552882,3.102578666449955,3.216291221349487
1770452220704,132,4,4.58158628311044,3.8481136463740855,3.783928102408713
1770452220708,132,4,4.816954710150117,4.103432640018899,4.006801316344356
1770452220712,132,4,4.6726872070171765,4.070421337122273,3.851648616403136
1770452220716,131,3,4.287771395053812,3.4821518617556695,3.455999530000209
1770452220720,131,3,3.9169643688940337,2.998469068871851,3.073351175407123
1770452220724,131,3,3.782625101081746,2.96232268414782,2.9254792336243733
1770452220728,131,3,3.9219721912202656,3.0358514520066207,3.0497720067734724
1770452220732,131,3,4.137283548541897,3.109723308727101,3.24914419136946
1770452220736,131,3,4.095150999235899,3.5076791097337816,3.1908979669994046
1770452220740,131,3,3.5188245287402937,2.924884495066199,2.599060848653474
1770452220744,129,1,2.347417917988211,1.075681332107781,1.4136820893577366
1770452220748,128,0,0.7612620044584215,-0.0744206085837133,-0.1843977926570701
1770452220752,126,-2,-0.9213262252468124,-1.774214374656219,-1.877629340239114
1770452220756,124,-4,-2.3855647082594973,-3.569498785697818,-3.353171586540231
1770452220760,124,-4,-3.416714988204391,-4.020130490733198,-4.3981225810854845
1770452220764,123,-5,-3.933033179787778,-4.924349775207052,-4.930992583452424
1770452220768,123,-5,-3.983786687427196,-5.110344873944179,-4.99931035822611
1770452220772,123,-5,-3.7335738535043057,-4.671718441413216,-4.765268973119751
1770452220776,123,-5,-3.4170583957871914,-4.705407676825786,-4.462566480468885
1770452220780,124,-4,-3.244611831169041,-3.8556130686744656,-4.3027390223877156
1770452220784,124,-4,-3.29518614912113,-4.064265196906218,-4.366441288744441
1770452220788,123,-5,-3.4833353121742983,-5.011592170077158,-4.568594914017143
1770452220792,123,-5,-3.6454007309198264,-4.680613255985767,-4.744778918893475
1770452220796,123,-5,-3.6769628070622824,-4.773324216945484,-4.790282505592182
1770452220800,123,-5,-3.600089227617483,-4.697042237955083,-4.727819408110884
1770452220804,124,-4,-3.513462182333168,-4.258102513471173,-4.656478876188792
1770452220808,123,-5,-3.493395274384458,-4.781011430305423,-4.651880211648873
1770452220812,123,-5,-3.543659452758191,-4.907910406523704,-4.716778998217571
1770452220816,123,-5,-3.6218972936836975,-4.559059343004186,-4.808744911592729
1770452220820,123,-5,-3.693254853315386,-4.855984453013578,-4.893738205997538
1770452220824,123,-5,-3.755184982064294,-5.139112754773863,-4.969807487047688
1770452220828,123,-5,-3.821239971346669,-4.80996636889943,-5.050337409996227
1770452220832,123,-5,-3.888584728102064,-4.9603324662581665,-5.13197965025359
1770452220836,122,-6,-3.923954481576155,-5.422983783851374,-5.1812430374481835
1770452220840,123,-5,-3.885641502700369,-5.035487940893404,-5.156786308631268
1770452220844,123,-5,-3.7638204255308376,-4.903969053245829,-5.04943070324742
1770452220848,123,-5,-3.602301562799363,-5.044304124211047,-4.903133675938069
1770452220852,123,-5,-3.480419224302412,-4.728589217870685,-4.796520800989635
1770452220856,123,-5,-3.4626253027857112,-4.629274699445639,-4.793016383343131
1770452220860,123,-5,-3.5460971539440553,-4.843021830044332,-4.889289811438412
1770452220864,123,-5,-3.645803983411706,-5.04830501655065,-5.000824760146741
1770452220868,123,-5,-3.6377571645479816,-4.911457012465584,-5.005079884011563
1770452220872,123,-5,-3.4393597809618366,-4.837216665541981,-4.8209495769871875
1770452220876,123,-5,-3.0755746986567942,-4.530773021880939,-4.473562925046643
1770452220880,124,-4,-2.684839325222423,-3.9051715515033143,-4.09956922466769
1770452220884,124,-4,-2.4519983475821245,-3.993099252118554,-3.881257591096923
1770452220888,124,-4,-2.497006157021894,-3.924794312240674,-3.937622651417631
1770452220892,124,-4,-2.7812218010113705,-3.8563161227721103,-4.2317876848088805
1770452220896,123,-5,-3.104016198207289,-4.474225487474936,-4.5659377573371405
1770452220900,123,-5,-3.2261017643163115,-4.969060001454798,-4.701977472168151
1770452220904,123,-5,-3.058242356351513,-4.895539279676237,-4.54967651973211
1770452220908,124,-4,-2.7623949621829977,-4.007003031007703,-4.269409772760898
1770452220912,124,-4,-2.649979628354175,-3.7877717748080344,-4.171607485320465
1770452220916,123,-5,-2.936179993656576,-4.498410918146783,-4.470886633149398
1770452220920,123,-5,-3.550447710862604,-4.984960322615817,-5.096439047881986
1770452220924,122,-6,-4.160446768827946,-5.808235973809134,-5.716467993174205
1770452220928,122,-6,-4.387675413208855,-6.147778623566676,-5.9538620413607575
1770452220932,122,-6,-4.048160978025004,-5.570426058360539,-5.626037237092779
1770452220936,123,-5,-3.250304774510863,-4.748175064477156,-4.841829910597358
1770452220940,124,-4,-2.3043699583521224,-3.6891837417154494,-3.9107473289674974
1770452220944,125,-3,-1.5371542562994,-3.108413899478177,-3.1581850981976674
1770452220948,125,-3,-1.152215516402064,-2.849491293442154,-2.7864968416196696
1770452220952,125,-3,-1.2065886746135268,-2.848300376905146,-2.85229074075447
1770452220956,124,-4,-1.6654648113054575,-3.4688367251892367,-3.3211909151282475
1770452220960,124,-4,-2.446555302101206,-3.9481962693990154,-4.111892402517412
1770452220964,123,-5,-3.410010932831022,-4.82867219928948,-5.085543260734022
1770452220968,122,-6,-4.3333542009716055,-6.140048551667849,-6.020124240603973
1770452220972,121,-7,-4.94415009052615,-6.532121654103215,-6.6428699632825
1770452220976,121,-7,-5.0289924784223485,-6.773595550169281,-6.739545386599103
1770452220980,121,-7,-4.5498227559211255,-6.6415161634012065,-6.27152762602995
1770452220984,123,-5,-3.6671004490143937,-5.079177088534396,-5.399536115540071
1770452220988,124,-4,-2.6360002483260985,-3.9425085877372847,-4.379341146188491
1770452220992,124,-4,-1.655822785134558,-3.652949037188602,-3.4101961513029457
1770452220996,125,-3,-0.796008874452768,-2.720828776358407,-2.560942396181263
1770452221000,126,-2,-0.0388703192545565,-1.6060846497616708,-1.8136979049463424
1770452221004,127,-1,0.6337548094507719,-1.1718772275239613,-1.1506527382856635
1770452221008,127,-1,1.202585560342289,-0.7777539823524255,-0.5912778319396556
1770452221012,128,0,1.6471363529547656,0.1527504955259957,-0.1558564557699816
1770452221016,128,0,2.007532674859106,0.4938285935552896,0.195947258669467
1770452221020,128,0,2.3954128718148264,0.2045782130756568,0.575585593976097
1770452221024,129,1,2.9198043404173584,0.9933868092382064,1.091294943466378
1770452221028,130,2,3.580555423131286,2.128753021279897,1.7420453839696457
1770452221032,130,2,4.222970583439454,2.1879511492754844,2.3734094307433504
1770452221036,130,2,4.599503729912913,2.537373229928382,2.7395102172616643
1770452221040,131,3,4.507695836290634,3.112403091588273,2.639437080817644
1770452221044,130,2,3.923948004510512,2.133964496575197,2.0496078614447506
1770452221048,129,1,3.0401241813276494,0.9764806934223206,1.1606046076938257
1770452221052,128,0,2.1579367553511677,0.3597916854970686,0.272598279993453
1770452221056,127,-1,1.5008876075750024,-0.6140465959508268,-0.3919392396526658
1770452221060,127,-1,1.0773548666787125,-0.7526677903934575,-0.8246557652905351
1770452221064,127,-1,0.6930545541980127,-0.9303667067845998,-1.21872075345583
1770452221068,126,-2,0.0981015795837576,-2.0224110922699468,-1.8224303444041308
1770452221072,125,-3,-0.8380109721186086,-2.5510345235027927,-2.76537998902616
1770452221076,124,-4,-2.037597690016483,-3.776446145358239,-3.970101922764563
1770452221080,122,-6,-3.2606990331758245,-5.521945336100953,-5.19739692653134
1770452221084,122,-6,-4.24436742341124,-6.176369308495653,-6.185113055376812
1770452221088,121,-7,-4.832584026639447,-6.749036653070165,-6.778168841356931
1770452221092,121,-7,-5.010908354117783,-6.807917072061039,-6.962946098385771
1770452221096,121,-7,-4.85066760120823,-6.528109701247231,-6.8104995636990475
1770452221100,121,-7,-4.442979422049056,-6.7319069940361285,-6.410275852139649
1770452221104,122,-6,-3.882056768340488,-5.996509577823017,-5.854708626086412
1770452221108,123,-5,-3.2768139021496507,-4.863889361303514,-5.252353461228184
1770452221112,123,-5,-2.7388373236840673,-4.741692645625433,-4.716033570115728
1770452221116,123,-5,-2.3417225449749384,-4.52373987933929,-4.321415831849891
1770452221120,124,-4,-2.090562784997151,-3.7864516119253384,-4.075563321040794
1770452221124,124,-4,-1.927291206524754,-3.87664698792425,-3.920751278165549
1770452221128,124,-4,-1.7598370674705688,-4.0345682318708835,-3.76220029857398
1770452221132,124,-4,-1.4764701474565898,-3.4782550076541487,-3.483534300881506
1770452221136,125,-3,-0.9085109491016032,-2.8639635491382425,-2.9134201564866213
1770452221140,126,-2,0.2375335855549138,-1.3497439080292228,-1.760812968785867
1770452221144,129,1,2.3676771421790743,0.6305526989938341,0.3740250747516382
1770452221148,131,3,5.791294302428025,3.507680909270875,3.7952154959218074
1770452221152,136,8,10.35680994008055,8.00316964039165,8.350941652731535
1770452221156,140,12,15.195391309880264,12.612842765178362,13.176865977692362
1770452221160,145,17,18.883843787270287,17.265720630485223,16.855460251792746
1770452221164,147,19,20.078370755027525,18.92317359946805,18.046548905673177
1770452221168,144,16,18.26739789008172,16.30916570282393,16.23915094320844
1770452221172,140,12,14.112027536070132,12.114281765097124,12.092197395541902
1770452221176,134,6,9.09920669404682,6.559397100239726,7.088328550678918
1770452221180,130,2,4.733021936833627,2.306002754662321,2.7267912069070124
1770452221184,128,0,1.8122256815662925,-0.058546436898033,-0.1964446751796591
1770452221188,126,-2,0.2376165522311506,-1.6690282750085346,-1.779359058249296
1770452221192,126,-2,-0.6230527795042935,-1.9245257974546472,-2.6493147878368584
1770452221196,124,-4,-1.36830785767933,-3.379033888357371,-3.399098127745011
1770452221200,123,-5,-2.215815610896788,-4.798380552735065,-4.243617220416686
1770452221204,123,-5,-3.037655464893728,-4.906345459775347,-5.057326416281693
1770452221208,122,-6,-3.618682013065043,-5.794069735443529,-5.630821565610889
1770452221212,122,-6,-3.8682016336268585,-5.823826741210645,-5.877833312304486
1770452221216,122,-6,-3.848984965006237,-5.406461298492382,-5.860701869496434
1770452221220,122,-6,-3.680402904514674,-5.871060188623477,-5.6943815592982965
1770452221224,122,-6,-3.446591914095654,-5.718205725488865,-5.459133564866793
1770452221228,123,-5,-3.1758740026998074,-5.032775111663783,-5.1836644736960835
1770452221232,123,-5,-2.8688080804732463,-4.53592596967968,-4.872073169429143
1770452221236,123,-5,-2.5375215087853356,-4.685864557932175,-4.538693893786647
1770452221240,123,-5,-2.2420311198392726,-4.640563108851188,-4.242163863730855
1770452221244,124,-4,-2.0956630502733695,-3.856129878614838,-4.093185130518638
1770452221248,124,-4,-2.2011567965693337,-3.969754778307628,-4.193866063754042
1770452221252,123,-5,-2.5436569514266307,-4.477843556351341,-4.5308957376598045
1770452221256,123,-5,-2.945481817350795,-4.841635350593899,-4.92809583953157
1770452221260,122,-6,-3.1581319096414355,-5.401459617862945,-5.136894775204653
1770452221264,123,-5,-3.0361956850278484,-5.156966375281211,-5.010822663840246
1770452221268,123,-5,-2.64294142361424,-4.579592683059056,-4.6126800109749
1770452221272,124,-4,-2.1858966221712484,-3.889343389359479,-4.150618999828257
1770452221276,124,-4,-1.8376063077866065,-3.402454629148626,-3.7977213846024713
1770452221280,124,-4,-1.610401672768845,-3.8543681996450982,-3.565673507842572
1770452221284,124,-4,-1.3992955483565872,-3.722259120082031,-3.3484624022516813
1770452221288,125,-3,-1.13214334273551,-2.938991635216297,-3.0741410808148197
1770452221292,125,-3,-0.8621227754328211,-2.5761565355406337,-2.797184752228387
1770452221296,125,-3,-0.7158579806801577,-2.6123932382364057,-2.6449160518971686
1770452221300,125,-3,-0.7654677147743675,-2.7605973575796865,-2.688823360119028
1770452221304,125,-3,-0.9522757771615054,-2.7046869545595476,-2.8692061749001687
1770452221308,125,-3,-1.1241661577973785,-3.048394761549033,-3.033425195206097
1770452221312,124,-4,-1.1487925549937894,-3.3305592451196624,-3.049267544371933
1770452221316,125,-3,-1.0070157824811636,-2.931562899138532,-2.89851834963161
1770452221320,125,-3,-0.7870149292862157,-2.388733283996771,-2.670772672877114
1770452221324,126,-2,-0.5897351927879675,-2.104312917709979,-2.4673661589085185
1770452221328,125,-3,-0.4465203227664285,-2.6377505274682735,-2.317953290633832
1770452221332,125,-3,-0.3288234557928751,-2.6689241442765246,-2.1918446885850846
1770452221336,126,-2,-0.2103221646641634,-1.6622442952256749,-2.062712246027005
1770452221340,126,-2,-0.0837616484785254,-1.562859831025555,-1.9252403791372183
1770452221344,126,-2,0.0810485022485094,-2.0343946960794668,-1.7505654140738147
1770452221348,126,-2,0.35780538479882,-1.5811998364206257,-1.4646711493748807
1770452221352,127,-1,0.8147411399888158,-0.7905965307509273,-0.9986940933202024
1770452221356,127,-1,1.4420930574742687,-0.4795208569008038,-0.3623649009348444
1770452221360,128,0,2.1282601355802027,0.2373197288125657,0.3328051809457797
1770452221364,129,1,2.7089522534763373,1.161583375416296,0.923259087536056
1770452221368,129,1,3.05755815883144,1.2711194438347222,1.283165485327924
1770452221372,129,1,3.1563955172639555,1.3301565563023443,1.3945919549301575
1770452221376,129,1,3.099504586862401,1.4529195006886402,1.350068019207057
1770452221380,129,1,3.0236715299121975,1.263656803890204,1.2848693898857484
1770452221384,129,1,3.0132794622519095,1.177168313745284,1.2835872739101435
1770452221388,129,1,3.0460901691808795,1.2555067383458502,1.3260349032355063
1770452221392,129,1,3.028975675456556,1.37334265251795,1.3210016167583405
1770452221396,129,1,2.9114341590442843,1.412693198952369,1.2177721716753642
1770452221400,129,1,2.7875464790130517,1.3087024680692432,1.1083697366286844
1770452221404,129,1,2.875211580470201,1.129562313211756,1.2089975138476716
1770452221408,129,1,3.3483958737455204,1.338726168419027,1.6937515520584068
1770452221412,130,2,4.143960564551182,2.284440776522233,2.500604655621208
1770452221416,131,3,4.926746581906837,3.5415355883272963,3.294932221646066
1770452221420,132,4,5.279326994733752,4.153169676394122,3.659303442184994
1770452221424,131,3,4.975087780397918,3.318147646224068,3.367664809268603
1770452221428,130,2,4.108577301294313,2.135594306161856,2.5155264632374563
1770452221432,129,1,2.9912283940759545,1.5087429836482245,1.414243268740435
1770452221436,128,0,1.9272334752020424,0.3344486656456873,0.366508700421485
1770452221440,127,-1,1.0561172564874914,-0.6465629854608559,-0.4897263157541967
1770452221444,127,-1,0.3525417773093146,-0.826099691206537,-1.1801969917413264
1770452221448,126,-2,-0.2660464640439826,-1.76467637734689,-1.7866972056169903
1770452221452,125,-3,-0.8406961984857626,-2.531182435796957,-2.3490073025470517
1770452221456,125,-3,-1.3602039986069747,-2.66531631276664,-2.8546721515029247
1770452221460,124,-4,-1.8205596496232648,-3.5915995542430266,-3.2990015812928237
1770452221464,124,-4,-2.268895830341899,-3.902947664872576,-3.729774666471029
1770452221468,124,-4,-2.7681914865518107,-3.647780027432524,-4.211957050552142
1770452221472,123,-5,-3.314077123729191,-4.661099764146839,-4.742873569604971
1770452221476,122,-6,-3.808172048878056,-5.528075059489858,-5.223705121965211
1770452221480,122,-6,-4.144231644101598,-5.689566583766634,-5.546047866992297
1770452221484,122,-6,-4.326783702652719,-5.847085180496606,-5.712886023387244
1770452221488,122,-6,-4.48217662777987,-5.619201350091882,-5.851018609244257
1770452221492,122,-6,-4.729346030652814,-5.749201951213039,-6.0808147854269485
1770452221496,121,-7,-5.037763181090074,-6.3751237630609525,-6.372432905089836
1770452221500,121,-7,-5.228735549300269,-6.871733828923212,-6.546920640055713
1770452221504,121,-7,-5.133942863107768,-6.654388610336336,-6.435870229471818
1770452221508,122,-6,-4.763008286528348,-5.766385098238759,-6.0493153097494945
1770452221512,122,-6,-4.3217204092119115,-5.635798809646157,-5.592943882981325
1770452221516,122,-6,-4.062786668142389,-5.4086161936314054,-5.318369499837834
1770452221520,123,-5,-4.091898365752282,-4.914325482356127,-5.33016152957503
1770452221524,122,-6,-4.28113601495066,-5.543415448999064,-5.500267622588978
1770452221528,122,-6,-4.359954238318874,-5.915911070018875,-5.559134632108533
1770452221532,122,-6,-4.118794677876157,-5.430677777542959,-5.299031182154513
1770452221536,123,-5,-3.565831778212287,-4.6057881190210725,-4.72985584613803
1770452221540,124,-4,-2.9172543987331165,-3.7352735186508097,-4.067558832800861
1770452221544,124,-4,-2.4484609477946364,-3.6708442134843615,-3.584591992605767
1770452221548,124,-4,-2.333699732841287,-3.841472596192795,-3.4520626952663114
1770452221552,124,-4,-2.566757927377617,-3.432804867238558,-3.663959157496968
1770452221556,124,-4,-2.9719673130836712,-3.631852677652404,-4.048024596495157
1770452221560,123,-5,-3.288790955550966,-4.691504960986936,-4.346421582397749
1770452221564,123,-5,-3.3085758450477325,-4.680727012092904,-4.349864268551453
1770452221568,124,-4,-2.992536972967326,-3.873259404558314,-4.01714683010976
1770452221572,124,-4,-2.473530548886762,-3.3228584280622115,-3.479818839800474
1770452221576,125,-3,-1.9305177566211655,-2.7863389266683125,-2.9175017683714533
1770452221580,125,-3,-1.4497572676025996,-2.477889212496678,-2.4179071489061954
1770452221584,126,-2,-1.0016001401445098,-1.9271852915960423,-1.952094826277789
1770452221588,126,-2,-0.5471760805884651,-1.6153466647182482,-1.4804843018022842
1770452221592,126,-2,-0.1606506036902962,-1.5451511469176047,-1.0759451168073777
1770452221596,127,-1,-0.0266311453848089,-0.5889506370351894,-0.922765225224954
1770452221600,127,-1,-0.2836345089350587,-0.5929774522392259,-1.1603010504734173
1770452221604,126,-2,-0.8511525476174706,-1.9028083705064347,-1.708533585470196
1770452221608,125,-3,-1.4277324879288438,-2.5461884523972937,-2.2654307395668827
1770452221612,125,-3,-1.6953510481980774,-2.683366544471021,-2.512634455395544
1770452221616,125,-3,-1.5589769326943654,-2.369613468718523,-2.35623236161888
1770452221620,126,-2,-1.2140107911846851,-1.8155868171261813,-1.9933368565027672
1770452221624,126,-2,-0.9955638335571778,-1.6792189639651434,-1.7594146828644128
1770452221628,126,-2,-1.145980434098929,-1.751315136637548,-1.8948870445960595
1770452221632,125,-3,-1.6785288670634193,-2.5131470910150853,-2.4098559630141176
1770452221636,124,-4,-2.406936454667555,-3.4819573368748724,-3.116135545062725
1770452221640,124,-4,-3.067759924774117,-3.717534637887602,-3.751771429616568
1770452221644,124,-4,-3.4181645520808592,-3.734400322953235,-4.078228121849685
1770452221648,124,-4,-3.27678524883163,-3.719739540491958,-3.9176916244980657
1770452221652,124,-4,-2.5722856223777963,-3.520657268269767,-3.1985069905448453
1770452221656,125,-3,-1.433362612041365,-2.4698952123043667,-2.0458723500662552
1770452221660,127,-1,-0.2292674098274549,-0.7070209963897147,-0.8257388900140377
1770452221664,128,0,0.5612064931786245,0.2675295379112661,-0.0159228248016711
1770452221668,128,0,0.6265700162745329,0.2750545734186451,0.0712723054911936
1770452221672,127,-1,0.0460968369213832,-0.5128965019982581,-0.4863208771490293
1770452221676,126,-2,-0.7342151382283699,-1.4700768341250663,-1.244410699078907
1770452221680,126,-2,-1.176171598888239,-1.704897774561604,-1.6663393666687014
1770452221684,126,-2,-0.9802214954263376,-1.6776284703257542,-1.4528722251481572
1770452221688,127,-1,-0.2383032151542909,-0.8196027557210508,-0.6946682191701097
1770452221692,128,0,0.6914190442436836,0.6610117810822114,0.2519023522672807
1770452221696,129,1,1.4814426088584425,1.2745918725137,1.0603871069831263
1770452221700,129,1,2.0657955644145103,1.6391915747368926,1.6649001389280405
1770452221704,130,2,2.6240254493950275,1.924622581279074,2.2443829053281092
1770452221708,130,2,3.3520680668457823,2.6327228403281744,2.993549227025822
1770452221712,132,4,4.237576007640242,4.193761390085896,3.898627833035052
1770452221716,132,4,5.0365658831833,4.763282588489864,4.715069035291442
1770452221720,133,5,5.453485525142008,5.162073241636348,5.148274373184855
1770452221724,133,5,5.353984996199871,5.406350469135141,5.065758511392337
1770452221728,132,4,4.83583510568507,4.161358372250774,4.566723377171958
1770452221732,131,3,4.1242100931716035,3.645730113698639,3.876288185469004
1770452221736,131,3,3.406167817128232,3.375559206695332,3.1799063034278214
1770452221740,130,2,2.747955733910127,2.4972303179663773,2.541810038776161
1770452221744,130,2,2.1340270802720487,2.1746876693939967,1.945569823353515
1770452221748,129,1,1.5461019246231251,1.299641130875993,1.3737280419088405
1770452221752,128,0,0.9866658181848972,0.5960392905738987,0.8305042901073589
1770452221756,128,0,0.4388237387256399,0.3646512352691126,0.3003785421554453
1770452221760,127,-1,-0.164279137549103,-0.4153940877367057,-0.2832878207143288
1770452221764,127,-1,-0.8965669873775668,-0.9374343791171657,-0.9953928308820464
1770452221768,126,-2,-1.7435500128861436,-1.562037190836889,-1.822838826993607
1770452221772,125,-3,-2.549670880213277,-2.553846668351869,-2.610630684850735
1770452221776,124,-4,-3.088709007422211,-3.4773929459900192,-3.131805159559955
1770452221780,124,-4,-3.226700019597395,-3.539906170406403,-3.2515524823816575
1770452221784,125,-3,-3.0389314976585275,-2.810532999943863,-3.0456981647680816
1770452221788,125,-3,-2.764278456935786,-2.671139975505702,-2.754514977086866
1770452221792,125,-3,-2.62995495314583,-2.4459329830377783,-2.605194508340773
1770452221796,125,-3,-2.702468728930244,-2.5903316725157106,-2.6617318394482545
1770452221800,124,-4,-2.884320048624909,-3.392865441350714,-2.823836017622571
1770452221804,125,-3,-3.024896476611078,-2.9763006664136484,-2.9414905857744404
1770452221808,125,-3,-3.0155519217193305,-2.4546341263833273,-2.910726036631055
1770452221812,125,-3,-2.795680040837406,-2.6897354722863014,-2.6755943030553024
1770452221816,125,-3,-2.3209988906479335,-2.316672919402148,-2.191413353280607
1770452221820,126,-2,-1.5664771140132294,-1.6544821966108385,-1.4272314121327483
1770452221824,127,-1,-0.536061180621358,-0.7352911033479543,-0.3805238428383997
1770452221828,129,1,0.8066295412780232,1.3649155678122509,0.9864123189440636
1770452221832,131,3,2.6704782225625405,3.457336735102982,2.877547603729117
1770452221836,133,5,5.45576814396354,5.578464188905113,5.686252052315794
1770452221840,137,9,9.491367269487508,9.445853788548778,9.737690621266385
1770452221844,142,14,14.575628688226145,14.158953660865931,14.83133258480994
1770452221848,147,19,19.68989915279431,19.51335592826521,19.952240308425942
1770452221852,152,24,23.24283161016833,24.29173720837994,23.51281747609716
1770452221856,152,24,23.822255442549583,24.78744656781121,24.1041523856106
1770452221860,149,21,20.98569791950826,21.177755452724742,21.286382486693476
1770452221864,143,15,15.535535807488197,15.451306166078773,15.86181614502521
1770452221868,137,9,9.100745458837824,9.187710939950737,9.454834785846035
1770452221872,131,3,3.3386710902135266,3.6870155450636624,3.715784696317572
1770452221876,127,-1,-0.734781436682705,-0.5746221840191876,-0.3437129411203476
1770452221880,125,-3,-2.957784481632106,-2.4435652864167583,-2.5603275965251653
1770452221884,125,-3,-3.785186176754269,-2.9192135877813197,-3.3830289092151684
1770452221888,124,-4,-3.8583534810646567,-3.4765401313312347,-3.446895530347204
1770452221892,124,-4,-3.677141030364024,-3.592609194319102,-3.24899215434196
1770452221896,124,-4,-3.50567045194242,-3.309464359414913,-3.056067732413684
1770452221900,125,-3,-3.4378632697716403,-2.668531361170002,-2.9680868959238844
1770452221904,125,-3,-3.484389744675526,-2.7407140942538284,-2.999855556375366
1770452221908,124,-4,-3.624664416362691,-3.6165157163624064,-3.129371398798416
1770452221912,124,-4,-3.8362142693785577,-3.476079972297681,-3.329437378102888
1770452221916,124,-4,-4.0946257942969355,-3.345986263403417,-3.573035380952174
1770452221920,124,-4,-4.3288777445268645,-3.692192959100096,-3.7908001385702863
1770452221924,124,-4,-4.382392172141977,-3.6428219187821975,-3.829138182962036
1770452221928,124,-4,-4.068373762595197,-3.7898472967874817,-3.5020323745223174
1770452221932,124,-4,-3.320550068594885,-3.2189727782711506,-2.7418935025282245
1770452221936,126,-2,-2.306921997531402,-1.630576147606163,-1.7159150139528871
1770452221940,127,-1,-1.3681794821065485,-0.3604066682594853,-0.7653461513465107
1770452221944,128,0,-0.80475230142356,0.007363158414789,-0.190615588161417
1770452221948,127,-1,-0.6947739517945288,-0.4434435552097499,-0.0681706424014817
1770452221952,127,-1,-0.8916468166217955,-0.5465290404212693,-0.2501240670931359
1770452221956,127,-1,-1.1669812919006757,-0.3129346824539661,-0.5095798278583706
1770452221960,127,-1,-1.3506892793932206,-0.6113399052021914,-0.6795817203579191
1770452221964,127,-1,-1.3778635851997894,-0.7898987864046619,-0.6964887506382429
1770452221968,127,-1,-1.2652389870589742,-0.5790083350839962,-0.5750126267564105
1770452221972,127,-1,-1.072403631534594,-0.4847888210978742,-0.3717029184024525
1770452221976,127,-1,-0.8648434957774975,-0.2830257256929906,-0.1511753182332691
1770452221980,128,0,-0.6736508920823131,0.3094027156913462,0.053593101005978
1770452221984,128,0,-0.4701202177830126,0.3698111012967023,0.2690981138234501
1770452221988,128,0,-0.1924530805073873,0.1869091908482483,0.5570477841702002
1770452221992,128,0,0.1785339661486268,0.8173996805975954,0.9382433154503612
1770452221996,129,1,0.5669322475467828,1.367977083154034,1.3376953710350077
1770452222000,129,1,0.8443118168303485,1.732501485544638,1.6261084642587234
1770452222004,130,2,0.9427073105584832,1.9360502118723708,1.734399856133893
1770452222008,129,1,0.9263378024051084,1.6058916728875356,1.7273452956771365
1770452222012,129,1,0.942917552055334,1.4356892364259322,1.7544416832678746
1770452222016,129,1,1.1017275277123633,1.685803793265344,1.925468823065828
1770452222020,130,2,1.4046381252373523,2.554797957898051,2.240296098760296
1770452222024,131,3,1.7899852299703665,3.001989997849902,2.6349016154693468
1770452222028,130,2,2.213009022170519,2.6749783494178407,3.0647654272420293
1770452222032,131,3,2.654329175951351,3.2210869702967706,3.513153633699175
1770452222036,131,3,3.0612539423410317,4.0199221702638885,3.9293865088122937
1770452222040,132,4,3.3273300375800168,4.178292206558406,4.206429395338582
1770452222044,132,4,3.3672954381320657,4.428377249724796,4.256947361633955
1770452222048,132,4,3.216768305348631,4.272111427248446,4.115272558923365
1770452222052,131,3,3.0412133695290517,3.5338332891435797,3.947261015221982
1770452222056,131,3,3.0276138811567685,3.8106672099364536,3.9410919761665033
1770452222060,132,4,3.253872647935928,4.324144708601653,4.175501914591908
1770452222064,132,4,3.6543222809505944,4.393090056146605,4.5849003818116225
1770452222068,133,5,4.104747655952686,5.255659711665677,5.044470920827002
1770452222072,133,5,4.538817220256158,5.556420221383181,5.486857232673223
1770452222076,133,5,4.982606840548398,5.775524019815091,5.937433262147358
1770452222080,134,6,5.470933063710614,6.400187458687443,6.431441946082513
1770452222084,134,6,5.926509289673348,6.3378393760099385,6.892844625712892
1770452222088,135,7,6.13934860531986,7.324152279028738,7.112478046942868
1770452222092,135,7,5.905948441986365,7.4571244531409295,6.88673197058941
1770452222096,133,5,5.2236689270338,5.889011840508692,6.212595708517428
1770452222100,133,5,4.352565940950944,5.294786062333766,5.349819878810313
1770452222104,132,4,3.663913150608878,4.500956529343123,4.668930437361292
1770452222108,132,4,3.3898445006953324,4.1210256787421455,4.4009790769323525
1770452222112,132,4,3.4736607942951983,4.70024799957797,4.48905607115701
1770452222116,132,4,3.628758440232903,4.617345444304159,4.64787146067077
1770452222120,132,4,3.5480248045328096,4.603452560013531,4.572017182099852
1770452222124,132,4,3.103414705230774,4.2305075340128875,4.133825838823079
1770452222128,131,3,2.398559972809965,3.3370843184255348,3.4358207986996923
1770452222132,130,2,1.6518839360683737,2.5416091124842706,2.6953293017995863
1770452222136,129,1,1.0123539274260724,1.7170092291582968,2.0612746565440188
1770452222140,129,1,0.4609192151864061,1.5909474706818658,1.5149841775424058
1770452222144,129,1,-0.1213054040204355,1.2335791014807616,0.9374558030924224
1770452222148,128,0,-0.790143204332797,0.3346902590703959,0.2726427527329813
1770452222152,127,-1,-1.4492400860764003,-0.4426099649943794,-0.3825169770097245
1770452222156,126,-2,-1.9329691892971228,-1.344709076032384,-0.8614104999754554
1770452222160,126,-2,-2.1803501053098984,-1.2537147227095786,-1.103212274324648
1770452222164,127,-1,-2.318296276849104,-0.9656586260153226,-1.23651326280147
1770452222168,126,-2,-2.5638310567395393,-1.3908273851251771,-1.4796288004434508
1770452222172,126,-2,-3.0418321459879767,-1.796315973498933,-1.9562588520855908
1770452222176,124,-4,-3.694472755297207,-2.936537900602944,-2.605658297065018
1770452222180,124,-4,-4.351339469330228,-3.6875434462425662,-3.2560934317631034
1770452222184,124,-4,-4.864962591811945,-3.4727724631323755,-3.7624682899117183
1770452222188,124,-4,-5.178569101342945,-3.8795449562125297,-4.071927761746551
1770452222192,123,-5,-5.302614584221368,-4.330357131996103,-4.196102302703136
1770452222196,123,-5,-5.276628166664919,-4.369904324230793,-4.171548548426113
1770452222200,123,-5,-5.162906378637874,-4.287558962871142,-4.056510232746262
1770452222204,124,-4,-5.032369269830335,-3.800799191738755,-3.920707119464335
1770452222208,124,-4,-4.902686995195819,-3.569066878122686,-3.784205340326059
1770452222212,124,-4,-4.677830157703847,-3.6268220746991746,-3.554369900495514
1770452222216,124,-4,-4.185863171103101,-3.0916945559921967,-3.060708759811952
1770452222220,125,-3,-3.333139854085017,-2.5408675674395353,-2.2084087767263147
1770452222224,126,-2,-2.2570514223694147,-1.5457114250333293,-1.1327747399721233
1770452222228,128,0,-1.3163438084219414,0.2394223071721211,-0.1914204829904856
1770452222232,128,0,-0.881103832314655,0.5052447231590255,0.2455871278481898
1770452222236,127,-1,-1.074973795191159,-0.1735153459003857,0.0544645711382327
1770452222240,127,-1,-1.6858397898530018,-0.5166300295716173,-0.5527626187639145
1770452222244,126,-2,-2.321302507975922,-1.4933315265474048,-1.1843953109026055
1770452222248,126,-2,-2.6779439120660857,-1.837485750349367,-1.5384706411661613
1770452222252,126,-2,-2.7111072158658347,-1.3671922390745146,-1.5715182888172103
1770452222256,126,-2,-2.5923576699344166,-1.3306357639053323,-1.4546600843962416
1770452222260,126,-2,-2.523087982063393,-1.3515482246642985,-1.3870322799341817
1770452222264,126,-2,-2.5741011103815756,-1.6212448489421405,-1.437139022315406
1770452222268,126,-2,-2.66479821562009,-1.741569917085021,-1.52435762400883
1770452222272,126,-2,-2.6598620173275815,-1.3908123442506222,-1.5158317683395854
1770452222276,126,-2,-2.483898660711917,-1.378183018786424,-1.338665797214591
1770452222280,126,-2,-2.1777227929406315,-1.2294713353911302,-1.0338310674582876
1770452222284,127,-1,-1.877935769161644,-0.780029477737286,-0.7360408842685058
1770452222288,127,-1,-1.7383932578067407,-0.5344035706924575,-0.597360866159799
1770452222292,127,-1,-1.836417122693336,-0.6119074282157612,-0.6947421821525099
1770452222296,126,-2,-2.1233176310287636,-1.1503965347215588,-0.9801972584977964
1770452222300,126,-2,-2.4567455248129786,-1.4495748356497715,-1.3123374698448111
1770452222304,126,-2,-2.6900932678056373,-1.551904984070279,-1.545321149951104
1770452222308,126,-2,-2.749656683030772,-1.735788342785969,-1.6056760346890768
1770452222312,126,-2,-2.6490831192609012,-1.4142946263457965,-1.5064657234456558
1770452222316,126,-2,-2.4483873064531068,-1.328091859957914,-1.3066298458221088
1770452222320,126,-2,-2.2034430099170317,-1.2891669640077246,-1.0615216459777217
1770452222324,127,-1,-1.944333042409561,-0.6804766281388682,-0.802013659646984
1770452222328,127,-1,-1.6884124602085488,-0.6055360175139802,-0.5468927625584246
1770452222332,127,-1,-1.4693136782303209,-0.533242973729425,-0.3302308561549411
1770452222336,127,-1,-1.3536100041315915,-0.1961954222541886,-0.2172972894766868
1770452222340,127,-1,-1.4186913144198323,-0.436110386550893,-0.2835652807925953
1770452222344,127,-1,-1.6889713105487965,-0.5057524995062976,-0.5528293936387276
1770452222348,127,-1,-2.072295937480883,-0.7714874262237014,-0.9343185374007056
1770452222352,126,-2,-2.366481120245391,-1.362976959091092,-1.227997086953632
1770452222356,126,-2,-2.3714752664519305,-1.3483213722985217,-1.234900203596094
1770452222360,126,-2,-2.0491058540043547,-1.2998724986004155,-0.9163472269295811
1770452222364,127,-1,-1.5970523813119366,-0.6084296542639318,-0.4687522060994632
1770452222368,128,0,-1.3417091101184877,0.3314758173836808,-0.2171378765958395
1770452222372,127,-1,-1.5048967999704417,-0.4360610747981057,-0.3818861480253379
1770452222376,126,-2,-2.024471547114816,-1.307210835463699,-0.9001173747522355
1770452222380,126,-2,-2.57246384491735,-1.3070040269213403,-1.4452312324688696
1770452222384,126,-2,-2.7551883293921615,-1.6335731589934843,-1.6266564314099023
1770452222388,126,-2,-2.3568365282645822,-1.573195843859173,-1.2308638214985694
1770452222392,127,-1,-1.4764546525733904,-0.5432552889424554,-0.3564650269794203
1770452222396,128,0,-0.4732680044305685,0.8136438655486464,0.6398338135554154
1770452222400,129,1,0.2546860855824562,1.5661220814922745,1.3628757682304842
1770452222404,129,1,0.518908028531972,1.48213855946279,1.6260001244291369
1770452222408,129,1,0.4493128076824073,1.3652886843911631,1.5587948907290243
1770452222412,129,1,0.3996962410659561,1.4823083024745451,1.51231445347286
1770452222416,129,1,0.7252375412113303,1.8473068822350451,1.83831319593881
1770452222420,130,2,1.5688926138944232,2.4714345685729557,2.6782878121745166
1770452222424,131,3,2.766665547961731,3.6553125558432047,3.869608691833083
1770452222428,133,5,3.9174510444546327,5.157483158057387,5.013776826071406
1770452222432,133,5,4.583678985270357,5.740395990900159,5.675169055858489
1770452222436,133,5,4.511897018714624,5.558576092910693,5.601077122784241
1770452222440,132,4,3.744141595949398,4.763024717209968,4.833323995053574
1770452222444,131,3,2.5655422386713793,3.3834954900946075,3.6559133951864857
1770452222448,130,2,1.3446902840899946,2.423701463389783,2.4355435364162723
1770452222452,129,1,0.3755496247542363,1.5333934997572125,1.4644784853307726
1770452222456,128,0,-0.2070987610311609,0.7208001575344019,0.8772906722588086
1770452222460,128,0,-0.4351265736719362,0.648952768792499,0.6436283771864251
1770452222464,128,0,-0.4659648309885088,0.4678567512919029,0.608008880846777
1770452222468,128,0,-0.5125280965545042,0.3798986425687279,0.5583057002655869
1770452222472,128,0,-0.7565699656759636,0.5825632870826501,0.3121252753388602
1770452222476,127,-1,-1.274195814502645,-0.3262894880255775,-0.2075946720840368
1770452222480,126,-2,-2.013197927288245,-1.3103961935762851,-0.9489268839307048
1770452222484,126,-2,-2.8338579560492527,-1.5582936253999788,-1.771837102977488
1770452222488,125,-3,-3.580498669071321,-2.586459592976422,-2.5203594824617395
1770452222492,124,-4,-4.139597539530479,-3.4239615525040192,-3.0812773166040017
1770452222496,124,-4,-4.461979335482703,-3.3118172565070925,-3.40649466772318
1770452222500,124,-4,-4.553012821189267,-3.344573262851537,-3.50224417445186
1770452222504,124,-4,-4.457291661201545,-3.4894712313048175,-3.412072450726031
1770452222508,124,-4,-4.262336187942642,-3.674735201875806,-3.2208121305293393
1770452222512,124,-4,-4.098975761192892,-3.274098402408011,-3.058072247030403
1770452222516,125,-3,-4.084575166698153,-2.513574823965346,-3.0436506353854913
1770452222520,124,-4,-4.2183692817566865,-3.084728139772444,-3.180630901461736
1770452222524,124,-4,-4.331259665431807,-3.802020231496812,-3.3008485153069147
1770452222528,124,-4,-4.162198701053773,-3.2979491772531677,-3.1399624062928773
1770452222532,125,-3,-3.485700515394078,-2.661645805773477,-2.4678673892412197
1770452222536,126,-2,-2.1434101110308026,-1.1333499871023265,-1.1241623533508531
1770452222540,129,1,0.0488025724143867,1.6084391457512606,1.073175732267253
1770452222544,132,4,3.362195484372883,4.406693110137946,4.390662347542639
1770452222548,136,8,7.997278751682316,8.637661562859083,9.024466180468147
1770452222552,142,14,13.718876802438134,14.26803647086926,14.73779647126629
1770452222556,147,19,19.56527155798457,20.080228058880348,20.57070472459063
1770452222560,153,25,23.97392939212136,25.287062226304943,24.965196565915537
1770452222564,154,26,25.402823921889265,26.823357933045074,26.384893566512456
1770452222568,152,24,23.128846367445515,24.14508769780077,24.110586413610093
1770452222572,146,18,17.712333216426128,18.784651580307973,18.701883729905692
1770452222576,139,11,10.800662120240164,11.55267281110056,11.800548609778543
1770452222580,132,4,4.364220910142916,4.8221046187399095,5.369776941173103
1770452222584,128,0,-0.1870723487968386,0.3671433656652624,0.8150538644770213
1770452222588,126,-2,-2.500027824701403,-1.4166253053653626,-1.509806316139089
1770452222592,126,-2,-3.152980171923354,-1.5993854741249252,-2.177913181629621
1770452222596,125,-3,-3.089886053587291,-2.1020838462209106,-2.126164769017798
1770452222600,125,-3,-3.041668792654833,-2.501226801808402,-2.080985264167103
1770452222604,125,-3,-3.2685640862501737,-2.317828315940012,-2.304006551806586
1770452222608,125,-3,-3.6590060007284135,-2.710242192063358,-2.689673538359849
1770452222612,124,-4,-3.9973174853714273,-3.3225688375884284,-3.027653394581722
1770452222616,124,-4,-4.184531841665825,-3.3300166383714913,-3.2196604516368885
1770452222620,124,-4,-4.292221295886324,-3.325765901878946,-3.3341351247153783
1770452222624,124,-4,-4.456271081724548,-3.4114234162721813,-3.503660961366133
1770452222628,124,-4,-4.723712442387896,-3.6823631418952,-3.7741634971886624
1770452222632,123,-5,-4.992333667681631,-4.268381245767431,-4.0442991135843815
1770452222636,123,-5,-5.09678951872915,-4.449887852399087,-4.15023097718778
1770452222640,123,-5,-4.959582969234818,-4.141683267725681,-4.015578324596598
1770452222644,124,-4,-4.665587199213159,-3.625382221807787,-3.72537740116638
1770452222648,124,-4,-4.3931983110819,-3.4260502798334023,-3.45718864498556
1770452222652,124,-4,-4.266484324451372,-3.52397909569145,-3.33399884525556
1770452222656,124,-4,-4.254399786864329,-3.215608793864132,-3.3243922331389775
1770452222660,124,-4,-4.1947280889931395,-3.3312797286924116,-3.266537739547278
1770452222664,124,-4,-3.919656256430389,-3.486661764832702,-2.993136864065732
1770452222668,125,-3,-3.3820328878223833,-2.46285506138281,-2.457511373044135
1770452222672,126,-2,-2.6806516287874356,-1.5654123554741324,-1.758998466475768
1770452222676,126,-2,-1.9720907447027536,-1.0924304703082308,-1.0543187617022374
1770452222680,127,-1,-1.3613176138763827,-0.5222765758489027,-0.4476839361898735
1770452222684,127,-1,-0.8712822865299138,-0.2355293806205478,0.0390442993361885
1770452222688,128,0,-0.4954416949213946,0.2694760710296729,0.4127233942255621
1770452222692,128,0,-0.2510632995041255,0.7215077600589059,0.6554110483432095
1770452222696,128,0,-0.1661993635686006,0.6417889801886099,0.738261270661313
1770452222700,128,0,-0.217766246787295,0.7002865139507538,0.6842637861733735
1770452222704,128,0,-0.2955540716863888,0.6228767701091873,0.6041556318504678
1770452222708,128,0,-0.2444445629175247,0.3304115005018178,0.653425208945245
1770452222712,128,0,0.0380461706259445,0.7738371398620556,0.9340966474990972
1770452222716,129,1,0.528154817578129,1.5034194230973816,1.4213982404620071
1770452222720,129,1,1.0878669664498355,1.914554061827895,1.9770054795798897
1770452222724,130,2,1.5496605332384747,2.375917466484725,2.4346104493935488
1770452222728,130,2,1.807239628696709,2.594376804476984,2.689711295947251
1770452222732,130,2,1.8589662414466388,2.5390231154960863,2.741070756018346
1770452222736,130,2,1.7973832955934828,2.696144116085111,2.6795880440552216
1770452222740,130,2,1.761746724784202,2.7922079067511816,2.6425607903968378
1770452222744,130,2,1.866982887526441,2.4414335244731356,2.744751791143552
1770452222748,130,2,2.1328990999269086,2.60032475989141,3.0073393666549793
1770452222752,131,3,2.4664209080459147,3.495522777027533,3.3380569719396
1770452222756,131,3,2.7341145398778823,3.770381794065356,3.6030454771156215
1770452222760,131,3,2.876691806197518,3.719214767328787,3.742969242241754
1770452222764,131,3,2.9575015259645885,3.5194414406914847,3.822367181349672
1770452222768,131,3,3.099038087911524,3.535505967997792,3.964391562295772
1770452222772,132,4,3.3799722480507746,4.552924921823567,4.2460600409308125
1770452222776,132,4,3.7902570119283823,4.74414253219931,4.654679973695473
1770452222780,132,4,4.25419416151264,4.735099767861412,5.11395523473362
1770452222784,133,5,4.663701005022298,5.538494989987273,5.518124658286481
1770452222788,133,5,4.897290928990085,5.4877140838599345,5.748678709809371
1770452222792,133,5,4.857661812717893,5.61987572386055,5.7092253558734845
1770452222796,133,5,4.5444806670538105,5.693954282987551,5.3977412608868995
1770452222800,132,4,4.108315981893856,4.783584429164487,4.962284933219359
1770452222804,132,4,3.80454767374498,4.519477540662164,4.657069681875638
1770452222808,132,4,3.83758864304522,4.4772098992783285,4.687272607449598
1770452222812,132,4,4.199593572076717,4.664316309556092,5.04650843073387
1770452222816,133,5,4.644635095825188,5.641654239652829,5.489450516813769
1770452222820,133,5,4.8417074019382405,5.88756526768112,5.684643422297713
1770452222824,133,5,4.593699468042654,5.375108174579013,5.434666028972302
1770452222828,132,4,3.9442698366330418,4.651850785288732,4.783812476149819
1770452222832,131,3,3.0959132520688835,3.460547467030163,3.9353165099600744
1770452222836,130,2,2.2369274939578423,2.8712222243431675,3.0769842510432728
1770452222840,130,2,1.4440660936944083,2.7079773482289387,2.284162321331932
1770452222844,129,1,0.7228481203047352,1.5135183742129288,1.5618301911884165
1770452222848,128,0,0.094444121300091,0.5701738095330321,0.9320762674474952
1770452222852,128,0,-0.3898919186851385,0.4713095333774978,0.4468804088982367
1770452222856,127,-1,-0.7189734525101128,-0.0700318969302273,0.1165942642885786
1770452222860,127,-1,-0.9896580202141888,-0.3568385034103405,-0.1568719825322511
1770452222864,127,-1,-1.390887850328005,-0.4013471759079055,-0.5618772173250706
1770452222868,126,-2,-2.0964296624188954,-1.5022592499897949,-1.2696384214824896
1770452222872,125,-3,-3.127544967141936,-2.522024458375488,-2.299384101133215
1770452222876,124,-4,-4.27353960631361,-2.982582409197037,-3.441226169593486
1770452222880,123,-5,-5.143418235724274,-4.5068871852702745,-4.307315142891323
1770452222884,122,-6,-5.361815254010417,-5.153634794366395,-4.525227860114168
1770452222888,124,-4,-4.817417043561628,-3.810685493179271,-3.98440105277418
1770452222892,124,-4,-3.793372712724625,-3.1979875254027164,-2.966229117461632
1770452222896,125,-3,-2.8573213879024935,-2.2827122948720953,-2.0352049233778207
1770452222900,126,-2,-2.5512001194043146,-1.2108943636103109,-1.7306857296766198
1770452222904,125,-3,-3.0704408240822696,-2.394747584473539,-2.2476835636871835
1770452222908,124,-4,-4.144482148514078,-3.656593345549741,-3.3174405164195897
1770452222912,123,-5,-5.202384374483407,-4.276791452467002,-4.3716080402100745
1770452222916,122,-6,-5.713904790078208,-5.273005217254806,-4.881602088394028
1770452222920,122,-6,-5.479906136602798,-5.0985040162689215,-4.64851830780342
1770452222924,124,-4,-4.688623840627148,-3.5509808172751884,-3.86013064870421
1770452222928,125,-3,-3.727235152330529,-2.4795587469952243,-2.9026983093210212
1770452222932,125,-3,-2.9205959535204142,-2.478302510344122,-2.099206290591379
1770452222936,125,-3,-2.4014935188047564,-2.0705212506065456,-1.5803635817744677
1770452222940,126,-2,-2.1597580039257043,-1.2507358472135757,-1.3357726138122443
1770452222944,126,-2,-2.145700128918087,-1.4165518242374462,-1.3179791108874377
1770452222948,126,-2,-2.3015184878391164,-1.5822861540136737,-1.4719053796176431
1770452222952,126,-2,-2.524646713902414,-1.4225929275495406,-1.6957795293312985
1770452222956,125,-3,-2.6568667233432657,-2.076895946014414,-1.8297929950098648
1770452222960,125,-3,-2.5551214254359844,-2.2613405401908517,-1.7287731063939162
1770452222964,126,-2,-2.1910810082246956,-1.3445308319481488,-1.3640176767776684
1770452222968,127,-1,-1.6741475641068972,-0.695729944226275,-0.8463248968249732
1770452222972,127,-1,-1.1672910960932594,-0.2898543593127444,-0.3395532330753837
1770452222976,127,-1,-0.7815019532848219,-0.2045602928343805,0.0462280135712495
1770452222980,127,-1,-0.5461044398853793,-0.1372912337641262,0.282761742720689
1770452222984,128,0,-0.4537289912186708,0.5818565670978939,0.376606203202689
1770452222988,128,0,-0.5073701149138533,0.3330960012354836,0.3230004149032109
1770452222992,127,-1,-0.7261479580969352,-0.2780087537366061,0.102770128150391
1770452222996,127,-1,-1.1223179482660437,-0.2389502264366997,-0.2941846152688168
1770452223000,126,-2,-1.6690634537054512,-1.0670117199746416,-0.8391983717743129
1770452223004,126,-2,-2.266531772720829,-1.4951064065295483,-1.4331829622920418
1770452223008,126,-2,-2.7313161110390456,-1.5660896448713295,-1.8953150816906663
1770452223012,125,-3,-2.854304007398299,-2.396147793902244,-2.017989024684367
1770452223016,125,-3,-2.531719458540122,-2.1008162654147373,-1.69646660396626
1770452223020,126,-2,-1.8819783525495817,-1.1901431379975589,-1.047409276170494
1770452223024,127,-1,-1.222719263933688,-0.3745522577644667,-0.3880851488526279
1770452223028,128,0,-0.8839177045359199,0.3451376047734422,-0.0491894450016532
1770452223032,127,-1,-0.9954560056391276,-0.3361886420667061,-0.1605428629387791
1770452223036,126,-2,-1.427298500462248,-1.1412785798863347,-0.5909741816862263
1770452223040,126,-2,-1.9176275180668352,-1.155414598887209,-1.0782361679184849
1770452223044,126,-2,-2.253919366048069,-1.386725876990097,-1.4111453382242267
1770452223048,126,-2,-2.356265512481721,-1.6269036261881085,-1.5116320794527698
1770452223052,126,-2,-2.2404913437164966,-1.3578301556120858,-1.3960109024928236
1770452223056,126,-2,-1.950137829851514,-1.1204264441023988,-1.106731170184266
1770452223060,126,-2,-1.5392458681358538,-1.1816344160302827,-0.6964519859574682
1770452223064,127,-1,-1.1013187382650105,-0.3371718856215227,-0.2581297735285017
1770452223068,128,0,-0.7780766047559526,0.3342762603731826,0.0663915539297071
1770452223072,127,-1,-0.7063423552688021,-0.3111667735537935,0.1401772663144571
1770452223076,127,-1,-0.933115453723316,-0.1683052007600367,-0.0840288962594427
1770452223080,127,-1,-1.3663251719499674,-0.1432752970599178,-0.5149913726103521
1770452223084,126,-2,-1.8104969129209132,-1.3517110131258867,-0.958005564602
1770452223088,126,-2,-2.0828530437313244,-1.6454395218050126,-1.230098261051288
1770452223092,126,-2,-2.1340884899531174,-1.2994263120576677,-1.2811547924791773
1770452223096,126,-2,-2.069042452535905,-1.2098803854150175,-1.2154623895277754
1770452223100,126,-2,-2.0393776152715786,-1.0788919698792236,-1.1844721322249463
1770452223104,126,-2,-2.103616315390755,-1.4065147181726174,-1.2466617201349397
1770452223108,126,-2,-2.1818295066547613,-1.5974652509719256,-1.3225607865077875
1770452223112,126,-2,-2.139262840510043,-1.298791516498889,-1.2783991588897998
1770452223116,126,-2,-1.9187053090183768,-1.2699640429113788,-1.057478512811304
1770452223120,126,-2,-1.6078990833224884,-0.9559906386586212,-0.746798199729273
1770452223124,127,-1,-1.3833885470442673,-0.5509484620153746,-0.5216756958643052
1770452223128,127,-1,-1.3657135300122,-0.4328158865652681,-0.5022589796614159
1770452223132,127,-1,-1.4978860991235832,-0.4384103752377984,-0.6320227382958238
1770452223136,126,-2,-1.5606235450865509,-1.1852832386949967,-0.6921194951866535
1770452223140,126,-2,-1.3326594031664645,-0.9644206951865322,-0.4616372135586282
1770452223144,128,0,-0.7669885292433627,0.3941507020954653,0.1056172031398082
1770452223148,128,0,-0.0296791039836414,0.7241295414520434,0.8427978359115871
1770452223152,129,1,0.6251731399120448,1.330782027850208,1.496295746311977
1770452223156,129,1,1.0291672371756204,2.1084981418452067,1.8995763786845044
1770452223160,129,1,1.188028886282032,1.6896381831171832,2.0601514326258883
1770452223164,129,1,1.2442093978936308,1.7658600246970697,2.120488910902244
1770452223168,130,2,1.374733034702886,2.402966585648296,2.2555905811387884
1770452223172,130,2,1.7089929439519085,2.593790454379459,2.5924900676925873
1770452223176,130,2,2.2943985629949517,2.9395082759376256,3.1780207157049425
1770452223180,131,3,3.084043803880901,3.754106202419603,3.9667327176267753
1770452223184,132,4,3.9329461850291256,4.7990830334863945,4.81544595722785
1770452223188,133,5,4.625532873706946,5.3318307015542885,5.509164969033119
1770452223192,133,5,4.949563377520381,5.692119254315579,5.834922604905012
1770452223196,133,5,4.787851612905447,5.863528541648593,5.674594870710861
1770452223200,132,4,4.171275501272067,4.760295999556222,5.059034236011129
1770452223204,131,3,3.2564282586963627,3.8852565350145225,4.145764550468039
1770452223208,131,3,2.2474150760896885,3.178585061780395,3.1396198976972274
1770452223212,129,1,1.321728522816156,1.937216672008136,2.2174845206052987
1770452223216,129,1,0.6009728479897056,1.5631228978912426,1.499229536261692
1770452223220,128,0,0.151161464087748,1.0917124038489967,1.0495838866221372
1770452223224,128,0,-0.029987223836504,0.5486575336006125,0.8668683637586856
1770452223228,128,0,-0.0453823320591483,0.5273375906083791,0.8502671327447698
1770452223232,128,0,-0.0960852246579928,0.6235074378243541,0.8003451077918935
1770452223236,128,0,-0.3894743487377489,0.8418486938518133,0.5096473005831864
1770452223240,127,-1,-0.9954982834237064,-0.1482844524027843,-0.0928929532994171
1770452223244,126,-2,-1.7752305964211317,-1.2517139839549405,-0.8694180363489364
1770452223248,126,-2,-2.4664585705854836,-1.6155899012391417,-1.5585795277565262
1770452223252,125,-3,-2.8707218510585,-2.2579383186900053,-1.9625725568560304
1770452223256,125,-3,-2.9924657776607324,-2.2404561880535043,-2.085578585065135
1770452223260,125,-3,-3.020943946715432,-2.0835639412857203,-2.115184456662852
1770452223264,125,-3,-3.1712330399660376,-2.2923160409226986,-2.2643344981217903
1770452223268,125,-3,-3.507488717182656,-2.591176167385204,-2.596535535819278
1770452223272,124,-4,-3.882452562639949,-3.239892409523896,-2.9665860899650665
1770452223276,124,-4,-4.035791842631319,-3.3037385390429,-3.1178197538244614
1770452223280,124,-4,-3.7710397945219567,-2.9517599626215407,-2.855844099039703
1770452223284,125,-3,-3.070006393625023,-2.4849762044715806,-2.1603322901345714
1770452223288,126,-2,-2.0441271130276157,-1.3099064002030163,-1.1373609852420756
1770452223292,128,0,-0.7376126342375358,0.4103275124719451,0.1730806886701857
1770452223296,129,1,1.0730839932526075,2.1211382656681623,1.9937463811135507
1770452223300,132,4,3.88138716367867,4.559679187300189,4.812468362687147
1770452223304,136,8,8.148051938986622,9.066869925130716,9.08381513980306
1770452223308,142,14,13.817873269409386,14.125113951881264,14.750283512173583
1770452223312,147,19,19.988444173862582,19.978820047312983,20.911959871611277
1770452223316,154,26,25.05913489063901,26.60741029731559,25.972991447213047
1770452223320,156,28,27.396900678433727,28.97827444030452,28.304976660269347
1770452223324,154,26,26.15016746098005,26.75563191704852,27.059744335624437
1770452223328,150,22,21.6802607098475,22.295720905280525,22.599115598300894
1770452223332,143,15,15.345605221495015,15.937002302560732,16.277476994036995
1770452223336,137,9,8.827196759090139,9.540861346582986,9.769009036383704
1770452223340,131,3,3.431886257142686,4.185420268408303,4.37581653920578
1770452223344,128,0,-0.2746624417914987,0.5051068145956153,0.6640283961690765
1770452223348,126,-2,-2.414584791962343,-1.4139221329563134,-1.4841259923058798
1770452223352,125,-3,-3.4731019078282506,-2.34994821317271,-2.5490296687753937
1770452223356,124,-4,-3.955079918077576,-3.2144132696723364,-3.0326098774471246
1770452223360,123,-5,-4.20677154091786,-3.978587662100708,-3.2809655225071706
1770452223364,124,-4,-4.410642438511366,-3.397258075059543,-3.4790109321164224
1770452223368,124,-4,-4.637358128796011,-3.4373716581124176,-3.700773202798418
1770452223372,123,-5,-4.870998873667316,-4.397286515763975,-3.93222981808024
1770452223376,123,-5,-5.026688350842448,-4.109089341486625,-4.088194265411449
1770452223380,123,-5,-5.006494509185434,-4.100618411011261,-4.069452045191651
1770452223384,123,-5,-4.7814258583148845,-4.255825322434939,-3.8459507701146673
1770452223388,124,-4,-4.438674776262743,-3.5627867019915795,-3.5042048793373426
1770452223392,124,-4,-4.143955218408018,-3.2909105834835533,-3.2095156979011765
1770452223396,124,-4,-4.02750592288681,-3.1945408488769584,-3.092027486643288
1770452223400,124,-4,-4.070738722654381,-3.0142363429730823,-3.1333208408900006
1770452223404,124,-4,-4.09074144580012,-3.327638434738277,-3.1508361487699386
1770452223408,124,-4,-3.855284569171474,-3.490844606972737,-2.913164131406254
1770452223412,125,-3,-3.251435570310803,-2.3561769765198255,-2.308745833285678
1770452223416,126,-2,-2.3793643615891704,-1.1270417587056936,-1.438536473614746
1770452223420,126,-2,-1.507221495985671,-1.056115905030326,-0.5695121902967837
1770452223424,127,-1,-0.9298477790164532,-0.2914985462378445,0.0058953478729836
1770452223428,128,0,-0.8174487242102408,0.4911342551781957,0.1188253053363051
1770452223432,127,-1,-1.1253171621589224,-0.3760085662920398,-0.1865946528027122
1770452223436,126,-2,-1.612408859390022,-1.0564600348490911,-0.6707083171999826
1770452223440,126,-2,-1.9679924003529523,-1.15208593007311,-1.0240317187182375
1770452223444,126,-2,-1.970418132971571,-1.1412565844286304,-1.0258754906627152
1770452223448,127,-1,-1.5782092654722897,-0.7025762488774754,-0.6350450736348329
1770452223452,127,-1,-0.9152739897879544,-0.1304464422445713,0.0254658507615224
1770452223456,128,0,-0.187921091518197,0.6541348571781354,0.7510246005339507
1770452223460,128,0,0.4063429285829268,1.202137634309463,1.3452187791432195
1770452223464,129,1,0.7416743105010992,1.462584026164125,1.6817520758677635
1770452223468,129,1,0.7904510277342938,1.7254283825014296,1.731477638695062
1770452223472,129,1,0.6174602369040324,1.4321846997905592,1.5581978348098595
1770452223476,128,0,0.3470918671163762,1.0855722485115165,1.2869627747930634
1770452223480,128,0,0.1177864077119962,0.8269056829449273,1.0577188476437998
1770452223484,128,0,0.0512024053861981,0.7806344937522995,0.9925847731031272
1770452223488,129,1,0.2505827661950393,1.487636995358074,1.1936199987425966
1770452223492,129,1,0.7989315811906487,1.5951401457546992,1.7424023674422795
1770452223496,129,1,1.7120305975214245,2.006168127284749,2.6543749445878015
1770452223500,131,3,2.861740040102739,3.8508148571775287,3.801869883277503
1770452223504,132,4,3.9573170704728113,4.823723636482516,4.89475828623618
1770452223508,133,5,4.6485358479887005,5.383644844870691,5.583754100327587
1770452223512,133,5,4.705930221124866,5.771114458116867,5.640699957339289
1770452223516,132,4,4.159479331364559,4.765677339630569,5.096179851184781
1770452223520,131,3,3.303164839493106,4.150197421873809,4.243048526834208
1770452223524,131,3,2.5592536301655304,3.500627354141705,3.50134042645991
1770452223528,130,2,2.2751923844711346,2.724814027922948,3.217023930368148
1770452223532,131,3,2.5612397555129105,3.452742652551191,3.5007177901184536
1770452223536,131,3,3.258031607432956,4.074563702068832,4.19456954323995
1770452223540,132,4,4.051044590279404,4.859034233492907,4.985318335897503
1770452223544,133,5,4.655556421791383,5.791334217208484,5.588608333783542
1770452223548,133,5,4.949763720582565,5.440261806242923,5.882454413415712
1770452223552,133,5,4.980259467813937,5.729880700285993,5.913296112764622
1770452223556,133,5,4.86683443541706,5.827997700274912,5.800904171710223
1770452223560,132,4,4.702786307244372,5.073805547322808,5.638221066521661
1770452223564,133,5,4.527759528801327,5.632458874697022,5.463810543377741
1770452223568,133,5,4.367515219121296,5.5674473966691975,5.302312309405452
1770452223572,132,4,4.264202571573399,4.63259759186526,5.19613201590649
1770452223576,132,4,4.235944905107996,4.912786149245926,5.165205482427782
1770452223580,132,4,4.203452012437795,5.010528348753498,5.131839312746298
1770452223584,132,4,3.9895702793033383,4.681854682210858,4.918548277032306
1770452223588,132,4,3.43600900011601,4.5620370510726085,4.3652405576294875
1770452223592,131,3,2.5472209710020026,3.6037413933967626,3.4753304950232335
1770452223596,129,1,1.5162419709749648,1.972128183989857,2.442964425135067
1770452223600,128,0,0.587348627194737,0.9318515756103252,1.514202522423172
1770452223604,128,0,-0.123177283303234,0.7828051394108217,0.8050484895326144
1770452223608,128,0,-0.6779495502904556,0.4787665950303529,0.2503855943449484
1770452223612,127,-1,-1.2093775740109751,-0.3085600611912025,-0.2838600367053665
1770452223616,126,-2,-1.7869870260075764,-1.1101605167539996,-0.8656940018370505
1770452223620,125,-3,-2.39585507470749,-1.9993117296043597,-1.4770309225627396
1770452223624,125,-3,-3.0071214498608496,-2.281967072453108,-2.0876790987610407
1770452223628,125,-3,-3.618071357481422,-2.423341486496419,-2.6965458477220934
1770452223632,124,-4,-4.205686399638113,-3.408592361243082,-3.2830341498326843
1770452223636,123,-5,-4.670276843608949,-3.991049514918565,-3.748361350282519
1770452223640,123,-5,-4.869606841938873,-4.146150770377546,-3.9496717763483393
1770452223644,123,-5,-4.737249372416951,-4.12809255338603,-3.819664336514384
1770452223648,124,-4,-4.376805645739076,-3.5417641558668103,-3.461415268556266
1770452223652,124,-4,-4.033926064374486,-3.289895437895845,-3.120246157480997
1770452223656,124,-4,-3.949579721121978,-3.082430541924008,-3.036925044994984
1770452223660,124,-4,-4.198670462604631,-3.1111049672534365,-3.286338232130534
1770452223664,123,-5,-4.639497610111402,-4.120376585921504,-3.726916693926565
1770452223668,123,-5,-5.018078103335488,-4.573962096201039,-4.105108495688793
1770452223672,123,-5,-5.14374963314093,-4.186954512785632,-4.231128254427617
1770452223676,123,-5,-4.994625516995382,-4.219150703731597,-4.08380957272304
1770452223680,123,-5,-4.683269831655458,-3.968115654079694,-3.7752757319729913
1770452223684,124,-4,-4.337925210392793,-3.2582093922345545,-3.432175989755596
1770452223688,124,-4,-4.010920839502225,-3.441686291762996,-3.1055766730700367
1770452223692,124,-4,-3.6779003830074943,-3.2715668613406437,-2.771788524803932
1770452223696,125,-3,-3.301487829679268,-2.1550662612273457,-2.395683324812052
1770452223700,125,-3,-2.890062116297892,-2.035425641461744,-1.9868830094814796
1770452223704,125,-3,-2.511899990521174,-2.175593464068924,-1.6120655996326116
1770452223708,126,-2,-2.2639625179153215,-1.5379192691141634,-1.3654917406184148
1770452223712,126,-2,-2.20348059708632,-1.111854501718848,-1.303900762581396
1770452223716,126,-2,-2.2747123851214135,-1.375796587516214,-1.3737843031558394
1770452223720,125,-3,-2.3059054824991394,-1.7506044838358894,-1.4056892193880763
1770452223724,126,-2,-2.122831686181895,-1.5280571372853484,-1.2254831927257896
1770452223728,126,-2,-1.7075407617826892,-1.1122281274574377,-0.813486501746215
1770452223732,127,-1,-1.2526658991002864,-0.557096055899025,-0.3606998229830627
1770452223736,127,-1,-1.0331555963708825,0.0906128006470357,-0.1418083584383016
1770452223740,127,-1,-1.1856780334005608,-0.2129337990730548,-0.2943161378917521
1770452223744,126,-2,-1.5872460461867588,-1.1074211366754323,-0.696198609364493
1770452223748,126,-2,-1.9476469499249216,-1.4697518121654862,-1.0577478050858498
1770452223752,126,-2,-2.0380355754256136,-1.2450981412276323,-1.149953627528159
1770452223756,126,-2,-1.8573845509409896,-1.1419317039767245,-0.9709608153884888
1770452223760,126,-2,-1.6002270452290366,-1.0345691789430118,-0.7145930064411937
1770452223764,127,-1,-1.462853803624965,-0.2514600745802309,-0.5775875574815131
1770452223768,127,-1,-1.463162420074233,-0.3411455954219234,-0.5789545103083258
1770452223772,126,-2,-1.4468018289422004,-1.364528665187624,-0.5645044967168293
1770452223776,126,-2,-1.2878021364459076,-0.9919143918900112,-0.4074410962334732
1770452223780,127,-1,-1.08541735349718,-0.206499150855397,-0.2068337870952109
1770452223784,127,-1,-1.1332287846366909,-0.0620581689519572,-0.2569274794579862
1770452223788,127,-1,-1.660253270463871,-0.5239574279348761,-0.7864270079105595
1770452223792,125,-3,-2.5858039657639615,-2.182261602064007,-1.7128504140822538
1770452223796,124,-4,-3.5205116584999474,-3.155524419230944,-2.6459098346097503
1770452223800,124,-4,-4.009299862859386,-3.072573651555118,-3.132410279929114
1770452223804,124,-4,-3.812259380038661,-3.149521958147458,-2.935491694125913
1770452223808,125,-3,-3.0280446698076156,-2.4560982088179046,-2.1548619925178536
1770452223812,126,-2,-2.009581093640976,-1.184450300681116,-1.141763556759658
1770452223816,127,-1,-1.1539968434505006,-0.2202607385769545,-0.2907498679783438
1770452223820,127,-1,-0.705166987679223,0.0373526822414772,0.1560078128545041
1770452223824,127,-1,-0.6811404965917485,-0.2997261660111511,0.1806963299288106
1770452223828,127,-1,-0.9405094561314165,-0.2574160534483564,-0.0765272904890086
1770452223832,127,-1,-1.303040488291373,-0.382872761512816,-0.43756636271731
1770452223836,126,-2,-1.6310676004924245,-1.0264885862996402,-0.766424535090479
1770452223840,126,-2,-1.849404800118131,-1.1461752122824669,-0.9880238977706072
1770452223844,126,-2,-1.93811494852643,-1.1281604816090298,-1.0810412789233763
1770452223848,126,-2,-1.92658110935264,-1.3891701898410211,-1.0729348271559038
1770452223852,126,-2,-1.8832370090925377,-1.266684935333927,-1.0309091007415931
1770452223856,126,-2,-1.879947674578596,-1.108060870061855,-1.0271943902914074
1770452223860,126,-2,-1.9331415879790796,-1.1159263671146824,-1.079856407632173
1770452223864,126,-2,-1.968222603109882,-1.1012959584217572,-1.115633887862753
1770452223868,126,-2,-1.8627878645665443,-1.4468549060549296,-1.011999433080423
1770452223872,126,-2,-1.558745171770518,-1.165651511570989,-0.7099661152474024
1770452223876,127,-1,-1.1479873438755654,-0.2184880628458171,-0.3012098889408536
1770452223880,127,-1,-0.838808111396393,-0.0261855991572059,0.0054601765548766
1770452223884,127,-1,-0.8185833467133661,-0.1381180217549909,0.0226769707808791
1770452223888,127,-1,-1.1260744227635024,-0.4635222413691993,-0.2872629626763127
1770452223892,126,-2,-1.62917043793252,-1.063878730925401,-0.7911166980778763
1770452223896,126,-2,-2.1054416921416803,-1.414483779089457,-1.266436983196668
1770452223900,125,-3,-2.351601227656402,-1.7299235324521125,-1.5112291589325002
1770452223904,126,-2,-2.2548059785954315,-1.5141769201727824,-1.4144638831875462
1770452223908,126,-2,-1.8122706015881915,-0.9894868165209934,-0.9744958672977128
1770452223912,127,-1,-1.1266492216156925,-0.5946186464072346,-0.2935675610739844
1770452223916,127,-1,-0.3966710938255229,0.1397862510442923,0.4313688330749538
1770452223920,128,0,0.1182122002540382,0.7279443119075042,0.9427644271570932
1770452223924,128,0,0.1928363951850853,0.9827562034574776,1.0162880681327184
1770452223928,128,0,-0.2290421063717371,0.6250942261767417,0.5952739019252712
1770452223932,127,-1,-0.952579404325568,-0.3390967621412539,-0.1265611363834242
1770452223936,126,-2,-1.593716984746923,-0.9693199101229586,-0.7665283380684781
1770452223940,126,-2,-1.7790663318403526,-1.317374811667482,-0.952599452683652
1770452223944,126,-2,-1.3628332043817664,-0.8123981367958015,-0.539788651291828
1770452223948,128,0,-0.5124348731355912,0.3321872087951985,0.305052480500993
1770452223952,128,0,0.3978234256056567,1.0248559541096918,1.2097069633417386
1770452223956,129,1,1.015245251483937,1.641755015793339,1.823843144485154
1770452223960,129,1,1.2155739848238365,2.0269232026271524,2.0241372496930445
1770452223964,129,1,1.164758515716159,1.9337133087962612,1.9755451205851928
1770452223968,129,1,1.200780738337012,1.495680542964744,2.0139310192047386
1770452223972,129,1,1.6118279005744762,1.991642333313453,2.425206122408601
1770452223976,131,3,2.4563325562746625,3.560062271300914,3.2664358427083227
1770452223980,131,3,3.532232463204169,4.191085190688751,4.336390305572291
1770452223984,132,4,4.486331717886525,4.7388169215721145,5.28474727613609
1770452223988,133,5,4.97906046219226,5.707556808932924,5.774393037811072
1770452223992,133,5,4.82917160563425,5.813047949921083,5.624065839204064
1770452223996,132,4,4.086728309251589,4.667724261371286,4.882138563466021
1770452224000,130,2,2.997471128945418,3.162128473290921,3.792930279880373
1770452224004,130,2,1.8759311216477252,2.702879698292588,2.6704520269339858
1770452224008,129,1,0.970772697954373,1.8268890487188296,1.7634890471503066
1770452224012,128,0,0.3979389962927833,0.6566341692089289,1.1884929706544596
1770452224016,128,0,0.1493115165308514,0.8434017757856602,0.9375889116661914
1770452224020,128,0,0.140322966376137,0.9911001124076692,0.925707731311336
1770452224024,128,0,0.2551670660018419,0.852994377238608,1.036729757564348
1770452224028,128,0,0.361331924577087,0.7379694517540093,1.1391951658489297
1770452224032,128,0,0.305130491963987,0.7015837905073787,1.0810253836122818
1770452224036,128,0,-0.0591654005375253,0.8307798516345054,0.716631625044581
1770452224040,127,-1,-0.7840152239338556,-0.0162599751018627,-0.0081536029707939
1770452224044,126,-2,-1.7548179166507083,-1.133829649046887,-0.9804704737430432
1770452224048,125,-3,-2.725803937958126,-2.2332459450368427,-1.9547081510376485
1770452224052,124,-4,-3.4679218708056836,-3.364958185825473,-2.7006751592281013
1770452224056,124,-4,-3.905889587871052,-3.0637679644287155,-3.1418020591470346
1770452224060,124,-4,-4.118419142840539,-3.1456240145768395,-3.3558547448507943
1770452224064,123,-5,-4.2095552160697975,-3.972971768516465,-3.446602750657042
1770452224068,124,-4,-4.182730770097795,-3.3881599072652726,-3.418877514512264
1770452224072,124,-4,-3.9354540707883863,-3.212297517662594,-3.1733356398708032
1770452224076,124,-4,-3.374922995255668,-3.231876949499127,-2.619490334294321
1770452224080,125,-3,-2.544867419982397,-1.9494682529600285,-1.7993515092979446
1770452224084,126,-2,-1.623668833087518,-1.1686918692119044,-0.8857203966270313
1770452224088,127,-1,-0.7337494197279287,-0.1730629486707513,0.0040909698125181
1770452224092,129,1,0.3296388642905112,1.5694148629692593,1.074824165271471
1770452224096,130,2,2.199786915113814,2.969912080358708,2.9542122125476995
1770452224100,133,5,5.657598302468104,5.8678491233005525,6.416128337428972
1770452224104,138,10,11.025702535768728,11.03218580942004,11.77928948916886
1770452224108,145,17,17.627354067030627,17.642710851528776,18.36786153434042
1770452224112,152,24,23.781921591674188,24.751195099808,24.506060980616667
1770452224116,156,28,27.483266750138007,28.7968981160123,28.194615476461905
1770452224120,155,27,27.395019626886572,27.99343228996516,28.10302782250697
1770452224124,151,23,23.533665934787823,23.940438828968805,24.2487366987942
1770452224128,145,17,17.222826689766176,17.677670407533668,17.949788904954495
1770452224132,138,10,10.391573837051547,10.765243146514123,11.126834655804377
1770452224136,132,4,4.670884754282461,4.792300143742213,5.405696460625247
1770452224140,128,0,0.8003226134512711,1.03083020878783,1.5265846098539717
1770452224144,127,-1,-1.3842235265066538,-0.0668827384095074,-0.6703385411956904
1770452224148,126,-2,-2.4973635676095216,-1.3417409788650434,-1.7946932910290254
1770452224152,124,-4,-3.088088300758506,-3.1907661945049752,-2.3914788691942372
1770452224156,124,-4,-3.419992053808016,-3.278233569791543,-2.7231048147796906
1770452224160,124,-4,-3.577422332267103,-2.870256920776688,-2.8766883459595234
1770452224164,124,-4,-3.6523189122655326,-3.176822113703665,-2.949000268420797
1770452224168,124,-4,-3.79362607102603,-3.2148515135825457,-3.09212186325094
1770452224172,124,-4,-4.115504751954004,-3.311182005814409,-3.4197735099224733
1770452224176,123,-5,-4.604265996227495,-4.1821144110249,-3.9153972072419543
1770452224180,122,-6,-5.133883363382853,-4.935393553744877,-4.450072013911775
1770452224184,122,-6,-5.569505038825787,-5.12569561314805,-4.887817441711594
1770452224188,122,-6,-5.845580349857346,-5.239965787015467,-5.164019994950687
1770452224192,122,-6,-5.942019664732802,-5.275664141348867,-5.260535215779983
1770452224196,122,-6,-5.805143556292375,-5.239303139494465,-5.125271394273909
1770452224200,122,-6,-5.330353955845196,-4.847318004978566,-4.654165773206287
1770452224204,123,-5,-4.46023308804663,-4.238875246113194,-3.7893540439380726
1770452224208,124,-4,-3.3182324308692115,-3.087748392006577,-2.6532392391488595
1770452224212,126,-2,-2.2313133641054494,-1.4357095187237656,-1.571463536340013
1770452224216,126,-2,-1.572980626912983,-1.0727089660459834,-0.916331670237148
1770452224220,126,-2,-1.5193398178751232,-1.0197873105568305,-0.8635761084807745
1770452224224,126,-2,-1.906540779006372,-1.0624884680352775,-1.2503699324644948
1770452224228,125,-3,-2.3184438832644165,-2.2633919951212498,-1.6625938344833606
1770452224232,125,-3,-2.3618373556561982,-2.241222032418555,-1.7088154785187275
1770452224236,126,-2,-1.9334563593989544,-1.2637647244019885,-1.2861192491285518
1770452224240,126,-2,-1.276875318834507,-0.8202812710718362,-0.6365643644803278
1770452224244,127,-1,-0.7869411989107304,-0.2584638916789444,-0.1524750199108119
1770452224248,127,-1,-0.7123810940378847,-0.0619202426590433,-0.0809168944327974
1770452224252,127,-1,-0.9760381147021666,-0.4458536742947099,-0.3451383246624172
1770452224256,126,-2,-1.238361122973881,-1.060198940811816,-0.6074508592208885
1770452224260,126,-2,-1.1499645676139385,-1.00467119226441,-0.5203271292290876
1770452224264,127,-1,-0.598894998451523,-0.0869142726585086,0.0272611905324211
1770452224268,128,0,0.2315190313812157,0.8143748291123356,0.852260727641535
1770452224272,129,1,1.01769292915781,1.636860307674828,1.6324055518676466
1770452224276,129,1,1.517564898152982,1.9071620254973225,2.1272307832676782
1770452224280,129,1,1.6850458445050671,1.968174123571173,2.2914186883197125
1770452224284,129,1,1.6225017138270732,2.002270394240278,2.2268304939625825
1770452224288,129,1,1.4564364614715608,1.6801406462135635,2.0588498475548596
1770452224292,129,1,1.2613121942580103,1.834715235758108,1.8612196854067264
1770452224296,129,1,1.082481504457269,1.6662204248440189,1.6793234446553054
1770452224300,128,0,1.003342057377083,1.244619099845833,1.5968567592634808
1770452224304,129,1,1.161227602087589,1.701478730406819,1.751176962880023
1770452224308,129,1,1.6710841512940229,2.009600301833008,2.257088542821501
1770452224312,130,2,2.5104794240197834,2.5106753460108537,3.0922437719465576
1770452224316,131,3,3.471942405805945,3.983709505103792,4.0494171359872375
1770452224320,132,4,4.249515435520746,4.959273054929069,4.8228142803769165
1770452224324,132,4,4.613893021003658,4.929458740608905,5.183335174289621
1770452224328,132,4,4.542973039408358,4.864135686331982,5.109187873013015
1770452224332,132,4,4.207400362322646,4.578997107353409,4.771057026959779
1770452224336,131,3,3.835001521106939,3.991252560423249,4.396296486221783
1770452224340,131,3,3.5709869749772056,3.904446597069016,4.129440875534428
1770452224344,131,3,3.435809108671406,4.018644665800148,3.9905729651647226
1770452224348,131,3,3.386996874706521,3.784598488279374,3.937398140899745
