timestamp_ms,ecg_u8_raw,ecg_counts_raw_int,ecg_counts_filt_monitor,ecg_counts_filt_diagnostic,ecg_counts_filt_st
1770451105772,128,0,-0.0560366484256473,6.741699648899129,6.540502611666356
1770451105776,128,0,0.0046813572172597,6.85415108685169,6.60609096249952
1770451105780,128,0,-0.0650393559614899,6.693721124548337,6.541569212218366
1770451105784,128,0,-0.1827603804719928,6.596768746286931,6.429299028377634
1770451105788,127,-1,-0.2447040024966376,6.13364601367105,6.372702849568199
1770451105792,128,0,-0.2012050877234805,6.725890626855822,6.420638079867921
1770451105796,128,0,-0.0843566997704707,6.930176887668366,6.540549416204755
1770451105800,128,0,0.027784119637759,6.5190063124871775,6.655278696756172
1770451105804,128,0,0.0705849833105198,6.805608421208873,6.701844766392234
1770451105808,128,0,0.0357995827971346,6.873322751730184,6.672560115378318
1770451105812,128,0,-0.0151554256998354,6.960656780070901,6.6277058412469705
1770451105816,128,0,0.0237042027269248,6.706932318193107,6.6717145193640635
1770451105820,128,0,0.2373756606480221,6.665943906463318,6.888856065853985
1770451105824,129,1,0.6208988746392836,7.695700970572413,7.274416818180912
1770451105828,129,1,1.0676947614707604,7.905343678072031,7.722844857461713
1770451105832,129,1,1.4354440407022675,7.951588857899006,8.093250114940105
1770451105836,130,2,1.6463855176815951,8.664358599494484,8.308677829378823
1770451105840,130,2,1.7545099252329304,8.70033525232837,8.422507392337854
1770451105844,130,2,1.9287298276441616,8.614274566312545,8.602170265126944
1770451105848,130,2,2.3459145271999136,8.994306054213833,9.02334316445541
1770451105852,131,3,3.0546175618353235,9.808549130720678,9.734206771054223
1770451105856,132,4,3.9100339612838466,10.826704545823462,10.590409492501792
1770451105860,133,5,4.637276002776761,11.47085494586072,11.318252073746896
1770451105864,133,5,4.982591576802611,11.854855133816956,11.665391856868055
1770451105868,133,5,4.849923914705942,11.693346949538832,11.536398177540054
1770451105872,132,4,4.338951088395147,11.111495656592854,11.03019969010646
1770451105876,132,4,3.671610912140295,10.481096552061832,10.36719912355299
1770451105880,131,3,3.061769095675417,9.806909382218867,9.76023280457837
1770451105884,131,3,2.6089576728080104,9.490674246977312,9.309006137405008
1770451105888,130,2,2.274038131826988,9.032325094510943,8.975178182356906
1770451105892,130,2,1.9404966882832984,8.761274468080748,8.642646687008465
1770451105896,130,2,1.5100204875428187,8.780363769830807,8.213087154679261
1770451105900,129,1,0.9582101702110788,7.526393258869601,7.662411578301107
1770451105904,128,0,0.3143980618997952,6.679458224860698,7.02049407463174
1770451105908,128,0,-0.391223785015625,6.897962102472815,6.317337297780438
1770451105912,127,-1,-1.1388733965530542,5.7903909037510255,5.571843471726268
1770451105916,126,-2,-1.8803165805455289,4.79800295961156,4.831871216570893
1770451105920,126,-2,-2.515661249815005,4.446158111747343,4.197758307405882
1770451105924,125,-3,-2.9332086945138256,3.732735640892765,3.781439163800747
1770451105928,125,-3,-3.0839636899952687,3.840289722879287,3.6313198721057263
1770451105932,125,-3,-3.025479673673326,3.793312232639439,3.689155644427762
1770451105936,125,-3,-2.8961345397292946,3.81478524012622,3.8168812983155487
1770451105940,126,-2,-2.833474381896144,4.365258540079094,3.878585396042413
1770451105944,125,-3,-2.891310593241938,3.8111264960148006,3.8224528167153937
1770451105948,125,-3,-3.01334186937287,3.703029101028135,3.7050766209250767
1770451105952,125,-3,-3.0780988437957832,3.933931619768372,3.6448434894875064
1770451105956,125,-3,-2.975065690977304,3.6457135436107393,3.747093590647131
1770451105960,126,-2,-2.6553393799776295,4.493191789175852,4.05824165799638
1770451105964,126,-2,-2.124353169037875,4.701895428621619,4.577311047606867
1770451105968,126,-2,-1.36610186505009,4.700598752946009,5.3297928415067375
1770451105972,128,0,-0.1996240830443858,7.009433040677536,6.503005205592608
1770451105976,131,3,1.871511823789415,9.465175491375762,8.589968970998482
1770451105980,134,6,5.636463860307549,12.707329284094278,12.36883502307019
1770451105984,140,12,11.784925670774731,18.45107163269959,18.51950365646104
1770451105988,147,19,20.212025829450862,25.89272539639608,26.935248967176697
1770451105992,157,29,29.485414581662717,35.844230450155244,36.18945635119734
1770451105996,166,38,37.04240547757507,44.55410511556151,43.72801057228768
1770451106000,169,41,40.24572319084861,47.64709804471002,46.92084259026024
1770451106004,167,39,37.73874212711518,45.39650841545966,44.415070119111455
1770451106008,158,30,30.211988154297053,36.93047348597997,36.90027906543301
1770451106012,147,19,20.052417625739235,25.700680465098564,26.757248306604904
1770451106016,138,10,10.122423693688434,16.7491308485693,16.838885268487402
1770451106020,131,3,2.477440868687718,9.460809434389716,9.193041759499344
1770451106024,126,-2,-2.24042930724276,4.576936950759149,4.4613488716163845
1770451106028,124,-4,-4.558755792372732,2.76481369456576,2.123295049632588
1770451106032,123,-5,-5.461908564266958,1.7271975454148594,1.2042881415633202
1770451106036,122,-6,-5.761416643972883,0.7826488616220457,0.8993068445573988
1770451106040,122,-6,-5.871443334202843,0.3277138682242331,0.7938208463619385
1770451106044,122,-6,-5.926586148770103,0.7731865368063922,0.746398545939492
1770451106048,123,-5,-5.96294781998589,1.45477287550036,0.7125765057515667
1770451106052,122,-6,-5.9812794254590935,1.0378123149699,0.6884021718178581
1770451106056,122,-6,-5.940263835722855,0.4127731398089835,0.7193522254626421
1770451106060,122,-6,-5.794079098531425,0.7019737234495302,0.8577368119074915
1770451106064,123,-5,-5.560498552797307,1.390440424276819,1.0879060316590126
1770451106068,123,-5,-5.319448858824269,1.7617368348701588,1.3268249967594437
1770451106072,123,-5,-5.130022324328508,1.7517559422522746,1.5119622116027132
1770451106076,123,-5,-4.971651065803071,1.5864991162647577,1.6640324755476588
1770451106080,123,-5,-4.7843713067434726,1.6084864755480237,1.8454111794738155
1770451106084,124,-4,-4.549492106599421,2.3566923354446105,2.075828261888282
1770451106088,124,-4,-4.302226378333189,2.8645244892594026,2.3188653639921046
1770451106092,124,-4,-4.065005884160577,2.525078906974713,2.550881334971179
1770451106096,124,-4,-3.796212720486753,2.844221968429911,2.8138065158976637
1770451106100,125,-3,-3.425183703825462,3.30064736555774,3.17908227110384
1770451106104,125,-3,-2.935463413077396,3.625118133920873,3.662989832372825
1770451106108,126,-2,-2.4066476883547985,4.617121605534681,4.185234416239707
1770451106112,126,-2,-1.9756561711080227,4.670614532556668,4.608991236469069
1770451106116,126,-2,-1.753671691775611,4.737038254421815,4.824038700393304
1770451106120,127,-1,-1.7593730993548338,5.314481426034734,4.81233460777575
1770451106124,126,-2,-1.9057206141358984,4.635212637052352,4.660559561901923
1770451106128,126,-2,-2.0451221917266302,4.539419013425877,4.515479090620468
1770451106132,126,-2,-2.0475809315341635,4.751433715609891,4.506520361006485
1770451106136,126,-2,-1.8631975916852297,4.597120086985026,4.683497505600587
1770451106140,127,-1,-1.529555603602013,5.438301313029801,5.0091862183931415
1770451106144,127,-1,-1.128245935121157,5.49719009046174,5.402574142444335
1770451106148,127,-1,-0.7306192702468943,5.611910895378791,5.792606745086709
1770451106152,128,0,-0.3682635277092667,6.699625270162273,6.147488780046676
1770451106156,128,0,-0.0370897268739804,6.552150915061111,6.471143087186283
1770451106160,128,0,0.27561073530585,6.507628751733626,6.776532833126253
1770451106164,129,1,0.5665288266830889,7.369526135607717,7.060370819890787
1770451106168,129,1,0.8225643894559964,7.72305552616701,7.308859384976917
1770451106172,129,1,1.051793416407233,7.555222844755265,7.529484888632769
1770451106176,129,1,1.294026302849782,7.655118432737934,7.76247462948923
1770451106180,130,2,1.5880607727414018,8.38363004167319,8.04764483182928
1770451106184,130,2,1.9317400790958428,8.458146985149956,8.38339209283866
1770451106188,130,2,2.2838500696283752,8.611482429885557,8.728023160982264
1770451106192,131,3,2.6112914130362945,9.635337378939532,9.04733010133983
1770451106196,131,3,2.9339296082303292,9.534346655826427,9.3606721939729
1770451106200,131,3,3.3114384635413376,9.47751897653799,9.728576002163898
1770451106204,132,4,3.7720631870702688,10.327676962799655,10.180412837026076
1770451106208,132,4,4.258661041089063,10.730019333446904,10.658705295442424
1770451106212,133,5,4.66493698771078,11.455865520998897,11.05565658409505
1770451106216,133,5,4.935244876017366,11.728073251617232,11.315254426982904
1770451106220,133,5,5.121431571724123,11.18880055240172,11.49116261678272
1770451106224,133,5,5.33695952408328,11.639789051913056,11.698678526718576
1770451106228,134,6,5.667858053571463,12.347698114402386,12.022955747837194
1770451106232,134,6,6.137767958012596,12.82590145887806,12.48470054565644
1770451106236,135,7,6.735424495428653,13.34736911311953,13.07113908176477
1770451106240,135,7,7.429930281330416,13.491701161249278,13.75303221518394
1770451106244,136,8,8.141254292920529,14.350126662884229,14.453018580778425
1770451106248,137,9,8.730087517620525,15.545850270076878,15.032575259476408
1770451106252,137,9,9.06807948443886,15.662847586469974,15.362225561600711
1770451106256,137,9,9.140386644350093,15.433352347712082,15.425989399039246
1770451106260,137,9,9.070452623017475,15.405789105177432,15.346896361183852
1770451106264,137,9,9.029159595049686,15.360342984683315,15.295501324351871
1770451106268,137,9,9.10370562028535,15.517249583995364,15.358808266537926
1770451106272,137,9,9.230679431602889,15.682410084963456,15.474152844503962
1770451106276,137,9,9.238099841396924,15.374051512193365,15.470870113132358
1770451106280,137,9,8.9650752164966,15.437873699284792,15.188346446590849
1770451106284,137,9,8.377738068757107,15.2653622007037,14.591597154916029
1770451106288,135,7,7.589308336868294,13.580292498441166,13.792981619127042
1770451106292,134,6,6.751692515956529,12.611952237166095,12.944811979964776
1770451106296,134,6,5.906817350577464,12.408920674239294,12.089527664624292
1770451106300,133,5,4.9468776261161995,11.370288980905196,11.11888477807682
1770451106304,132,4,3.732274548679517,10.27762656583517,9.892843427440544
1770451106308,130,2,2.2502418416005785,8.55031786745483,8.399426435968861
1770451106312,128,0,0.6578194060029903,6.598695873161705,6.796949178207285
1770451106316,127,-1,-0.8222641996276185,5.4157456626843175,5.308072290912262
1770451106320,126,-2,-2.044197634809513,4.2975447647574105,4.076947438535441
1770451106324,125,-3,-2.9990203815945886,3.340025583041121,3.1111385030345193
1770451106328,124,-4,-3.76978087664148,2.4319656289294613,2.3280337813617393
1770451106332,123,-5,-4.447237295478706,1.7209815031808224,1.638499071861392
1770451106336,123,-5,-5.074498230134359,1.22076839636743,1.00042474764387
1770451106340,122,-6,-5.641819262934971,0.4907579139879701,0.423206550077591
1770451106344,122,-6,-6.114989128454259,0.0696314379331095,-0.0598190168516943
1770451106348,121,-7,-6.468882403928313,-0.2935727537534296,-0.4239411555649433
1770451106352,121,-7,-6.70275349053748,-0.5961833166608539,-0.6682829658566112
1770451106356,121,-7,-6.831049164916829,-0.5096419497080289,-0.8071335011296972
1770451106360,121,-7,-6.86541094944555,-0.7762210986220301,-0.8522563066699593
1770451106364,121,-7,-6.811362751430256,-0.7774944779480588,-0.8093625601428345
1770451106368,121,-7,-6.686159508664408,-0.3767067254147136,-0.6955414993400417
1770451106372,121,-7,-6.538224802316612,-0.6471338914226328,-0.5586458488066066
1770451106376,121,-7,-6.439751160066068,-0.4031443576553037,-0.4704533377964353
1770451106380,122,-6,-6.44336261968019,0.0139598567268333,-0.483865353505962
1770451106384,121,-7,-6.531782722526053,-0.5820153356840478,-0.5822689650325792
1770451106388,121,-7,-6.6122684370857145,-0.5942019694215768,-0.6732027083161176
1770451106392,121,-7,-6.577242196026863,-0.4889600694642046,-0.6488158747813619
1770451106396,121,-7,-6.386940768123555,-0.5585295611026959,-0.4690591590420148
1770451106400,122,-6,-6.100143508464053,0.0904073091331447,-0.1928416612690053
1770451106404,122,-6,-5.822701118330879,0.3405148016492472,0.0737252426392807
1770451106408,122,-6,-5.620082795398925,0.4242161498463526,0.2654117199045629
1770451106412,122,-6,-5.473729522229541,0.475362082911765,0.4014804492535209
1770451106416,122,-6,-5.315033690436999,0.4361258733047144,0.5507683534515948
1770451106420,123,-5,-5.092900309837553,1.039640329925415,0.7635772501934213
1770451106424,123,-5,-4.807764233392302,1.3895187145305368,1.038574625157601
1770451106428,123,-5,-4.495825841863185,1.3049604807360833,1.3397719623372328
1770451106432,123,-5,-4.198504345947225,1.6050390388290552,1.6266754756237285
1770451106436,124,-4,-3.9451190195497743,2.221225554827358,1.8701720709201073
1770451106440,124,-4,-3.7470172422146897,2.2476163159137537,2.0582262265659903
1770451106444,124,-4,-3.599564462457647,2.123022615793676,2.1951910856918957
1770451106448,124,-4,-3.4950665512565484,2.5609827949750965,2.289522584616151
1770451106452,124,-4,-3.43437474170692,2.3072459091761175,2.34111703139388
1770451106456,124,-4,-3.4146448660984845,2.459892015935075,2.3523462767276264
1770451106460,125,-3,-3.398387371021026,3.0089453183954227,2.3594880924324313
1770451106464,124,-4,-3.3082842863926825,2.2690521988706855,2.439509172328245
1770451106468,124,-4,-3.081184953493633,2.4599774140287822,2.656418717031624
1770451106472,125,-3,-2.742190193126207,3.2915617318395665,2.9857594311452473
1770451106476,125,-3,-2.412907232507704,3.504638798814984,3.305519310074901
1770451106480,126,-2,-2.2274850054988726,3.863799109644516,3.4811669603862843
1770451106484,125,-3,-2.2332895108087425,3.4378614512810515,3.4659592130271992
1770451106488,125,-3,-2.3681348481219064,3.209541273605055,3.322788567566568
1770451106492,125,-3,-2.520270937797803,3.5280117917056746,3.162856251621478
1770451106496,125,-3,-2.604430394227834,3.220252484043897,3.070162689428928
1770451106500,125,-3,-2.5993692675245614,3.0997101314998057,3.0656535840898744
1770451106504,125,-3,-2.5414927523981117,3.213328206621936,3.1138895004309255
1770451106508,125,-3,-2.4903098503051693,3.336192012438249,3.156202857595366
1770451106512,125,-3,-2.483633706612074,3.4187920979428545,3.154573638953095
1770451106516,125,-3,-2.510685727949179,3.233806526354683,3.1191659632329527
1770451106520,125,-3,-2.5286857380153305,3.0967540517249867,3.092674135877335
1770451106524,125,-3,-2.510850265686386,3.156428363839275,3.1022257561785356
1770451106528,125,-3,-2.476351561974035,3.36461646834893,3.1287458023632855
1770451106532,125,-3,-2.467992872451147,3.350386024405978,3.12916330190245
1770451106536,125,-3,-2.5011304483655845,3.246810388979334,3.0879413668023847
1770451106540,125,-3,-2.5402308195596333,3.0809184625764567,3.040717361130712
1770451106544,125,-3,-2.5288227009240964,3.091341178965769,3.0441300785605767
1770451106548,125,-3,-2.4427518662839423,3.4430737192997904,3.1224584279976426
1770451106552,125,-3,-2.3166331043088775,3.1792045863425136,3.2411835795179176
1770451106556,125,-3,-2.219984354703247,3.4190381738150393,3.3306033949622256
1770451106560,126,-2,-2.200894550075065,3.858925074376943,3.34210555176106
1770451106564,125,-3,-2.2443095412126395,3.260116736268192,3.2906134485834704
1770451106568,125,-3,-2.287628084892047,3.2730609020789965,3.2395564017522975
1770451106572,125,-3,-2.2843815351566894,3.254636995919734,3.2363126749771185
1770451106576,125,-3,-2.249299467214576,3.358748950741349,3.265749116122837
1770451106580,126,-2,-2.2318775425397197,3.8427508628209495,3.2768618011575192
1770451106584,125,-3,-2.2498495607265685,3.268993078694896,3.2511278958995593
1770451106588,125,-3,-2.2664977501572454,3.2077674811264245,3.2262394474634277
1770451106592,125,-3,-2.2425976215591725,3.2732485890866343,3.242980297147625
1770451106596,125,-3,-2.1969316081946673,3.312362190584791,3.2828927721728647
1770451106600,126,-2,-2.193403830493283,3.838636340293068,3.281042768267696
1770451106604,125,-3,-2.2615510093627327,3.269180817960894,3.2069857753634343
1770451106608,125,-3,-2.3412816206327394,3.1284766480460995,3.1209682015030147
1770451106612,125,-3,-2.320035921649067,3.3324864990863095,3.136128472717484
1770451106616,125,-3,-2.1310718919251617,3.1927982819422063,3.3192143674719308
1770451106620,126,-2,-1.8191600341695415,3.93200825855625,3.6249517260368505
1770451106624,126,-2,-1.5139677805803284,4.172208088253164,3.9235448105575377
1770451106628,126,-2,-1.337012177944123,4.130289931918454,4.094142182450335
1770451106632,126,-2,-1.3209559214560778,4.334801111630618,4.104889875218246
1770451106636,126,-2,-1.4002248525746115,4.090785775823474,4.021380956108512
1770451106640,126,-2,-1.470262476425927,4.043027121122614,3.947276934320312
1770451106644,126,-2,-1.4650707681537003,4.028480854212276,3.947529661134481
1770451106648,126,-2,-1.3976543029085753,4.201173608632204,4.008828733508144
1770451106652,126,-2,-1.340739502441274,4.269297399325082,4.059190215186177
1770451106656,126,-2,-1.3688515612898704,4.027259724279726,4.025336724153421
1770451106660,126,-2,-1.504722096373385,4.176591256952321,3.885252841265231
1770451106664,126,-2,-1.7022853363543184,3.7636331803557024,3.6845266956456193
1770451106668,125,-3,-1.871977733144227,3.513236275212007,3.511407599061954
1770451106672,126,-2,-1.931192361174684,3.829313044972873,3.4475185765332377
1770451106676,125,-3,-1.8521329296502853,3.4738677621490055,3.5209542177088515
1770451106680,126,-2,-1.6805561462298613,3.679649374306436,3.687213699518165
1770451106684,126,-2,-1.5089985656155385,4.222574300149825,3.854605068801291
1770451106688,126,-2,-1.4127352565165008,4.049920367735323,3.9474793963258774
1770451106692,126,-2,-1.3926607890228786,4.159350437209456,3.964055641132031
1770451106696,126,-2,-1.3792032701373589,4.208934078297377,3.9736848555177087
1770451106700,126,-2,-1.3042725290285029,3.7846994408232737,4.044907963087752
1770451106704,126,-2,-1.1773194611867313,4.21759167143946,4.168303332067864
1770451106708,127,-1,-1.0853308690021717,4.899445247796185,4.25620898146823
1770451106712,126,-2,-1.1110192308412472,4.338384079689465,4.225828951914883
1770451106716,126,-2,-1.2538253691324222,3.935153942325361,4.078973155889463
1770451106720,126,-2,-1.4308867423662903,4.044993877925461,3.899597621006974
1770451106724,126,-2,-1.5405229725548482,3.921688267968472,3.788606808592222
1770451106728,126,-2,-1.5171408442382337,4.141783983523024,3.809705471337306
1770451106732,126,-2,-1.346922250313414,4.0746321917469706,3.9759648610366
1770451106736,126,-2,-1.0652827675296557,4.118644006753995,4.253047990787767
1770451106740,127,-1,-0.7497486153783885,4.858025746783257,4.564835238290045
1770451106744,127,-1,-0.4940823237378791,5.041249181363793,4.817875898643223
1770451106748,127,-1,-0.361828638307798,5.006771932108809,4.948020737687967
1770451106752,127,-1,-0.3514433253455045,5.14706608317035,4.956232067856652
1770451106756,127,-1,-0.4046421289495059,5.005599836145759,4.900684845658396
1770451106760,127,-1,-0.4521572675267726,4.920275501237094,4.850831665746517
1770451106764,127,-1,-0.4597599946683457,4.960018477453347,4.8409934326392845
1770451106768,127,-1,-0.4396236373421389,5.033391052178892,4.858794850173975
1770451106772,127,-1,-0.4231846730067685,5.091868147747066,4.8725435458992035
1770451106776,127,-1,-0.4256095872639915,4.993797280346333,4.867224239845124
1770451106780,127,-1,-0.4366732253976511,4.900540319404258,4.853661557322382
1770451106784,127,-1,-0.4414526416926452,4.939317587871651,4.847235972851377
1770451106788,127,-1,-0.440932078626159,5.018912458851048,4.846712422154186
1770451106792,127,-1,-0.446593557876761,5.0591301737173495,4.839828102622105
1770451106796,127,-1,-0.4588573037150736,4.977965705184965,4.825593170641785
1770451106800,127,-1,-0.4612629621522388,4.870045692573902,4.820580643040869
1770451106804,127,-1,-0.4421484361615904,4.934938120131577,4.837045979399539
1770451106808,127,-1,-0.4182812163593875,4.987949495841411,4.858811765802908
1770451106812,127,-1,-0.427007749070133,5.035480575227343,4.848818899339145
1770451106816,127,-1,-0.4858667428567913,4.969746423469503,4.789398964076451
1770451106820,127,-1,-0.5560686483688428,4.80919106533841,4.718785117542427
1770451106824,127,-1,-0.5504730691282234,4.98210402584394,4.723417689720064
1770451106828,127,-1,-0.393149320710233,4.885654782880193,4.878909664811861
1770451106832,127,-1,-0.0912436566331562,5.09602452219077,5.178393105892795
1770451106836,128,0,0.2434748434685867,5.875733332819938,5.510657049486312
1770451106840,128,0,0.4569888867675469,5.828931014943422,5.722207653547834
1770451106844,128,0,0.4622456352498807,5.958548536398126,5.726463057315438
1770451106848,128,0,0.3089282127842521,5.83498337523585,5.573347027280271
1770451106852,127,-1,0.1546407913021279,5.125678164073039,5.419924763732993
1770451106856,128,0,0.1603745948935294,5.7740782953535374,5.425746531914545
1770451106860,128,0,0.3913028775261511,5.91331218300071,5.654727048772673
1770451106864,128,0,0.7886431054265979,5.812843932812985,6.048470482682859
1770451106868,129,1,1.2193623557757167,6.9649252502653685,6.476026341498394
1770451106872,129,1,1.5655372827044616,6.9340756629285805,6.821484288824253
1770451106876,129,1,1.8016106630316209,6.898310938503394,7.059221890028156
1770451106880,130,2,2.0166143245425663,7.788468372590054,7.275957111814408
1770451106884,130,2,2.3619420205412784,7.838516576473424,7.620798349892482
1770451106888,130,2,2.9391231947591416,7.972254631048283,8.19544275520636
1770451106892,131,3,3.6905102635810696,8.809207115651795,8.944352405869061
1770451106896,132,4,4.390542990839411,10.028312119186712,9.643258264387375
1770451106900,133,5,4.780630760245102,10.57038069874006,10.032892557326608
1770451106904,132,4,4.751930684090596,10.055072743813565,10.003461250662202
1770451106908,132,4,4.4086385586265555,9.688651298283949,9.65952645226234
1770451106912,131,3,3.950250595686813,9.047416154104464,9.20144393422531
1770451106916,131,3,3.49125344937149,8.735931882888597,8.743294176390279
1770451106920,131,3,2.9919416574876534,8.819176105176188,8.243753745456232
1770451106924,130,2,2.3488910383395663,7.80346603292094,7.59858286736092
1770451106928,129,1,1.5309744573879902,6.853487227511354,6.777952267517625
1770451106932,128,0,0.620443956726904,5.871555071004331,5.8662019280125755
1770451106936,127,-1,-0.2597382004041428,4.798502051754295,4.9867600279148565
1770451106940,127,-1,-1.0331729632433166,4.766092560926621,4.214483126224982
1770451106944,126,-2,-1.6852900952265677,3.8269314546309072,3.56243935965964
1770451106948,125,-3,-2.220893611113258,2.7505715459831652,3.025916774804666
1770451106952,125,-3,-2.6319378360368013,2.9844919228575115,2.6137680650240753
1770451106956,125,-3,-2.905428088598595,2.515495140314166,2.339039702672099
1770451106960,124,-4,-3.049025593130195,2.135710109841513,2.1936543185487434
1770451106964,125,-3,-3.10294756821872,2.3312208505900944,2.137844839844867
1770451106968,124,-4,-3.122556505543661,2.2840249227193823,2.117818887033306
1770451106972,125,-3,-3.1377271570115512,2.327604136514182,2.1049381402496605
1770451106976,124,-4,-3.1191179805900893,2.129092739941955,2.127477179763249
1770451106980,125,-3,-2.9862174667180126,2.5062751977919193,2.2622294119477857
1770451106984,125,-3,-2.6643459376156216,2.8929250934085697,2.580146083662272
1770451106988,125,-3,-2.1535189013312523,2.754332383251631,3.0814069999885394
1770451106992,126,-2,-1.5338651941165624,3.688946807533219,3.6912916805679377
1770451106996,127,-1,-0.8388910999199776,4.815382802674192,4.38363796344525
1770451107000,128,0,0.1736841880365173,5.680446713432466,5.40437853246101
1770451107004,130,2,2.1726936175678246,7.792179625552192,7.418621560530582
1770451107008,134,6,6.092147725769486,11.748618039094309,11.350861428661524
1770451107012,140,12,12.583077160972335,17.656052630988558,17.84328778196418
1770451107016,148,20,21.31591874303348,25.794457263760783,26.56451178552235
1770451107020,158,30,30.619178763297747,35.655478624798306,35.84907255556505
1770451107024,166,38,37.87292938938044,43.82358125441903,43.08630735140635
1770451107028,169,41,40.61997108379655,46.62749359073316,45.82611344637333
1770451107032,166,38,37.79648680265158,43.69058044174613,43.00702006630236
1770451107036,158,30,30.295591360276028,35.66514170780525,35.51977522803258
1770451107040,147,19,20.48321151296131,24.73525676553067,25.724138651602527
1770451107044,138,10,11.000056322318738,15.75714199933889,16.25248381362629
1770451107048,132,4,3.636750026993475,9.68607543239714,8.888703035763108
1770451107052,127,-1,-1.093592426245535,4.587912101999169,4.145751378334187
1770451107056,124,-4,-3.64712625919967,1.7127626525184327,1.5751445968567577
1770451107060,123,-5,-4.834074323375661,0.6341321655645018,0.3768258778315001
1770451107064,122,-6,-5.345943884640323,-0.1923900660378459,-0.1356168781589071
1770451107068,122,-6,-5.592301466278229,-0.3733641543463744,-0.3746353805855928
1770451107072,122,-6,-5.753426914871758,-0.4465174395555547,-0.5278775952469861
1770451107076,122,-6,-5.883020502779334,-0.2816307509676443,-0.6548204920271345
1770451107080,122,-6,-5.9745244876774874,-0.466064652367911,-0.7493758544988403
1770451107084,121,-7,-6.001729810415485,-1.0877233042955865,-0.7816118290100738
1770451107088,122,-6,-5.957807021710355,-0.5470546628759845,-0.7410653445223288
1770451107092,122,-6,-5.872820879165016,-0.2894866634669224,-0.6572218527868054
1770451107096,122,-6,-5.786550614746854,-0.5380993023479022,-0.5714198704023259
1770451107100,122,-6,-5.705416198016599,-0.2304637443766939,-0.4911104979696397
1770451107104,122,-6,-5.595576828688695,-0.3792555735340741,-0.3821041839929915
1770451107108,122,-6,-5.4194608061854455,-0.2877939614623592,-0.2065179946552424
1770451107112,123,-5,-5.171362808497929,0.4104184333502454,0.0405470619444292
1770451107116,123,-5,-4.876541361962654,0.679103235123117,0.3329765370034865
1770451107120,123,-5,-4.5702382301505695,0.5286401121513498,0.6362220752455894
1770451107124,123,-5,-4.290050492252001,0.7962194192881968,0.914363991474584
1770451107128,124,-4,-4.073936586325749,1.5202801944417246,1.129961223730878
1770451107132,124,-4,-3.933717065462546,1.5322448225813137,1.2699882581747817
1770451107136,124,-4,-3.8202168824205143,1.5083349343881451,1.38243555016693
1770451107140,124,-4,-3.6373331643801503,1.6532722412304892,1.5635534340350103
1770451107144,124,-4,-3.317134483525323,1.6103746953088631,1.8818881027713488
1770451107148,125,-3,-2.8867198192570567,2.6947721398628213,2.3101809781492246
1770451107152,126,-2,-2.4541869932675784,3.2770500047219766,2.739957834514973
1770451107156,125,-3,-2.127046362845756,2.740215445442299,3.064347973072822
1770451107160,126,-2,-1.940416932636092,3.339421137661077,3.2493817672848806
1770451107164,126,-2,-1.8435697898335683,3.8950654214002514,3.3458645807710212
1770451107168,126,-2,-1.7357235369967496,3.361325303079785,3.4533990883476147
1770451107172,126,-2,-1.5246640431042502,3.555978600243061,3.662995185150032
1770451107176,127,-1,-1.1809835043820964,4.4437703950566165,4.003763884697546
1770451107180,127,-1,-0.7564855894466491,4.521812622556307,4.4246474077846365
1770451107184,127,-1,-0.3536332013121886,4.73201241446486,4.824453559877297
1770451107188,128,0,-0.0648439015546867,5.424529547403718,5.1114697415955765
1770451107192,128,0,0.0853497414396371,5.483970455849188,5.260647485952045
1770451107196,128,0,0.1614361254659592,5.447881140188187,5.335426602150397
1770451107200,128,0,0.2793794343414321,5.450837868602174,5.451321415960082
1770451107204,128,0,0.5287983161645455,5.780876680670135,5.698298317190195
1770451107208,129,1,0.914538459735566,6.30675156610023,6.081683307698506
1770451107212,129,1,1.3664027059299424,6.579581355375533,6.531309565605901
1770451107216,130,2,1.8056362572507176,7.291573604006115,6.96805253826886
1770451107220,130,2,2.2065176776074193,7.535429530135827,7.366003488852094
1770451107224,130,2,2.5980121158909286,7.677279686726713,7.754583926183411
1770451107228,131,3,3.0089536884413763,8.320732688673267,8.163339389183662
1770451107232,131,3,3.4185818834249915,8.580296837568723,8.571479709076996
1770451107236,132,4,3.771787443636453,9.176366730132097,8.922841162477953
1770451107240,132,4,4.048336338489362,9.651054720066345,9.196314128264545
1770451107244,132,4,4.307195671250711,9.464478933552224,9.45154849664783
1770451107248,132,4,4.644368064446711,9.516123588094292,9.786159797990605
1770451107252,133,5,5.10176856549533,10.331167707466884,10.242330163264864
1770451107256,134,6,5.629971656243036,11.36812658711041,10.768862574819485
1770451107260,134,6,6.14520549987521,11.421796662825924,11.28044325409125
1770451107264,134,6,6.606047617693286,11.627187152947284,11.736514757871545
1770451107268,135,7,7.0222916800647,12.311886231228971,12.149160453051174
1770451107272,135,7,7.406526811695901,12.485445325784031,12.531902512135602
1770451107276,136,8,7.747056378461401,13.150623040500324,12.87161864891309
1770451107280,136,8,8.03617700666196,13.622439129859435,13.158636909606248
1770451107284,136,8,8.302281982616279,13.334886975705016,13.421043324492029
1770451107288,136,8,8.583588156162595,13.58965506268676,13.6983306214651
1770451107292,137,9,8.86082377726183,14.124317326458767,13.97219878606572
1770451107296,137,9,9.030620885104716,14.477794973067066,14.139030285888332
1770451107300,137,9,8.961455426846735,14.258656763357935,14.066803746155152
1770451107304,136,8,8.581973378701397,13.624531336414304,13.68430568505744
1770451107308,136,8,7.922802391472482,13.269536992769307,13.02246326850472
1770451107312,135,7,7.085283498506479,12.3570178914516,12.182452346158046
1770451107316,134,6,6.169628929217412,11.226119665904124,11.264134296953648
1770451107320,133,5,5.214956684483099,10.454469554549272,10.306463357992232
1770451107324,132,4,4.191981937161474,9.3875396667252,9.279982999229304
1770451107328,131,3,3.053121402818228,8.43758649520338,8.136945512227882
1770451107332,130,2,1.796442208964049,7.143502744322637,6.875891964433714
1770451107336,128,0,0.4840173443090392,5.3769536571394845,5.56005989342821
1770451107340,127,-1,-0.7973236876056293,4.286096030023879,4.276838281410102
1770451107344,126,-2,-1.981610809139376,3.470729014199046,3.0911055623191572
1770451107348,125,-3,-3.0282365272883336,2.3399095880293697,2.0417508198514476
1770451107352,124,-4,-3.904585886960004,1.1330790681932417,1.1609845336250588
1770451107356,123,-5,-4.595803600088332,0.4069689018828892,0.4648200122848944
1770451107360,123,-5,-5.1385124963728614,0.1326077486617825,-0.0821442241910572
1770451107364,122,-6,-5.623780568303042,-0.3472578393396368,-0.5707233458340966
1770451107368,122,-6,-6.142541733310504,-0.9734612462328922,-1.092264465707668
1770451107372,121,-7,-6.713814176403622,-1.543302858174945,-1.6663103717788346
1770451107376,121,-7,-7.258419640861214,-2.015721671726334,-2.2140969838808715
1770451107380,120,-8,-7.64405617700829,-2.46730152887009,-2.6033498978777097
1770451107384,120,-8,-7.773313178196984,-2.8023132081813387,-2.7361982687926147
1770451107388,120,-8,-7.650704319954404,-2.5820409255801,-2.61683729367736
1770451107392,121,-7,-7.373377786382561,-1.96503740265946,-2.3428490222527376
1770451107396,121,-7,-7.0530284764944575,-1.6747544281162634,-2.026555538072353
1770451107400,121,-7,-6.745288134661464,-1.826526692337933,-1.7234098264130324
1770451107404,121,-7,-6.453703687909251,-1.5296186028701708,-1.4361598706636185
1770451107408,122,-6,-6.187053788723104,-0.8767074217872777,-1.1731763803149082
1770451107412,122,-6,-5.989751807191375,-0.7616193042477368,-0.9790580553363704
1770451107416,122,-6,-5.906678817195583,-0.8797138432605358,-0.8989209007084389
1770451107420,122,-6,-5.923098348224536,-0.7236195504006346,-0.918250128648487
1770451107424,122,-6,-5.94572522722166,-0.6319528654586879,-0.944211100345627
1770451107428,122,-6,-5.8546147980334995,-0.8923912975962764,-0.8572208819206191
1770451107432,122,-6,-5.596292908944157,-0.738540596140294,-0.6036539250801587
1770451107436,123,-5,-5.242502414316325,0.0067775456768703,-0.2547748471242421
1770451107440,123,-5,-4.95063654041315,0.3658567080730934,0.0325065202344072
1770451107444,123,-5,-4.844237345624394,0.2206218598373199,0.1350845204688244
1770451107448,123,-5,-4.91059189991358,0.1708639611667486,0.0658152625186669
1770451107452,123,-5,-5.0014220143640795,0.188598089513083,-0.0275482092868051
1770451107456,123,-5,-4.936098209291144,-0.0248229249169771,0.0346880331730439
1770451107460,123,-5,-4.6288549666482,0.4075706311390412,0.3377352874896662
1770451107464,124,-4,-4.147687187324744,1.0862753601416149,0.8137955847633362
1770451107468,124,-4,-3.663825500569905,1.2627837198640035,1.292242863524419
1770451107472,125,-3,-3.331256556247655,2.0491451682510204,1.6197293537452406
1770451107476,125,-3,-3.189360856456519,2.0351884507832647,1.7575196458384497
1770451107480,124,-4,-3.16239714933128,1.3384899941648245,1.781693022869561
1770451107484,125,-3,-3.1438717628608828,2.053104728118826,1.7980078283989889
1770451107488,125,-3,-3.079711779637729,2.289628893464954,1.858883204474692
1770451107492,125,-3,-2.98336041832974,1.9206340406687783,1.9499564713886883
1770451107496,125,-3,-2.898513474585384,2.15745344580732,2.028493079050389
1770451107500,125,-3,-2.862504068168368,2.1424141265398644,2.0589910915866536
1770451107504,125,-3,-2.8897157667370137,2.182142967540445,2.0279299348594915
1770451107508,125,-3,-2.962793680835892,2.141817319511878,1.9520162624875737
1770451107512,125,-3,-3.028745321524397,1.9590472829465304,1.883000782475155
1770451107516,125,-3,-3.0140916947306744,2.138535895962068,1.893633566152623
1770451107520,125,-3,-2.8648881625303018,2.046277525534057,2.0379429854853477
1770451107524,125,-3,-2.589850897881215,2.263266896196072,2.307619175171096
1770451107528,126,-2,-2.2685787888625315,2.9835937061079125,2.623364578403767
1770451107532,126,-2,-2.008441866500299,3.07011663628192,2.8782214876115013
1770451107536,126,-2,-1.8799857296623632,2.98832262976571,3.0023214174315527
1770451107540,126,-2,-1.880066480317036,3.1245464762200026,2.999023707503307
1770451107544,126,-2,-1.9430595697811888,3.137878628017845,2.932989433373053
1770451107548,126,-2,-1.9848839459562069,3.0428201360619287,2.886876658633951
1770451107552,126,-2,-1.9563370679223568,2.9710330771402464,2.909575623325397
1770451107556,126,-2,-1.882706139389388,3.0378785157630617,2.9769698319609175
1770451107560,126,-2,-1.860005472033225,3.015455951733066,2.9943096850109647
1770451107564,126,-2,-1.990863835641324,3.18670996345425,2.8589802929558283
1770451107568,126,-2,-2.293393525691015,2.940879281003225,2.552036668123222
1770451107572,125,-3,-2.6607585867652137,2.0178714916984264,2.1800017124919835
1770451107576,125,-3,-2.9204255054693062,1.951398602992775,1.9158732297490344
1770451107580,125,-3,-2.948957655534175,2.032241593832918,1.883238984139414
1770451107584,125,-3,-2.741073506410979,2.1187256971743125,2.0866045934094455
1770451107588,126,-2,-2.380658612049161,2.956687320504656,2.4413054393113462
1770451107592,126,-2,-1.961710064945787,2.954674326651441,2.853765178173586
1770451107596,126,-2,-1.5455301786536082,2.9596030322187294,3.2639599210747683
1770451107600,127,-1,-1.1798003378900823,3.9561782209182015,3.624781219156704
1770451107604,127,-1,-0.927567135479178,4.1465316369182466,3.8724483393456097
1770451107608,127,-1,-0.8547569462499043,3.858982684273206,3.9400809019758967
1770451107612,127,-1,-0.9859413509619296,4.038849739211248,3.803049128293881
1770451107616,127,-1,-1.2739352335981564,3.781824751199589,3.5092988659567057
1770451107620,126,-2,-1.6129732607943552,3.09474363502763,3.165356720196785
1770451107624,126,-2,-1.8891824992950017,2.939425132754737,2.8850241729624955
1770451107628,126,-2,-2.033463757143358,3.0160802565520566,2.736258820837058
1770451107632,126,-2,-2.04249753398278,2.8561970787663213,2.72104958647569
1770451107636,126,-2,-1.9654356477486497,2.877266561331979,2.7901338727349803
1770451107640,126,-2,-1.8779786809445684,2.968820079007642,2.8693544257972654
1770451107644,126,-2,-1.8546734817948276,2.966495054062486,2.886209050684771
1770451107648,126,-2,-1.932545039002381,2.976865344177421,2.8044310637418697
1770451107652,126,-2,-2.070250859539251,2.824941594252298,2.663974100139562
1770451107656,126,-2,-2.1366248085728397,2.8633624879202593,2.5934820839831003
1770451107660,126,-2,-1.9686214481053148,2.916861087590515,2.75457168125344
1770451107664,126,-2,-1.492369992682478,2.948514570336122,3.222070172975001
1770451107668,127,-1,-0.8253081541922096,3.960338788884824,3.880777661225678
1770451107672,128,0,-0.2514957735960457,4.79441797471717,4.447876008310903
1770451107676,128,0,-0.0480523196013584,4.827580033395753,4.645617197994849
1770451107680,128,0,-0.2831682612059791,4.9034983471203635,4.404623228159261
1770451107684,127,-1,-0.7598637316142962,3.8702893746005977,3.92175665484392
1770451107688,126,-2,-1.1662079072539455,3.008754929419859,3.509704094175869
1770451107692,127,-1,-1.304710158467649,3.6913875639098177,3.365990952311922
1770451107696,127,-1,-1.2005786916806307,3.889722530737473,3.464219449994017
1770451107700,127,-1,-1.015210863948743,3.775397689825068,3.641949758317775
1770451107704,127,-1,-0.8808615890684375,3.938732845305914,3.76725250808819
1770451107708,127,-1,-0.8217091995526593,3.8709331382693937,3.817277829811827
1770451107712,127,-1,-0.808283080845537,3.789357109332744,3.822748880648049
1770451107716,127,-1,-0.8523862578749151,3.7347157414539183,3.7723230809274817
1770451107720,127,-1,-1.0206306976869297,3.8863024079728983,3.598848420172377
1770451107724,127,-1,-1.3404006804285922,3.745074093622467,3.2737567752039904
1770451107728,126,-2,-1.6997565914426758,3.02728703952779,2.907942462628905
1770451107732,126,-2,-1.8716857263287512,2.5547232520433303,2.728011997504513
1770451107736,126,-2,-1.6773141762871355,2.9446295967251332,2.9130514384015074
1770451107740,127,-1,-1.1536843363948728,3.6067001163238,3.426818158910727
1770451107744,127,-1,-0.5667068955967354,3.967655316039103,4.004663163232624
1770451107748,128,0,-0.2358081209409368,4.757457436465149,4.3281014728410465
1770451107752,128,0,-0.2981807280544819,4.746321783198358,4.259661001134846
1770451107756,127,-1,-0.603526255323569,3.7208765906304446,3.948258494300797
1770451107760,127,-1,-0.8371670907856612,3.744317804624785,3.707194194140467
1770451107764,127,-1,-0.7817559184918972,3.80274422086807,3.753465561390163
1770451107768,127,-1,-0.5021515502513674,3.8355303487793577,4.022936102623988
1770451107772,128,0,-0.2920692239264906,4.657443345379627,4.222860640406481
1770451107776,128,0,-0.4179890936407402,4.715754580734433,4.0874296139614685
1770451107780,127,-1,-0.8758232274118216,3.7194913494537705,3.6213224916917177
1770451107784,126,-2,-1.375944768744069,2.729735293478697,3.114477679098985
1770451107788,126,-2,-1.5700279544365603,2.880968631558007,2.9142408037480454
1770451107792,127,-1,-1.3145533021423883,3.5377510098016938,3.1619319527921013
1770451107796,127,-1,-0.7515499770433014,3.820021677122452,3.714126497901895
1770451107800,128,0,-0.1725579784590689,4.531252054712554,4.280351266584327
1770451107804,128,0,0.1906712603449589,4.867792054448628,4.631531525125586
1770451107808,128,0,0.2854448772809383,4.658930105020373,4.716918937178136
1770451107812,128,0,0.2113141492805863,4.713624288855801,4.635825231960561
1770451107816,128,0,0.108922364949882,4.612543831682213,4.526888098999927
1770451107820,128,0,0.066638653264057,4.655536603458743,4.4763144482370425
1770451107824,128,0,0.0989467563577248,4.720919114889842,4.4977930367398535
1770451107828,128,0,0.1749052806372631,4.682470828791906,4.561377288633246
1770451107832,128,0,0.2450435089958291,4.698946448087666,4.619435427695972
1770451107836,128,0,0.2476722372620194,4.526967566540332,4.611370779168808
1770451107840,128,0,0.1209670041880757,4.726935544705819,4.474923552227578
1770451107844,128,0,-0.1555181356179495,4.560275001989412,4.188576725478725
1770451107848,127,-1,-0.5159558253307156,3.773886860770952,3.817926039461131
1770451107852,127,-1,-0.8135573121551751,3.5821038242087706,3.5104499577249566
1770451107856,127,-1,-0.8893523317254894,3.5480886175761093,3.42532814269686
1770451107860,127,-1,-0.6566231248593098,3.718828661725708,3.648171492201056
1770451107864,128,0,-0.1443342014752116,4.424458350195987,4.148631809251194
1770451107868,128,0,0.5145699653737748,4.9344741684922875,4.793797323423332
1770451107872,129,1,1.1298738862443711,5.27591718593948,5.395096005335017
1770451107876,129,1,1.5210747867734482,5.8828579384206385,5.773715669211119
1770451107880,130,2,1.600899484249211,6.267296684583546,5.84281201676674
1770451107884,129,1,1.4461174256767837,5.842831218438818,5.678628670704321
1770451107888,129,1,1.2944260361549005,5.451429248377517,5.518095341833313
1770451107892,129,1,1.4373364232513526,5.677934884717953,5.651517792848517
1770451107896,130,2,2.0625105469349805,6.473037567117489,6.26491800800944
1770451107900,131,3,3.141406120513918,7.576424093405317,7.329124710626158
1770451107904,132,4,4.419870704019905,8.526518383986664,8.5916002660445
1770451107908,133,5,5.510897154639127,9.65172263948164,9.667899762971214
1770451107912,134,6,6.057721143834231,10.460603303389714,10.20221261726577
1770451107916,134,6,5.904475138829925,10.586590203922892,10.037699581852014
1770451107920,133,5,5.173002534449094,9.45888911446838,9.295339348880576
1770451107924,131,3,4.174182985094514,7.535645262484898,8.285976996778219
1770451107928,131,3,3.212988778424919,7.613788989721067,7.313798138811836
1770451107932,131,3,2.4455825925516192,7.419837666965342,6.53318246383783
1770451107936,129,1,1.8759081267026567,5.5820411366827285,5.947721235429842
1770451107940,129,1,1.4311428703548406,5.438542570986344,5.486769375279557
1770451107944,129,1,1.02405499560742,5.4525641483816,5.065412469548167
1770451107948,128,0,0.5869058030799885,4.657747175324062,4.615964036577374
1770451107952,128,0,0.0969392496584379,4.2851526430246185,4.1140463454872584
1770451107956,127,-1,-0.4154479684350189,3.7089007797532503,3.5888106152706793
1770451107960,127,-1,-0.8936361072017971,3.2271746376757253,3.0968538501063154
1770451107964,126,-2,-1.3021835110278672,2.61829711679092,2.674046568651846
1770451107968,126,-2,-1.6530859822912918,2.408672867312288,2.3083336463820316
1770451107972,126,-2,-1.9834488434796735,2.4675483643309093,1.9623701723487883
1770451107976,125,-3,-2.3047226182632023,1.52840880092534,1.6254180978786523
1770451107980,125,-3,-2.5738384973727473,1.280335997697316,1.3422325898230136
1770451107984,125,-3,-2.7106639579723826,1.5879615310236197,1.193924928671322
1770451107988,125,-3,-2.6408432388453913,1.2610045174336326,1.2535234944657176
1770451107992,125,-3,-2.335380186400262,1.6587670162182595,1.5466311658067058
1770451107996,126,-2,-1.8357516996858887,2.2316739458763735,2.028490881505246
1770451108000,126,-2,-1.2530701768653616,2.551527447121643,2.587817915303434
1770451108004,127,-1,-0.7155302381267118,3.2421752217764572,3.1009753858524514
1770451108008,127,-1,-0.2435527079828183,3.512613008250839,3.5547229005334717
1770451108012,128,0,0.421879832566693,4.379685500861553,4.212446982775807
1770451108016,130,2,1.9296806977254928,6.45431117826074,5.7202534215801535
1770451108020,133,5,5.196750874847895,9.282305765751476,8.986211979848912
1770451108024,138,10,10.94821182030842,14.449112717969376,14.726591722932554
1770451108028,146,18,19.062907991394468,22.222115695659713,22.817102754665928
1770451108032,155,27,28.14770226884484,31.645164726405955,31.8687636323807
1770451108036,164,36,35.77750862624354,40.11695615934113,39.46540730685731
1770451108040,167,39,39.45433237600687,43.59450705558203,43.11797059063845
1770451108044,166,38,37.80833806529748,41.985723601306915,41.4607152380883
1770451108048,159,31,31.317759396109953,35.62810202328002,34.96898317024679
1770451108052,149,21,22.07889066047987,25.132308508549208,25.731348858000786
1770451108056,139,11,12.75157231190502,15.624595212068904,16.399598817075784
1770451108060,133,5,5.334639886328278,9.089913115082542,8.967714638048072
1770451108064,128,0,0.5034413692838098,4.395670176490251,4.111052514133693
1770451108068,126,-2,-2.2038015558433326,2.2196852042582123,1.3729356363809302
1770451108072,124,-4,-3.6732937011301807,0.4028880753391037,-0.1245856422746172
1770451108076,122,-6,-4.5760678598770745,-1.6347373948679549,-1.0458506312652274
1770451108080,122,-6,-5.172612192716084,-1.7719037673656324,-1.6511578864881615
1770451108084,122,-6,-5.486159438245147,-1.7439741238879716,-1.9704432420076827
1770451108088,122,-6,-5.531391993676243,-1.794573059534759,-2.026397329555201
1770451108092,122,-6,-5.393886436493756,-1.53389878810402,-1.907356985369109
1770451108096,122,-6,-5.185193471487424,-1.8682942386909005,-1.7211801748026012
1770451108100,122,-6,-4.989747613001606,-1.4825794726673678,-1.546690688089531
1770451108104,123,-5,-4.853766838228954,-1.2054369041368975,-1.427525930529673
1770451108108,122,-6,-4.789425407823937,-1.3224133437927703,-1.3772260662766629
1770451108112,123,-5,-4.76901979326819,-1.0990333248385935,-1.370898529578918
1770451108116,122,-6,-4.72382641590143,-1.3494722133112864,-1.3415213060561424
1770451108120,123,-5,-4.572337624755089,-1.0394494125768103,-1.2074916239937892
1770451108124,123,-5,-4.273826100724394,-0.7711436635567344,-0.9269823838124368
1770451108128,123,-5,-3.870793973387958,-0.7429694728905663,-0.5415841203831562
1770451108132,124,-4,-3.479202764907797,0.1797452534116299,-0.1672059570935777
1770451108136,124,-4,-3.2199754062896155,0.4153031167583529,0.0748336100259017
1770451108140,124,-4,-3.138756624265101,0.0399460257292325,0.1389414371891657
1770451108144,124,-4,-3.1779567944985403,0.1468791412211318,0.0832503002480402
1770451108148,124,-4,-3.2177042699637104,0.238173670689755,0.0278306773273548
1770451108152,124,-4,-3.14387361552716,0.1473824572101163,0.0862407819592876
1770451108156,124,-4,-2.895171123542468,0.4310807380724091,0.3188806384058438
1770451108160,125,-3,-2.4750749020295633,0.9133449084295692,0.7216514774430873
1770451108164,125,-3,-1.9406227552133175,1.248272438584662,1.237573886077488
1770451108168,126,-2,-1.38376979782915,2.0355280319180515,1.775686687625889
1770451108172,126,-2,-0.911944377746807,2.3155514691008072,2.2300756916772304
1770451108176,126,-2,-0.6203927562224885,2.2144804921972447,2.506084719179105
1770451108180,127,-1,-0.5447859640900523,3.045893082164163,2.56673400297482
1770451108184,127,-1,-0.6120414793266429,3.0736746644291353,2.48334867921203
1770451108188,126,-2,-0.6505513642872769,2.108617840134528,2.4277265945526576
1770451108192,126,-2,-0.4950345075821141,2.224576606473132,2.566824364656348
1770451108196,127,-1,-0.1104694924873888,3.2344872035370074,2.935838645198132
1770451108200,128,0,0.3927448979434527,3.963176688274918,3.422408679643584
1770451108204,128,0,0.8680464001465438,4.108853261100919,3.879008770032442
1770451108208,128,0,1.24016134131557,3.979681503785121,4.232454221382459
1770451108212,128,0,1.508498449236373,4.319892770645128,4.484808885931267
1770451108216,129,1,1.6908074516357303,5.059175708639262,4.653485447614831
1770451108220,129,1,1.8088325790762576,5.093494707105289,4.757324908560403
1770451108224,129,1,1.922878507960312,4.919699443404836,4.8548347241669525
1770451108228,129,1,2.132719003096385,5.090134394386754,5.046989948032071
1770451108232,129,1,2.508316169491724,5.1672367034945985,5.4059077223647085
1770451108236,130,2,3.0220789429793857,6.111268930241837,5.904276323965272
1770451108240,131,3,3.569289298148014,7.051399778404602,6.435925072535966
1770451108244,131,3,4.061011388507509,6.831765576443738,6.91118411976022
1770451108248,131,3,4.489078933460245,7.1843723126613295,7.322878181824722
1770451108252,132,4,4.904480957537921,7.929158387041982,7.723108325790205
1770451108256,132,4,5.352650021532339,8.34036018191709,8.157052509516246
1770451108260,133,5,5.837664935315557,8.749076223699689,8.62768701218771
1770451108264,133,5,6.332730390048882,9.08842600656551,9.107468088182276
1770451108268,134,6,6.806994342629513,9.865799751484278,9.56556050179964
1770451108272,134,6,7.238888476564952,10.14283129295928,9.98106758750983
1770451108276,134,6,7.608795367470821,10.10809735029672,10.33537566033598
1770451108280,135,7,7.888652898798462,10.88328267314936,10.601004676970105
1770451108284,135,7,8.055440482990527,10.967243652459544,10.75446672802262
1770451108288,135,7,8.127859081916956,10.835692265002884,10.813340848862383
1770451108292,135,7,8.18422356682005,11.178997002481031,10.85528835696178
1770451108296,135,7,8.322006400494708,10.93521165070501,10.978194298850433
1770451108300,135,7,8.576518735133039,11.069145687445,11.218176653252916
1770451108304,136,8,8.871453989763697,11.69682027497432,11.498989375634208
1770451108308,136,8,9.060237219231132,12.040939704728014,11.67345243089918
1770451108312,136,8,9.03016434612928,11.91186173641694,11.628956375165512
1770451108316,135,7,8.770950824797481,11.113327393020324,11.3563855046113
1770451108320,135,7,8.347348376405694,10.869096954168295,10.92102399733091
1770451108324,135,7,7.820042807999336,10.815704865911565,10.382143481993396
1770451108328,134,6,7.197420089861636,9.8784958634727,9.746249972105932
1770451108332,133,5,6.440576077775922,8.982370081382685,8.974519197574717
1770451108336,132,4,5.489357921427331,8.001275539536778,8.008777044978522
1770451108340,131,3,4.29293868693828,6.898882264208699,6.799737691079699
1770451108344,130,2,2.852783968080527,5.760268811529534,5.348578172835394
1770451108348,128,0,1.2602615358349558,3.8411548169166063,3.745412477393968
1770451108352,126,-2,-0.3167894771768975,1.9761053895888765,2.157149802421342
1770451108356,125,-3,-1.709121573440549,0.9164874484890966,0.7527214615705349
1770451108360,124,-4,-2.8298551268065495,-0.0496504153140229,-0.3806988351060028
1770451108364,123,-5,-3.704494116478732,-1.3587675723056163,-1.2676700556227782
1770451108368,122,-6,-4.431275473438535,-2.0896889736295368,-2.005628624643644
1770451108372,122,-6,-5.1001567420699585,-2.1676637494988897,-2.6849037355701117
1770451108376,121,-7,-5.72401816006013,-3.02460972095344,-3.3193418551489016
1770451108380,120,-8,-6.241422534921484,-4.136022132074818,-3.847591987558138
1770451108384,120,-8,-6.598681980410414,-4.3622845804025685,-4.215322910893921
1770451108388,120,-8,-6.828959657742811,-4.1058158230579656,-4.455702194431006
1770451108392,120,-8,-7.035130663943323,-4.266061784043162,-4.672184937938384
1770451108396,119,-9,-7.29109622998764,-4.956935298558968,-4.9384641261349005
1770451108400,119,-9,-7.569272145315416,-5.281640688738752,-5.225996389241917
1770451108404,119,-9,-7.763665799452345,-5.273227806878759,-5.428656662312421
1770451108408,119,-9,-7.774974551486022,-5.243110692810733,-5.448263626687067
1770451108412,119,-9,-7.582918448794445,-5.2256401488167725,-5.265444273689775
1770451108416,119,-9,-7.262654543090209,-5.016733732401607,-4.954979202693027
1770451108420,120,-8,-6.9423016309279735,-4.330885926239649,-4.644016254921302
1770451108424,120,-8,-6.726272582002033,-4.234288873204644,-4.43649622003648
1770451108428,120,-8,-6.632998245493092,-4.396448924353431,-4.350969652917128
1770451108432,120,-8,-6.593415391213576,-4.09553533791657,-4.318568108379545
1770451108436,120,-8,-6.511020319145105,-4.243961304083539,-4.242893614399831
1770451108440,120,-8,-6.332475074585891,-4.144610229278104,-4.070942004423961
1770451108444,121,-7,-6.071134427289852,-3.4810098548315107,-3.816701511077028
1770451108448,121,-7,-5.773134207334202,-3.2219704214551097,-3.52653307381084
1770451108452,121,-7,-5.4726944525531795,-3.321721820850854,-3.233856167621785
1770451108456,121,-7,-5.185687538892369,-3.0985025371235366,-2.953469999140852
1770451108460,122,-6,-4.932468303975661,-2.3468131261535756,-2.705725352993899
1770451108464,122,-6,-4.742746025924703,-2.327975892449282,-2.52130040875523
1770451108468,122,-6,-4.629872564337727,-2.460723649051041,-2.414092959333326
1770451108472,122,-6,-4.570451141288653,-2.108159661996236,-2.3602701491661273
1770451108476,122,-6,-4.516508721188716,-2.431326508929745,-2.311365426272725
1770451108480,122,-6,-4.425080009203157,-2.036036630311833,-2.224650559872325
1770451108484,123,-5,-4.276587366247522,-1.7099635209638553,-2.0810035704116707
1770451108488,122,-6,-4.07588471708387,-2.153060345471699,-1.8851140235360304
1770451108492,123,-5,-3.846301745653368,-1.4347042225662792,-1.6597928728716056
1770451108496,123,-5,-3.6184609732693898,-1.2513595730125378,-1.4356867147390735
1770451108500,123,-5,-3.4114503058374552,-1.1914930421596628,-1.2324012887943292
1770451108504,124,-4,-3.2209770268947313,-0.6993719747922569,-1.0456996659672582
1770451108508,123,-5,-3.033618348803319,-1.1322834184029062,-0.8615491803858566
1770451108512,124,-4,-2.85547197963462,-0.6113633397247691,-0.6858148345307375
1770451108516,124,-4,-2.717336073440048,-0.071819180100924,-0.5500520871674119
1770451108520,124,-4,-2.6445122412416535,-0.4875787152955544,-0.4802967028117209
1770451108524,124,-4,-2.6289758042387454,-0.4293501369909034,-0.4680349383386089
1770451108528,124,-4,-2.6404483580461457,-0.4543144255161317,-0.4817714743583154
1770451108532,124,-4,-2.6587819263044987,-0.4061372423285645,-0.5009477125645958
1770451108536,124,-4,-2.6827416934282287,-0.2796004760460562,-0.5252254833541743
1770451108540,124,-4,-2.70749565205747,-0.4129309432049481,-0.5509311602433167
1770451108544,124,-4,-2.709463764824676,-0.4875111224562536,-0.5546971714345679
1770451108548,124,-4,-2.6695945814226634,-0.514740152516012,-0.5166781057028826
1770451108552,124,-4,-2.6143989313187466,-0.3834683865355295,-0.4625447981408053
1770451108556,124,-4,-2.6218532367689034,-0.3912258964541095,-0.4702137337849077
1770451108560,124,-4,-2.768251089213798,-0.3490497996810733,-0.6164914865892248
1770451108564,124,-4,-3.056486535629644,-0.6070349439195191,-0.9044634839507388
1770451108568,123,-5,-3.3967876755726167,-1.461149667346076,-1.2439734944498948
1770451108572,123,-5,-3.665528917821155,-1.5175822635991674,-1.5113183577155809
1770451108576,123,-5,-3.789613923819682,-1.313736353142586,-1.6341979050894937
1770451108580,123,-5,-3.7839962618170295,-1.4969504597201873,-1.6282320481503714
1770451108584,123,-5,-3.727173819534115,-1.4896248405668295,-1.571286229451662
1770451108588,123,-5,-3.712763331073445,-1.6589783542242973,-1.5557600236498643
1770451108592,123,-5,-3.808855397374041,-1.4049010750286293,-1.649621128880149
1770451108596,123,-5,-4.033263837301638,-1.4717551251800236,-1.8716952366318065
1770451108600,122,-6,-4.35549179500666,-2.433224268594774,-2.1920464144731646
1770451108604,122,-6,-4.732319979933572,-2.54798862641673,-2.566887586414971
1770451108608,122,-6,-5.146905266594441,-2.7288975099531054,-2.9787391477732266
1770451108612,121,-7,-5.604774073455112,-3.36358393037267,-3.4333428779357833
1770451108616,121,-7,-6.087816580996772,-3.619212649948308,-3.9131833958653015
1770451108620,120,-8,-6.524070173995481,-4.307166340835635,-4.346398186103854
1770451108624,120,-8,-6.819691576897858,-4.745407390808602,-4.638771174557653
1770451108628,120,-8,-6.930230652036272,-4.596893155138098,-4.745708013622513
1770451108632,120,-8,-6.901394836830538,-4.566598721386517,-4.71323846053388
1770451108636,120,-8,-6.8375442069416845,-4.497660656959039,-4.64594903976534
1770451108640,120,-8,-6.826186181331603,-4.455169413970138,-4.6310157785699175
1770451108644,120,-8,-6.883154749173564,-4.6763249078842986,-4.683758856062828
1770451108648,120,-8,-6.955504924836455,-4.7316318492173135,-4.751218719473952
1770451108652,120,-8,-6.966243446711115,-4.502528635174199,-4.756853564671758
1770451108656,120,-8,-6.860157683257453,-4.641930867745453,-4.645666553247035
1770451108660,120,-8,-6.623610615101707,-4.3387530142126085,-4.403786919540355
1770451108664,121,-7,-6.275275238586989,-3.858888996012884,-4.049920121940395
1770451108668,121,-7,-5.8405460605334465,-3.6356604372432977,-3.6101606206087182
1770451108672,122,-6,-5.333152819652339,-2.646453681292943,-3.0986153597439063
1770451108676,122,-6,-4.766891827449466,-2.598813020248242,-2.5280248720854743
1770451108680,122,-6,-4.189210631374133,-2.3956289251006453,-1.9442968615138811
1770451108684,124,-4,-3.685167311125417,-0.8844715838460244,-1.432697865948782
1770451108688,124,-4,-3.3150226943056453,-0.677310018580962,-1.0555014085528418
1770451108692,124,-4,-3.0390051710074357,-0.6761941973683623,-0.7740246597213076
1770451108696,124,-4,-2.733055933140016,-0.6413519049971006,-0.4628451960561257
1770451108700,124,-4,-2.306990317693496,-0.3950824450224104,-0.0300989680916492
1770451108704,126,-2,-1.8008886640014303,1.0401530617661603,0.4835493249996681
1770451108708,126,-2,-1.3461354174669489,1.3484364626648917,0.9448259349837232
1770451108712,126,-2,-1.0354417621573977,1.2098097595936936,1.260830788392984
1770451108716,126,-2,-0.8482840120750019,1.4177017635893137,1.4540335634769468
1770451108720,126,-2,-0.6986559417506606,1.4794198327408736,1.6117260667841222
1770451108724,127,-1,-0.5279394271353222,2.0936242086761823,1.7912335203844665
1770451108728,127,-1,-0.3378397027921278,2.259621847447596,1.9886470756523664
1770451108732,127,-1,-0.1532027569823553,2.2052401082717576,2.178906081045235
1770451108736,127,-1,0.0184111169782235,2.3701344022063555,2.3564622708221377
1770451108740,127,-1,0.1884979910777158,2.457967871830583,2.534436537165188
1770451108744,128,0,0.3734847315851284,3.0315087352940138,2.728558327640473
1770451108748,128,0,0.5942098549320898,3.307881640882038,2.957776249498128
1770451108752,128,0,0.8732421955429936,3.0441629960723233,3.243927293363462
1770451108756,128,0,1.2044745829945072,3.496976908087932,3.581742536395359
1770451108760,129,1,1.5197208758384528,4.242370758602396,3.903948550580149
1770451108764,129,1,1.7053006200509122,4.17681767562267,4.096940749720508
1770451108768,129,1,1.6732531446095793,4.143987911924626,4.072533668623353
1770451108772,129,1,1.4286687462932046,4.094560161553922,3.835931620800597
1770451108776,128,0,1.074775319293718,3.4185067983943895,3.4906285910282104
1770451108780,128,0,0.7527104479977456,3.202670629194354,3.1776019447217587
1770451108784,128,0,0.5639862183417725,3.198781897360904,2.997610260657524
1770451108788,128,0,0.5289963374031474,3.0427675582502234,2.9702485060225703
1770451108792,128,0,0.5975926664358981,3.1527772908833462,3.045308883323564
1770451108796,128,0,0.6881067802783769,3.269088520313266,3.14203688002414
1770451108800,128,0,0.7234907242868158,3.281929273809,3.18465077132411
1770451108804,128,0,0.6525960310586272,3.0617218089357117,3.1225370120096514
1770451108808,128,0,0.4634141562623064,3.124116599339117,2.942883546702162
1770451108812,128,0,0.1919444684148095,3.016154635993292,2.680240036569744
1770451108816,127,-1,-0.0888028422017965,2.314803467938992,2.4069574338593833
1770451108820,127,-1,-0.3134021287996096,2.1767401859113367,2.189072761914
1770451108824,127,-1,-0.4761698253760928,2.0932532632498955,2.033183000629835
1770451108828,127,-1,-0.6365703692342035,2.055903485542512,1.8801366372464123
1770451108832,127,-1,-0.8609910815192499,2.0107335988414787,1.663515214147771
1770451108836,126,-2,-1.1532781376550028,1.2574037919530472,1.379550790254738
1770451108840,126,-2,-1.4414048385387974,1.130898404653986,1.1000198953123483
1770451108844,126,-2,-1.629726690510251,1.1172586921921717,0.9195583162180244
1770451108848,126,-2,-1.667238403394977,0.9274852586930143,0.8883345406665448
1770451108852,126,-2,-1.5805444219014346,1.151008902422257,0.9804449898720344
1770451108856,126,-2,-1.4538681204775392,0.966561401428856,1.1135083229766982
1770451108860,126,-2,-1.36555725803182,1.406804852837702,1.2100791150249783
1770451108864,127,-1,-1.31407757079745,1.7291044838777765,1.2705483075846988
1770451108868,126,-2,-1.1928141610375396,1.2930419395462025,1.3996803086564975
1770451108872,127,-1,-0.8605949748793934,1.7278150801361498,1.7380701811382415
1770451108876,127,-1,-0.274747504646067,2.2872796431057925,2.3293333179749016
1770451108880,128,0,0.4270740277491722,3.0505173661949625,3.0368966140242524
1770451108884,129,1,0.988215602698492,3.964532084578785,3.6042157926286182
1770451108888,129,1,1.2048221266145247,4.084733136268462,3.826905360020088
1770451108892,129,1,1.0660640666453167,3.7936835524369297,3.6940432531278287
1770451108896,128,0,0.7406600954972402,3.210954395335719,3.3749678742590987
1770451108900,128,0,0.4268231287661541,2.985291006559099,3.0682513634434105
1770451108904,128,0,0.2073601907897251,3.01065774759701,2.8559048782919305
1770451108908,128,0,0.0354178674209659,2.9903077649581977,2.6897213290984467
1770451108912,128,0,-0.1623827122265446,2.8161208480026154,2.495986699751972
1770451108916,127,-1,-0.3918076646539286,2.1288917420575704,2.270149686463836
1770451108920,127,-1,-0.6022106677013734,1.946172405744889,2.064228007596272
1770451108924,127,-1,-0.7695303305585924,2.018324955782816,1.902223657058145
1770451108928,127,-1,-0.9403953960376158,1.9344826162928197,1.7364017475549511
1770451108932,127,-1,-1.183387850378914,1.8096602119561351,1.4978100236090253
1770451108936,126,-2,-1.503554376693263,1.0772395245567932,1.1822673395420882
1770451108940,126,-2,-1.8101661732382952,0.8558654611466352,0.8810018551002816
1770451108944,126,-2,-1.9663407933866623,1.1062643866398243,0.7297743411255455
1770451108948,126,-2,-1.8792989375280855,0.7579182948187366,0.819777672230261
1770451108952,126,-2,-1.5707776738996366,0.976711326297333,1.129340404117502
1770451108956,127,-1,-1.1813518086354964,1.806167929726918,1.519999935310187
1770451108960,127,-1,-0.8946211576711971,2.0225872388102735,1.8105555830280924
1770451108964,127,-1,-0.8217042190462204,1.9055938143476228,1.890133865882639
1770451108968,127,-1,-0.9257545300550168,1.8842505950215696,1.7924175434865592
1770451108972,127,-1,-1.040560520545606,1.8401214024321133,1.6788227508049245
1770451108976,127,-1,-0.9648779134704808,1.811473726077737,1.7488413453920764
1770451108980,127,-1,-0.5528269041700017,1.9661513531437649,2.153101201173854
1770451108984,128,0,0.2945702738742799,2.870775687519332,2.999272885971088
1770451108988,130,2,1.7737729720771511,4.909370755882137,4.488793471363017
1770451108992,133,5,4.353289903022807,7.753600195684495,7.085854165074284
1770451108996,137,9,8.735819038846163,11.80802159006604,11.482091830714172
1770451109000,143,15,15.42234165150155,17.898342921286023,18.16940782364208
1770451109004,151,23,24.021101475720087,25.85009185837314,26.755686610300607
1770451109008,160,32,32.82056019640764,34.93067684675181,35.53678067277281
1770451109012,168,40,39.16493507578665,42.64759428033982,41.865907657861776
1770451109016,170,42,40.65382190654475,44.84065628979441,43.34875415891988
1770451109020,165,37,36.47702293471957,39.72988313249293,39.177572845192465
1770451109024,155,27,27.947906150255264,29.921123782179944,30.664034142991063
1770451109028,145,17,17.829518112637963,19.824217902851903,20.56389556044209
1770451109032,137,9,8.926968682445677,11.700873713624452,11.671420574431568
1770451109036,131,3,2.8775652889863292,5.8042998866869295,5.616766162623382
1770451109040,128,0,-0.2104665232271743,2.65973808873434,2.5107460074472057
1770451109044,127,-1,-1.277476601560669,1.9659875520464212,1.4234133533855733
1770451109048,127,-1,-1.4834748755693727,1.657432240769296,1.2050521919158408
1770451109052,126,-2,-1.586571499334887,0.8369928336537722,1.1011908998458697
1770451109056,126,-2,-1.8008268598471036,0.5887511195532884,0.8937774284056026
1770451109060,126,-2,-2.0263314715422047,0.7975078330983418,0.6748548427998635
1770451109064,126,-2,-2.142649965584324,0.7628656079274094,0.5586062233662359
1770451109068,126,-2,-2.1399562238260867,0.7709171570382782,0.5539289945120416
1770451109072,126,-2,-2.0824061884729295,0.7060196832726859,0.6005551813913304
1770451109076,126,-2,-2.028372842096525,0.6196374078334497,0.6449711944512551
1770451109080,126,-2,-2.000603020356765,0.7250085535277249,0.6666643184147576
1770451109084,126,-2,-2.0037480638750695,0.7298484671028271,0.6599413997082451
1770451109088,126,-2,-2.0400963344008938,0.7549041682439812,0.620041377265367
1770451109092,126,-2,-2.0988799700384595,0.676075018689005,0.5558978750052317
1770451109096,126,-2,-2.1390618175246003,0.5657870489884926,0.5081960239184289
1770451109100,126,-2,-2.0987948106860257,0.730534891868075,0.5396832663556346
1770451109104,126,-2,-1.9381108774560951,0.6154155954719034,0.6917050347521307
1770451109108,126,-2,-1.6810536021094036,0.8314132706609056,0.9409877613643864
1770451109112,127,-1,-1.409021257311391,1.5417995057015084,1.2056085919499555
1770451109116,127,-1,-1.196152300661467,1.6283497416080772,1.4102702618019674
1770451109120,127,-1,-1.0437515602534306,1.611380007945506,1.5533255681964606
1770451109124,127,-1,-0.8852574843944416,1.6235944819939476,1.7021467381598203
1770451109128,127,-1,-0.6616601783477898,1.7932248317482724,1.9164438717831465
1770451109132,128,0,-0.3875577152167824,2.4977285355503405,2.1811989406910026
1770451109136,128,0,-0.1395676797913481,2.6439943868950992,2.4189196367687806
1770451109140,128,0,0.0130100322582182,2.4953140750628844,2.560180785629486
1770451109144,128,0,0.0598859056711655,2.670932044540236,2.5953176361565324
1770451109148,128,0,0.0419789254946763,2.673484726271214,2.5657626745605864
1770451109152,128,0,0.0074013354938324,2.5621479837161294,2.519721738365618
1770451109156,128,0,-0.0218046475073276,2.5372612193676076,2.479167230874288
1770451109160,128,0,-0.0465194909304162,2.5152465928872356,2.4429216449053346
1770451109164,128,0,-0.0594121442217541,2.571330179644506,2.417629730817813
1770451109168,128,0,-0.0208673701662083,2.7088900809164693,2.442421898709216
1770451109172,128,0,0.122055123125528,2.4674670719282545,2.570766321847964
1770451109176,128,0,0.3789104543699828,2.58690386226686,2.81333562987753
1770451109180,129,1,0.6815222349618675,3.3853826557583275,3.1022678214257766
1770451109184,129,1,0.927487372294912,3.61300382005987,3.334347716875252
1770451109188,129,1,1.0733346530772503,3.613117856631786,3.4654430473367173
1770451109192,129,1,1.1807650809192274,3.496302832585524,3.5576110744934386
1770451109196,129,1,1.3619069506792822,3.514018870279372,3.7235436217221665
1770451109200,130,2,1.6778468699684748,4.36699708058301,4.0241011252672765
1770451109204,130,2,2.088398849695437,4.563730262859254,4.418462202044391
1770451109208,130,2,2.490234890558264,4.596832730424269,4.803138220254299
1770451109212,131,3,2.800168520554167,5.451640190708501,5.095303113361794
1770451109216,131,3,3.0158005045490976,5.5205170823633765,5.2931154932853675
1770451109220,131,3,3.2110868140719293,5.231794513712647,5.471184130042146
1770451109224,131,3,3.474770595671438,5.692988270412606,5.718486269439928
1770451109228,132,4,3.849346705315899,6.3231536535091335,6.07660739103106
1770451109232,132,4,4.32460741389261,6.75617728883245,6.533788590836661
1770451109236,133,5,4.873209303421611,7.086264416516938,7.062124116646299
1770451109240,133,5,5.46910446446925,7.632127246768004,7.636744845864527
1770451109244,134,6,6.066413401110532,8.193890989111718,8.21356997947299
1770451109248,134,6,6.582910797689919,8.74566319002507,8.71108201550322
1770451109252,135,7,6.9368989988530645,9.327930347260097,9.046690527838962
1770451109256,135,7,7.119606850945195,9.387132138028536,9.210187300352676
1770451109260,135,7,7.226250584364715,9.331175496966344,9.296178145257606
1770451109264,135,7,7.393363908903514,9.3268706614103,9.441662090560037
1770451109268,135,7,7.683701310252296,9.625673437094058,9.710069123809737
1770451109272,136,8,8.023975156077515,10.343868526126258,10.02830982828335
1770451109276,136,8,8.258613750539833,10.352015432059105,10.240743232443643
1770451109280,136,8,8.274092262597566,10.270445771453762,10.233950065796025
1770451109284,136,8,8.084566926967437,10.292614523129078,10.02233254071422
1770451109288,135,7,7.807217838868373,9.61567143929847,9.723118481417952
1770451109292,135,7,7.551957363123059,9.2736389127848,9.445794757652312
1770451109296,135,7,7.322098778064697,9.407724606766305,9.19285110273452
1770451109300,135,7,7.010123644496229,9.105744324137886,8.856284551011683
1770451109304,134,6,6.48343922025953,8.384265803661675,8.30419007390132
1770451109308,133,5,5.676524367896016,7.463534127679151,7.472490166810826
1770451109312,132,4,4.618309838002983,6.345180774928151,6.390721242519018
1770451109316,131,3,3.3981050154496324,5.324235103903098,5.147228142669741
1770451109320,130,2,2.116775837892331,4.066945832114808,3.8415979972844543
1770451109324,128,0,0.8529100918621895,2.384137868339532,2.552351291984972
1770451109328,127,-1,-0.3518572410894807,1.3573996272651918,1.321965358277879
1770451109332,126,-2,-1.4856065682389814,0.4323684154188996,0.1626870323597016
1770451109336,125,-3,-2.5399552063033832,-0.8476858846252018,-0.9175967590808378
1770451109340,124,-4,-3.4911879186576247,-1.8055647468608225,-1.895458894829284
1770451109344,123,-5,-4.3144286141688815,-2.8543885549896064,-2.7455403980389272
1770451109348,122,-6,-5.014694072733525,-3.4534215138197553,-3.472285394609629
1770451109352,122,-6,-5.62921825310231,-3.825355999239616,-4.112987460167118
1770451109356,121,-7,-6.186694744696828,-4.629294838870962,-4.696775934333393
1770451109360,121,-7,-6.666391845438983,-5.108504594443272,-5.203140136267318
1770451109364,120,-8,-7.008692680986902,-5.626879007305932,-5.572518614260199
1770451109368,120,-8,-7.174734185324515,-5.76669258627671,-5.76628481570067
1770451109372,120,-8,-7.200325865042766,-5.552664014353906,-5.820425582266383
1770451109376,120,-8,-7.194171798205807,-5.951362410234425,-5.8432330146085025
1770451109380,120,-8,-7.277768640956964,-5.875510605335657,-5.955417108020152
1770451109384,120,-8,-7.505690658686442,-5.914831200128465,-6.211210163886544
1770451109388,119,-9,-7.818824495780909,-6.60747846466473,-6.5518284097589214
1770451109392,119,-9,-8.069153016431883,-6.6987428114629015,-6.829672382711131
1770451109396,119,-9,-8.110565736915719,-6.917045237930329,-6.898840578258663
1770451109400,119,-9,-7.895387678178085,-6.925206711179511,-6.712130676639765
1770451109404,120,-8,-7.501726798913655,-5.998913168256148,-6.348472324148248
1770451109408,120,-8,-7.072614327678449,-5.558730114616169,-5.950841508045138
1770451109412,120,-8,-6.7287091518965285,-5.829203849097451,-5.638070266289883
1770451109416,120,-8,-6.527860147741122,-5.816082431374432,-5.466101623187534
1770451109420,121,-7,-6.469847884217088,-5.1167689335403095,-5.435339517773963
1770451109424,121,-7,-6.4963557769240685,-4.895760807920793,-5.490012510626271
1770451109428,120,-8,-6.489641149738299,-5.710443233983353,-5.513418026379504
1770451109432,120,-8,-6.32316001338362,-5.7627313376400355,-5.377463982610282
1770451109436,121,-7,-5.952541107238405,-4.887520705424765,-5.036492855390036
1770451109440,122,-6,-5.451524803369448,-4.186110953370868,-4.565274889596921
1770451109444,122,-6,-4.946361627327059,-3.839612221440115,-4.091447780369987
1770451109448,122,-6,-4.525858021552995,-3.890208744485692,-3.702946563428501
1770451109452,122,-6,-4.221800726347581,-3.599010573827613,-3.4293964132446746
1770451109456,123,-5,-4.047344557341374,-3.1357272338300817,-3.2836057202394926
1770451109460,123,-5,-4.0106041004683135,-3.014005444902242,-3.275763178199586
1770451109464,123,-5,-4.079985185291522,-3.0655302213270463,-3.375983004336466
1770451109468,122,-6,-4.166790785249005,-3.7566029545306376,-3.494700156865882
1770451109472,122,-6,-4.1744289193558455,-3.768064176000024,-3.5332596995536107
1770451109476,123,-5,-4.0667893579442245,-3.0519624150575737,-3.4551283887576005
1770451109480,123,-5,-3.8749185752770687,-3.15467552675541,-3.2929090611547984
1770451109484,123,-5,-3.6411040786442657,-3.002080298256999,-3.0901809670163702
1770451109488,123,-5,-3.377521559194254,-2.873372453837616,-2.8586275943782526
1770451109492,123,-5,-3.087325380027749,-2.7434301033848705,-2.600002532602362
1770451109496,124,-4,-2.809153024442451,-2.110756231301644,-2.3522844887660783
1770451109500,124,-4,-2.616947788887414,-2.2000716819358797,-2.1899413693900005
1770451109504,124,-4,-2.562918939862495,-1.984650001355752,-2.1660497868979833
1770451109508,124,-4,-2.6203574983576288,-1.991912360830269,-2.2541734313127746
1770451109512,123,-5,-2.690187764573462,-2.671347427153247,-2.3548272869875815
1770451109516,124,-4,-2.6740386461560255,-2.2708977143527145,-2.369237869526395
1770451109520,124,-4,-2.5491731267187077,-2.083922434748742,-2.274782715616352
1770451109524,124,-4,-2.3781924549655384,-2.183190030862299,-2.1344151446120625
1770451109528,124,-4,-2.2503622382619075,-1.8421322456041844,-2.0374645015530204
1770451109532,124,-4,-2.2115535404286693,-1.906889526044928,-2.0294992118490516
1770451109536,124,-4,-2.2417483062666452,-2.1042592887974516,-2.0901473616734627
1770451109540,124,-4,-2.2909705060065626,-2.30882941349895,-2.169363393347391
1770451109544,124,-4,-2.3318211780027993,-2.031733648386579,-2.239983678199205
1770451109548,124,-4,-2.3775769016654205,-2.04720661927629,-2.315509923202149
1770451109552,123,-5,-2.4553835508850477,-2.77980107504831,-2.423223227962165
1770451109556,124,-4,-2.5653077635530734,-2.3055016722483908,-2.5634546980606263
1770451109560,124,-4,-2.662248799182807,-2.1639296971970534,-2.691095405060878
1770451109564,123,-5,-2.681594273408646,-3.251262486327909,-2.7406103744385595
1770451109568,123,-5,-2.5947305118204413,-2.886462541862871,-2.6824579327499896
1770451109572,124,-4,-2.436283915218674,-1.999852301504773,-2.5520130841391353
1770451109576,124,-4,-2.260241225812927,-2.192305812001998,-2.4050865532750896
1770451109580,124,-4,-2.073638358864267,-2.288481275211132,-2.249077609347183
1770451109584,124,-4,-1.8387570512424771,-2.2463111552656656,-2.0445777572447126
1770451109588,124,-4,-1.5457516125006314,-1.9118230134516043,-1.780319141218409
1770451109592,125,-3,-1.2565648115095014,-1.0881704349207597,-1.5188218667871718
1770451109596,125,-3,-1.0543929157847205,-1.1339885772341276,-1.3446844594655945
1770451109600,125,-3,-0.9548935950948834,-1.4398485099414051,-1.2738266795328412
1770451109604,125,-3,-0.8826345460896676,-1.1330528992919495,-1.2299808046131693
1770451109608,125,-3,-0.7381125005196723,-1.127272737179216,-1.1131939762182084
1770451109612,125,-3,-0.4849294845692311,-0.925837802548946,-0.887577340916911
1770451109616,126,-2,-0.1770781755758568,-0.3566672847822829,-0.6077063554662292
1770451109620,126,-2,0.0886822799551032,-0.2913806006178916,-0.3701135240871309
1770451109624,126,-2,0.2467489865882577,-0.3235554405236005,-0.239649804045972
1770451109628,126,-2,0.3040744946625517,-0.0586297534072963,-0.2089957960490629
1770451109632,126,-2,0.3252954160247883,-0.0097105639725834,-0.2137868461190075
1770451109636,126,-2,0.3781020925262313,-0.398417476587765,-0.1868109186873532
1770451109640,126,-2,0.4803624207962854,-0.2298032013659741,-0.1106931232331236
1770451109644,127,-1,0.5925899856037699,0.4601483330195961,-0.0252780019997862
1770451109648,126,-2,0.6613137575862861,0.1648924662816266,0.0164315949421247
1770451109652,126,-2,0.6659555129179996,-0.3840241620914755,-0.004827893489824
1770451109656,126,-2,0.6258625709842669,-0.0140828984508445,-0.0691404865047662
1770451109660,127,-1,0.5815933136643872,0.2716760746371536,-0.1371481662327891
1770451109664,126,-2,0.5818413024313716,-0.082509868638005,-0.1615808499366711
1770451109668,126,-2,0.6684897756537536,-0.3632347175667823,-0.1002864647427568
1770451109672,126,-2,0.8470729591230477,0.0402947160106856,0.0535871679843564
1770451109676,127,-1,1.0738618923266643,0.5556816840254797,0.2567473714059947
1770451109680,127,-1,1.2917776823020557,0.5653658507711752,0.4514631644714448
1770451109684,127,-1,1.484073163874816,0.646905169762988,0.6205771727820535
1770451109688,127,-1,1.6832386668698671,0.7417131472634093,0.7968832761222675
1770451109692,127,-1,1.9246306588986155,0.9405636113859456,1.0159135323747917
1770451109696,128,0,2.198574354266648,1.5243583318384406,1.2676146793460683
1770451109700,128,0,2.4500474441214037,1.5939086552416797,1.4967547879510033
1770451109704,128,0,2.6188914762914957,1.5190066922447905,1.6436449562401023
1770451109708,128,0,2.6801912791564284,1.8095789120938737,1.6838494845617458
1770451109712,128,0,2.6584464377589136,1.7905597158272242,1.6416432719317626
1770451109716,128,0,2.6122850291096698,1.6004494290526488,1.5751708156431352
1770451109720,128,0,2.597319217533566,1.4881828760571798,1.5400721568158469
1770451109724,128,0,2.62878538783192,1.532589047572622,1.5518992279364667
1770451109728,128,0,2.676343609839368,1.7438180147781015,1.5801877746435269
1770451109732,128,0,2.70043739015712,1.7581306457965082,1.584946306233328
1770451109736,128,0,2.6944469071186443,1.5833706637230165,1.559666852279845
1770451109740,128,0,2.6865267892554456,1.447158931316495,1.5332984844399045
1770451109744,128,0,2.7013408449393275,1.5047628377727778,1.5309615849154614
1770451109748,128,0,2.730340850480033,1.69769664161318,1.5434499319503727
1770451109752,128,0,2.7467293567306177,1.72503886593622,1.542901496476901
1770451109756,128,0,2.742810191253175,1.5590134144785033,1.5215269384712666
1770451109760,128,0,2.7394124721621647,1.4149156477743547,1.501221001439765
1770451109764,128,0,2.7559445874129476,1.4662187437446264,1.5022841519336332
1770451109768,128,0,2.782789516273138,1.6595746130474218,1.514701274839628
1770451109772,128,0,2.7939893764524166,1.6907401673100786,1.511403504117986
1770451109776,128,0,2.783218226545979,1.5330760097396254,1.4857197971686429
1770451109780,128,0,2.774243750595228,1.3865787708823485,1.4622304061037337
1770451109784,128,0,2.7909115915143707,1.417652744309681,1.4655750599422683
1770451109788,128,0,2.8253090046123943,1.6333549164111538,1.487523377974461
1770451109792,128,0,2.844983744999249,1.648921163115542,1.4946691893084871
1770451109796,128,0,2.829897356493405,1.5096402806898963,1.4667280478831692
1770451109800,128,0,2.7949136783352837,1.3664085513316806,1.419396976843756
1770451109804,128,0,2.776873170775416,1.340897439508666,1.3904073143644222
1770451109808,128,0,2.809458752354591,1.6548147662224526,1.4133875448099626
1770451109812,128,0,2.9147595485706104,1.5448310348072125,1.5095409030194684
1770451109816,128,0,3.109517339756119,1.5612058596983012,1.6946740934032425
1770451109820,129,1,3.405635582458411,2.2679002919017757,1.9803999826860723
1770451109824,129,1,3.79713597919572,2.333617817049788,2.3615009847603687
1770451109828,129,1,4.245855654531241,2.6252417977739793,2.8013328683204346
1770451109832,130,2,4.687447613299339,3.461414863319983,3.2364944804858213
1770451109836,130,2,5.069096199097602,3.638878529275157,3.613277948538487
1770451109840,131,3,5.395471680183936,4.075720041993443,3.934170839527414
1770451109844,131,3,5.7285752377546935,4.502056476206366,4.259971564697951
1770451109848,131,3,6.1114085649918835,4.333905025884971,4.6349655204789535
1770451109852,131,3,6.467500298521207,4.712729556531449,4.985034079401511
1770451109856,132,4,6.589236588027675,5.330709508595131,5.103087912223018
1770451109860,132,4,6.271264375515525,5.299337980684547,4.781987167619708
1770451109864,131,3,5.489363070818825,4.249601038069307,3.996179313410487
1770451109868,129,1,4.441824692600315,2.447954801247566,2.945090937427568
1770451109872,128,0,3.3926044221485254,1.578530327824807,1.8944962634109703
1770451109876,128,0,2.466601877572373,1.368140267351828,0.9688533213986056
1770451109880,127,-1,1.596016034382094,0.2416192388237359,0.0978322930694828
1770451109884,126,-2,0.6461672676754961,-0.7730813867705173,-0.8547984984742767
1770451109888,125,-3,-0.4325689937696495,-1.609988603855685,-1.9371273634546624
1770451109892,123,-5,-1.5781989077853948,-3.4462128223136297,-3.0838346664294773
1770451109896,122,-6,-2.7109912630062603,-4.673326926526656,-4.21359322955679
1770451109900,122,-6,-3.811806246389649,-4.75131110028539,-5.309339921825723
1770451109904,121,-7,-4.88629387536605,-5.846804281124708,-6.380183455265735
1770451109908,119,-9,-5.878386895425862,-7.62456272257876,-7.370940230660931
1770451109912,118,-10,-6.672304353917814,-8.495877549844423,-8.163727332513742
1770451109916,118,-10,-7.200493902010619,-8.727423858319035,-8.68923588547453
1770451109920,118,-10,-7.52237135047634,-8.697121967544906,-9.007301953452677
1770451109924,118,-10,-7.767551628063554,-8.991304308744121,-9.24804095928891
1770451109928,117,-11,-8.001206600081801,-9.534439541865826,-9.475164134918687
1770451109932,117,-11,-8.152349538348094,-9.687687784508176,-9.616237387590614
1770451109936,117,-11,-8.065350704404242,-9.623457423301732,-9.517856025466278
1770451109940,118,-10,-7.612338749055485,-8.808651903365115,-9.0576283649457
1770451109944,119,-9,-6.771787982517946,-7.972693212695805,-8.217089045352052
1770451109948,119,-9,-5.624325085421281,-7.568227735633689,-7.07259747937984
1770451109952,121,-7,-4.251386625163541,-5.821833780593252,-5.696242394480812
1770451109956,123,-5,-2.54344916168157,-3.4947363041516724,-3.9721125117757072
1770451109960,126,-2,-0.011379083680082,-1.0418843122270145,-1.4136207597041643
1770451109964,130,2,4.183064765069508,3.266345806876589,2.807593071247571
1770451109968,136,8,10.794266191354456,9.107685368236424,9.435864075261094
1770451109972,144,16,19.770200623564143,17.378213564798905,18.41546184046322
1770451109976,155,27,29.716180376313982,28.29108009601564,28.356000054772124
1770451109980,164,36,38.076324596469824,37.062973485770414,36.71090258862339
1770451109984,168,40,42.145863958637975,41.1790676097539,40.78449131705042
1770451109988,167,39,40.408452085786735,40.03788008254823,39.06470018131469
1770451109992,159,31,33.37229920139693,32.33636990209477,32.057696161397
1770451109996,148,20,23.342933839708163,21.228115988567,22.062412418878345
1770451110000,138,10,13.262245839182064,11.109095431011148,12.012475141957452
1770451110004,131,3,5.364438029273008,4.141708235000145,4.135112668962769
1770451110008,127,-1,0.4605574915459041,0.027991105483391,-0.7606838058417615
1770451110012,124,-4,-1.8770302272852135,-2.741804239718819,-3.097177059315987
1770451110016,123,-5,-2.6080122207173084,-3.790476378209364,-3.823722709946346
1770451110020,123,-5,-2.590059654033957,-3.931644635216744,-3.789895049776618
1770451110024,123,-5,-2.334798527187475,-3.852960202679812,-3.507332908016389
1770451110028,124,-4,-2.074748238547162,-3.052430048873783,-3.2158364803474297
1770451110032,124,-4,-1.899587442981959,-2.7461132351429223,-3.013160614672241
1770451110036,124,-4,-1.8236528278032065,-2.8935435050930725,-2.9164500890830727
1770451110040,124,-4,-1.809392813444713,-2.872081489290487,-2.884922062489218
1770451110044,124,-4,-1.8131003368802077,-2.95570732146554,-2.8697343532050077
1770451110048,124,-4,-1.8467150614608925,-3.0131877909331157,-2.880446785040557
1770451110052,124,-4,-1.9909720275280436,-2.8662672288852686,-2.999333929963109
1770451110056,124,-4,-2.3326953604144967,-2.873732164640141,-3.3159284210239255
1770451110060,123,-5,-2.887420258293007,-3.937416352757881,-3.8463254805687503
1770451110064,122,-6,-3.592920964971704,-4.938269637846904,-4.526611808996811
1770451110068,122,-6,-4.37686834009137,-5.093150279592072,-5.28335938870772
1770451110072,121,-7,-5.215162211991863,-5.8721235945038055,-6.093656049669232
1770451110076,120,-8,-6.121858132216767,-6.95858419606623,-6.9734181201691925
1770451110080,119,-9,-7.104451099773609,-7.892889990055812,-7.930222904159791
1770451110084,118,-10,-8.148174272459732,-9.0413075278037,-8.947462458715346
1770451110088,117,-11,-9.234733545926185,-10.050132904857987,-10.00510094993646
1770451110092,116,-12,-10.34814574007277,-11.00278301790567,-11.087252561479389
1770451110096,115,-13,-11.442231818651344,-11.91355067451502,-12.149406413536797
1770451110100,114,-14,-12.409108032651371,-12.979436945532369,-13.085185337055632
1770451110104,113,-15,-13.110064745457167,-14.012188269540262,-13.756008170276711
1770451110108,113,-15,-13.469009252304524,-14.143369996694824,-14.084895036337317
1770451110112,113,-15,-13.546985280056555,-13.993512354305162,-14.131974369286675
1770451110116,113,-15,-13.515492881062093,-14.006660212758726,-14.068203272921656
1770451110120,113,-15,-13.537101413398098,-13.927806398357914,-14.056012065145625
1770451110124,113,-15,-13.648447013923631,-14.119348563645053,-14.132507675170285
1770451110128,113,-15,-13.740276818998852,-14.11992490124406,-14.18940459390297
1770451110132,113,-15,-13.6516148128125,-14.080513530884632,-14.066359244763564
1770451110136,113,-15,-13.30542910407511,-14.02791962001512,-13.686008402848753
1770451110140,114,-14,-12.77427861518535,-12.913797406810124,-13.12006675180508
1770451110144,115,-13,-12.213662517428736,-12.216550876291343,-12.523534368224906
1770451110148,115,-13,-11.715456907546267,-12.075419467153717,-11.988342274582095
1770451110152,116,-12,-11.214747493086335,-11.22436259528646,-11.44985946410572
1770451110156,116,-12,-10.541881197088724,-10.958357442737082,-10.738760212773128
1770451110160,117,-11,-9.5789508288786,-10.037472249197377,-9.73756266565077
1770451110164,119,-9,-8.382049554500485,-8.125981828821917,-8.502752102276075
1770451110168,120,-8,-7.160269900871674,-7.248771998560091,-7.243335832203888
1770451110172,121,-7,-6.130380981119897,-6.13250370079283,-6.175352834110185
1770451110176,122,-6,-5.369986511307311,-5.125978300790197,-5.375574443793293
1770451110180,122,-6,-4.782026283323663,-4.947420793659482,-4.7467196300057175
1770451110184,123,-5,-4.18353235755451,-4.2284472575330625,-4.106387287276981
1770451110188,124,-4,-3.433234828214017,-3.2504461067816175,-3.314223611809531
1770451110192,125,-3,-2.49427315036936,-2.177819358905494,-2.333915889919514
1770451110196,126,-2,-1.3995431375685925,-1.189456198705078,-1.198135013760754
1770451110200,127,-1,-0.1759781433169087,0.0846106198466252,0.0668523951019932
1770451110204,129,1,1.191981873644763,1.6766117505068072,1.4770698999622325
1770451110208,130,2,2.7288627145778728,2.7781166942522546,3.0570209511014457
1770451110212,132,4,4.40321349218208,4.718726708327871,4.774856402368604
1770451110216,134,6,6.101589799328011,6.8184826029391274,6.516684902903668
1770451110220,135,7,7.676646841676701,8.049299358691435,8.135127573125594
1770451110224,137,9,9.03230134665446,9.628229406874429,9.53460681992428
1770451110228,138,10,10.17360056288848,10.79257820339962,10.720668795345734
1770451110232,139,11,11.184058620197291,11.58319125187224,11.776698732091567
1770451110236,140,12,12.155670346896647,12.89941418081288,12.794065709417511
1770451110240,141,13,13.127141089913277,13.918729336588774,13.811115119149878
1770451110244,142,14,14.067174838385297,14.685977912894424,14.796824509909472
1770451110248,143,15,14.900628019902884,15.709072645036787,15.67635441011185
1770451110252,144,16,15.550513054486409,16.528895766872253,16.372415709281626
1770451110256,144,16,15.96404509318491,16.91465445243987,16.83179378305517
1770451110260,144,16,16.103178670376316,16.837461634672202,17.016776191835824
1770451110264,144,16,15.9150825484851,16.70609219828342,16.875398683558842
1770451110268,144,16,15.330779384803892,16.652738005281854,16.339003629795663
1770451110272,143,15,14.318054207755011,15.453213222473844,15.374795309657957
1770451110276,141,13,12.945558105416175,13.95509473691053,14.050632176707817
1770451110280,140,12,11.383575045380349,12.722683716699793,12.536483497406037
1770451110284,138,10,9.820322267630248,10.770920940652474,11.02080633865994
1770451110288,137,9,8.355559082396695,9.53713079749503,9.603798168035652
1770451110292,136,8,6.961295315713847,8.45963492142843,8.25771439257657
1770451110296,134,6,5.544309530277836,6.90477303515655,6.889320664528438
1770451110300,133,5,4.053507526830305,5.693583814831674,5.447454461697303
1770451110304,131,3,2.533136241140492,3.77058423402776,3.9762590715357504
1770451110308,130,2,1.0757602379847095,2.439030172538206,2.5679794867859016
1770451110312,129,1,-0.2747702686393025,1.5034978805229162,1.2660884381315478
1770451110316,127,-1,-1.5758880758228893,-0.2389093677334584,0.0132182402490066
1770451110320,126,-2,-2.943270096813917,-1.1822379607714542,-1.3056998148747967
1770451110324,125,-3,-4.4443015900395535,-2.4384618966958147,-2.757381869980142
1770451110328,123,-5,-6.016422495210265,-4.395292052431726,-4.2790264715512345
1770451110332,122,-6,-7.485902308756213,-5.787213633182778,-5.697402385795835
1770451110336,120,-8,-8.680684348657213,-6.963838532819473,-6.8417720678597735
1770451110340,120,-8,-9.54647234508098,-7.570664413794262,-7.659167650507287
1770451110344,119,-9,-10.173690459527515,-8.033051266220395,-8.239790667436216
1770451110348,119,-9,-10.722361450113793,-8.925998093424118,-8.741485805995671
1770451110352,118,-10,-11.304472374643357,-9.321867273325534,-9.274037561461428
1770451110356,118,-10,-11.895100157373522,-9.48718631671386,-9.812592988710064
1770451110360,117,-11,-12.322275077513888,-10.152637698412574,-10.187423914407765
1770451110364,117,-11,-12.356036146735988,-10.41634405581928,-10.170815759409946
1770451110368,118,-10,-11.860384070893968,-9.705208859299958,-9.627355390141116
1770451110372,119,-9,-10.907334760467712,-8.546805183675811,-8.627958304966214
1770451110376,120,-8,-9.757950656313426,-7.39116878990409,-7.431824960543168
1770451110380,121,-7,-8.711876500576446,-6.273102806480619,-6.337211639618182
1770451110384,122,-6,-7.93042667296489,-5.335145425627024,-5.505523351042952
1770451110388,123,-5,-7.360073771201416,-4.910869958766195,-4.884658206300182
1770451110392,123,-5,-6.8119984983135735,-4.364794631162369,-4.287169716106307
1770451110396,124,-4,-6.140242315826348,-3.7130246782823626,-3.567253546705768
1770451110400,124,-4,-5.382281802176819,-2.9338704063875385,-2.761702731994244
1770451110404,126,-2,-4.74743962169043,-1.7620638192576203,-2.0795532460805894
1770451110408,126,-2,-4.460858664475092,-1.542945891711148,-1.7463006090201605
1770451110412,126,-2,-4.599253157850765,-1.8228955145212469,-1.8385551303398553
1770451110416,125,-3,-5.064597392363261,-2.343996203871157,-2.2571059879154824
1770451110420,124,-4,-5.708550137632077,-3.332850022972318,-2.8525991619438464
1770451110424,124,-4,-6.47067807530467,-3.424351507019958,-3.5655264361776418
1770451110428,124,-4,-7.387850958714601,-3.941012447914925,-4.4352094571373115
1770451110432,122,-6,-8.482802846345042,-5.506693822675896,-5.485677129102626
1770451110436,121,-7,-9.676704327182794,-6.757305857974687,-6.636516889610027
1770451110440,119,-9,-10.832458465937036,-7.93657785543205,-7.747780138552878
1770451110444,119,-9,-11.872510469418234,-8.917509306115006,-8.74099677278959
1770451110448,118,-10,-12.82569020459388,-9.463720570018625,-9.64709725625842
1770451110452,118,-10,-13.74410822055277,-10.093976129220216,-10.520858214140755
1770451110456,116,-12,-14.589856793190725,-11.247515409115907,-11.324319148683903
1770451110460,115,-13,-15.235146693776189,-12.468342548383244,-11.926973368499576
1770451110464,115,-13,-15.586648508919058,-12.51382955489228,-12.233840996881757
1770451110468,116,-12,-15.68938778058132,-11.82671181080146,-12.291867495337234
1770451110472,116,-12,-15.688158293641456,-11.919642483368673,-12.248814850926063
1770451110476,115,-13,-15.700537599154687,-12.380679383291149,-12.221994418876385
1770451110480,115,-13,-15.751481784461852,-12.49922617833431,-12.232931432992627
1770451110484,115,-13,-15.817079805148438,-12.475049876017351,-12.255655103410117
1770451110488,116,-12,-15.882282336969997,-11.970222590459931,-12.27723938839566
1770451110492,116,-12,-15.929589525930856,-11.823111905544634,-12.283741804902949
1770451110496,115,-13,-15.90347570791464,-12.537883124246544,-12.22011202560066
1770451110500,115,-13,-15.73915941827646,-12.44202797356261,-12.018737131771749
1770451110504,116,-12,-15.43883302266586,-11.555199600152122,-11.679645685957398
1770451110508,117,-11,-15.086896589734906,-11.004878807979855,-11.288234997886144
1770451110512,117,-11,-14.764096304540532,-10.787377622838951,-10.927489053725555
1770451110516,117,-11,-14.456842893468693,-10.68929313520784,-10.584248637680007
1770451110520,117,-11,-14.072392470482647,-10.33890936030922,-10.164265899381435
1770451110524,118,-10,-13.545240800425042,-9.742100262346764,-9.60098712076058
1770451110528,119,-9,-12.914550961525563,-8.881596827712528,-8.934468004451265
1770451110532,120,-8,-12.288049985505342,-7.934296747758722,-8.273981371790317
1770451110536,120,-8,-11.736408260701388,-7.644916466720775,-7.690067725459263
1770451110540,120,-8,-11.235512610703204,-7.429039929092027,-7.156663037425629
1770451110544,121,-7,-10.71129691048013,-6.7633222707855385,-6.598525460700767
1770451110548,122,-6,-10.12299394754308,-5.8914540100545345,-5.976468725910381
1770451110552,123,-5,-9.492215161274082,-4.9806938892981725,-5.314743557228627
1770451110556,123,-5,-8.871508040908985,-4.658425925774549,-4.666090839680369
1770451110560,123,-5,-8.31784779527434,-4.4965015745571515,-4.084768792682382
1770451110564,124,-4,-7.896236663340109,-3.7858536605618367,-3.633691382310352
1770451110568,125,-3,-7.664249753876214,-2.924039253451356,-3.371675143067544
1770451110572,125,-3,-7.6137095103741395,-2.9781480946916665,-3.293147890110889
1770451110576,124,-4,-7.639558631108057,-3.743444575861296,-3.2933793353633067
1770451110580,124,-4,-7.606031312046812,-3.464058220827416,-3.2346282745324593
1770451110584,125,-3,-7.457568171206923,-2.951443594351246,-3.060307401594858
1770451110588,125,-3,-7.248679459943752,-2.7639477908397105,-2.826365835527302
1770451110592,126,-2,-7.057921655481143,-2.2092336371318098,-2.6130072209723063
1770451110596,125,-3,-6.890455724939915,-2.541717808840659,-2.424688683722671
1770451110600,125,-3,-6.680586400746358,-2.7805771001119153,-2.193560926582325
1770451110604,126,-2,-6.374997401119765,-1.7271367609475634,-1.8657752922190456
1770451110608,127,-1,-5.9812364772688,-1.0161748497553478,-1.4506843655268833
1770451110612,127,-1,-5.527272174610768,-1.0219052174665402,-0.9777674758690926
1770451110616,127,-1,-5.001202299212162,-0.7302033785169311,-0.4344268833468478
1770451110620,128,0,-4.352804667339084,0.2410414336381592,0.231060149457468
1770451110624,129,1,-3.5454000921792854,1.2119448651065443,1.0555736593489984
1770451110628,130,2,-2.5931626516851995,1.95851205046764,2.0239882185162417
1770451110632,131,3,-1.5551416658979296,3.0097378012567777,3.076557023634799
1770451110636,132,4,-0.5034995542670444,4.169752450666073,4.14116112256459
1770451110640,133,5,0.5099034407033054,5.226244779273762,5.166384372243378
1770451110644,134,6,1.47263281284528,6.145727448968417,6.140483349718379
1770451110648,135,7,2.4070323965648033,6.965669825233558,7.08651637077518
1770451110652,136,8,3.3480439604735555,7.995944306943705,8.039353935925895
1770451110656,137,9,4.324568438670007,9.1173819033208,9.02653992469828
1770451110660,138,10,5.353404480508402,10.16922965611412,10.063250249962396
1770451110664,139,11,6.427698990895726,11.119083905497822,11.14254711929091
1770451110668,140,12,7.486764895972476,11.935274098616768,12.20551719521637
1770451110672,141,13,8.39970955037926,13.018622239632911,13.123025079690624
1770451110676,142,14,9.016963815818528,14.022659689655631,13.745389929795277
1770451110680,142,14,9.284044929840867,14.165037952262583,14.016662322458544
1770451110684,142,14,9.321552646038016,14.028735976474897,14.05670203961447
1770451110688,142,14,9.373636927409567,13.97374047109344,14.110381947593936
1770451110692,142,14,9.644945494932095,13.970860272826474,14.38290089134813
1770451110696,143,15,10.164842338130226,14.9901771640954,14.902453217362924
1770451110700,144,16,10.79792223331437,16.1332622710007,15.531996400447683
1770451110704,144,16,11.37209589034291,15.93399036211606,16.10005512347027
1770451110708,144,16,11.788530549716114,16.04695766130111,16.510662002101952
1770451110712,145,17,12.034970648002083,16.85192374148275,16.75331095688693
1770451110716,145,17,12.15070267380481,17.03962437914119,16.865730215318873
1770451110720,145,17,12.212182858105534,17.02299157376394,16.921527365607965
1770451110724,145,17,12.326996756237532,16.91356623315687,17.02746175696435
1770451110728,145,17,12.589661834545938,17.069225720982676,17.279607916858208
1770451110732,146,18,13.014582908410892,17.734282124418222,17.6938548290995
1770451110736,146,18,13.515919676174455,18.16131769355223,18.18395277164847
1770451110740,147,19,13.967841315053326,18.757644832491785,18.622665878095383
1770451110744,147,19,14.2946223110641,19.139605664738113,18.93412350588373
1770451110748,147,19,14.508848093029126,18.75548323586965,19.13265156539307
1770451110752,147,19,14.676580732971184,19.0133029540411,19.285883916831853
1770451110756,148,20,14.8700634512192,19.849109186238064,19.465295687344476
1770451110760,148,20,15.164931209267746,19.940323099643507,19.744112610049772
1770451110764,148,20,15.653703355078925,19.938482441107897,20.213431164089116
1770451110768,149,21,16.409086864611297,20.83017055913173,20.946686963263566
1770451110772,150,22,17.403737007746596,21.956910898554543,21.91822060118941
1770451110776,151,23,18.4751052266378,22.80200925755681,22.966527419667173
1770451110780,152,24,19.40147364666705,23.9383504709951,23.869810396822743
1770451110784,153,25,20.05094390240411,24.851499229898707,24.49560842183268
1770451110788,153,25,20.483647965815635,24.836350682052128,24.903902595964833
1770451110792,153,25,20.90924087839199,24.93605728146833,25.30452204907065
1770451110796,154,26,21.523460202795174,25.7291207825569,25.892642710724296
1770451110800,155,27,22.35915894866513,26.97148553255452,26.69972707902633
1770451110804,156,28,23.267015339548255,27.721377191499435,27.575913988475428
1770451110808,156,28,24.01561472320097,27.912794530249137,28.291203738780982
1770451110812,157,29,24.416352032969677,28.81206265961992,28.65898725756687
1770451110816,157,29,24.39952614820792,28.779635718530667,28.610108499466268
1770451110820,156,28,24.02299929844272,27.853822152918745,28.20141343738823
1770451110824,156,28,23.42466963544944,27.761966398369953,27.569651462815393
1770451110828,155,27,22.747145416783532,26.817323524387888,26.857071338426973
1770451110832,154,26,22.07519786328229,25.846479844885593,26.14848728112643
1770451110836,154,26,21.41757392725158,25.705122544452323,25.452389303367507
1770451110840,153,25,20.732584666064696,24.82937792936909,24.72684040772571
1770451110844,152,24,19.963549637407667,23.74179934942587,23.91588340425174
1770451110848,151,23,19.05263562618113,22.7497401821678,22.963189734323805
1770451110852,150,22,17.94549736420415,21.882504508213337,21.81508851026265
1770451110856,149,21,16.6229693582205,20.59034399579926,20.451330918896364
1770451110860,147,19,15.15286104074182,18.887223167985574,18.93805886652072
1770451110864,146,18,13.699232306121962,17.60406062041207,17.439018335532857
1770451110868,144,16,12.444783549294124,15.827135476094586,16.138236850009516
1770451110872,143,15,11.4712204317081,14.75184457500734,15.118463276003512
1770451110876,143,15,10.706237163581251,14.663708406913337,14.30636489345734
1770451110880,142,14,9.997007224973842,13.746721063569977,13.547087627255024
1770451110884,141,13,9.24220055679322,12.676701066983911,12.739324929876918
1770451110888,140,12,8.452851080911497,11.676971116235558,11.897230495360755
1770451110892,139,11,7.698742001929423,10.859301569227643,11.093910707638027
1770451110896,139,11,7.026809462998205,10.468862262360958,10.37579542936998
1770451110900,138,10,6.452210877102754,9.922745522151224,9.7529314697593
1770451110904,138,10,6.0134384264385865,9.388865300777873,9.258048716708055
1770451110908,137,9,5.794831355730173,8.934534163812106,8.974736795489159
1770451110912,137,9,5.870523226590077,8.513194275111509,8.983409537260904
1770451110916,137,9,6.2640130118967186,8.75906985785349,9.316403765706196
1770451110920,139,11,7.06472919173304,10.592658849571627,10.067133065726312
1770451110924,141,13,8.671205562600843,12.631072939569073,11.630025914844955
1770451110928,143,15,11.871119487144869,14.654870591139987,14.784108613345785
1770451110932,148,20,17.456379569756027,19.70454612087355,20.313982364868433
1770451110936,156,28,25.45668612334977,27.518990986581656,28.24669486474905
1770451110940,165,37,34.54097757033921,36.777587254651394,37.25364649678174
1770451110944,174,46,42.18365746339231,45.38930375887141,44.81601684568313
1770451110948,177,49,45.6920916685649,48.8395703606499,48.24995407834656
1770451110952,175,47,43.536470623714834,46.38748556750154,46.03206134651604
1770451110956,167,39,36.151857112611886,38.76399252152635,38.59713203581762
1770451110960,156,28,25.70943391394394,27.429491916822375,28.10883812025954
1770451110964,145,17,15.024360412305631,16.721470916751308,17.3719165884834
1770451110968,137,9,6.292799267570331,8.49810944119773,8.575490753963058
1770451110972,131,3,0.3793641021457237,2.654481389432436,2.5844550188601545
1770451110976,128,0,-3.067201754722113,-0.5178420964824495,-0.9455774474565716
1770451110980,126,-2,-4.949492046179909,-2.4208771826800746,-2.908207130516299
1770451110984,124,-4,-6.057427051592441,-4.423415751541237,-4.087578406667643
1770451110988,123,-5,-6.794257861850269,-5.48759447628704,-4.887677065959504
1770451110992,123,-5,-7.289046716722154,-5.355337135118891,-5.443861778281076
1770451110996,123,-5,-7.620187555003625,-5.659397688887215,-5.84124535984651
1770451111000,122,-6,-7.912710976991827,-6.270745101128483,-6.206713360200195
1770451111004,122,-6,-8.285729456244288,-6.689836127812665,-6.655943210874178
1770451111008,121,-7,-8.764950024444355,-7.236826665082695,-7.210276361215611
1770451111012,121,-7,-9.260168367803614,-7.705002548178177,-7.778204482630933
1770451111016,120,-8,-9.62812002638687,-8.364908869588222,-8.218176257051352
1770451111020,120,-8,-9.776826385826334,-8.625076661054306,-8.440290895370788
1770451111024,120,-8,-9.738155293401444,-8.397418350641647,-8.476971680246159
1770451111028,120,-8,-9.651982768356278,-8.57093636552391,-8.467280765717554
1770451111032,120,-8,-9.668467645462083,-8.467815147762341,-8.560311543616235
1770451111036,120,-8,-9.841711461897502,-8.636926065969762,-8.809571157795624
1770451111040,119,-9,-10.099109543513478,-9.45555058986614,-9.142447568042318
1770451111044,119,-9,-10.308480876254992,-9.583483963762212,-9.42733689890366
1770451111048,119,-9,-10.380576699593956,-9.475875122671264,-9.575932068192902
1770451111052,119,-9,-10.32019559739908,-9.604965039190729,-9.593535292360466
1770451111056,119,-9,-10.197609113535432,-9.581180182913297,-9.549826587794602
1770451111060,119,-9,-10.08351035745428,-9.561896536197786,-9.514376341747642
1770451111064,119,-9,-10.004946944436568,-9.548458727246022,-9.513845967099952
1770451111068,119,-9,-9.945397325764256,-9.558460376224684,-9.532422718294336
1770451111072,119,-9,-9.876344826492724,-9.601039068649076,-9.54240963457221
1770451111076,119,-9,-9.791478934709234,-9.635176282985771,-9.537376265118942
1770451111080,119,-9,-9.715376059361532,-9.585848722050338,-9.540982164038262
1770451111084,119,-9,-9.675544304881235,-9.565612307605738,-9.580105670543889
1770451111088,119,-9,-9.657800826212997,-9.622268966359975,-9.64092416855617
1770451111092,119,-9,-9.589619998699362,-9.57824378016405,-9.651840612375365
1770451111096,119,-9,-9.383613078933788,-9.746198795492516,-9.526084471335798
1770451111100,119,-9,-9.018532373157075,-9.51841363345695,-9.242385087916976
1770451111104,120,-8,-8.584583846854336,-8.702611289237204,-8.890408597091632
1770451111108,120,-8,-8.237002440916433,-8.53979861983782,-8.624354514327791
1770451111112,120,-8,-8.083981550698352,-8.720304039828775,-8.551264718476354
1770451111116,120,-8,-8.097062749861411,-8.682307547758516,-8.642598633664791
1770451111120,120,-8,-8.113054180443651,-8.635118324835853,-8.736767625483122
1770451111124,120,-8,-7.930555992449286,-8.660881824535664,-8.634305908946274
1770451111128,120,-8,-7.446814876077388,-8.614759729022971,-8.232771648403228
1770451111132,121,-7,-6.746608323078075,-7.724603582206791,-7.615482155698909
1770451111136,122,-6,-6.064926429208811,-6.730192980815466,-7.015726986332299
1770451111140,122,-6,-5.628700134277446,-6.662863245732159,-6.659749233089212
1770451111144,122,-6,-5.490619133241911,-6.6925691974764305,-6.600690043252897
1770451111148,122,-6,-5.488809500131715,-6.631653974573083,-6.677670794804007
1770451111152,122,-6,-5.367794098928274,-6.790946692310959,-6.635933951629977
1770451111156,122,-6,-4.966914251733477,-6.705648102061427,-6.314916470907206
1770451111160,123,-5,-4.3275704333823075,-5.766368218704632,-5.755920882189536
1770451111164,124,-4,-3.6352630590218777,-4.631915305169918,-5.144401472974529
1770451111168,124,-4,-3.055882297561038,-4.750061717064546,-4.64578217659191
1770451111172,124,-4,-2.6191897127225774,-4.75495698747951,-4.288942205515831
1770451111176,125,-3,-2.242743809135261,-3.7885936730555345,-3.99107579253527
1770451111180,125,-3,-1.8451666544322831,-3.7737327010955255,-3.671337458913601
1770451111184,125,-3,-1.428852587821862,-3.652434711896218,-3.332851365808921
1770451111188,126,-2,-1.0642781264684775,-2.789116407846602,-3.046496373324234
1770451111192,126,-2,-0.8031592817558868,-2.790738145172518,-2.8640558838005705
1770451111196,126,-2,-0.6095265591828571,-2.8156872107871695,-2.749130926965798
1770451111200,126,-2,-0.3832561471388944,-2.8176872322508917,-2.6007074441930857
1770451111204,126,-2,-0.0597798500738115,-2.6578176436477867,-2.3537090774127583
1770451111208,127,-1,0.3145433322598593,-1.8296507655171497,-2.0551282978764416
1770451111212,127,-1,0.6111405244625152,-1.8216453031149005,-1.8347657602729024
1770451111216,127,-1,0.7226400609140162,-1.854575753154479,-1.800421499728682
1770451111220,127,-1,0.6359892665711339,-1.841164267980087,-1.9641395862564457
1770451111224,126,-2,0.4080858024817192,-2.697334977434304,-2.267492627267704
1770451111228,126,-2,0.0813721864020545,-2.8366771095945955,-2.667619239667594
1770451111232,126,-2,-0.3638713980455543,-2.8748092078557343,-3.185504882787378
1770451111236,125,-3,-0.9726767533179594,-3.877758111587072,-3.86783709112703
1770451111240,124,-4,-1.7472483086170918,-4.87000170239925,-4.717134335579541
1770451111244,123,-5,-2.633604547141986,-5.74104677811115,-5.678157289736671
1770451111248,122,-6,-3.5775717899838364,-6.832715274042737,-6.69518909876486
1770451111252,121,-7,-4.580828916985979,-7.958398289299051,-7.769459983202916
1770451111256,120,-8,-5.685936777311788,-8.830771100258335,-8.94449996057871
1770451111260,119,-9,-6.8969142169619495,-10.013660438724536,-10.225688548195144
1770451111264,117,-11,-8.120172345791357,-11.6235040205972,-11.519733472805232
1770451111268,116,-12,-9.203628860846448,-13.033683804473789,-12.673613407820577
1770451111272,115,-13,-10.05031321342819,-13.8074077477755,-13.589556016003009
1770451111276,115,-13,-10.6928199990707,-14.034429514983678,-14.300431099386556
1770451111280,114,-14,-11.249254290728464,-14.896830638169526,-14.924917180361128
1770451111284,113,-15,-11.80553087576823,-15.75369321170475,-15.54873772443893
1770451111288,113,-15,-12.338779041107044,-16.020782632220495,-16.14837832818743
1770451111292,112,-16,-12.745815864143196,-16.82845681408447,-16.620592243951425
1770451111296,112,-16,-12.940953135528504,-17.130927673353813,-16.880441214435535
1770451111300,112,-16,-12.934256235765709,-16.80608623142481,-16.938750753418947
1770451111304,112,-16,-12.826983924213527,-16.930091257614237,-16.896592407530456
1770451111308,112,-16,-12.735291111647294,-16.90252069105958,-16.86894343441381
1770451111312,112,-16,-12.709688825132234,-16.98924564807768,-16.90533147983259
1770451111316,112,-16,-12.709834627241852,-17.086882791395286,-16.965830974187558
1770451111320,112,-16,-12.644219669286809,-16.837607484797466,-16.960376445878065
1770451111324,112,-16,-12.443484466059564,-17.017441943493566,-16.820439763710006
1770451111328,112,-16,-12.120157233092169,-16.826384557873183,-16.55793826752426
1770451111332,113,-15,-11.769737753768972,-16.1535423575189,-16.267208878228256
1770451111336,113,-15,-11.499958115039108,-15.99711949774149,-16.05544799060561
1770451111340,113,-15,-11.33682582913513,-15.94503717468494,-15.948840607420898
1770451111344,113,-15,-11.19156934295357,-16.018264421053118,-15.85898383953376
1770451111348,113,-15,-10.927429826054226,-15.827704317807914,-15.649519175514827
1770451111352,114,-14,-10.47445539862334,-15.27836601085455,-15.251028216273763
1770451111356,114,-14,-9.895857458132616,-14.881882126259852,-14.727185601961285
1770451111360,115,-13,-9.352017687622252,-14.148522438864337,-14.238250095399954
1770451111364,115,-13,-8.993664441113724,-13.845692422320315,-13.933929322887728
1770451111368,115,-13,-8.868936923200545,-14.078280293598056,-13.86092787203055
1770451111372,115,-13,-8.907860843938542,-14.098824573287091,-13.948702540184932
1770451111376,115,-13,-8.977248685521904,-14.113759930661052,-14.065241314999412
1770451111380,115,-13,-8.952067032455028,-13.978200555907645,-14.08757938339958
1770451111384,115,-13,-8.76480849916042,-14.050495760346896,-13.949224493553416
1770451111388,115,-13,-8.429668441948985,-13.952361161002608,-13.663487206325364
1770451111392,116,-12,-8.040239453205048,-13.283427907884011,-13.322238070821628
1770451111396,116,-12,-7.727061225603682,-13.006305578720472,-13.054939306910386
1770451111400,116,-12,-7.581444486317245,-13.111669954801528,-12.952953121602247
1770451111404,116,-12,-7.590507973455274,-13.00178044545056,-13.004180519731436
1770451111408,116,-12,-7.633772917217785,-13.019722898301834,-13.088980038621711
1770451111412,116,-12,-7.552619312680553,-13.350000259739229,-13.049104057341744
1770451111416,116,-12,-7.250848109678102,-12.93616837462621,-12.788310366462296
1770451111420,117,-11,-6.7551020291895165,-12.274399830947145,-12.333199520439754
1770451111424,117,-11,-6.188964781464783,-11.867702153839392,-11.807285788876928
1770451111428,118,-10,-5.685087505698941,-11.204989664430574,-11.342657652054172
1770451111432,118,-10,-5.309795699968858,-11.288981146850071,-11.00472036729973
1770451111436,118,-10,-5.051351372627601,-10.989440542099862,-10.781433904279687
1770451111440,119,-9,-4.8581671594667455,-10.348601600344937,-10.622046833582834
1770451111444,118,-10,-4.681854788069152,-10.759947851244156,-10.479345032549436
1770451111448,119,-9,-4.500484363516259,-10.445525592161784,-10.331811712474448
1770451111452,119,-9,-4.323084684976815,-10.069706855099604,-10.187986320977776
1770451111456,119,-9,-4.180110626993383,-10.305830874962464,-10.07753569771328
1770451111460,119,-9,-4.103493416051661,-10.070684716319294,-10.031860746162936
1770451111464,119,-9,-4.103838496495163,-10.063310802339796,-10.061519317162888
1770451111468,119,-9,-4.155014336228811,-10.247969198429413,-10.140711593621552
1770451111472,119,-9,-4.19614972335749,-10.290688377815975,-10.20895830218013
1770451111476,119,-9,-4.1555464730348515,-10.197942449154771,-10.194751271209672
1770451111480,119,-9,-3.9881461580213817,-10.186034973545956,-10.053056074383154
1770451111484,119,-9,-3.705315772776567,-10.012874582373888,-9.795372592570695
1770451111488,120,-8,-3.374691634841473,-9.356283822607056,-9.489595431575204
1770451111492,120,-8,-3.086578037533924,-9.252058591252762,-9.225861283055936
1770451111496,120,-8,-2.910363861111186,-9.313227692313154,-9.072602369085391
1770451111500,120,-8,-2.8685475129444935,-9.102787230691447,-9.051324797051086
1770451111504,120,-8,-2.9323628217685176,-9.154782725469897,-9.133462863807797
1770451111508,120,-8,-3.028952529188362,-9.27065018959912,-9.247662132203606
1770451111512,120,-8,-3.062822125390004,-9.40799458856334,-9.299874216140587
1770451111516,120,-8,-2.961428206806927,-9.232308147441543,-9.217477567009434
1770451111520,120,-8,-2.7307549241652493,-9.207846440234704,-9.004897636676027
1770451111524,120,-8,-2.4742154834143513,-9.126434231877283,-8.764225924915742
1770451111528,121,-7,-2.3337131530939272,-8.323383510256544,-8.637726085085674
1770451111532,121,-7,-2.376927142496658,-8.466486499248113,-8.694299187844162
1770451111536,120,-8,-2.5288119377952896,-9.204285914151477,-8.859024958551188
1770451111540,120,-8,-2.6269049743502633,-9.310608050586348,-8.968446218725262
1770451111544,120,-8,-2.556408926881999,-9.055278778978996,-8.90766874719016
1770451111548,121,-7,-2.3315843640787106,-8.461999508060623,-8.692472765542298
1770451111552,121,-7,-2.0529352385207496,-8.386302682362727,-8.424458588052303
1770451111556,121,-7,-1.806923536105824,-8.351961100630803,-8.18886232407472
1770451111560,121,-7,-1.6172452050365669,-8.213242816064465,-8.007043049686155
1770451111564,121,-7,-1.4705159852503442,-8.212541056413858,-7.8650952569993215
1770451111568,122,-6,-1.352450086223186,-7.357620448519599,-7.750711275278797
1770451111572,122,-6,-1.249201995859134,-7.547988541710832,-7.652007905953212
1770451111576,121,-7,-1.1411240385487886,-8.258251932095128,-7.549096884333783
1770451111580,122,-6,-1.0224766724793843,-7.357635218023162,-7.434696291233707
1770451111584,122,-6,-0.9206481818791784,-7.1264411503444505,-7.33534624941181
1770451111588,122,-6,-0.8749740614255064,-7.507355630989772,-7.290479727252892
1770451111592,122,-6,-0.8925065393307401,-7.430163393713653,-7.307492246844827
1770451111596,122,-6,-0.9290979288558754,-7.466763844745538,-7.342861384119393
1770451111600,122,-6,-0.911788624011562,-7.193244663951818,-7.324475281108453
1770451111604,122,-6,-0.7844464976664947,-7.346425887160931,-7.1962614833967296
1770451111608,122,-6,-0.5505034481069533,-7.354100515930589,-6.960490171280535
1770451111612,123,-5,-0.2805633223469277,-6.605082992799325,-6.686665085918213
1770451111616,123,-5,-0.0621171472244759,-6.398900322439056,-6.462579312435367
1770451111620,123,-5,0.0786265051385886,-6.28195265203924,-6.3156843663608155
1770451111624,123,-5,0.2047331525720199,-6.3449480595072165,-6.183664903685533
1770451111628,123,-5,0.4038841431819078,-6.383253494091055,-5.978604961322271
1770451111632,124,-4,0.6875974369231797,-5.6517813417790075,-5.68833522790803
1770451111636,124,-4,0.9589063198956014,-5.395118106000101,-5.409205770364654
1770451111640,124,-4,1.0888556434745205,-5.36507644475414,-5.269718628015406
1770451111644,124,-4,1.0356036567438016,-5.288576648092381,-5.311827220063932
1770451111648,124,-4,0.8993708562104388,-5.528015559415387,-5.436260597320984
1770451111652,124,-4,0.8591569346634653,-5.535900697701846,-5.4650619741629125
1770451111656,124,-4,1.0313761499642888,-5.594593394631248,-5.281838816583404
1770451111660,124,-4,1.360480597142817,-5.203260474398662,-4.941234795744604
1770451111664,125,-3,1.64412496777208,-4.506014991135869,-4.644935753728435
1770451111668,125,-3,1.6934794954898056,-4.376193744720311,-4.581778303352908
1770451111672,125,-3,1.5004296333710627,-4.726190964980704,-4.759769732538033
1770451111676,124,-4,1.257901359321528,-5.502440126214861,-4.98554711808785
1770451111680,124,-4,1.2092512249060103,-5.309446866031561,-5.01609814136528
1770451111684,125,-3,1.4637812796246847,-4.499484345705749,-4.743717831621668
1770451111688,125,-3,1.9343834105328752,-4.3756887184379405,-4.2568050740400905
1770451111692,126,-2,2.422741873371017,-3.835210645743014,-3.752990135918712
1770451111696,126,-2,2.7547855205163554,-3.41162589539701,-3.4042712736934706
1770451111700,126,-2,2.864095686516769,-3.504384969643501,-3.275688626415353
1770451111704,126,-2,2.793051551458358,-3.3402503745514167,-3.3252620758299063
1770451111708,126,-2,2.6425377325645685,-3.567577419387868,-3.453540224200722
1770451111712,126,-2,2.516486191214522,-3.7390044113826986,-3.557717816127683
1770451111716,126,-2,2.4902454624870183,-3.5049068490179405,-3.5626167049852606
1770451111720,126,-2,2.6045309649704365,-3.5563348383412277,-3.426930052971847
1770451111724,126,-2,2.8681878470819444,-3.2592515547479035,-3.141050747171557
1770451111728,127,-1,3.255474812478119,-2.760538577486434,-2.730440037934184
1770451111732,127,-1,3.7029393917319817,-2.548299496363639,-2.2590989556657517
1770451111736,128,0,4.123766801856262,-1.7993178454679493,-1.8147111296232437
1770451111740,128,0,4.443861505248092,-1.2980344049009085,-1.4712906163287238
1770451111744,128,0,4.636684482620834,-1.591782762179609,-1.2538511276866764
1770451111748,128,0,4.732744081771956,-1.4573077340356937,-1.130558368238307
1770451111752,129,1,4.811540704765574,-0.9130850916110432,-1.022875461542574
1770451111756,129,1,4.992557359873057,-0.5061482784721711,-0.8138442912417105
1770451111760,129,1,5.402665796037515,-0.6279303848054534,-0.3776225861135469
1770451111764,129,1,6.090831599733343,-0.3480012542293207,0.3362804816105054
1770451111768,131,3,6.941126309428959,1.2951762003065634,1.21362545204713
1770451111772,132,4,7.692882087133634,2.2318123927418383,1.993553499969595
1770451111776,132,4,8.091049094222512,2.333596306701579,2.420072292114873
1770451111780,132,4,8.044367590362004,2.4309870943187573,2.4022013349370064
1770451111784,131,3,7.6517418339379635,1.5749217016627983,2.0399385360729676
1770451111788,131,3,7.091907571704871,1.2688934495750115,1.511945134357583
1770451111792,131,3,6.495591088639233,1.269193062667757,0.9473161268035116
1770451111796,130,2,5.903564707632631,0.1768567952879416,0.3855112327797887
1770451111800,129,1,5.306287157618298,-0.3986015327971064,-0.1825095468475908
1770451111804,129,1,4.696380706225942,-0.7174319856205966,-0.7625451621318184
1770451111808,128,0,4.088571328761752,-1.4533043404091377,-1.33884215171483
1770451111812,128,0,3.508801111952421,-2.0821593714937054,-1.8856267244875151
1770451111816,127,-1,2.9750273216971737,-2.512672027156139,-2.3859299320670595
1770451111820,127,-1,2.489954231866766,-2.7578502696523968,-2.838120893134241
1770451111824,126,-2,2.049115260095312,-3.4423958117920117,-3.247015156171085
1770451111828,126,-2,1.6488249719914032,-3.752733284820196,-3.6155004764408822
1770451111832,126,-2,1.2807171698530753,-3.872184829536046,-3.9505733486802175
1770451111836,125,-3,0.922143007960637,-4.726922893925432,-4.274381775573419
1770451111840,125,-3,0.5453156412568263,-4.646254609185696,-4.616041954254761
1770451111844,125,-3,0.1495184687132917,-4.572565217168005,-4.9783050688257235
1770451111848,124,-4,-0.2183374535636744,-5.711740040023239,-5.31441038197803
1770451111852,124,-4,-0.4943488970324035,-5.948691372577248,-5.557885926758297
1770451111856,124,-4,-0.657392788354074,-5.6910852943095485,-5.684861666080597
1770451111860,124,-4,-0.7420570913878219,-5.7671897152481515,-5.730195188061856
1770451111864,124,-4,-0.7773046852279055,-5.475646651928426,-5.726475543213194
1770451111868,124,-4,-0.72499504449413,-5.879464876792158,-5.6398501641406185
1770451111872,124,-4,-0.5034079760764969,-5.849071409659893,-5.390082879286241
1770451111876,125,-3,-0.0708267205805057,-4.7992452299635655,-4.932086062223228
1770451111880,125,-3,0.5571967787816776,-4.776091510042562,-4.274296046398916
1770451111884,126,-2,1.4480747112866066,-3.46064751845567,-3.3432809664688836
1770451111888,129,1,2.977242238732007,-0.9758163016780852,-1.7642239728920504
1770451111892,131,3,5.898839184264095,1.1831922654982114,1.2089062003457072
1770451111896,136,8,11.023274954863233,6.161033434448896,6.3764081637740455
1770451111900,143,15,18.52948659949338,13.1480324373612,13.912265321661794
1770451111904,151,23,27.334084147770064,21.63968624997912,22.73617540744554
1770451111908,161,33,35.09938972657946,30.807129415687783,30.518924032085568
1770451111912,165,37,39.12613363009291,35.39698382803157,34.57023408020572
1770451111916,164,36,37.71390401494499,33.82302598299509,33.19533452377389
1770451111920,156,28,31.12568771078638,26.42305709434128,26.657003579486982
1770451111924,146,18,21.49457501567486,16.28384279055111,17.08162476363171
1770451111928,137,9,11.73101667359462,7.099192244380276,7.369485501375886
1770451111932,129,1,4.143826692016706,-0.8487849161300325,-0.1782085555459711
1770451111936,125,-3,-0.401146418482913,-5.01395813933404,-4.696317419253546
1770451111940,124,-4,-2.4011185408854043,-5.70884806490211,-6.676213600374412
1770451111944,123,-5,-2.964431701039153,-6.725608749188535,-7.217301636010354
1770451111948,122,-6,-3.01856642446194,-7.923328744982424,-7.23955944373636
1770451111952,122,-6,-2.9817377270934218,-7.881183898464955,-7.159782850992145
1770451111956,123,-5,-2.9156975645475836,-7.051198923624621,-7.045936948525012
1770451111960,123,-5,-2.812479820746802,-6.691041840440337,-6.8991544333388255
1770451111964,123,-5,-2.721138295248613,-6.834759936082844,-6.772826251633862
1770451111968,123,-5,-2.703684358447775,-6.859641839827766,-6.725709084306839
