timestamp_ms,ecg_u8_raw,ecg_counts_raw_int,ecg_counts_filt_monitor,ecg_counts_filt_diagnostic,ecg_counts_filt_st
1769249971144,126,-2,-2.8425208999179414,-1.3952894273323704,-1.2829905426707184
1769249971148,125,-3,-3.568926688383101,-2.1574410264839505,-2.0048158833690453
1769249971152,125,-3,-4.2016473138095956,-2.495311502685802,-2.6316399108646986
1769249971156,124,-4,-4.688066528275899,-3.282960243049593,-3.1112743887454544
1769249971160,124,-4,-4.949366213646803,-3.382038004439985,-3.3655939661572725
1769249971164,124,-4,-4.928380296972013,-3.23209282316088,-3.3378081845778955
1769249971168,124,-4,-4.618172875853154,-3.342972627482334,-3.0212347661363523
1769249971172,125,-3,-4.0624188886391535,-2.345405072728858,-2.4600015413272054
1769249971176,126,-2,-3.33503114624555,-1.4543337510527592,-1.7280470891914093
1769249971180,126,-2,-2.521933063164811,-1.247056369893483,-0.910054188351356
1769249971184,127,-1,-1.717767902024809,-0.3767183954676338,-0.0990377978728787
1769249971188,128,0,-1.0135160845254636,0.7569024351013736,0.6139763798995075
1769249971192,129,1,-0.4494711159527144,1.5334398534151894,1.1868153619059365
1769249971196,129,1,0.0274753569106505,1.6347420290348782,1.6711812083028257
1769249971200,129,1,0.5267259400657529,1.646302541392541,2.1769669392147533
1769249971204,130,2,1.1004384461241097,2.692234031861236,2.7574310126569324
1769249971208,131,3,1.662615551527057,3.672065123158484,3.3267777656102777
1769249971212,131,3,2.0303567955263437,3.5782247970353014,3.701833021720382
1769249971216,131,3,2.0511649426476017,3.5807697437518216,3.730257848420048
1769249971220,131,3,1.7034944065299813,3.663974984571613,3.390852636469453
1769249971224,130,2,1.0956245139194156,2.6376758319871305,2.791856416120869
1769249971228,129,1,0.3751384048582166,1.7062912634793164,2.0804631619183698
1769249971232,129,1,-0.3738370195621452,1.5152449164417492,1.3403533214529548
1769249971236,128,0,-1.16389561701825,0.6342951384697659,0.5586953811939829
1769249971240,127,-1,-2.0508086737445232,-0.4292784646142253,-0.3201322451095674
1769249971244,126,-2,-3.052823008667233,-1.286330119923067,-1.3140391573570387
1769249971248,125,-3,-4.115385290687645,-2.419583356916286,-2.368213973280609
1769249971252,124,-4,-5.1433240915350895,-3.365593671675076,-3.387097602049975
1769249971256,123,-5,-6.066252249087466,-4.50860810400963,-4.299765522181739
1769249971260,122,-6,-6.877968912681057,-5.3176212378082495,-5.100265888965831
1769249971264,122,-6,-7.610564952869229,-5.413702290532791,-5.822352158755408
1769249971268,121,-7,-8.267953956543069,-6.346183447763559,-6.471639083736304
1769249971272,120,-8,-8.796891707557261,-7.436292018618309,-6.994418445134002
1769249971276,120,-8,-9.137252243337237,-7.479803975203236,-7.327685074793496
1769249971280,120,-8,-9.292636278309,-7.356988861896147,-7.471833466082137
1769249971284,120,-8,-9.330990250050077,-7.416227320611726,-7.493819216250667
1769249971288,120,-8,-9.314779875618663,-7.364092361284918,-7.459018421305056
1769249971292,120,-8,-9.25464488247821,-7.434478701296373,-7.384761549973706
1769249971296,120,-8,-9.1560266656846,-7.530802205717265,-7.283295963042195
1769249971300,120,-8,-9.1082820545507,-7.297514004055291,-7.243960293811829
1769249971304,120,-8,-9.27438387694813,-7.550807620051136,-7.418408601761521
1769249971308,119,-9,-9.671026025979078,-8.200799975848819,-7.806308961716977
1769249971312,120,-8,-9.790236419790505,-7.669272840004855,-7.891768041643098
1769249971316,122,-6,-8.33935433274318,-5.281900285510104,-6.393871382246756
1769249971320,127,-1,-3.5186312139971525,-0.5954711671694142,-1.5373457669158217
1769249971324,134,6,5.928436515505544,6.747619104192362,7.916889212061719
1769249971328,146,18,19.287859128562477,18.49302513405345,21.25742641059605
1769249971332,162,34,33.15160730879001,34.58636775408089,35.09382983232454
1769249971336,174,46,42.40435931599118,46.48987715925182,44.329806471767526
1769249971340,174,46,42.7625337057398,46.50355895211,44.69381003601099
1769249971344,163,35,33.313847052132274,35.67354352039471,35.27624523485103
1769249971348,146,18,17.243956524383652,18.36417685046667,19.254671535411617
1769249971352,128,0,0.1771075247373352,0.7634706757905305,2.2356923240769904
1769249971356,116,-12,-12.747955581136662,-11.714890400354228,-10.660838712622162
1769249971360,110,-18,-19.17135915590842,-17.144749599631908,-17.083594547174943
1769249971364,111,-17,-19.90660900522127,-16.671156413375876,-17.838689044191064
1769249971368,113,-15,-17.573961962981357,-14.35926338086607,-15.52774948205333
1769249971372,115,-13,-14.70524718606133,-12.595051632039205,-12.66400098061581
1769249971376,116,-12,-12.607109540584425,-11.446275229769538,-10.546388394970505
1769249971380,117,-11,-11.409162366511286,-10.33871301315299,-9.312163994870303
1769249971384,119,-9,-10.767276901477096,-8.547688348210901,-8.634898721970735
1769249971388,120,-8,-10.417755862967269,-7.446353328102136,-8.26596621281443
1769249971392,120,-8,-10.245055929494228,-7.664553865140684,-8.091161387512386
1769249971396,119,-9,-10.115406569895464,-8.321111887311659,-7.964533517355526
1769249971400,119,-9,-9.845601434826849,-8.527089149359309,-7.689129861250315
1769249971404,120,-8,-9.344986209173346,-7.295579085096736,-7.171347177896412
1769249971408,122,-6,-8.69288664462655,-5.775925097811672,-6.498918930198924
1769249971412,122,-6,-8.023032569136376,-5.3687020920445185,-5.814540643474458
1769249971416,122,-6,-7.371174030102456,-5.649928885360653,-5.154180950796526
1769249971420,122,-6,-6.6883131398102265,-5.219401452786505,-4.462448695993798
1769249971424,124,-4,-5.980067987142352,-3.5781674208099123,-3.7409306630357735
1769249971428,125,-3,-5.35759259634272,-2.5673182109928883,-3.1030313752815424
1769249971432,125,-3,-4.9172720244250145,-2.5653606105103255,-2.6491091174978463
1769249971436,125,-3,-4.605834850012196,-2.539519609533421,-2.3262138991859844
1769249971440,125,-3,-4.248319270470796,-2.2936603268751874,-1.9566870002427137
1769249971444,126,-2,-3.7121049504932015,-1.564487887743179,-1.4066097786489675
1769249971448,127,-1,-3.0242627903172927,-0.5601286768383201,-0.704920582097273
1769249971452,128,0,-2.326488629028741,0.3634757873270063,0.0044979691020525
1769249971456,128,0,-1.7361509360295202,0.5311367066691783,0.6050552364684394
1769249971460,128,0,-1.263294191223595,0.5797529339529666,1.089650204057404
1769249971464,129,1,-0.8387165258270248,1.5782311560946272,1.528757419156268
1769249971468,130,2,-0.3796015557278061,2.2359299939100277,2.0031519296506564
1769249971472,130,2,0.1836039347813505,2.5915322591196768,2.57975098132862
1769249971476,131,3,0.9048146518517548,3.2294090341208617,3.3124502591152547
1769249971480,131,3,1.7977692580975866,3.897138403563867,4.217045281994679
1769249971484,133,5,2.8043508800786734,5.203707809940716,5.236472935483878
1769249971488,134,6,3.8119733638765783,6.6112247208772015,6.257071117345228
1769249971492,135,7,4.721823490248,7.203959623421081,7.178904768939636
1769249971496,135,7,5.498445138336784,7.554358606028075,7.967224516922376
1769249971500,136,8,6.153510577806035,8.599191102779367,8.635187006648453
1769249971504,137,9,6.702538548613782,9.396636492591751,9.198396486050232
1769249971508,137,9,7.157739260852759,9.493300488333569,9.667532678446578
1769249971512,138,10,7.55588443264336,10.22478106571104,10.078011701902245
1769249971516,138,10,7.965094343274428,10.577348791163791,10.498280071981265
1769249971520,138,10,8.439505065856828,10.483317363517356,10.984059939975026
1769249971524,139,11,8.96166546140263,11.522674805552189,11.51892586500116
1769249971528,140,12,9.442939710257468,12.349008594233991,12.013693756814495
1769249971532,140,12,9.79372234227081,12.341359391855836,12.377629803947483
1769249971536,140,12,9.988241419509643,12.466347542402632,12.584637713216594
1769249971540,140,12,10.04758769303472,12.510077602407051,12.656150194785544
1769249971544,140,12,9.95828248467773,12.510556869911069,12.57874610657406
1769249971548,140,12,9.616972368521854,12.315647247303367,12.248792262961585
1769249971552,139,11,8.865693664983059,11.406390388816304,11.508440319441812
1769249971556,138,10,7.598375287167603,10.327680945407227,10.252364994291757
1769249971560,136,8,5.860438123374755,8.658012520138286,8.526777136731441
1769249971564,134,6,3.8676044289677782,6.270812057629298,6.547510049403783
1769249971568,132,4,1.9265447016541608,4.612775204098689,4.620417543451235
1769249971572,131,3,0.307201858860719,3.0564375360500895,3.0141618832964396
1769249971576,129,1,-0.8566923100181256,1.6802514953891723,1.8616555109142543
1769249971580,129,1,-1.5917125668677343,1.267824984459636,1.13655062323895
1769249971584,128,0,-2.0366434959130437,0.6032347117712029,0.7010600171724467
1769249971588,128,0,-2.358409375689347,0.3210166634932049,0.3893171892226172
1769249971592,128,0,-2.675062245843691,0.2795070272085033,0.0839306292197556
1769249971596,127,-1,-3.016504482963118,-0.5022375827759156,-0.2449177461350101
1769249971600,127,-1,-3.3295450817557044,-0.6616314416465943,-0.5446898186612075
1769249971604,127,-1,-3.511754383746271,-0.4305055101184071,-0.7141365658959677
1769249971608,127,-1,-3.457224419572313,-0.7052985673015182,-0.6482097815375276
1769249971612,127,-1,-3.1082301811006317,-0.6625177656053859,-0.2891503883413251
1769249971616,128,0,-2.4972284680872856,0.4016542877480606,0.3311398214361314
1769249971620,129,1,-1.745756076323887,1.3830597018512756,1.0917931708798203
1769249971624,129,1,-1.008359560951705,1.520681983976917,1.8390894436595415
1769249971628,130,2,-0.3953165513883629,2.3069999271889476,2.4633147664303814
1769249971632,131,3,0.0797960023230716,3.3475129521695552,2.950497401683576
1769249971636,131,3,0.4987190386717265,3.3376961474221045,3.3813705573821244
1769249971640,131,3,0.9736489800988284,3.4231702420067744,3.86740916729413
1769249971644,132,4,1.548343809290032,4.451002323137109,4.452008327917624
1769249971648,133,5,2.138064469961197,5.364162922402972,5.050294025744798
1769249971652,133,5,2.5597594842514515,5.299987979447467,5.47983253808484
1769249971656,133,5,2.6273522762793124,5.340222351733337,5.555870232796154
1769249971660,133,5,2.2475121882491864,5.397039271165169,5.185855705443617
1769249971664,132,4,1.470281576948944,4.42590585279651,4.419423983919666
1769249971668,131,3,0.4725205946806279,3.3998290949705794,3.4327324819175935
1769249971672,130,2,-0.5263410360604377,2.258458399721305,2.444875938347069
1769249971676,129,1,-1.3726561134182411,1.3507671216617236,1.608870702001542
1769249971680,129,1,-2.038188847690807,1.3583635664043818,0.9517226263984816
1769249971684,128,0,-2.5985233305252664,0.4264056458117037,0.3974223294336902
1769249971688,127,-1,-3.1701925232573656,-0.5979113891415879,-0.1688916269473137
1769249971692,127,-1,-3.858685096571766,-0.7468579987083208,-0.8500213012358322
1769249971696,126,-2,-4.719675847102418,-1.680655428087079,-1.7004049878304248
1769249971700,125,-3,-5.716542611790794,-2.650864920831066,-2.6848189117243235
1769249971704,124,-4,-6.6981975157561715,-3.5754773993634847,-3.6552953002146498
1769249971708,123,-5,-7.4450977096884925,-4.622180920599732,-4.3950270748694225
1769249971712,123,-5,-7.784885283258494,-4.700548274130305,-4.7317188079981305
1769249971716,123,-5,-7.707160842276511,-4.779004071213755,-4.6512997018098785
1769249971720,123,-5,-7.384243344983842,-4.57367751414596,-4.320681947825166
1769249971724,124,-4,-7.06057869436198,-3.677942331728042,-3.982024764213879
1769249971728,124,-4,-6.8791042702728005,-3.532076555144113,-3.7829605495105216
1769249971732,124,-4,-6.790850219112957,-3.788061905827615,-3.6844278314296024
1769249971736,124,-4,-6.650788083359627,-3.742789888110274,-3.5485755200931783
1769249971740,124,-4,-6.428107910269407,-3.619413905474424,-3.340512361580553
1769249971744,124,-4,-6.290690375589837,-3.6911031141334543,-3.2123935974760136
1769249971748,124,-4,-6.34831700128535,-3.4674815850869236,-3.258135823097261
1769249971752,126,-2,-6.122864203923735,-1.917347568986256,-2.998595421050715
1769249971756,128,0,-4.204726025726924,0.4138631734137714,-1.0413255118200846
1769249971760,132,4,1.309026501220023,4.143355523528616,4.494443291870723
1769249971764,140,12,11.46025835941186,12.55810116039255,14.640391448548725
1769249971768,154,26,24.9332115015944,26.29564037314252,28.087720705166145
1769249971772,169,41,37.73630619460188,41.290347568156626,40.86136254942476
1769249971776,178,50,44.791995043452104,50.2379382504327,47.90006082019715
1769249971780,175,47,42.686481041754675,47.1756375826879,45.80035347357349
1769249971784,162,34,31.739816350711955,34.49634301563705,34.882915844160664
1769249971788,146,18,15.914882983117682,18.2383278940012,19.099429730192867
1769249971792,130,2,0.6324985972296364,2.394913775616498,3.8517861598319136
1769249971796,120,-8,-9.998673722189883,-7.806308090035216,-6.767255424717652
1769249971800,117,-11,-14.785362774460449,-10.723411894574433,-11.56741103953227
1769249971804,117,-11,-15.13340971912707,-10.59905911972549,-11.94302110166868
1769249971808,118,-10,-13.437500995188708,-9.769851389750418,-10.270173491650878
1769249971812,119,-9,-11.51728449340512,-8.605811852881914,-8.354160059736454
1769249971816,120,-8,-10.059840780917291,-7.863486266620711,-6.880393716639101
1769249971820,121,-7,-9.033023344401624,-6.642066757655425,-5.828072896941332
1769249971824,123,-5,-8.329729624432535,-4.692674475576881,-5.106079792848854
1769249971828,124,-4,-7.998876033371822,-3.756536095193071,-4.772187026852149
1769249971832,123,-5,-8.044653169348821,-4.587365837964073,-4.826191072594627
1769249971836,122,-6,-8.229026260582629,-5.966377066580112,-5.017838880183459
1769249971840,122,-6,-8.18351619618073,-5.477484229535413,-4.970762961196355
1769249971844,124,-4,-7.697125253658707,-3.91791097601496,-4.4767279604246335
1769249971848,124,-4,-6.856989803705098,-3.5379325567518403,-3.630816637926678
1769249971852,125,-3,-5.9294894698669145,-2.804836133061845,-2.7031407780504013
1769249971856,126,-2,-5.142283681393485,-1.8181554687723227,-1.9183179872337095
1769249971860,126,-2,-4.562508884243941,-1.5733686721759457,-1.3386743214247323
1769249971864,127,-1,-4.120522775878184,-0.939949764282377,-0.8932617199809338
1769249971868,127,-1,-3.705093328566234,-0.4179656715169481,-0.4734522210665125
1769249971872,128,0,-3.241561926264084,-0.0582952527802711,-0.0077777740290869
1769249971876,128,0,-2.7175554076162953,0.5306488318192735,0.515352779631951
1769249971880,129,1,-2.1687974022221805,0.9636944029310426,1.0620125056703476
1769249971884,129,1,-1.6474157892884356,1.562025408007734,1.5823976983328256
1769249971888,130,2,-1.1849536666277245,2.042286507510095,2.045783077799723
1769249971892,130,2,-0.7609911340179925,2.455888489597319,2.4715228264320728
1769249971896,131,3,-0.2972360504599645,3.0364164085269203,2.9362122359448417
1769249971900,131,3,0.3059956079773049,3.382363341849993,3.538753712732558
1769249971904,132,4,1.1030093177496525,4.180750639535853,4.334033754121645
1769249971908,133,5,2.0534901617444707,5.356096830654858,5.282829706425714
1769249971912,134,6,3.0388915125119187,6.176241249043874,6.267090282840042
1769249971916,135,7,3.942139250354459,7.261377089193753,7.1693939462976255
1769249971920,136,8,4.728078729215903,8.161434778728502,7.9541142029013425
1769249971924,136,8,5.452816852733569,8.362414113213369,8.67740449782029
1769249971928,137,9,6.191995926397554,9.158541072629912,9.41510518299282
1769249971932,138,10,6.958891701531661,10.38280970959662,10.180168013466703
1769249971936,139,11,7.693978900621291,11.003202231485671,10.912604989764128
1769249971940,139,11,8.328990536139933,11.449194987035584,11.544488882808006
1769249971944,140,12,8.85315855677569,11.99995553023338,12.06599085486321
1769249971948,140,12,9.320174818163618,12.541875664946348,12.531108779932396
1769249971952,141,13,9.798874626163578,12.96493700048223,13.00788375876536
1769249971956,141,13,10.311555652919449,13.410069561053104,13.517629795322234
1769249971960,142,14,10.800905539690278,14.052957791935135,14.002927312189051
1769249971964,142,14,11.142588150893886,14.317052141635603,14.340237521146404
1769249971968,142,14,11.194190035567871,14.28136199366062,14.387917398096215
1769249971972,142,14,10.853059086332504,14.118377601480493,14.043249083319935
1769249971976,141,13,10.091683912875418,13.347602575704022,13.278071728402216
1769249971980,140,12,8.950900874289353,11.99534089615388,12.1328836924793
1769249971984,138,10,7.500380173548626,10.44209054356331,10.677585638925674
1769249971988,137,9,5.8079379232802975,9.064353271923492,8.98029156074093
1769249971992,135,7,3.952832926833357,7.371719195742665,7.120468625485601
1769249971996,133,5,2.063587473283035,5.069932485607039,5.226983634692083
1769249972000,131,3,0.3228248613607793,3.2428507868251155,3.4824735424460913
1769249972004,130,2,-1.0853764524205245,2.2087865450392536,2.0700044251063905
1769249972008,129,1,-2.051646981848956,1.2186980935265417,1.097680232232293
1769249972012,128,0,-2.593520661278289,0.2849311376061275,0.548122165432542
1769249972016,128,0,-2.8550960792585083,0.0725714812352813,0.2788434952422598
1769249972020,128,0,-3.039270082273789,0.2952574650499817,0.0882313197793501
1769249972024,128,0,-3.2889609161081075,0.0568084233523182,-0.166716803679274
1769249972028,127,-1,-3.5920347564999138,-0.5871641939817345,-0.4746403956121993
1769249972032,127,-1,-3.794455901016202,-0.9664680634951164,-0.6822539177624349
1769249972036,127,-1,-3.7198692635119786,-0.6500475833409316,-0.613949016230948
1769249972040,128,0,-3.2972601322168833,-0.0227055541811038,-0.1990735671754822
1769249972044,128,0,-2.6006482234928567,0.3640377243703359,0.4890995746984932
1769249972048,129,1,-1.787462582649325,1.0904885824043693,1.294435524939085
1769249972052,130,2,-0.9907298504194322,2.3362210719170795,2.0841920778582668
1769249972056,131,3,-0.2404229942525042,3.0459082954795114,2.827529017717227
1769249972060,131,3,0.5248236880747483,3.247171557862748,3.585301664437979
1769249972064,132,4,1.3553051992068803,4.087269684075315,4.408213393327754
1769249972068,133,5,2.186921808323713,5.341828161644814,5.232300379499353
1769249972072,134,6,2.8452991705427,6.077197123751814,5.882450498809127
1769249972076,134,6,3.1603982264240686,6.301416027954761,6.188195684944004
1769249972080,134,6,3.076934294350502,5.96297224750718,6.095091752197273
1769249972084,133,5,2.658174000186534,5.350871838360211,5.6675527246438815
1769249972088,133,5,2.002688503710367,5.057247232228821,5.0041269734745635
1769249972092,132,4,1.175438823911615,4.348678764734995,4.168789333290555
1769249972096,131,3,0.2134236622042706,3.053237510505231,3.198011305993474
1769249972100,130,2,-0.8263880544940303,2.1464541978330605,2.1491272146530256
1769249972104,129,1,-1.8442639374239944,1.209567687464869,1.1221795790239577
1769249972108,128,0,-2.730849466071901,0.0800212428116793,0.2261281142565827
1769249972112,127,-1,-3.4333954425887434,-0.559891897247315,-0.4868419189066679
1769249972116,127,-1,-4.00137426346375,-1.1569828158662083,-1.0660515758440412
1769249972120,126,-2,-4.5657611937371865,-1.556044782902585,-1.641391213734837
1769249972124,126,-2,-5.254714846236143,-2.197610543300699,-2.3397914975666065
1769249972128,124,-4,-6.102466886618048,-3.491079125255328,-3.1955648981966807
1769249972132,124,-4,-7.016526021128545,-4.002177911119897,-4.118290588375756
1769249972136,123,-5,-7.82629999522077,-4.737783574694271,-4.939766390834522
1769249972140,122,-6,-8.38500627891732,-5.944870455044176,-5.512887382005548
1769249972144,122,-6,-8.661378820007618,-5.900815590856437,-5.802509763670788
1769249972148,122,-6,-8.74970482448956,-5.728561047564983,-5.89867411301833
1769249972152,122,-6,-8.777175036440914,-5.85546531351979,-5.928711698788582
1769249972156,122,-6,-8.785475590168561,-5.801348281787526,-5.940721372531733
1769249972160,122,-6,-8.70987285175786,-5.9675141918835655,-5.87882834606711
1769249972164,122,-6,-8.495082199133162,-5.869024589455494,-5.690885333221989
1769249972168,122,-6,-8.227299052931112,-5.7929809065146305,-5.454565827165355
1769249972172,122,-6,-8.072880991616213,-5.804006675158831,-5.319930690341684
1769249972176,123,-5,-7.92066304189388,-4.823159481806012,-5.165103668759367
1769249972180,125,-3,-6.928140107513275,-2.9917722948799668,-4.153681546471308
1769249972184,128,0,-3.4704487855644333,0.1503937470865697,-0.680594626030528
1769249972188,134,6,4.07322426432126,6.158061288269895,6.857040530255871
1769249972192,144,16,15.881544844535137,16.26017922885042,18.634616795011635
1769249972196,159,31,29.590671810686818,31.117192640865667,32.29898606388967
1769249972200,173,45,40.679342982658625,45.066524084746554,43.344480817343424
1769249972204,177,49,44.54437052879197,49.04838097659369,47.18147846576301
1769249972208,170,42,39.07113094416458,42.18339352873596,41.70338515815229
1769249972212,156,28,25.93428518364842,28.179597548788728,28.58319339254783
1769249972216,139,11,9.71950923214286,11.125161832436472,12.392868128198826
1769249972220,125,-3,-4.497920842266128,-2.8638533301890927,-1.8122728874024556
1769249972224,117,-11,-13.51617218003296,-10.976176244761511,-10.844192630608022
1769249972228,114,-14,-16.95939605548683,-13.723214532662666,-14.325407696108964
1769249972232,115,-13,-16.571746340265342,-12.9512311355358,-13.9842674723234
1769249972236,116,-12,-14.670018607849649,-11.806113715249287,-12.117980280787489
1769249972240,117,-11,-12.880948599531012,-10.962712288181818,-10.342099113227436
1769249972244,118,-10,-11.775763565543022,-9.89065075551168,-9.231449758547711
1769249972248,119,-9,-11.229892151907746,-8.78413942026406,-8.676374597495265
1769249972252,120,-8,-10.934465338547923,-7.945514130287023,-8.383056938545128
1769249972256,120,-8,-10.662692455274833,-7.816734171677567,-8.12921017426352
1769249972260,120,-8,-10.297582803196144,-8.001702061186116,-7.790175149064353
1769249972264,120,-8,-9.81161106190902,-7.819000069374167,-7.326962512707446
1769249972268,121,-7,-9.273303321494478,-6.862141286201323,-6.8029162457516055
1769249972272,122,-6,-8.808540932689658,-5.890096271975441,-6.3473960520788735
1769249972276,122,-6,-8.484692747446523,-5.881721328615887,-6.033848318563361
1769249972280,122,-6,-8.222656900268774,-5.996257732770908,-5.785295176221206
1769249972284,122,-6,-7.848989978844504,-5.77009971558996,-5.426231985692677
1769249972288,123,-5,-7.247762718587532,-4.978206395200946,-4.838858447355718
1769249972292,124,-4,-6.457443092672764,-3.714047630114172,-4.062433120652425
1769249972296,125,-3,-5.625833591216457,-3.144654994109476,-3.246242641280067
1769249972300,125,-3,-4.891339869745316,-2.704250918266933,-2.52814831570919
1769249972304,126,-2,-4.312120808468915,-2.094478046629638,-1.964196693593414
1769249972308,126,-2,-3.8779887189255025,-1.6658410749701047,-1.543182977838923
1769249972312,127,-1,-3.5468948509814364,-1.0032085568486275,-1.2242838520320736
1769249972316,127,-1,-3.255577763125771,-0.9272394900523772,-0.9461755888456788
1769249972320,127,-1,-2.9189578657489537,-0.8663163738100583,-0.6244840279324819
1769249972324,128,0,-2.4541597106989466,-0.0262507573552872,-0.1755178227458413
1769249972328,128,0,-1.825719975776884,0.347463206104035,0.4374411747978128
1769249972332,129,1,-1.0709733773233072,0.8914338257798482,1.1775857513286074
1769249972336,130,2,-0.2728352628623929,2.2358703540897764,1.9614872654458764
1769249972340,131,3,0.5062637945694406,2.9066373354649233,2.7260133087613982
1769249972344,131,3,1.2704053315410355,3.199952232202231,3.475379439567035
1769249972348,132,4,2.068037959209497,4.1352932341775706,4.2586423393793975
1769249972352,133,5,2.925557609927445,5.04895329786925,5.1020036931784585
1769249972356,134,6,3.810147462573876,6.118590125200773,5.971667038834295
1769249972360,135,7,4.65559431672598,6.967494425488706,6.801214221119363
1769249972364,135,7,5.411562728716959,7.152553462745266,7.541499039926349
1769249972368,136,8,6.0671219575847655,8.164551641445623,8.182616512872592
1769249972372,137,9,6.6474028676833745,8.999923322099667,8.749095457943733
1769249972376,137,9,7.203747851252141,9.174455800715284,9.290953280054032
1769249972380,138,10,7.793235457414376,9.882233556038344,9.86509746442598
1769249972384,138,10,8.438667900521114,10.247494831593174,10.495321057146592
1769249972388,139,11,9.097059017296786,11.034459291598166,11.139084968661791
1769249972392,140,12,9.6772467712714,12.1347988893814,11.704482475366822
1769249972396,140,12,10.095091057418946,12.034830899102705,12.106818458099871
1769249972400,140,12,10.303325975900748,11.983849330192356,12.29951663702206
1769249972404,140,12,10.264696553409683,12.187124272965834,12.246187074548128
1769249972408,140,12,9.91549737764894,11.992088337142707,11.88273073424567
1769249972412,139,11,9.179357922300834,11.276865873178822,11.131640408765511
1769249972416,138,10,8.022065899048416,9.777768977720289,9.958415473458274
1769249972420,136,8,6.4889591357509735,8.335455407832058,8.409313554076945
1769249972424,135,7,4.694861107819257,6.722708653925473,6.600224724279224
1769249972428,132,4,2.7879636307176954,4.514352097773939,4.6795377860713145
1769249972432,131,3,0.9209765020226776,2.707029225115246,2.799132494855897
1769249972436,129,1,-0.7608349170372839,1.366186288607958,1.103105762332624
1769249972440,128,0,-2.1326282128073704,-0.2517131094665159,-0.2841442675158805
1769249972444,126,-2,-3.124567512323785,-1.754676174107892,-1.292215768766087
1769249972448,126,-2,-3.761625152009887,-1.946629827129402,-1.945385232282152
1769249972452,126,-2,-4.157274470852282,-1.9332489741081296,-2.356863623687512
1769249972456,125,-3,-4.441831571871914,-2.880246987193693,-2.656615505771509
1769249972460,125,-3,-4.676382142493345,-3.1324020468607188,-2.9052252581794256
1769249972464,125,-3,-4.817144733714966,-2.79189315106796,-3.059240056017872
1769249972468,125,-3,-4.747617616074905,-3.0131314704202365,-3.0034223894224734
1769249972472,125,-3,-4.357191692123067,-2.8119273577733983,-2.6279521316306163
1769249972476,126,-2,-3.627938531683312,-2.0078838373275256,-1.914395166766608
1769249972480,127,-1,-2.674284516077577,-1.047374315597547,-0.9763167613890626
1769249972484,128,0,-1.6934844054059122,0.1629264080737416,-0.0108483750252748
1769249972488,129,1,-0.8530248063736889,0.9330379924812452,0.8142398822276289
1769249972492,129,1,-0.2051237871000679,1.3263112545074236,1.447019331716628
1769249972496,130,2,0.30149139219459,1.7804827310418343,1.939522651544875
1769249972500,130,2,0.7359606032255578,2.2025305191205646,2.3609042652832155
1769249972504,131,3,1.1164325652201734,2.865464700506635,2.7280713057663313
1769249972508,131,3,1.4149358524126778,3.2202996745497816,3.0118124501475996
1769249972512,131,3,1.6019088666357282,3.0658563151274127,3.182862040268689
1769249972516,131,3,1.6600472098194068,2.9938987423790535,3.2253741942744134
1769249972520,131,3,1.5556224289449645,3.0306568656598456,3.106355420931246
1769249972524,131,3,1.2232780136624328,2.951465689100406,2.7597225251105337
1769249972528,130,2,0.6040123934609318,2.190883974179035,2.1257040070355484
1769249972532,129,1,-0.2961890929431529,1.0451544546504374,1.2108113737797424
1769249972536,128,0,-1.38604225504511,0.0473745727910526,0.1073402059850128
1769249972540,127,-1,-2.5204205968292004,-1.0620827989342616,-1.0397986605388485
1769249972544,126,-2,-3.5519308701529577,-1.9709310991581648,-2.084651394192709
1769249972548,125,-3,-4.37706453448482,-2.8768370090605453,-2.9246099487565314
1769249972552,124,-4,-4.97268315421498,-3.8974292479522887,-3.5358727536949894
1769249972556,124,-4,-5.409325518445618,-4.006730101016476,-3.9876938544805753
1769249972560,124,-4,-5.815390656701402,-4.024622072416485,-4.4078404834719045
1769249972564,123,-5,-6.300358767371875,-5.046470402859638,-4.905969456776676
1769249972568,122,-6,-6.893708593181763,-5.765612777942235,-5.512372501299816
1769249972572,122,-6,-7.543533499073767,-6.057769220046532,-6.176538711341057
1769249972576,121,-7,-8.158838076060395,-6.79858616467817,-6.808186570677587
1769249972580,121,-7,-8.654728610312596,-7.3103435056393185,-7.320313217341621
1769249972584,120,-8,-8.98263610179253,-7.710213558988345,-7.659946326795413
1769249972588,120,-8,-9.14138848017649,-8.159815394093584,-7.824197460436399
1769249972592,120,-8,-9.159928952035571,-7.625363415780652,-7.847733001988197
1769249972596,121,-7,-9.064334072486572,-7.2507383360968,-7.767061708064038
1769249972600,120,-8,-8.880254934256987,-7.890643212849419,-7.612625283905872
1769249972604,120,-8,-8.683452227289642,-8.100225423315045,-7.451344593501409
1769249972608,120,-8,-8.57755663139817,-7.835999424143517,-7.368885625653124
1769249972612,121,-7,-8.434517697314028,-6.890815001989551,-7.22516266949876
1769249972616,123,-5,-7.473516817187452,-5.034888014555802,-6.24523130241613
1769249972620,126,-2,-4.135510459561993,-2.0743095004722836,-2.8907603778409037
1769249972624,132,4,3.235667666337667,4.047804375312454,4.474802166874088
1769249972628,142,14,14.973028470928549,14.027197038496674,16.18004967526813
1769249972632,156,28,28.86348466172926,28.240943209227105,30.02314080984267
1769249972636,171,43,40.354566818116936,42.854796448883434,41.46862249307388
1769249972640,176,48,44.57483919630121,48.012630089784366,45.65914607734071
1769249972644,169,41,39.07151686554889,40.90218578103049,40.149643049089946
1769249972648,154,26,25.383435542773853,26.08264651796066,26.47769107987082
1769249972652,136,8,8.300524952379831,8.141258352658399,9.420709172819532
1769249972656,121,-7,-6.677328039177221,-7.009461835621204,-5.541349091451718
1769249972660,113,-15,-15.973869362182144,-15.00343226673099,-14.848268816312082
1769249972664,111,-17,-19.095240441055164,-17.021435898893554,-18.007237690377284
1769249972668,112,-16,-17.941855845476624,-16.02991847860868,-16.90309610406789
1769249972672,114,-14,-15.131312377437782,-13.79373712068178,-14.131228098243938
1769249972676,116,-12,-12.57695815890498,-12.147564739170624,-11.590950533524351
1769249972680,117,-11,-11.018232595184434,-10.81143928409828,-10.024762356131596
1769249972684,119,-9,-10.35115042498417,-9.216965282055178,-9.345163231046246
1769249972688,119,-9,-10.172587301777735,-8.854345121975232,-9.165739299225944
1769249972692,119,-9,-10.113620682212602,-9.00886178972423,-9.12257165020872
1769249972696,119,-9,-9.929234415236396,-8.970160208035376,-8.962672757984631
1769249972700,119,-9,-9.505242121542016,-8.925613324447282,-8.55999052930051
1769249972704,120,-8,-8.863979533476503,-8.113880543197713,-7.931435714164829
1769249972708,121,-7,-8.125219487291016,-6.936128075404066,-7.200327829211078
1769249972712,122,-6,-7.398548015547024,-6.005060537426799,-6.4825828291717675
1769249972716,122,-6,-6.695504952426679,-5.972357323406354,-5.791627835803938
1769249972720,122,-6,-5.961681814223277,-5.9026207043415955,-5.070188235066029
1769249972724,124,-4,-5.187268194041055,-4.138462390397577,-4.306334920918558
1769249972728,125,-3,-4.448588187856206,-2.883643950212959,-3.5780318959907396
1769249972732,125,-3,-3.828793387007547,-3.1498276374881917,-2.970695860171991
1769249972736,125,-3,-3.3327063955736596,-2.782531954935819,-2.4882976089058024
1769249972740,126,-2,-2.9076113675107127,-2.1316783723659083,-2.0752771387271585
1769249972744,126,-2,-2.526392625637966,-1.8616269363890523,-1.70350842396321
1769249972748,127,-1,-2.210606596863473,-1.1831146115993958,-1.3965809121919452
1769249972752,127,-1,-1.9625957258366251,-0.8731292821714176,-1.1593280811838396
1769249972756,127,-1,-1.7019089294296634,-1.0759052028336145,-0.9113058749546684
1769249972760,127,-1,-1.3023617867036466,-0.8339325013635608,-0.5240645502792916
1769249972764,128,0,-0.7017250609496308,-0.1398801913807354,0.0662093753297219
1769249972768,129,1,0.0423515547056221,1.0755555164454202,0.8008877314859579
1769249972772,130,2,0.8215686846876311,1.8777683107753425,1.569682893915466
1769249972776,130,2,1.5952354395761472,2.11128683035934,2.331650190630594
1769249972780,131,3,2.423871892009796,3.0388789496991717,3.1490150405034893
1769249972784,132,4,3.3861529664769776,3.926329374953299,4.101692720533019
1769249972788,133,5,4.4788626792530035,5.079014682284157,5.185531238617008
1769249972792,135,7,5.606856674667571,6.787171540244911,6.3035135249641705
1769249972796,135,7,6.658913000133243,7.264813795074396,7.344060780540935
1769249972800,136,8,7.57711711286324,7.805871246764142,8.250745668593437
1769249972804,137,9,8.359759077802371,9.232208802963347,9.023108042889266
1769249972808,138,10,9.027935935142043,9.715769465453096,9.681897388028306
1769249972812,138,10,9.61029602506312,10.163869856812536,10.254882021937105
1769249972816,139,11,10.150470323543484,10.89710744174982,10.78569649577937
1769249972820,139,11,10.707131202783671,11.113914969565664,11.333501393180294
1769249972824,140,12,11.33266328918192,12.005102090291595,11.950388448438762
1769249972828,141,13,12.040007399230928,12.85137960586768,12.648260325172672
1769249972832,141,13,12.7693045681145,13.109216857724691,13.366835004956858
1769249972836,142,14,13.367002011053804,13.86651026423685,13.953426523315942
1769249972840,142,14,13.60463001365755,14.198963614414325,14.18077043273134
1769249972844,142,14,13.259427524441204,13.874348719549738,13.826462385703554
1769249972848,141,13,12.228041901199031,13.00194611744885,12.786663203317568
1769249972852,139,11,10.594231334751722,10.958476979630609,11.14456501636289
1769249972856,137,9,8.591987569349133,8.9665306594607,9.13390759513166
1769249972860,135,7,6.4890932160553785,7.159968038474951,7.02244765457652
1769249972864,133,5,4.478473954281391,4.835592264619057,5.003192798820427
1769249972868,131,3,2.6478091125582104,3.127719635240168,3.163843993899739
1769249972872,130,2,1.027702376527054,1.7667611527368785,1.5348136480591157
1769249972876,128,0,-0.3431717939129584,0.1772171363408015,0.1546898480894045
1769249972880,127,-1,-1.4063420013773928,-1.058710311852201,-0.9176174489873984
1769249972884,126,-2,-2.137437451166468,-1.9681251106272637,-1.657214495036703
1769249972888,126,-2,-2.5987353711083396,-2.025772206658179,-2.126594274885703
1769249972892,126,-2,-2.91474160759141,-2.1232764326990825,-2.4509158238445177
1769249972896,125,-3,-3.1803650435720177,-2.910935997166788,-2.725038592412195
1769249972900,125,-3,-3.390067881810283,-3.0003808480585037,-2.9426387452556546
1769249972904,125,-3,-3.452820852175039,-3.023821683719967,-3.01247236870844
1769249972908,125,-3,-3.270198021936483,-2.958444141364126,-2.8370446417449364
1769249972912,126,-2,-2.808614944059018,-2.209293593355231,-2.3836576140399077
1769249972916,126,-2,-2.121255130749291,-1.8001306836585502,-1.705089682075851
1769249972920,127,-1,-1.3187414006372282,-1.1575919205469305,-0.910826600713532
1769249972924,128,0,-0.5100055282775435,0.1601511087451033,-0.1094519465335905
1769249972928,129,1,0.2530833220557362,0.8426942554994015,0.6465114952073576
1769249972932,129,1,0.984791312350453,0.9867336535147206,1.3708616278236172
1769249972936,130,2,1.7123097672302865,2.0236084287872145,2.091064297803497
1769249972940,131,3,2.4069351226995384,2.964553492082562,2.778695938111948
1769249972944,131,3,2.9715940623689687,3.083246279782736,3.3363397042551957
1769249972948,132,4,3.301300903219469,3.8790825057724,3.6584998089757472
1769249972952,132,4,3.356759717611658,3.994356934471776,3.706130556879718
1769249972956,131,3,3.1768103893833493,2.9708401224792156,3.519085203302543
1769249972960,131,3,2.8202687242956035,3.0259173243608863,3.1566023338312523
1769249972964,131,3,2.306470133863485,3.0155995769102746,2.6369484771177585
1769249972968,130,2,1.6204108094536367,1.944622652304974,1.9438558422114895
1769249972972,129,1,0.7627878300345046,0.9576341872492312,1.0784134139279538
1769249972976,128,0,-0.2243506382776288,-0.025816371003448,0.08427152615767
1769249972980,127,-1,-1.2781565156783654,-0.9863315874431532,-0.975089627237724
1769249972984,126,-2,-2.342611621959576,-1.9647406556313816,-2.044818652184664
1769249972988,125,-3,-3.372452225726418,-3.0808511517375976,-3.0810372674729773
1769249972992,124,-4,-4.328426674508126,-3.982068898162176,-4.04425344659697
1769249972996,123,-5,-5.188866345629776,-5.124713683907594,-4.911239810790202
1769249973000,122,-6,-5.966227877938391,-5.8939425674727906,-5.693755621119447
1769249973004,122,-6,-6.691903243126961,-6.053270900726719,-6.424578917344439
1769249973008,121,-7,-7.366321977104896,-6.992728600973621,-7.1059848289372685
1769249973012,120,-8,-7.927423648521545,-8.0344547152756,-7.6755705609715505
1769249973016,120,-8,-8.282841299648306,-8.121380292849032,-8.038005849139253
1769249973020,120,-8,-8.37847010292111,-7.88903879528799,-8.135999467346958
1769249973024,120,-8,-8.238634340207167,-8.074363272746954,-7.993877633676722
1769249973028,120,-8,-7.955013958243906,-7.943421794912365,-7.708631148394349
1769249973032,121,-7,-7.653142449232912,-7.065850894813966,-7.414325242503511
1769249973036,121,-7,-7.468242460673456,-7.139026392759126,-7.25036685950136
1769249973040,120,-8,-7.523385374327314,-7.8575869087056835,-7.332122612259725
1769249973044,120,-8,-7.843542645548408,-8.137528630773634,-7.667225718226736
1769249973048,120,-8,-8.126749612035502,-7.834679032817645,-7.940721766982064
1769249973052,122,-6,-7.445735075493173,-6.17584269100411,-7.230503890750278
1769249973056,125,-3,-4.229070638515262,-3.041837601174831,-3.987292393788626
1769249973060,131,3,3.062004074128586,3.050015937563488,3.3056309834400723
1769249973064,141,13,14.6054313572037,12.939628822343831,14.821614253399837
1769249973068,154,26,28.07265254295723,26.139834513588458,28.246493967352247
1769249973072,168,40,38.8478803837974,39.83213315324123,38.98476196111775
1769249973076,173,45,42.055379104531745,44.95919222330325,42.174357417922366
1769249973080,165,37,35.357475946639696,36.954650295636746,35.48203248508968
1769249973084,148,20,20.57490662723475,20.004248675977312,20.72525045567444
1769249973088,129,1,2.8590745410992935,1.0066263903894752,3.043606733988541
1769249973092,115,-13,-12.052902849833703,-12.9593657886622,-11.844726738876387
1769249973096,108,-20,-20.618383072166647,-20.17306936374988,-20.413215887082018
1769249973100,106,-22,-22.6119531725498,-21.806220186560616,-22.43719958347102
1769249973104,109,-19,-20.26812283934792,-19.264181125322107,-20.13455676179857
1769249973108,112,-16,-16.435028914854584,-15.77295357625948,-16.331032151034492
1769249973112,115,-13,-13.079869067732712,-13.251360192516788,-12.980705040017822
1769249973116,116,-12,-10.873515531410028,-11.852042895049909,-10.757785863389085
1769249973120,118,-10,-9.65577337648712,-10.087420684837667,-9.518026011097849
1769249973124,120,-8,-9.069154850680471,-8.011388231880918,-8.92097664155551
1769249973128,120,-8,-8.839838398221186,-8.02656865978753,-8.698960488218372
1769249973132,119,-9,-8.7352631782551,-9.07617722100951,-8.61132611429305
1769249973136,119,-9,-8.520494520311598,-8.934502227819308,-8.409648444005015
1769249973140,120,-8,-8.054857932600065,-8.032636401232345,-7.946967194188416
1769249973144,121,-7,-7.381835651182589,-7.0114490140046355,-7.271386534473115
1769249973148,122,-6,-6.662549654631772,-6.091377719942728,-6.551950768783356
1769249973152,122,-6,-6.021485455439938,-6.006905884816624,-5.915411748413117
1769249973156,122,-6,-5.4784651076176845,-6.008231730092031,-5.3776567820650225
1769249973160,123,-5,-5.009137062385308,-4.925056547879363,-4.910700276291343
1769249973164,124,-4,-4.61273917286315,-4.1160716751707165,-4.5148043666883755
1769249973168,124,-4,-4.290621902169598,-4.015539240157263,-4.194443009121961
1769249973172,124,-4,-3.990625036975421,-4.071409268565612,-3.898042208506961
1769249973176,124,-4,-3.621490523979472,-3.97781662611619,-3.5321969080333706
1769249973180,125,-3,-3.130537623259945,-2.890749712469881,-3.0428790846958047
1769249973184,126,-2,-2.543767800452244,-2.183494570306575,-2.457240948436026
1769249973188,126,-2,-1.9221846289345033,-1.927176458998014,-1.8378928079535424
1769249973192,127,-1,-1.2987328779550316,-1.1886317127909114,-1.2175981232445203
1769249973196,127,-1,-0.6716530159711214,-0.8649338761270045,-0.5932018286152725
1769249973200,128,0,-0.0442398032043684,0.0273197513733751,0.0325871224509111
1769249973204,129,1,0.5560021040084648,0.8863553866303706,0.6315210343236055
1769249973208,129,1,1.1085177541953106,1.030932979796531,1.182327153885021
1769249973212,130,2,1.641435872984279,1.7942494084273677,1.7135048623896283
1769249973216,130,2,2.231218244996734,2.2041369328554725,2.3023265530377004
1769249973220,131,3,2.9560226311864835,2.9047426497887807,3.026850640312209
1769249973224,132,4,3.8436386287185664,4.098354663921743,3.913629573759017
1769249973228,133,5,4.852331797039841,4.749227657464594,4.919861813302541
1769249973232,134,6,5.88876105429124,6.1093545489018135,5.95276435474787
1769249973236,135,7,6.843505642049163,6.863321276455376,6.904908984957738
1769249973240,135,7,7.63102468765155,7.248073773815082,7.692165894561743
1769249973244,137,9,8.234115454365918,8.799906561804594,8.29652337359865
1769249973248,137,9,8.736676748414622,9.00930964251556,8.799785572929189
1769249973252,137,9,9.298112926129743,8.865921985162558,9.36033515709838
1769249973256,138,10,10.049093114628064,10.084329726844595,10.109564468739018
1769249973260,139,11,10.977237406541558,11.046976492093552,11.036152983345408
1769249973264,140,12,11.90971860106638,12.0123099533952,11.967565488998028
1769249973268,141,13,12.617429969411637,12.81106508845875,12.674532526318922
1769249973272,141,13,12.950347409474638,13.03475312513392,13.007049971097375
1769249973276,141,13,12.889776749568744,12.914330767688588,12.94658814057315
1769249973280,140,12,12.485874673005812,12.219985020927426,12.543096251193006
1769249973284,140,12,11.75413825318496,11.854698521229654,11.811363429429235
1769249973288,139,11,10.63504310095166,10.987062726792605,10.691379315129648
1769249973292,137,9,9.052316920001156,8.838373183237913,9.107341294637848
1769249973296,135,7,7.0134053777516625,7.096003131336078,7.0677436054037255
1769249973300,133,5,4.667671407293904,5.064130422866705,4.72257358266442
1769249973304,130,2,2.277308019534755,1.989020218015691,2.333807423242696
1769249973308,128,0,0.1181825933406934,-0.0802568788125306,0.1764408215171857
1769249973312,127,-1,-1.6227654274406786,-1.1632348877550864,-1.563660946637918
1769249973316,125,-3,-2.8884834174411873,-2.8507720093240194,-2.82991147137483
1769249973320,124,-4,-3.723546270259085,-4.037119439799893,-3.666255716105928
1769249973324,124,-4,-4.217542890233934,-3.841510569001723,-4.161137178786505
1769249973328,124,-4,-4.45747369749323,-4.283235892702938,-4.400776150439398
1769249973332,123,-5,-4.504018050681533,-4.945333183714219,-4.445787562056195
1769249973336,124,-4,-4.390023568283328,-4.088984890527135,-4.329699324982782
1769249973340,124,-4,-4.127434252268214,-3.7908350686575663,-4.065501506289703
1769249973344,124,-4,-3.715183592886102,-4.069341124058027,-3.652685564851807
1769249973348,125,-3,-3.154947169140315,-3.0461925353496424,-3.09257721383369
1769249973352,126,-2,-2.4711514229104123,-2.1922492490822756,-2.4087508309742303
1769249973356,126,-2,-1.7150803027241488,-1.858659493990329,-1.6517405061726609
1769249973360,127,-1,-0.9442983739199126,-0.99705377722667,-0.8790072002785532
1769249973364,128,0,-0.1911725426845993,0.1338044612352864,-0.1236678055186442
1769249973368,129,1,0.5525643007865966,0.7808669130556631,0.6216705600262995
1769249973372,129,1,1.309044724462729,0.9487010442431494,1.3790687087283406
1769249973376,130,2,2.053695425691867,2.009172316184074,2.1244394998595704
1769249973380,131,3,2.6794196947631037,3.1317123107862193,2.7509634156378047
1769249973384,131,3,3.034888421010197,3.029191899472145,3.1074723174388335
1769249973388,131,3,3.011409481395014,2.8974285912042395,3.085594503966339
1769249973392,131,3,2.6072270882532464,2.812495614263285,2.6835573419233993
1769249973396,130,2,1.9267801000559417,2.139406288626793,2.0052516880514406
1769249973400,129,1,1.121043825742361,1.0057335238404363,1.2013977402053089
1769249973404,128,0,0.3061452445593284,0.1817773229687254,0.3885409645309086
1769249973408,128,0,-0.484626682983043,-0.2370554403201432,-0.3998146231882007
1769249973412,127,-1,-1.2778220429625775,-1.0822667601990985,-1.1908246350741618
1769249973416,126,-2,-2.0931993759882985,-1.9484127896419985,-2.0049105834030385
1769249973420,125,-3,-2.9079476580433585,-2.9308259844498847,-2.81897897434688
1769249973424,124,-4,-3.6888043814803058,-3.827448364135951,-3.598693479441673
1769249973428,124,-4,-4.446159555676181,-4.2446706407420285,-4.3535544096704974
1769249973432,123,-5,-5.2369234423130555,-5.069240100422485,-5.140449145209745
1769249973436,122,-6,-6.1031768790604515,-5.968736430541765,-6.002441258792297
1769249973440,121,-7,-7.007991439040655,-6.9165798694426694,-6.9043673484894335
1769249973444,120,-8,-7.836081079081179,-7.797914801228925,-7.732413880509728
1769249973448,120,-8,-8.46627959040489,-8.298211990317697,-8.364580218257368
1769249973452,119,-9,-8.85791087332061,-8.98708661725152,-8.756159346038514
1769249973456,119,-9,-9.074667860955111,-9.084699489825873,-8.966380400536083
1769249973460,119,-9,-9.213309504633257,-8.771899204448603,-9.092344117503506
1769249973464,119,-9,-9.294051387441518,-8.931835815334491,-9.161798297324085
1769249973468,119,-9,-9.23478645216791,-9.162293099463277,-9.102709833151168
1769249973472,119,-9,-8.974870508032012,-9.117415688192576,-8.857607762760551
1769249973476,119,-9,-8.636115779475332,-8.976655107910439,-8.538507358158217
1769249973480,119,-9,-8.472582085367893,-8.859735507976971,-8.381516008554197
1769249973484,120,-8,-8.466293494251824,-7.822464951396857,-8.356818667565474
1769249973488,122,-6,-7.792884947189824,-6.267952383304092,-7.646174520238338
1769249973492,124,-4,-4.735951870035067,-4.006200983922707,-4.55477171015862
1769249973496,130,2,2.4607181006424685,1.8950729249611231,2.6523785431541484
1769249973500,140,12,14.020326811783807,12.297405270065005,14.192981597813224
1769249973504,154,26,27.42248959684543,26.04901406495928,27.55919868974054
1769249973508,167,39,37.8000171657085,38.88204228082944,37.904401626084216
1769249973512,171,43,40.20491242237553,42.83224999633027,40.29740189273306
1769249973516,162,34,32.49023111290437,33.97384635682095,32.59812247263218
1769249973520,144,16,16.819435418693196,16.17419089059694,16.965140483605815
1769249973524,125,-3,-1.3472866654451288,-2.8584100194429887,-1.157311938278457
1769249973528,111,-17,-16.136208479377746,-17.13770948601308,-15.91656557214591
1769249973532,104,-24,-24.085436834270144,-24.036316768427767,-23.86503664720759
1769249973536,104,-24,-25.216496276569217,-24.09497760934294,-25.021837520441633
1769249973540,107,-21,-22.044977186247426,-20.75064209944067,-21.884495097184512
1769249973544,111,-17,-17.586745991101004,-16.996303364367996,-17.447158697598187
1769249973548,114,-14,-13.80043540453693,-14.037268727797178,-13.65673377215996
1769249973552,116,-12,-11.23724638017279,-12.099285075063287,-11.068731871303712
1769249973556,118,-10,-9.638376997298222,-10.047948415946752,-9.4404403180604
1769249973560,120,-8,-8.660276823509427,-7.739896300561813,-8.444978105460166
1769249973564,121,-7,-8.140504134566697,-7.090496725243339,-7.925974909101715
1769249973568,120,-8,-7.9537774449623075,-7.8905274982536415,-7.7503704713881
1769249973572,120,-8,-7.872947041227682,-8.258592152652394,-7.6771809346121564
1769249973576,120,-8,-7.665399075652439,-7.856807209436763,-7.466145434768651
1769249973580,121,-7,-7.270003886608931,-6.903268367586672,-7.059913401760969
1769249973584,122,-6,-6.801621631167842,-5.984056882664859,-6.582423332540282
1769249973588,122,-6,-6.3746107757871435,-5.914244082095466,-6.152433151337233
1769249973592,122,-6,-5.965239591376891,-6.321105444961253,-5.742889427773852
1769249973596,122,-6,-5.464168350797992,-5.677855948984769,-5.239250318141354
1769249973600,124,-4,-4.8253735113583875,-4.186068139267272,-4.594805493197166
1769249973604,124,-4,-4.121750481424199,-3.600250352794852,-3.8856869075838607
1769249973608,125,-3,-3.4640214653879378,-3.3644612630407034,-3.2246272425723945
1769249973612,125,-3,-2.9025702776183797,-2.800076311232919,-2.660628271845545
1769249973616,126,-2,-2.413938986736344,-2.2449710954837023,-2.1681701074463824
1769249973620,126,-2,-1.9510215584485864,-1.5934333730553538,-1.700219322369061
1769249973624,127,-1,-1.4838656476693526,-1.1843665705139943,-1.228386424918975
1769249973628,127,-1,-1.0037545052217594,-0.7790480246277041,-0.7446699369736827
1769249973632,128,0,-0.5115573643498772,-0.3428911244050656,-0.2491184592091799
1769249973636,128,0,-0.0085019771032317,0.2400399403489019,0.2580433787394345
1769249973640,129,1,0.5122397771682268,0.9901947993802636,0.7835844733091013
1769249973644,129,1,1.0717050586086223,1.1742857521351244,1.347668334669169
1769249973648,130,2,1.696324031420569,1.9500973192202211,1.97611375725873
1769249973652,131,3,2.3918520375717747,2.87464164521658,2.674974961628007
1769249973656,131,3,3.1210301903583755,3.060138278903666,3.407834191125816
1769249973660,132,4,3.813142759223318,4.148776865078538,4.104335303054439
1769249973664,133,5,4.412484177844555,5.040630933862935,4.708222469407177
1769249973668,133,5,4.931826009211362,5.10429471799405,5.231705279175826
1769249973672,134,6,5.4546750744504715,5.710174374523697,5.758661028304717
1769249973676,134,6,6.07025565289987,6.244813602250352,6.378990844471015
1769249973680,135,7,6.799514358882698,6.937748685431167,7.113234989385904
1769249973684,136,8,7.587333611477336,8.29282401782342,7.9049570456022495
1769249973688,137,9,8.363193675472852,8.87165495078175,8.683347619177386
1769249973692,137,9,9.095511254298302,8.920669687644121,9.41849020955162
1769249973696,138,10,9.784021624027975,10.07544300365871,10.111861405577969
1769249973700,139,11,10.421303533641384,11.043198287569492,10.7555513870926
1769249973704,139,11,10.982802643153953,11.27166198391716,11.322802387327703
1769249973708,140,12,11.442086444727735,11.87059896050805,11.785826659647624
1769249973712,140,12,11.762617930640753,11.955338259485115,12.108831511966413
1769249973716,140,12,11.859561352147663,12.009988207862673,12.208603288707652
1769249973720,140,12,11.587926673675252,12.113964451957532,11.940884612900277
1769249973724,139,11,10.803270983060044,11.231861868200632,11.160782965005604
1769249973728,138,10,9.463345284763983,9.921595920583275,9.82542228783721
1769249973732,136,8,7.684236958135595,7.930471040327194,8.050814655546855
1769249973736,134,6,5.697857401105549,5.98097146971941,6.069087727138146
1769249973740,132,4,3.74355636935241,4.1911554676810825,4.119560405377442
1769249973744,130,2,1.9773374225690397,2.1377485450000897,2.357896090759759
1769249973748,129,1,0.4562506991314881,1.0944990047752117,0.8408562243585118
1769249973752,128,0,-0.8139944584205865,-0.2781374096304332,-0.4257757930622348
1769249973756,126,-2,-1.8288170141227136,-1.803980724387043,-1.4371218868458908
1769249973760,126,-2,-2.5779609968709924,-2.036622039889977,-2.182814358545489
1769249973764,125,-3,-3.071629715412112,-2.6011324808691167,-2.673041438926029
1769249973768,125,-3,-3.356507120201362,-3.1320894648134248,-2.954039620068422
1769249973772,125,-3,-3.4958302805415427,-3.0573511936453186,-3.0883979644507766
1769249973776,125,-3,-3.5223288754556723,-3.025065829430934,-3.10910160785941
1769249973780,125,-3,-3.3993964813635724,-2.85218589320649,-2.9809977172884947
1769249973784,125,-3,-3.034587755959312,-2.704243548629388,-2.6129128276337164
1769249973788,126,-2,-2.358636501164684,-2.0588905047372785,-1.9351050022661231
1769249973792,127,-1,-1.4172300121044084,-1.0595998085325649,-0.9912695552387104
1769249973796,128,0,-0.3846401551049738,-0.1052861584326851,0.0457904626586525
1769249973800,129,1,0.5420961397655113,1.282108347390248,0.9783663718717688
1769249973804,130,2,1.294563394118574,2.1514093437782105,1.7360905116514216
1769249973808,130,2,1.9823526348620475,2.1419147791192215,2.4276584129307532
1769249973812,131,3,2.763753905606929,2.7222638104098933,3.21221565696474
1769249973816,132,4,3.641645832694181,4.103109633761564,4.093565050952062
1769249973820,133,5,4.389300868320318,5.077368171413589,4.844685474539912
1769249973824,133,5,4.696296839191211,5.3854373399802515,5.154581961551486
1769249973828,133,5,4.406126818265228,4.9616191151030105,4.8672844894718565
1769249973832,132,4,3.630757342702815,3.852920856710156,4.095989864098625
1769249973836,131,3,2.653226017476918,2.995318744298218,3.1240154511330616
1769249973840,130,2,1.7224733611648375,2.143349553389561,2.1989899227624283
1769249973844,129,1,0.918594342294036,1.4110946247390124,1.3993011595121905
1769249973848,129,1,0.1763529055605435,0.945667793199902,0.6593228920813972
1769249973852,128,0,-0.5929789557533534,-0.1291817315090764,-0.1083250973947675
1769249973856,127,-1,-1.4090359597704207,-1.051440551182735,-0.9215458814811784
1769249973860,126,-2,-2.2287761062233127,-1.816281048307156,-1.7369531557074112
1769249973864,125,-3,-3.0142042823055855,-2.569053727236997,-2.5177827086386655
1769249973868,125,-3,-3.7782303216567,-3.0452703413428193,-3.2780392785008177
1769249973872,124,-4,-4.570487979458612,-4.137248499229695,-4.066921636095601
1769249973876,123,-5,-5.428678953426514,-5.0781242824250725,-4.921222786399439
1769249973880,122,-6,-6.334611008713729,-5.789433766988554,-5.823513164303186
1769249973884,121,-7,-7.193958357029839,-6.544028391745622,-6.681366531350491
1769249973888,121,-7,-7.855503285378079,-7.037089674593501,-7.342898576793729
1769249973892,120,-8,-8.185170422789017,-8.135348072008313,-7.669170373567855
1769249973896,120,-8,-8.161442056865795,-8.127100362756007,-7.634517691931642
1769249973900,121,-7,-7.901260228233711,-6.730070403106594,-7.359654770384586
1769249973904,121,-7,-7.574807068075836,-6.5478218969742645,-7.026304341649755
1769249973908,121,-7,-7.306392028543371,-7.018103040552844,-6.767890650862122
1769249973912,121,-7,-7.18260512315822,-7.101128794915997,-6.666484360135542
1769249973916,121,-7,-7.301885375498897,-7.299992386489025,-6.801980870348286
1769249973920,120,-8,-7.63151000973004,-7.434567989017772,-7.122445720380613
1769249973924,122,-6,-7.591505201869653,-5.923431219966002,-7.045278638406895
1769249973928,124,-4,-5.723540759839034,-3.4416193256562853,-5.131748661447291
1769249973932,129,1,-0.0765270074704114,0.1975975158132632,0.5402029681055964
1769249973936,137,9,10.43513425053833,9.420828075601095,11.039171729281373
1769249973940,151,23,24.400247744900284,22.89684168615434,24.96169467878264
1769249973944,165,37,37.41764342600265,37.634214756925815,37.93370696510653
1769249973948,174,46,43.71890692762956,46.38015340909507,44.214601346166184
1769249973952,170,42,39.35264120571569,40.90103402915655,39.86342526472817
1769249973956,155,27,24.914648381186055,28.059525788140036,25.46534407498403
1769249973960,136,8,5.732540818078622,6.764504802889019,6.328253805879486
1769249973964,109,-19,-10.962613727127524,-16.827910752717035,-10.332982962326598
1769249973968,108,-20,-20.078477240778547,-21.20879498420713,-19.43767798675961
1769249973972,111,-17,-21.067418204111156,-16.314710764665456,-20.44571617348949
1769249973976,114,-14,-17.155221321828414,-14.699300155913257,-16.57625820388435
1769249973980,116,-12,-12.4596042267385,-11.661962791043292,-11.920294061856314
1769249973984,117,-11,-9.47651071887626,-10.190058798523546,-8.944230222778174
1769249973988,119,-9,-8.489386122354933,-9.245803070581822,-7.926416455732582
1769249973992,120,-8,-8.550759130708043,-7.781912903253524,-7.944233546532904
1769249973996,121,-7,-8.710005823302367,-7.625475283077906,-8.078525872629083
1769249974000,120,-8,-8.572131068680399,-7.357379250734025,-7.945394358287747
1769249974004,120,-8,-8.181741866617086,-7.768668953609387,-7.575452061821294
1769249974008,120,-8,-7.701914628132489,-7.5727588290799055,-7.110320281446107
1769249974012,122,-6,-7.230955615939691,-6.404168057693041,-6.638545170673671
1769249974016,122,-6,-6.78598952108353,-6.02796246782927,-6.182672544412195
1769249974020,122,-6,-6.347734460213842,-5.821842249778465,-5.733850172847396
1769249974024,122,-6,-5.901878597364465,-5.461791110878384,-5.283212878293024
1769249974028,123,-5,-5.459664736410527,-4.795636270134599,-4.840994110667843
1769249974032,124,-4,-5.047334619310014,-4.222106583099782,-4.429958752649523
1769249974036,124,-4,-4.674695653394109,-4.085243270399025,-4.05722413851303
1769249974040,124,-4,-4.320237384074863,-3.7916701819960608,-3.700281623073851
1769249974044,124,-4,-3.950955587847841,-3.496873196992893,-3.326905906524982
1769249974048,125,-3,-3.5469451935484657,-2.8121004473174405,-2.919268299252869
1769249974052,126,-2,-3.097566943323697,-2.133523066338848,-2.4683202272481175
1769249974056,126,-2,-2.5856589951309332,-2.1342380549315214,-1.956220316560734
1769249974060,126,-2,-1.9977859261656763,-1.6997048386086575,-1.367341466337444
1769249974064,127,-1,-1.3494559173671523,-0.6548973924593087,-0.716264669090175
1769249974068,128,0,-0.6743625464361844,0.3418111786354778,-0.0380349477372057
1769249974072,129,1,0.0236812210185868,0.7525732629030464,0.6620606985990238
1769249974076,129,1,0.7867665805617938,1.0441600535433435,1.4264407729280166
1769249974080,130,2,1.648060180805691,2.153284839685038,2.28929041005194
1769249974084,131,3,2.567993299073258,3.408639219219885,3.2108535266734104
1769249974088,132,4,3.444541188154205,4.31716543278991,4.088331645679856
1769249974092,133,5,4.18844795272156,4.762676623875354,4.833018474181319
1769249974096,133,5,4.781163715296257,5.172428338417976,5.427858496867957
1769249974100,134,6,5.2710407964315555,5.960183142695757,5.921195843203385
1769249974104,134,6,5.736937438488744,6.614692766368774,6.389805465941193
1769249974108,135,7,6.253034972880231,7.059612424474941,6.906365860730984
1769249974112,135,7,6.851097201589516,7.101189952301578,7.503857843823608
1769249974116,136,8,7.487210691387121,7.886518024681715,8.140695140331317
1769249974120,137,9,8.061452876230677,9.250104245344763,8.717393345604485
1769249974124,137,9,8.507240907104517,9.287356822518234,9.165797490770403
1769249974128,137,9,8.86918531966567,9.370217500811844,9.529379540114345
1769249974132,138,10,9.267768241772604,9.857485489477869,9.929119887862504
1769249974136,138,10,9.764500020491653,10.169440573584724,10.427319791696336
1769249974140,139,11,10.259030763149314,10.993245586820375,10.923252030086232
1769249974144,139,11,10.525845809536769,11.490044010060878,11.190462609864555
1769249974148,139,11,10.35863537054463,11.17943065732685,11.022883622792085
1769249974152,138,10,9.6886027699655,10.079748788259268,10.35332991990744
1769249974156,137,9,8.585133363697754,9.010064910153243,9.252146250881909
1769249974160,136,8,7.174505816010525,8.151047533110459,7.844427034424433
1769249974164,134,6,5.573199456471828,6.299047116159099,6.24468938547721
1769249974168,132,4,3.877295851646039,4.3898325381530405,4.548722195451745
1769249974172,131,3,2.1782956692750064,2.8860893101086957,2.849635409094969
1769249974176,129,1,0.5716843205138493,1.2961131184839294,1.244371599096687
1769249974180,128,0,-0.8461345808839975,-0.1803155994007728,-0.1710123720595469
1769249974184,126,-2,-1.9888464596866615,-1.3467282348984924,-1.3119283307812752
1769249974188,126,-2,-2.801184730875644,-1.996972860435716,-2.1243621883569137
1769249974192,125,-3,-3.2860564367501075,-2.669424875933682,-2.610555222120015
1769249974196,125,-3,-3.517208107309801,-3.0818565735992105,-2.842201792108281
1769249974200,125,-3,-3.607594504029014,-2.8446841011909663,-2.9309612445963436
1769249974204,125,-3,-3.629043816749487,-2.640590276800471,-2.9494496561543935
1769249974208,125,-3,-3.539376170197434,-2.7791378548774297,-2.8573266603348415
1769249974212,125,-3,-3.202193888584939,-2.7680953505036805,-2.519223378939227
1769249974216,126,-2,-2.514372048821913,-1.9940830422461535,-1.8317924324927928
1769249974220,127,-1,-1.5382148972357357,-0.8936927441352651,-0.8566601042456066
1769249974224,128,0,-0.506825046217724,0.3765123673648012,0.1737975009089969
1769249974228,129,1,0.319299190657078,1.2020521637166608,0.999994510755434
1769249974232,129,1,0.8292975364005217,1.3121615812899616,1.5117167440738415
1769249974236,130,2,1.129017949998646,1.938918590794932,1.8142730639706064
1769249974240,130,2,1.4479661459411703,2.2022808635868043,2.135572661354207
1769249974244,130,2,1.9564186408130508,2.236706601826204,2.6446381861746513
1769249974248,131,3,2.6241902101801964,3.377314738457765,3.3113974182933266
1769249974252,132,4,3.224555368769666,4.168097842883307,3.910268415531683
1769249974256,132,4,3.4824769545173586,4.129077765991739,4.167380392766489
1769249974260,132,4,3.255288640321021,4.0101127114117485,3.9405174715899194
1769249974264,131,3,2.6115131379217944,3.4053624093601194,3.297916827104909
1769249974268,130,2,1.7591436565455971,2.216017721836325,2.4471108946807427
1769249974272,129,1,0.8925604064184199,1.3776862071879843,1.5821751441755247
1769249974276,129,1,0.0846734750903628,0.9718306259966298,0.7755939655350268
1769249974280,128,0,-0.6981268302822179,0.1544600847192985,-0.006886126199745
1769249974284,127,-1,-1.4983596560539416,-0.7293221574991957,-0.8080536490776464
1769249974288,126,-2,-2.301023229550667,-1.6823153594967426,-1.6122949830189963
1769249974292,125,-3,-3.063825633909384,-2.635295986901145,-2.3761544987188175
1769249974296,125,-3,-3.794834260675753,-3.019294039176594,-3.1067804992221983
1769249974300,124,-4,-4.575254901249261,-3.800068798447197,-3.885308047140323
1769249974304,123,-5,-5.486351277943857,-4.834167885884997,-4.794048327628805
1769249974308,122,-6,-6.504136234619591,-5.538741039608948,-5.810876297047385
1769249974312,121,-7,-7.468464982232208,-6.757817410896639,-6.776975345617054
1769249974316,120,-8,-8.17482912526134,-7.852181331255889,-7.486916971210721
1769249974320,120,-8,-8.52290633263585,-7.94435210989567,-7.837034432232561
1769249974324,120,-8,-8.58782186965916,-7.724902616943312,-7.898955573799633
1769249974328,120,-8,-8.541769366546276,-7.6152702463903825,-7.8446864891306785
1769249974332,120,-8,-8.503305580629709,-7.657996608677458,-7.798040430541795
1769249974336,120,-8,-8.472537843513823,-7.904641145299828,-7.767871245363396
1769249974340,120,-8,-8.422681133551645,-7.89168234887487,-7.732573731205056
1769249974344,120,-8,-8.438109499117038,-7.797099324780133,-7.770293991041461
1769249974348,119,-9,-8.685741357389649,-8.516613728798212,-8.030822620023475
1769249974352,119,-9,-9.091536430139056,-8.730331789193958,-8.425195615067889
1769249974356,121,-7,-8.864281142775948,-6.7734095415212385,-8.164945783349559
1769249974360,124,-4,-6.330460679327907,-4.034394792652969,-5.597744945395609
1769249974364,128,0,0.3991313505882701,0.3515652890110314,1.1428246206156407
1769249974368,138,10,11.939070234015666,10.356966500255089,12.664510824493652
1769249974372,153,25,26.23923071243565,25.440712212623545,26.928380110298015
1769249974376,168,40,38.6374476830783,40.10966037930552,39.290747400197745
1769249974380,175,47,43.88499309085593,47.074813968643966,44.51858411697728
1769249974384,169,41,39.08284376662005,41.2018034398386,39.721705251096026
1769249974388,153,25,25.51918638510841,25.421765300912103,26.187598938247927
1769249974392,135,7,8.066019144934732,7.378823493868312,8.775432770462114
1769249974396,120,-8,-7.446186029394292,-7.770565885664951,-6.70567288771046
1769249974400,111,-17,-17.090740030578576,-16.906948441679265,-16.34671296401615
1769249974404,109,-19,-20.209192869144037,-18.737342746045243,-19.49094289852256
1769249974408,111,-17,-18.77492201192208,-16.628455908655507,-18.09564674548502
1769249974412,113,-15,-15.601832167806696,-14.621331592704616,-14.951331555859378
1769249974416,115,-13,-12.754524289223504,-12.764156934575425,-12.1072810977537
1769249974420,117,-11,-10.995690594381232,-10.90087614997787,-10.328598106437124
1769249974424,118,-10,-10.162933117336127,-9.686260908438989,-9.469895099381818
1769249974428,119,-9,-9.814494022271235,-8.710460968980193,-9.107415503007717
1769249974432,119,-9,-9.615931210899236,-8.504449411684986,-8.912680894569787
1769249974436,119,-9,-9.397379004339417,-8.922221581325392,-8.707813150431464
1769249974440,119,-9,-9.087073960913989,-8.63633378038805,-8.408441830940962
1769249974444,120,-8,-8.674433765129386,-7.974021625154701,-7.997725469224331
1769249974448,120,-8,-8.195670313241502,-7.363293515912614,-7.514854163038025
1769249974452,121,-7,-7.69432749442788,-6.8878928847153285,-7.009941607390174
1769249974456,121,-7,-7.177316426636717,-6.514654337753998,-6.49314562689386
1769249974460,122,-6,-6.620087643895608,-5.998484681867922,-5.938175646498327
1769249974464,122,-6,-6.0180233662448455,-5.606366101937157,-5.337345977287583
1769249974468,123,-5,-5.415691408552101,-4.67888614972367,-4.734785943025553
1769249974472,124,-4,-4.866426406997621,-3.6205076373268703,-4.185794117147918
1769249974476,124,-4,-4.368937429292383,-3.717045346619409,-3.690032491690854
1769249974480,124,-4,-3.871549067270226,-3.809491626375743,-3.1943229044415937
1769249974484,125,-3,-3.3482474671943914,-2.7265033829177248,-2.6712207161350134
1769249974488,126,-2,-2.842358078675809,-1.5782513077668971,-2.164967201763411
1769249974492,126,-2,-2.410043578312858,-1.6935771280218193,-1.7334131015670935
1769249974496,126,-2,-2.0349671855358267,-1.6370675483851942,-1.3600320344786323
1769249974500,127,-1,-1.6254547391016825,-0.8542758424312717,-0.9515421626906552
1769249974504,127,-1,-1.0963127774939898,-0.6624265277734027,-0.4222874864883876
1769249974508,128,0,-0.4389173523737737,0.3683537640815317,0.2349640417604859
1769249974512,129,1,0.2870269243141377,1.3912954522174814,0.9593027642948776
1769249974516,129,1,1.0105183410292953,1.2711176309897367,1.6804784719848698
1769249974520,130,2,1.6880198168865803,2.2889268133398035,2.3566212726487947
1769249974524,131,3,2.305731545502922,3.194016118891154,2.974202030133033
1769249974528,131,3,2.87472988156535,3.5295616697487175,3.5429703134059656
1769249974532,132,4,3.4299892623498813,4.265785269961345,4.097026263278858
1769249974536,132,4,4.012467044466417,4.388580346655328,4.678028644519509
1769249974540,133,5,4.63488164157624,5.22356530732735,5.299624359634777
1769249974544,134,6,5.270518104076085,6.2477661084015566,5.9346748775601075
1769249974548,134,6,5.886149492952038,6.526330244334581,6.5488163142146
1769249974552,135,7,6.480053321668419,7.254438413566891,7.140332977825453
1769249974556,135,7,7.07339090537231,7.46247003935031,7.731751759011506
1769249974560,136,8,7.665875077236366,8.112809520421076,8.323675470754136
1769249974564,137,9,8.219617260688961,9.432785593755169,8.877421792418794
1769249974568,137,9,8.697442382136986,9.326037137029251,9.354467691775447
1769249974572,137,9,9.10153011564933,9.487847624343566,9.756763006399188
1769249974576,138,10,9.45124203012142,10.267663756178372,10.10448038443759
1769249974580,138,10,9.71740022961582,10.265063749309604,10.369033440222186
1769249974584,138,10,9.787494205323048,10.378567304633098,10.437685700236608
1769249974588,138,10,9.50716744095417,10.33098933896152,10.15553272666219
1769249974592,137,9,8.770264152913835,9.571401998771634,9.416375094724362
1769249974596,136,8,7.584881030479488,8.143406652848938,8.228987245063003
1769249974600,134,6,6.065767011046791,6.43402592302519,6.708713182440462
1769249974604,133,5,4.37325762542992,5.219294591380585,5.015558759379905
1769249974608,131,3,2.659159340732774,3.5180370890122186,3.300518817011576
1769249974612,129,1,1.0484978523527535,1.4317781249721162,1.688364281437293
1769249974616,128,0,-0.3612553354603829,0.2610902869426894,0.2767868936801112
1769249974620,127,-1,-1.5034751658790384,-0.6273674707527213,-0.8676886629327041
1769249974624,126,-2,-2.3483933836137227,-1.745422950962666,-1.7155264277379605
1769249974628,125,-3,-2.9089451435244063,-2.4395792388007997,-2.2791965918261536
1769249974632,125,-3,-3.239535265571688,-2.613096409171599,-2.6121448964285747
1769249974636,125,-3,-3.409257331613652,-2.6772454662108975,-2.7830910997092064
1769249974640,125,-3,-3.4488070233195653,-2.666983600023422,-2.8233112176314012
1769249974644,125,-3,-3.3143233199164457,-2.7038617007766046,-2.689820260993218
1769249974648,125,-3,-2.9179414752752892,-2.427739077001102,-2.295313269338903
1769249974652,126,-2,-2.2163970842061045,-1.6089651769738924,-1.5967064103115265
1769249974656,127,-1,-1.2849170485187336,-0.6828315783325962,-0.6690113004054785
1769249974660,128,0,-0.3063371234997196,0.3882407974564144,0.3057100980610063
1769249974664,129,1,0.5258740354413522,1.2118437706803775,1.1350629504456844
1769249974668,129,1,1.1222165205446737,1.7485791850721586,1.7300377674077452
1769249974672,130,2,1.546761036835786,2.17594491868533,2.153983193393722
1769249974676,130,2,1.9641949404757817,2.5836732116768095,2.5702247238905347
1769249974680,131,3,2.514610026600112,3.124816703931673,3.1181308945954607
1769249974684,131,3,3.1967269619784044,3.4855408589490224,3.796755857159777
1769249974688,132,4,3.844500923442748,4.5562502076539815,4.440645653479086
1769249974692,133,5,4.2230577784493555,5.3185404413617245,4.815219737667808
1769249974696,132,4,4.173415336541838,4.53311562922231,4.7618834075509255
1769249974700,132,4,3.6906376367981135,4.103623018175046,4.276274949293564
1769249974704,131,3,2.887422412322011,3.605780260680663,3.4711209256838256
1769249974708,130,2,1.902145141845031,2.411358807640976,2.4840727179677007
1769249974712,129,1,0.8378601483146206,1.5187691900969713,1.417529895504479
1769249974716,128,0,-0.2396134223302128,0.3574223408252153,0.3372270493966613
1769249974720,127,-1,-1.2759144673329978,-0.7520196651584641,-0.702467645955418
1769249974724,126,-2,-2.2173947783025443,-1.4486914134618454,-1.6481420240688531
1769249974728,125,-3,-3.0333496554115253,-2.574707178515757,-2.4689960317115465
1769249974732,124,-4,-3.752314509523538,-3.405371154973426,-3.1926375174459167
1769249974736,124,-4,-4.4667560287189225,-3.7415981905835753,-3.910417689870962
1769249974740,123,-5,-5.27462901574801,-4.629113045578196,-4.720178528198907
1769249974744,122,-6,-6.18764258486453,-5.5420867681923145,-5.634907735187895
1769249974748,121,-7,-7.087929139379743,-6.4667280752506,-6.538570275785309
1769249974752,120,-8,-7.788942537414725,-7.46711128080735,-7.245508216337587
1769249974756,120,-8,-8.16426506931997,-7.685078049141237,-7.628016703230657
1769249974760,120,-8,-8.238600019408057,-7.647996672216697,-7.707461473995182
1769249974764,120,-8,-8.161930997778029,-7.522947416105344,-7.630743175768312
1769249974768,120,-8,-8.09120608524028,-7.417734053320819,-7.555718938639014
1769249974772,120,-8,-8.088154428967929,-7.539705481898808,-7.550870042317399
1769249974776,120,-8,-8.127693659622782,-7.54672626321581,-7.599829332432941
1769249974780,120,-8,-8.20522710032454,-7.835629078193424,-7.699858770516647
1769249974784,119,-9,-8.410497990907974,-8.243687784902894,-7.929847656888006
1769249974788,119,-9,-8.79859923346142,-8.715262457467702,-8.327087279011797
1769249974792,119,-9,-9.015275942702724,-8.184837431044489,-8.52810220737562
1769249974796,122,-6,-7.920939670581163,-5.892453407458056,-7.403561122967995
1769249974800,125,-3,-3.712137846986,-2.496064190476874,-3.1733830359303745
1769249974804,132,4,5.0979118597440305,4.510711524500213,5.631424857864394
1769249974808,144,16,18.168890508655007,16.49451808809168,18.671120370683145
1769249974812,159,31,32.40851432037042,31.72545058089427,32.86872258554135
1769249974816,173,45,42.75219778332904,45.121645354770784,43.17746616188302
1769249974820,175,47,44.62460781950047,47.57775764827101,45.03451215722822
1769249974824,165,37,36.597504572663766,37.33667302697555,37.01666292561422
1769249974828,148,20,21.360752870158095,20.673507420661977,21.808891920432806
1769249974832,131,3,4.287794890728764,3.522527408913514,4.768375955275661
1769249974836,118,-10,-9.389568745173642,-9.608983324877084,-8.893769537705733
1769249974840,111,-17,-16.93644857243576,-16.509585633902052,-16.45410391142524
1769249974844,110,-18,-18.707399845862152,-17.537292302821513,-18.261199781113817
1769249974848,112,-16,-17.012111869538657,-15.415289894182392,-16.606047262078313
1769249974852,114,-14,-14.339325021861637,-13.47704357936293,-13.958454269760734
1769249974856,115,-13,-12.15724510342685,-12.60077075837391,-11.778251818997898
1769249974860,116,-12,-10.798680423324177,-11.448946515657902,-10.404317083239103
1769249974864,118,-10,-10.042508831957468,-9.564358374416198,-9.631631046554048
1769249974868,119,-9,-9.651192215181592,-8.36369159032804,-9.237618865077955
1769249974872,119,-9,-9.488924452452675,-8.575992071727653,-9.08942408340316
1769249974876,118,-10,-9.40586283298122,-9.463277922254196,-9.027158183921976
1769249974880,118,-10,-9.22353988436666,-9.54068442015024,-8.85977507311275
1769249974884,119,-9,-8.866286658979174,-8.410244190961208,-8.507875767434344
1769249974888,120,-8,-8.425999773833937,-7.511148592478165,-8.06930103095199
1769249974892,120,-8,-8.041538469793958,-7.435105824482595,-7.68971753232725
1769249974896,120,-8,-7.730023339383501,-7.589383887771962,-7.386787558280543
1769249974900,120,-8,-7.3649647063223345,-7.369380570710013,-7.030181083744086
1769249974904,121,-7,-6.808839713460505,-6.537941217968444,-6.480563222435077
1769249974908,122,-6,-6.040567420691773,-5.363477657211959,-5.719147035718608
1769249974912,123,-5,-5.161545651496974,-4.580963404854713,-4.84973444074293
1769249974916,123,-5,-4.3166862895771825,-4.42480282900128,-4.016028371268344
1769249974920,124,-4,-3.6230659877334577,-3.502368969578663,-3.331833724119548
1769249974924,125,-3,-3.1315332804517286,-2.3569720004466386,-2.846767782998479
1769249974928,125,-3,-2.799908204012802,-2.5369190532467405,-2.52062309850937
1769249974932,125,-3,-2.49310216707476,-2.386476420625081,-2.221056967233876
1769249974936,126,-2,-2.0477466860593676,-1.6105147354098284,-1.78563072361366
1769249974940,126,-2,-1.382053856207066,-1.2829540288406331,-1.1312217736523
1769249974944,127,-1,-0.5663146206553942,-0.5269067379122916,-0.3260394144321723
1769249974948,128,0,0.2205716463632911,0.6475896205906486,0.4518600924964482
1769249974952,129,1,0.8349294112873502,1.4513324426567236,1.0579239815939598
1769249974956,129,1,1.2977928077652048,1.5460471836686942,1.5120437630140835
1769249974960,129,1,1.7833449311203409,1.6145373832415228,1.9882842260661369
1769249974964,130,2,2.461779845884964,2.5861680391580704,2.657199153860009
1769249974968,131,3,3.3397654187999555,3.5933120869212827,3.5251781264193216
1769249974972,132,4,4.250132778994742,4.4921460456336275,4.424422841972711
1769249974976,133,5,4.996658110491488,5.544786843947119,5.159035282961759
1769249974980,133,5,5.514664675594056,5.634467577898593,5.66585494326303
1769249974984,133,5,5.907497632337113,5.587897744585632,6.049261390537406
1769249974988,134,6,6.349350081895,6.640644562501239,6.482417508403661
1769249974992,135,7,6.960246821898931,7.431671433743745,7.0832912531896275
1769249974996,135,7,7.747321117589616,7.66301899971229,7.858523763685426
1769249975000,136,8,8.620606603865829,8.521329633961228,8.719583102035887
1769249975004,137,9,9.448593497300177,9.744682741120409,9.535974026198597
1769249975008,138,10,10.122509194681006,10.496395576616605,10.19830761517184
1769249975012,138,10,10.589358777602564,10.597995812994313,10.652974200817855
1769249975016,138,10,10.819217727328653,10.526948029416516,10.87074149974674
1769249975020,138,10,10.740607760060602,10.673171723648824,10.780773203944406
1769249975024,138,10,10.235923503483216,10.631720445631526,10.264561891397864
1769249975028,137,9,9.229681803712328,9.623524336367948,9.245421027883769
1769249975032,135,7,7.779455123125995,7.504275306045868,7.781488642861928
1769249975036,133,5,6.062208858275874,5.636749915665269,6.051423745508894
1769249975040,132,4,4.27129953566559,4.584088648966681,4.248962095587477
1769249975044,130,2,2.5357690854422983,2.7594973794782582,2.50174349752632
1769249975048,128,0,0.9238902428416276,0.5221618879468535,0.8767394629619565
1769249975052,127,-1,-0.5112334983826474,-0.3594983778994312,-0.572835266946484
1769249975056,126,-2,-1.711305629784596,-1.485879595138608,-1.787611661654548
1769249975060,124,-4,-2.6362620445059437,-3.281970921869309,-2.7266063962247276
1769249975064,124,-4,-3.2980738283582616,-3.3255601995363984,-3.401856016374478
1769249975068,124,-4,-3.7563433267799606,-3.3687452072715525,-3.8738478210925056
1769249975072,123,-5,-4.067054568970372,-4.439699241100134,-4.199032123194406
1769249975076,123,-5,-4.235404090611111,-4.3875023395917285,-4.382001008160883
1769249975080,123,-5,-4.221880346170918,-4.364707508080015,-4.382606506850704
1769249975084,123,-5,-3.988131536507318,-4.219661160590034,-4.162921640211721
1769249975088,124,-4,-3.5346273000956785,-3.417108360188627,-3.7243346530081505
1769249975092,124,-4,-2.9076534979822855,-3.381536971032598,-3.1132975424557334
1769249975096,125,-3,-2.1839268751578444,-2.4230556899342197,-2.405822158680848
1769249975100,126,-2,-1.443361084672189,-1.3036521157257992,-1.6811148335847284
1769249975104,126,-2,-0.7387861686547667,-1.27939961956588,-0.9918742227009064
1769249975108,127,-1,-0.0795174342091598,-0.2782241721676701,-0.3477975764695133
1769249975112,128,0,0.5578087545946874,0.4737253134023631,0.2739689058701389
1769249975116,128,0,1.1958633614641316,0.7544240787292096,0.8959341041174751
1769249975120,129,1,1.818961079950677,1.5334855864490091,1.5026337994623469
1769249975124,129,1,2.3553762206335938,1.9049158646197943,2.022345513043582
1769249975128,130,2,2.698653648237373,2.5962335846407765,2.348191220024974
1769249975132,130,2,2.757034302829971,2.604471144171945,2.3883857772636556
1769249975136,129,1,2.490242687508741,1.6670463465626713,2.103543767080673
1769249975140,129,1,1.9105182948863293,1.593725570310502,1.5067394886915917
1769249975144,128,0,1.0716398783837136,0.9304550832189626,0.6514330215096997
1769249975148,127,-1,0.0721131615126591,-0.4494716266311322,-0.3648033732500355
1769249975152,126,-2,-0.947764025974819,-1.2575879952506337,-1.4019835588390208
1769249975156,125,-3,-1.8496984368662637,-2.4944924834309883,-2.3215875132006145
1769249975160,124,-4,-2.567636689478063,-3.22989425094792,-3.0578644506486405
1769249975164,124,-4,-3.1463982098770593,-3.177074437667605,-3.6564135574330976
1769249975168,123,-5,-3.7146972243911014,-4.356228184654393,-4.245732532607352
1769249975172,122,-6,-4.416226001337045,-5.250111590626447,-4.967724986174792
1769249975176,122,-6,-5.340648832376977,-5.553115587139024,-5.910380496865157
1769249975180,120,-8,-6.474546147604069,-7.119347298572302,-7.060767408639942
1769249975184,119,-9,-7.68498457921872,-8.28192303850476,-8.288527361584721
1769249975188,118,-10,-8.756597453234656,-9.181714971847075,-9.380689405729544
1769249975192,117,-11,-9.4831605395012,-10.40519649249332,-10.1307002609811
1769249975196,117,-11,-9.768482657791507,-10.382783248923024,-10.438730061748426
1769249975200,117,-11,-9.668563858687044,-10.268159160116582,-10.356436684328402
1769249975204,117,-11,-9.342044851761491,-10.117821096262157,-10.042024253957951
1769249975208,118,-10,-8.950399051795628,-9.26866405955226,-9.663147920381544
1769249975212,118,-10,-8.59855098228891,-9.31599549789379,-9.33430029553532
1769249975216,118,-10,-8.369976974030553,-9.44825843717904,-9.14314542053786
1769249975220,118,-10,-8.392786966930657,-9.204269264731815,-9.209319710450192
1769249975224,117,-11,-8.77228179262988,-10.130024784398485,-9.620140897540356
1769249975228,117,-11,-9.277622003139,-10.23666942856492,-10.131847218931252
1769249975232,119,-9,-8.927018692969773,-8.261120224792709,-9.768591619611744
1769249975236,122,-6,-5.929121401295863,-5.559102713243649,-6.761600994877099
1769249975240,127,-1,1.5454303049557714,-0.0036838963279759,0.6973927391857186
1769249975244,138,10,13.85785880693,10.663855327500697,12.966127250237
1769249975248,153,25,28.639824902390473,26.04679809187909,27.689722486202644
1769249975252,169,41,41.063230945858926,41.51050602109358,40.05809960230733
1769249975256,175,47,46.012976421717326,47.62462820491,44.96939644029917
1769249975260,168,40,40.95594279836218,40.8514037630031,39.89693123117365
1769249975264,153,25,27.509699655716823,25.67503005360976,26.456579459921883
1769249975268,135,7,10.567029637329584,8.125025172682587,9.52882051529101
1769249975272,121,-7,-4.377299690156654,-6.574514189314659,-5.411350410784085
1769249975276,112,-16,-13.857974618030312,-15.093537880219197,-14.914441154088063
1769249975280,110,-18,-17.465016563436155,-17.362008760821883,-18.57086181097875
1769249975284,110,-18,-17.02171193638187,-17.102604670948892,-18.18765317183967
1769249975288,111,-17,-14.90054716137007,-16.09483266019851,-16.115305719544654
1769249975292,113,-15,-12.736985898765704,-14.419630651079276,-13.97650332093661
1769249975296,114,-14,-11.134987169402372,-13.126021574106126,-12.379522903858865
1769249975300,116,-12,-10.082629724564075,-11.346441612853432,-11.328990822258252
1769249975304,117,-11,-9.434192190331087,-10.032372919957496,-10.694709005899234
1769249975308,117,-11,-9.082982797312804,-10.230573069937774,-10.3736620281689
1769249975312,117,-11,-8.904141950217824,-10.245491039097049,-10.232555342932557
1769249975316,117,-11,-8.722536435399993,-10.244587251388609,-10.084748831252108
1769249975320,117,-11,-8.400023855059956,-10.188090835796183,-9.787203893663897
1769249975324,118,-10,-7.92488396871229,-9.12679161708806,-9.332287936293328
1769249975328,119,-9,-7.377133945025936,-8.175672546279285,-8.807268028597761
1769249975332,119,-9,-6.809952561353103,-8.263723670840502,-8.268103427833783
1769249975336,119,-9,-6.198388915630581,-8.18898983262276,-7.686434403480046
1769249975340,120,-8,-5.512444707879117,-7.190779803766679,-7.027879284004245
1769249975344,121,-7,-4.799829765919435,-6.086692691699204,-6.3400150097377015
1769249975348,122,-6,-4.153360205996291,-5.231921626373139,-5.718857768241379
1769249975352,122,-6,-3.602775644796799,-5.162795556569552,-5.195938319025911
1769249975356,122,-6,-3.077854915970585,-5.2757549418351175,-4.699613175310921
1769249975360,123,-5,-2.494189223057538,-4.03488878609715,-4.143593065182402
1769249975364,124,-4,-1.8548217417688069,-3.2239648220158172,-3.5311621910900826
1769249975368,124,-4,-1.249977921341961,-3.093646205349498,-2.953977972520274
1769249975372,125,-3,-0.7647767935732179,-2.247499182899705,-2.4975272271220517
1769249975376,125,-3,-0.3971045979354806,-2.1938012518111094,-2.1586504101850363
1769249975380,125,-3,-0.0578927785769559,-2.0402194566140155,-1.8472750577336892
1769249975384,126,-2,0.3609815868615635,-1.214525034162314,-1.4554884055440294
1769249975388,126,-2,0.9174947252946356,-1.076066039059997,-0.9265129627631792
1769249975392,127,-1,1.6004888383159397,-0.2372720671859509,-0.272537436567319
1769249975396,128,0,2.360339646853422,0.8229403223716973,0.4569892655782688
1769249975400,128,0,3.1490000436726175,1.0014911244768168,1.2153752257730184
1769249975404,129,1,3.9352890176144246,1.7419691272600346,1.972615918198533
1769249975408,130,2,4.702619979700527,3.0186084246251186,2.7117991573994433
1769249975412,131,3,5.455105316851093,3.657984391401587,3.4357731534393983
1769249975416,131,3,6.225200436810313,3.992727977185808,4.176501799925288
1769249975420,132,4,7.05288120961756,4.866961284021265,4.9744703779216035
1769249975424,133,5,7.944404817366536,5.882269563897916,5.836074546572037
1769249975428,134,6,8.857814017277327,6.929597280704228,6.71881006969722
1769249975432,135,7,9.73152606943816,7.735297298852026,7.561294329839286
1769249975436,135,7,10.517381123081709,7.994463222634856,8.316808930084203
1769249975440,136,8,11.185990870607387,8.873967779326984,8.956761831139165
1769249975444,137,9,11.7206385167413,9.907027358386864,9.46302521325996
1769249975448,137,9,12.118126712175668,9.930086522358696,9.83026726365765
1769249975452,137,9,12.372805117917348,9.749936852838818,10.05263392441152
1769249975456,137,9,12.427329126422126,10.040857888408851,10.074638848166432
1769249975460,137,9,12.14142724753012,9.845189368408072,9.757566544026124
1769249975464,136,8,11.347945168672323,8.953661042777096,8.93391049188746
1769249975468,135,7,9.980097873829155,7.937537683034667,7.535561929716549
1769249975472,133,5,8.15959545972266,5.720388175501352,5.6838528404387985
1769249975476,130,2,6.151342080971116,3.171028110331884,3.644533623003467
1769249975480,129,1,4.215847530108538,1.680620908175108,1.6785664520873065
1769249975484,127,-1,2.493807090528213,0.2029082014593091,-0.0742026078503581
1769249975488,126,-2,1.0153358201409188,-1.3158866102713311,-1.5844543001144356
1769249975492,124,-4,-0.2132726774716806,-2.98053312670646,-2.8452655500900423
1769249975496,123,-5,-1.1585716611163783,-4.075854321582717,-3.82215619380361
1769249975500,123,-5,-1.7875940009297402,-4.106560700915789,-4.482485221149313
1769249975504,122,-6,-2.1238385019881263,-4.885148857744988,-4.850986734904909
1769249975508,122,-6,-2.268916608586897,-5.318018519480034,-5.029446185831645
1769249975512,122,-6,-2.3671202303281516,-4.8010616656453236,-5.160741375882344
1769249975516,122,-6,-2.5263130298076923,-5.368022951187004,-5.351288092825455
1769249975520,121,-7,-2.738271238936046,-5.679736566788489,-5.593039840582469
1769249975524,122,-6,-2.858500403504377,-5.351889945771986,-5.7432807208709376
1769249975528,121,-7,-2.680988966955862,-5.789667993228383,-5.597696067969032
1769249975532,122,-6,-2.0781866255004564,-5.282479126565021,-5.028735138458854
1769249975536,123,-5,-1.112472680453628,-3.8931291722653407,-4.097218784367116
1769249975540,124,-4,-0.0224192580714837,-3.075983754595951,-3.040226510793505
1769249975544,125,-3,0.9261117730545868,-1.9898601572586392,-2.1235019511554896
1769249975548,126,-2,1.6161798421883522,-1.043688945384564,-1.464907761516331
1769249975552,126,-2,2.135100814705236,-1.0780756042571502,-0.9777030661030572
1769249975556,126,-2,2.6523589638202294,-0.996393712727344,-0.4922101530099176
1769249975560,127,-1,3.2259698004893713,-0.0121359028910661,0.0494575490339403
1769249975564,128,0,3.721477696517824,1.0381835621911557,0.5120017849086973
1769249975568,128,0,3.9186409581266104,0.9202968317197804,0.6750885927902024
1769249975572,127,-1,3.691426259573606,0.0397944030915793,0.4141473114216127
1769249975576,127,-1,3.092428872992275,-0.1578361802647814,-0.2169004668155945
1769249975580,126,-2,2.292452093417161,-0.7575077462347459,-1.0477730390721105
1769249975584,125,-3,1.454643224719984,-2.258760739395741,-1.9168499663835352
1769249975588,124,-4,0.644092079169682,-2.654466056391316,-2.759729886807226
1769249975592,124,-4,-0.17626269085107,-3.4062609707009717,-3.613068774324346
1769249975596,122,-6,-1.0752128524880278,-4.682443810292681,-4.545181831969607
1769249975600,122,-6,-2.071137837645125,-5.181101809448748,-5.5743908442202255
1769249975604,120,-8,-3.1080835316027606,-6.866066749615218,-6.644628014688985
1769249975608,119,-9,-4.1055795118269405,-7.90806968565912,-7.674825887127501
1769249975612,119,-9,-5.025720717126256,-8.217370415496474,-8.626388590381188
1769249975616,117,-11,-5.8850817185749,-9.759053680696146,-9.516014856795614
1769249975620,117,-11,-6.699124917697603,-10.16926936503924,-10.3606363801558
1769249975624,116,-12,-7.420606700884161,-10.759347373999384,-11.115062923726542
1769249975628,115,-13,-7.946228914088216,-12.037350752841244,-11.676574167971776
1769249975632,115,-13,-8.201944814680814,-12.010079165171993,-11.968606832969485
1769249975636,115,-13,-8.230268256309534,-11.963037206934514,-12.029092922398116
1769249975640,115,-13,-8.18224245617812,-11.95650480890708,-12.006384572180808
1769249975644,115,-13,-8.20137877024256,-11.890593601670052,-12.047386060515484
1769249975648,115,-13,-8.302300466108786,-11.914185922406604,-12.17597650548725
1769249975652,115,-13,-8.374855272433432,-12.059045672079256,-12.29002006977804
1769249975656,114,-14,-8.33365233113972,-12.929301310328324,-12.301632205043576
1769249975660,114,-14,-8.245779447379931,-12.951514749993256,-12.263203783889796
1769249975664,115,-13,-8.186221592414162,-11.847756941736035,-12.233101230650613
1769249975668,116,-12,-7.776876552563184,-10.924129052165672,-11.829382917487044
1769249975672,118,-10,-5.791067339713929,-8.99184601080049,-9.840026058311686
1769249975676,123,-5,-0.4365947285536919,-4.0054252104118575,-4.496172668927006
1769249975680,131,3,9.4342881828792,4.184615302430374,5.335620843273977
1769249975684,143,15,22.79665854279172,16.027518937882455,18.63503755625176
1769249975688,158,30,35.87181368947418,31.306549993518345,31.64119015614864
1769249975692,169,41,43.43089076981072,41.77028086698583,39.1435087904114
1769249975696,166,38,41.55512298649745,39.24642905957498,37.234340563689344
1769249975700,153,25,30.074659952737132,25.87091761375173,25.74576117878393
1769249975704,134,6,12.897347661545089,7.322659698280166,8.576720906600594
1769249975708,117,-11,-4.067186122737246,-9.941752844800812,-8.382016672010478
1769249975712,106,-22,-15.95594759149823,-20.86069020257638,-20.287371907962235
1769249975716,102,-26,-21.00317035446838,-24.978377126216696,-25.381238487484065
1769249975720,103,-25,-20.545849751786772,-23.86316767554679,-24.989889637871432
1769249975724,106,-22,-17.422561417281862,-20.94421027395343,-21.929907418370657
1769249975728,108,-20,-14.110812284529237,-18.712736122589483,-18.660176196688653
1769249975732,110,-18,-11.764621921346782,-17.060251947318385,-16.330785769732827
1769249975736,111,-17,-10.393900770022851,-15.707805365480665,-14.963459703078232
1769249975740,113,-15,-9.590791090515554,-14.111350820841045,-14.168817343040208
1769249975744,114,-14,-9.059767561864753,-12.678437258938832,-13.66337091184991
1769249975748,114,-14,-8.683543423985112,-12.968806874135366,-13.327581925595869
1769249975752,113,-15,-8.371155887315076,-13.78145924944678,-13.057796628177975
1769249975756,114,-14,-8.006467386631371,-12.881515464627007,-12.726842202893296
1769249975760,115,-13,-7.53090552295141,-11.955689157089925,-12.275429566859115
1769249975764,115,-13,-6.991864264019715,-11.759522917922702,-11.758207710839084
1769249975768,116,-12,-6.4730407131593255,-10.924045231775636,-11.265244080547788
1769249975772,116,-12,-5.998295583099242,-10.740864995666946,-10.820448390126696
1769249975776,116,-12,-5.524646828581081,-10.910480151431791,-10.376767648195608
1769249975780,117,-11,-5.015204036098376,-9.86312566249395,-9.894705197680963
1769249975784,118,-10,-4.4856765159591365,-8.847951519911131,-9.391031555508189
1769249975788,118,-10,-3.968253676749886,-8.809737336034738,-8.899944393883843
1769249975792,118,-10,-3.454279157972947,-8.805313187257152,-8.412881741794038
1769249975796,119,-9,-2.895360693749797,-7.817050751700584,-7.880391678912355
1769249975800,120,-8,-2.2529162871270394,-6.909569626164487,-7.263792604309224
1769249975804,120,-8,-1.5325435822858244,-6.790195234739435,-6.569501189391659
1769249975808,121,-7,-0.7772503776238515,-5.827652135056406,-5.8407234134945725
1769249975812,122,-6,-0.0399532179421244,-4.7595035036512785,-5.12947910709841
1769249975816,122,-6,0.6416374798951949,-4.805708317169676,-4.472610555764855
1769249975820,123,-5,1.2604570624745333,-3.922077710820816,-3.8775922458930574
1769249975824,124,-4,1.8457424845811148,-2.6970662322313097,-3.3165426570342893
1769249975828,124,-4,2.4508348706308674,-2.966121094529659,-2.7366479663558483
1769249975832,124,-4,3.1140431566287523,-2.498780387798728,-2.098570198704736
1769249975836,126,-2,3.819010684871756,-1.1017340736925392,-1.417582868512988
1769249975840,126,-2,4.508462568544881,-0.5399283972725972,-0.7511674803202006
1769249975844,127,-1,5.153876891805253,-0.0795471949113282,-0.1286205429275786
1769249975848,127,-1,5.806073653646142,0.4515719862742271,0.5007051324260972
1769249975852,128,0,6.563527828899971,1.137775503094538,1.2355259397426337
1769249975856,129,1,7.486026024883074,2.2561214561109666,2.1355854410138946
1769249975860,130,2,8.536131066203989,3.2014508885695183,3.1632014316609096
1769249975864,131,3,9.598555659231504,4.134420501607852,4.203103863060501
1769249975868,132,4,10.558303301055709,5.351259929879421,5.140668175532535
1769249975872,133,5,11.373405732025637,6.188904589347409,5.934508152616422
1769249975876,133,5,12.082125495266332,6.308945579101132,6.623319962519579
1769249975880,134,6,12.738792895589258,7.1305103056879435,7.260991097003495
1769249975884,135,7,13.337826502893138,8.27586135911342,7.840517214517248
1769249975888,135,7,13.790376277923595,8.224296729634577,8.272061353505972
1769249975892,135,7,13.956520429244923,8.345376891786932,8.41653131084069
1769249975896,135,7,13.692991645795566,8.21785066588573,8.132533698772933
1769249975900,134,6,12.89574065389153,7.193696241057242,7.316861399090536
1769249975904,133,5,11.540527719305596,6.32230982325466,5.944380125419574
1769249975908,131,3,9.708130151805886,4.130321266214236,4.094511421114497
1769249975912,128,0,7.564811010240434,1.5516873803495574,1.9330496751314543
1769249975916,127,-1,5.299794405592301,-0.0214401562606036,-0.3502638333123142
1769249975920,124,-4,3.065568187108677,-2.4793928827826983,-2.602022322011943
1769249975924,122,-6,0.9623589249188522,-5.010511573098717,-4.721396562204664
1769249975928,120,-8,-0.9351875912998509,-6.464280418290025,-6.634202748532536
1769249975932,119,-9,-2.5441583587698133,-7.839594753107615,-8.258829916637048
1769249975936,117,-11,-3.776472547886142,-9.59902747211296,-9.507817188505095
1769249975940,116,-12,-4.5968860502617375,-10.845591373845137,-10.345107518064044
1769249975944,116,-12,-5.084268362435816,-10.650068285199422,-10.84852404595722
1769249975948,116,-12,-5.406982458266791,-10.731321823495364,-11.186194422633717
1769249975952,115,-13,-5.700654300300313,-11.601748992242596,-11.493725873821106
1769249975956,115,-13,-5.9534384499959785,-11.738972489125306,-11.75898575656908
1769249975960,115,-13,-6.009182878425747,-11.739861082049927,-11.826138415287442
1769249975964,115,-13,-5.688925598037505,-11.672610079556584,-11.51769324649056
1769249975968,116,-12,-4.934239671123839,-10.704448416773918,-10.776609240017402
1769249975972,117,-11,-3.871062386654039,-9.558089492286744,-9.72840024413507
1769249975976,118,-10,-2.7557640107523023,-8.767818243825605,-8.627310047836438
1769249975980,119,-9,-1.8376573679386663,-7.6818430513408895,-7.7209322142334
1769249975984,120,-8,-1.2176202066509938,-6.6940860485609415,-7.1104361610628875
1769249975988,120,-8,-0.793166608256864,-6.66388356222967,-6.694788495131503
1769249975992,120,-8,-0.3422600123980828,-6.530601152229686,-6.25278248234586
1769249975996,121,-7,0.2994664539208201,-5.78266055448492,-5.620123629385677
1769249976000,122,-6,1.1047967944936672,-4.634598394335805,-4.824369334845536
1769249976004,123,-5,1.874267383212616,-3.69157173359443,-4.065458236772888
1769249976008,123,-5,2.377937326899871,-3.6545506030399224,-3.5727292840815075
1769249976012,123,-5,2.485217597911733,-3.4624101245308143,-3.4750759016669495
1769249976016,123,-5,2.1903813644388688,-3.8618521086160262,-3.777113951428938
1769249976020,122,-6,1.5601582650020287,-4.514295111562211,-4.412773361630519
1769249976024,122,-6,0.6849440904520037,-4.766032032515829,-5.293191206369934
1769249976028,120,-8,-0.3313596119954702,-6.555726019216225,-6.3152088088180065
1769249976032,119,-9,-1.3720111615165136,-7.489325202481876,-7.361819144478396
1769249976036,119,-9,-2.3309098832150164,-7.841945270254591,-8.3266795630531
1769249976040,117,-11,-3.153087791502198,-9.486441777764345,-9.15494889258221
1769249976044,117,-11,-3.86431333958605,-9.768775663428215,-9.872235638071029
1769249976048,116,-12,-4.5633698132633995,-10.483088412274933,-10.57660215149104
1769249976052,115,-13,-5.364727341051161,-11.550696128626967,-11.381757636216037
1769249976056,115,-13,-6.314378674046058,-11.73567205927999,-12.333408477527255
1769249976060,113,-15,-7.339466066762085,-13.5799838057391,-13.359167031722183
1769249976064,112,-16,-8.281006994729427,-14.64205040692918,-14.301584187159458
1769249976068,112,-16,-8.989587465807862,-14.53406691639344,-15.01330202742255
1769249976072,111,-17,-9.408618081889632,-15.49394168691494,-15.438008141592066
1769249976076,111,-17,-9.590420821790422,-15.74208007096568,-15.624570035644172
1769249976080,111,-17,-9.647857699172896,-15.549911565041691,-15.68067484572541
1769249976084,111,-17,-9.675576539221325,-15.65196443745618,-15.699642671958776
1769249976088,111,-17,-9.687838976670372,-15.454964272153308,-15.701956869829871
1769249976092,111,-17,-9.62780675053201,-15.545893936121283,-15.64132246750179
1769249976096,111,-17,-9.465436133273862,-15.674051714481411,-15.49319340553923
1769249976100,111,-17,-9.300093314547428,-15.558869425798028,-15.349358331458776
1769249976104,111,-17,-9.29998148475267,-15.658395099743885,-15.359697143064468
1769249976108,111,-17,-9.373157142866726,-15.338326345132728,-15.417397579751192
1769249976112,113,-15,-8.72175288619728,-13.681249042887073,-14.728216341727345
1769249976116,116,-12,-5.733559398022278,-10.453350917698971,-11.70238867685602
1769249976120,122,-6,1.316881337749468,-4.795851219815942,-4.638425484271722
1769249976124,131,3,12.81359408726914,4.664354206148551,6.841187120097457
1769249976128,145,17,26.501587409221873,18.36447818613349,20.495074967335498
1769249976132,159,31,37.63953625240217,32.68159422880064,31.6028101305911
1769249976136,165,37,41.10384677748472,38.195832682595935,35.0564894076591
1769249976140,156,28,34.35086090339006,29.536278498334948,28.31925622677745
1769249976144,139,11,19.17245262803214,12.302770284902731,13.180174784164665
1769249976148,120,-8,0.8977693043626953,-6.287963692802897,-5.045617341340451
1769249976152,105,-23,-14.440285317370687,-21.586531733274978,-20.346564791979045
1769249976156,97,-31,-23.057115589101205,-29.38263777620827,-28.954432998298643
1769249976160,97,-31,-24.696864190078188,-29.754653886025302,-30.61318938989134
1769249976164,100,-28,-21.78981147487624,-26.387914009635168,-27.736173650574624
1769249976168,104,-24,-17.452015434789637,-22.626735379120493,-23.416705979222503
1769249976172,106,-22,-13.805264445095103,-20.279418508073903,-19.761944966483178
1769249976176,108,-20,-11.50206679956796,-18.616738427222497,-17.426438171674555
1769249976180,110,-18,-10.269825961946612,-16.470088066593597,-16.15452659196662
1769249976184,112,-16,-9.655190351102062,-14.614174233360098,-15.512554624417708
1769249976188,112,-16,-9.360158356645645,-14.441341008213664,-15.210267921925444
1769249976192,111,-17,-9.193720803019726,-15.403799080787008,-15.047643185165096
1769249976196,111,-17,-8.993332573626981,-15.482053424892504,-14.84635450525703
1769249976200,112,-16,-8.6786899924459,-14.47956564218188,-14.518316691460338
1769249976204,113,-15,-8.299990148451297,-13.620478650125598,-14.118652997147812
1769249976208,113,-15,-7.94850711652304,-13.37419826635704,-13.74801831163202
1769249976212,113,-15,-7.620686286800219,-13.496027796243537,-13.406423622889776
1769249976216,113,-15,-7.210651786924229,-13.316593965506325,-12.984213029096418
1769249976220,114,-14,-6.641709136814687,-12.595832874991082,-12.400049536595256
1769249976224,115,-13,-5.968943968060184,-11.466674086816552,-11.709099843152234
1769249976228,116,-12,-5.323218161053168,-10.485424096948083,-11.04574604644845
1769249976232,116,-12,-4.7665697552174215,-10.398415618839108,-10.473692516808748
1769249976236,116,-12,-4.237589422638859,-10.33864210134821,-9.929193544197036
1769249976240,117,-11,-3.648459222267108,-9.55629999574428,-9.321530483956725
1769249976244,118,-10,-3.0037210688977676,-8.43671193599116,-8.65582836028086
1769249976248,119,-9,-2.3900229686895096,-7.498314099928011,-8.021966390052881
1769249976252,119,-9,-1.8579841988136776,-7.361104680701192,-7.472076799644375
1769249976256,119,-9,-1.3530530230230178,-7.327295839123755,-6.949560472610058
1769249976260,120,-8,-0.7789225423341493,-6.5498390898453485,-6.355441391470749
1769249976264,121,-7,-0.103423140784534,-5.369129329073948,-5.657613359491399
1769249976268,122,-6,0.6259480638310508,-4.559365174439507,-4.905745129423096
1769249976272,122,-6,1.3621670065470952,-4.240409582705158,-4.148105200544043
1769249976276,123,-5,2.1251428158395025,-3.4376540377790805,-3.3640201493177404
1769249976280,124,-4,2.9789844631638713,-2.392326949633337,-2.488175173667528
1769249976284,125,-3,3.954428345557994,-1.4895567029604226,-1.4895931035555523
1769249976288,126,-2,4.999655396163912,-0.3929826601930211,-0.420626911623386
1769249976292,127,-1,6.004467538458796,0.6271205748272695,0.6079361881847292
1769249976296,128,0,6.877291420097103,1.724072976415981,1.5043275555142328
1769249976300,129,1,7.611091576969523,2.475123066522473,2.2620482466126393
1769249976304,129,1,8.279468642613793,2.691127143765953,2.9557161885878
1769249976308,130,2,8.966297317817775,3.461939694814161,3.6694169854979326
1769249976312,131,3,9.700718414834451,4.8137684052078,4.430939512402233
1769249976316,132,4,10.457817129398329,5.567555525843111,5.213935409168976
1769249976320,132,4,11.198916191758356,5.6630691247768725,5.9802159382348865
1769249976324,133,5,11.884154451684452,6.554719399278223,6.691781570435359
1769249976328,134,6,12.449671885428778,7.622397934155017,7.285604906906305
1769249976332,134,6,12.800269231808636,7.69794869829665,7.665447124560947
1769249976336,134,6,12.839091528490592,7.718516480196826,7.733011871069337
1769249976340,134,6,12.499931705600757,7.539164610248991,7.421763126151324
1769249976344,133,5,11.749615111340756,6.733393003339463,6.699377636399859
1769249976348,132,4,10.571229162880169,5.449045757183356,5.549994969767635
1769249976352,130,2,8.964753327662425,3.952667038596704,3.97385203292763
1769249976356,129,1,6.983704596527613,2.4477656655585616,2.023900890751981
1769249976360,126,-2,4.777240850226017,-0.0904526920629971,-0.1511688435348603
1769249976364,124,-4,2.579231324970823,-2.6670798655081533,-2.317420160592686
1769249976368,122,-6,0.6278983410566714,-4.049823640307772,-4.236689171713938
1769249976372,121,-7,-0.9282997645241466,-5.560914433095125,-5.761020408984365
1769249976376,119,-9,-2.0712997912319815,-6.9631207131000465,-6.872508199224335
1769249976380,119,-9,-2.886333538974264,-7.64583367082184,-7.655792705297406
1769249976384,118,-10,-3.4960407255659884,-8.098879055846803,-8.232995733229092
1769249976388,118,-10,-3.9917545316915906,-8.542348739472693,-8.69562029622885
1769249976392,117,-11,-4.395085961638788,-9.09560064920482,-9.065516278483347
1769249976396,117,-11,-4.669369910827727,-9.302936091995376,-9.30561393061994
1769249976400,117,-11,-4.764017426540718,-9.365578713623696,-9.364776704371002
1769249976404,117,-11,-4.645741273640491,-9.237550608205607,-9.210134890404452
1769249976408,118,-10,-4.28998396321556,-8.482166382219582,-8.818496004026358
1769249976412,118,-10,-3.660839416415387,-8.002587480410313,-8.154738076786884
1769249976416,119,-9,-2.7324692759875715,-7.458477304783869,-7.192113308645692
1769249976420,120,-8,-1.5540135275296094,-6.0865023238374905,-5.9782284163154635
1769249976424,122,-6,-0.2838360736312653,-4.545119983380767,-4.6712313952471725
1769249976428,123,-5,0.8740060528353107,-3.110722303243241,-3.476280261842236
1769249976432,124,-4,1.791634689593634,-2.323755832699409,-2.521762018234173
1769249976436,124,-4,2.4792656940792375,-2.1378675987139197,-1.7965967524122917
1769249976440,125,-3,3.0270831380353367,-1.3175058337533914,-1.209967617396356
1769249976444,126,-2,3.494684974388626,-0.3516984181278779,-0.7032014164312952
1769249976448,126,-2,3.8550228871015344,-0.1914230909521133,-0.3046333116088138
1769249976452,126,-2,4.0208083484628645,-0.2556903571118409,-0.101397974768973
1769249976456,126,-2,3.904646517079645,-0.1197308797658225,-0.1796528931576038
1769249976460,126,-2,3.466389888763714,-0.3473430280297012,-0.5788706033744293
1769249976464,125,-3,2.7325156583058137,-1.2681160611098208,-1.272850210854617
1769249976468,124,-4,1.7833746432041937,-2.2387783446099094,-2.1815761194532115
1769249976472,123,-5,0.7153466034684235,-3.1562349207465603,-3.2086567867056184
1769249976476,122,-6,-0.3944547841592234,-4.185192376349886,-4.277117517026292
1769249976480,121,-7,-1.4958331061492802,-5.250580083863822,-5.337400858509205
1769249976484,120,-8,-2.55169190819839,-6.336612373409018,-6.3530766565721475
1769249976488,119,-9,-3.530515047776448,-7.1190268447941065,-7.292421891338034
1769249976492,118,-10,-4.419617178459799,-8.226362411694497,-8.141378959505055
1769249976496,117,-11,-5.240692570308674,-9.095735452911931,-8.920154218421205
1769249976500,117,-11,-6.033466619133089,-9.28083893095859,-9.66851924702578
1769249976504,116,-12,-6.802890114606874,-10.316433932399056,-10.3934305654164
1769249976508,115,-13,-7.479025726625586,-11.042158281554103,-11.027364122625691
1769249976512,115,-13,-7.947645914441986,-11.306407804643412,-11.456614528177171
1769249976516,114,-14,-8.143496330802837,-11.938484252785049,-11.613446189701028
1769249976520,115,-13,-8.121862268096057,-11.447726369955234,-11.548942652705971
1769249976524,115,-13,-8.027667009057357,-11.076642660618097,-11.405492300368616
1769249976528,115,-13,-7.977118014115696,-11.263496114170206,-11.30185114700526
1769249976532,115,-13,-7.965630158332086,-11.02402515710981,-11.241296437679226
1769249976536,115,-13,-7.907491131924241,-11.18989802859054,-11.146145299886625
1769249976540,115,-13,-7.78285769950958,-11.198617705868571,-10.996471611203514
1769249976544,115,-13,-7.720657400774275,-11.229412569999846,-10.909087975079377
1769249976548,115,-13,-7.824816413675938,-11.13669691569561,-10.970762898401766
1769249976552,116,-12,-7.74003745706565,-10.017797799470106,-10.818648834615871
1769249976556,118,-10,-6.283567255603459,-8.248491981616315,-9.28131398150301
1769249976560,122,-6,-1.6703327642019177,-4.042496921436259,-4.597286563467998
1769249976564,130,2,7.396788591939355,3.621035003150211,4.512639654737033
1769249976568,141,13,20.23439368241044,15.083336335900428,17.365912690166475
1769249976572,156,28,33.4319422311042,29.834459731205833,30.56903222726011
1769249976576,167,39,41.85961406503169,40.89070128910208,39.01273310879631
1769249976580,167,39,41.25262242397858,40.87385368979822,38.44597931333504
1769249976584,155,27,30.805355397144684,28.624311690786815,28.0661325765953
1769249976588,136,8,13.919613133391742,10.123396682356487,11.26605661134141
1769249976592,119,-9,-3.5167966947779536,-7.232461322474336,-6.08536091760217
1769249976596,106,-22,-16.185163763448248,-19.887749207050497,-18.689719218695917
1769249976600,102,-26,-21.743326319298102,-24.24231138225267,-24.21417134285199
1769249976604,104,-24,-21.236856150526833,-22.133476306245477,-23.695921850608432
1769249976608,107,-21,-17.63826551940592,-19.1280260261113,-20.08635025209866
1769249976612,110,-18,-13.797358353507024,-16.016463299456312,-16.214706079350037
1769249976616,112,-16,-11.165802830361734,-14.07437894760754,-13.52552522606272
1769249976620,113,-15,-9.793109588932705,-13.04548242907979,-12.078455479143631
1769249976624,115,-13,-9.104548984666112,-11.200354464157812,-11.31828301783584
1769249976628,116,-12,-8.626916848183878,-10.094564641962007,-10.786483835639569
1769249976632,116,-12,-8.210254221264854,-9.986369199015556,-10.333057595887633
1769249976636,116,-12,-7.8709889154884065,-10.124167065201428,-9.961913932765436
1769249976640,116,-12,-7.60881040851745,-9.898190923481302,-9.659622219926645
1769249976644,117,-11,-7.370366914636805,-9.308231141106546,-9.369554482463784
1769249976648,117,-11,-7.091278701346057,-8.934442992954766,-9.034081785411416
1769249976652,118,-10,-6.712129906826029,-8.138085322782587,-8.602127502492195
1769249976656,118,-10,-6.176258398189823,-7.95703802191249,-8.019241425483187
1769249976660,118,-10,-5.467994826470774,-7.982976554921578,-7.265991014448565
1769249976664,120,-8,-4.669063995683526,-6.209599075718823,-6.420316646729862
1769249976668,121,-7,-3.939162683128489,-4.929486385553066,-5.641858415382454
1769249976672,121,-7,-3.401214806251943,-5.201729070042529,-5.055174833292916
1769249976676,121,-7,-3.041687174131278,-4.795015666123044,-4.646817822208093
1769249976680,122,-6,-2.7302406546075138,-4.149536023686812,-4.28534899574506
1769249976684,122,-6,-2.3283981400317924,-3.971867617704304,-3.832495731708907
1769249976688,123,-5,-1.7749641292684093,-3.0972920207151304,-3.229092213306205
1769249976692,124,-4,-1.088539902622104,-2.065184864079994,-2.495332539567454
1769249976696,124,-4,-0.3244110221480338,-1.8260674539193096,-1.6854581810929108
1769249976700,125,-3,0.4511009703908688,-1.1665001141106883,-0.8628692099853028
1769249976704,126,-2,1.1647974785288184,0.1846323853844724,-0.0990635574443659
1769249976708,127,-1,1.7639174051909778,0.7233949291792472,0.5518837025108945
1769249976712,127,-1,2.270995448974417,1.17771292945196,1.109744488449608
1769249976716,128,0,2.799665538308431,1.9641490673574435,1.6868523111396834
1769249976720,128,0,3.478201899738761,2.035501490535996,2.4126042353664303
1769249976724,129,1,4.3299462099454304,3.109008279363887,3.312166853932484
1769249976728,131,3,5.232237069991726,4.762063725724628,4.263402240026077
1769249976732,131,3,6.015593515101191,5.257158715998437,5.0961511999877445
1769249976736,132,4,6.61917979672027,5.83502551294213,5.749143649247283
1769249976740,132,4,7.150804922558558,6.2628772829651735,6.330376177194116
1769249976744,133,5,7.792874243641554,6.874816004674892,7.022137989645072
1769249976748,134,6,8.644401577616565,8.083856212205607,7.922682238063008
1769249976752,135,7,9.638568086541008,8.957914000395453,8.964753320386407
1769249976756,136,8,10.59546058186587,10.164713180332097,9.969179386022292
1769249976760,137,9,11.3530647315181,10.981721312978893,10.775267295251023
1769249976764,137,9,11.866511216632482,11.168410027603516,11.338560557052
1769249976768,138,10,12.204120255893583,11.86753349952469,11.726312748296197
1769249976772,138,10,12.452848259615468,12.18708198095311,12.024148904695014
1769249976776,138,10,12.607696899192725,11.99402860591479,12.226996297451148
1769249976780,138,10,12.529011146431554,12.160445327232583,12.196112903057852
1769249976784,138,10,12.01167623931742,12.06489928308005,11.726764832452035
1769249976788,137,9,10.928950578026434,10.971450333517604,10.691821928944057
1769249976792,135,7,9.336945562751549,9.175434060307602,9.14755793243618
1769249976796,133,5,7.443854275803895,6.986281849466018,7.303192051254033
1769249976800,131,3,5.4754949181614965,5.23625047698668,5.384808993672058
1769249976804,130,2,3.5727138832612506,4.019247202281741,3.5318117572588803
1769249976808,128,0,1.806137280019244,2.064567516647306,1.8132994258336597
1769249976812,126,-2,0.2492051583320227,0.1534619206215883,0.303070929573316
1769249976816,125,-3,-1.0048931763010929,-1.0028140812982371,-0.9040808023632988
1769249976820,124,-4,-1.904601888923299,-1.708254797745059,-1.7559397121943832
1769249976824,124,-4,-2.4982899833942884,-2.0294845468918785,-2.301696061891214
1769249976828,123,-5,-2.9169636431577066,-2.7915319473929503,-2.6732183568560224
1769249976832,123,-5,-3.2910838337288624,-2.9756348035486595,-3.0007611332548056
1769249976836,123,-5,-3.6653543328452822,-2.8333925933051525,-3.3280319672116025
1769249976840,122,-6,-3.971550816341555,-3.86392326160645,-3.585963941189567
1769249976844,122,-6,-4.076855801306744,-3.832807896426806,-3.642014132969064
1769249976848,123,-5,-3.8687090755117577,-2.908301937761632,-3.385233710408623
1769249976852,123,-5,-3.315066165345292,-2.834783358998214,-2.785177463787834
1769249976856,124,-4,-2.475917618838934,-1.9383516866190984,-1.901603639825594
1769249976860,125,-3,-1.482759133966075,-0.7255875841486974,-0.8639702213883336
1769249976864,126,-2,-0.4982232932066641,0.0376762572374955,0.1668957825123955
1769249976868,127,-1,0.3453899204993433,1.3262450776121493,1.0585342442162782
1769249976872,128,0,1.008470960744568,1.9372826046968323,1.7696069459701174
1769249976876,128,0,1.5576372449066214,2.3278223426501015,2.3653627367790473
1769249976880,129,1,2.098636910720131,3.048739164958736,2.951807859635429
1769249976884,129,1,2.666927771772415,3.2540931137039166,3.5655234375489657
1769249976888,130,2,3.1705295129370485,4.247802990730123,4.114845795015961
1769249976892,131,3,3.4473541769716354,4.979414833616852,4.436949629051613
1769249976896,130,2,3.3893334569972806,4.395394366716676,4.423442833577319
1769249976900,130,2,3.013328145502878,3.9233412517236417,4.092066851197737
1769249976904,129,1,2.4174883017168747,3.478230618539183,3.5418318170258
1769249976908,129,1,1.6862018106634045,3.0407935265872745,2.8566887220815893
1769249976912,128,0,0.845995102084182,2.2658469225286866,2.0620636971482016
1769249976916,127,-1,-0.103125169293972,1.1359759185454583,1.157543443574781
1769249976920,126,-2,-1.137957651252138,0.1893563036446277,0.1666112035598592
1769249976924,125,-3,-2.2000461093973867,-0.7398025554985681,-0.8520938178455078
1769249976928,124,-4,-3.2261048626301703,-1.6896386662310734,-1.8351410661160523
1769249976932,123,-5,-4.189044889251895,-2.949355944417632,-2.754722536622671
1769249976936,122,-6,-5.11050722011501,-3.59692959238318,-3.631593131242674
1769249976940,122,-6,-6.023770457708688,-4.094994698445659,-4.499237881167619
1769249976944,120,-8,-6.911445378479444,-5.383635279664445,-5.341953811307949
1769249976948,120,-8,-7.682018670010715,-6.021643066343003,-6.070193848801843
1769249976952,119,-9,-8.225038390326688,-6.533211958847867,-6.573853744797505
1769249976956,119,-9,-8.505028278051132,-6.992705399004119,-6.815025600569748
1769249976960,119,-9,-8.603365871825323,-6.695445820669047,-6.870838108816075
1769249976964,119,-9,-8.655593705115729,-6.703502157736387,-6.8742087767064275
1769249976968,119,-9,-8.731090860316533,-6.712686249718791,-6.8973606177426605
1769249976972,119,-9,-8.772962885393575,-6.698674934429868,-6.891963196244963
1769249976976,119,-9,-8.680006969051444,-6.89366434986696,-6.765264072753723
1769249976980,119,-9,-8.474842252796634,-6.697782169515064,-6.539311189724339
1769249976984,119,-9,-8.36605132660042,-6.714273174128521,-6.409396636905905
1769249976988,119,-9,-8.516845755398721,-6.6227231760829675,-6.520697814976347
1769249976992,120,-8,-8.551290777458451,-5.7163943819441725,-6.490079562715421
1769249976996,122,-6,-7.169929264798787,-3.8883112946376697,-5.0308567380280955
1769249977000,126,-2,-2.426739291203164,0.3673275454568836,-0.2217891176431563
1769249977004,134,6,7.079872070447342,8.22465030314586,9.321174118518684
1769249977008,146,18,20.62856819004039,20.53495758541259,22.879051423378264
1769249977012,162,34,34.630436754766315,36.198140377998826,36.88082528088935
1769249977016,174,46,43.74235015672248,48.18409490392031,46.00318698680106
1769249977020,174,46,43.58120024391664,48.36204194329899,45.87552628592664
1769249977024,162,34,33.35645160845992,36.09733457646468,35.710176393079074
1769249977028,143,15,16.53000980917225,17.77974213477905,18.96121856974778
1769249977032,126,-2,-1.0240465412966824,-0.1320288739325015,1.484518410821658
1769249977036,113,-15,-14.08531368641707,-12.27797230790539,-11.520514204634011
1769249977040,109,-19,-20.36941765126663,-17.08930501241432,-17.77961976065143
1769249977044,108,-20,-20.80963166945717,-17.3657502359613,-18.217065862397256
1769249977048,111,-17,-18.11350779346738,-14.6818090001875,-15.518231327864934
1769249977052,114,-14,-14.872741848907411,-11.807607745730436,-12.254979693121353
1769249977056,115,-13,-12.44084185184578,-10.452576390882118,-9.77563918600779
1769249977060,117,-11,-10.95729871532862,-8.999736542157873,-8.230238753775337
1769249977064,118,-10,-10.038337323248491,-7.253306200906639,-7.252517008865162
1769249977068,120,-8,-9.38118271053371,-5.872898020470745,-6.552358520956642
1769249977072,120,-8,-8.900042466963491,-5.552754929730854,-6.044223588598788
1769249977076,120,-8,-8.55718151483844,-5.678448506724532,-5.679787289856449
1769249977080,120,-8,-8.248954489956184,-5.7530155139744945,-5.343439609487868
1769249977084,120,-8,-7.87821352529806,-5.3536760072283585,-4.934299489283296
1769249977088,122,-6,-7.4544774238543505,-3.846172986916919,-4.467787718130884
1769249977092,122,-6,-7.0533839576631525,-3.4505914427936704,-4.027594737515709
1769249977096,122,-6,-6.68716490808257,-3.852892273400258,-3.628100564748548
1769249977100,122,-6,-6.264788397953799,-3.430787543196544,-3.174218817060832
1769249977104,123,-5,-5.6940958700966195,-2.6885447723442057,-2.569754167243208
1769249977108,124,-4,-4.991923687051795,-1.445343339865497,-1.8319107361605251
1769249977112,125,-3,-4.2702864180602,-0.8216958491380133,-1.075593763098481
1769249977116,125,-3,-3.627492903423942,-0.4771159246851693,-0.4002444912536957
1769249977120,126,-2,-3.0724516870022227,0.3005922980499913,0.1869365359683481
1769249977124,126,-2,-2.548220069846256,0.553785772169324,0.7448545103889215
1769249977128,127,-1,-2.003796771199572,1.4207425271180545,1.3242217550357451
1769249977132,128,0,-1.4298194857369262,2.2766556117630374,1.9322763170340536
1769249977136,128,0,-0.8387666288171555,2.5266699450912102,2.5550942950950604
1769249977140,129,1,-0.239387837053992,3.292178870674886,3.1847271766434737
1769249977144,129,1,0.3541853248840452,3.651594636232418,3.808982578846984
1769249977148,130,2,0.9035910551374882,4.314480947891716,4.3903245484510665
1769249977152,131,3,1.3687737897256218,5.448861498391726,4.887877889231497
1769249977156,131,3,1.7667214752571645,5.3849541183220495,5.317748598975093
1769249977160,131,3,2.19688139668547,5.4735729639585715,5.779511580791099
1769249977164,132,4,2.7885238500293257,6.535883781410468,6.402602910223726
1769249977168,133,5,3.61307602831363,7.427565834036593,7.257698541729103
1769249977172,134,6,4.637578615048211,8.403195605153254,8.311208767064866
1769249977176,135,7,5.7434903196135565,9.471362299347373,9.445451325514265
1769249977180,136,8,6.783337204877489,10.417201630264746,10.51453259501113
1769249977184,137,9,7.64590129032659,11.656806543476591,11.40752208740671
1769249977188,138,10,8.308500213607106,12.300724565231762,12.100355112376729
1769249977192,138,10,8.84506259422843,12.601223702127344,12.665737073718615
1769249977196,139,11,9.368644095175666,13.304623306079954,13.217237289900671
1769249977200,139,11,9.940757173314031,13.631594217480384,13.81786434914156
1769249977204,140,12,10.525447727131256,14.483711309033891,14.432037102039123
1769249977208,141,13,11.034239224460002,15.498544370822088,14.969889992015734
1769249977212,141,13,11.411557980932525,15.457962743546029,15.374492015959444
1769249977216,141,13,11.65488466524775,15.479689400045425,15.643779951973096
1769249977220,141,13,11.73488632082854,15.512235882727929,15.74992716841086
1769249977224,141,13,11.512937875997984,15.6172816598843,15.554780653818332
1769249977228,141,13,10.780250187621794,15.420588475632089,14.84874122009916
1769249977232,139,11,9.412901451801822,13.57272305193284,13.507517044348372
1769249977236,137,9,7.501424856964684,11.40704419646632,11.622437327523048
1769249977240,135,7,5.333762342411604,9.628515348875656,9.482031464067951
1769249977244,133,5,3.250414152169528,7.514349095387143,7.426063921624566
1769249977248,131,3,1.4881580676663757,5.592324379695933,5.690046043304102
1769249977252,130,2,0.111032938179364,4.438169163262119,4.33752987976058
1769249977256,129,1,-0.95108653889283,3.6016818720976422,3.298894606449255
1769249977260,128,0,-1.8067377723824165,2.4502434365404127,2.4664589621264565
1769249977264,127,-1,-2.5258480408123227,1.7322687684308162,1.7709090924552746
1769249977268,127,-1,-3.124042606433822,1.4108711662534388,1.196846895056702
1769249977272,126,-2,-3.590998501835677,0.6742529331402669,0.7546090353877366
1769249977276,126,-2,-3.915110250475729,0.412735826904242,0.4556043066257089
1769249977280,126,-2,-4.075448707827255,0.6635793728249397,0.3201583471033919
1769249977284,126,-2,-4.017897147777363,0.5586249346143877,0.4015950227297589
1769249977288,126,-2,-3.663236823827404,0.6167454542927353,0.778771871039047
1769249977292,127,-1,-2.969495698151668,1.531396663263766,1.4939870417771912
1769249977296,128,0,-2.0038343541544132,2.595164989334983,2.480814290362363
1769249977300,129,1,-0.9483138961971076,3.507661602900215,3.557934915148447
1769249977304,130,2,-0.0126507181055003,4.761660093910574,4.515975181056661
1769249977308,131,3,0.6905371476721911,5.435216852171272,5.24199283146713
1769249977312,131,3,1.2111959743569902,5.77530352481993,5.785228089053408
1769249977316,132,4,1.7075490417955876,6.391942216659914,6.303483685426811
1769249977320,132,4,2.3046422880410473,6.727376865727976,6.9218866560166585
