timestamp_ms,ecg_u8_raw,ecg_counts_raw_int,ecg_counts_filt_monitor,ecg_counts_filt_diagnostic,ecg_counts_filt_st
1769250799648,127,-1,-0.5597376387066997,-1.1473207395530298,-1.662363869045095
1769250799652,127,-1,0.1247908834435409,-1.1741463982452436,-0.9800780705737704
1769250799656,128,0,0.6647294186381874,-0.3215256021942436,-0.4394235080517312
1769250799660,129,1,1.1474751539618822,0.876299556296551,0.0444066083262881
1769250799664,129,1,1.7196744138160214,0.7109045631919519,0.6156125392121563
1769250799668,129,1,2.4872157758588753,0.9574622291978434,1.379955511716361
1769250799672,131,3,3.409620884856124,2.6763788754497506,2.298186477985774
1769250799676,132,4,4.2819378123020675,3.8295890402402457,3.16628159393997
1769250799680,132,4,4.841100866298929,3.7394024286385377,3.7218804451508674
1769250799684,132,4,4.9147163457445275,3.860633693746084,3.793336008674312
1769250799688,132,4,4.4993849239875585,3.836398434522749,3.377127134649343
1769250799692,131,3,3.7314208447053465,2.7557414862067335,2.608250281187619
1769250799696,130,2,2.7884046347549094,1.7518672311226706,1.6630649163999718
1769250799700,129,1,1.7877837552092215,0.8463621506035011,0.6590274102004594
1769250799704,128,0,0.7463305908992327,-0.2519269253825591,-0.386229108001705
1769250799708,127,-1,-0.373417657394588,-0.9861478979109592,-1.509402376258111
1769250799712,126,-2,-1.5729224165682778,-2.5053632507522883,-2.7116486834460947
1769250799716,124,-4,-2.767899244961729,-3.9351622681144582,-3.908787165999268
1769250799720,124,-4,-3.8258040559699618,-4.4996321803447685,-4.968756843136009
1769250799724,122,-6,-4.655713744602755,-5.847496495596257,-5.801328630318398
1769250799728,122,-6,-5.270324716611894,-6.388875765947067,-6.41960583474903
1769250799732,122,-6,-5.767531279900824,-6.128473223816108,-6.920976869639101
1769250799736,121,-7,-6.252292892759107,-7.287192880980518,-7.4090197352124925
1769250799740,120,-8,-6.769510486516021,-8.199380531234157,-7.9279844369412285
1769250799744,120,-8,-7.291066200139211,-8.030302382751739,-8.451605938438835
1769250799748,120,-8,-7.738577111927335,-8.308222954348967,-8.904299027043889
1769250799752,119,-9,-8.018302527172654,-9.104539467227973,-9.19152421170988
1769250799756,119,-9,-8.073535511982119,-9.422816185107834,-9.250900904838373
1769250799760,119,-9,-7.934294838861782,-8.967868420110358,-9.107672849988292
1769250799764,120,-8,-7.7048130776891375,-8.301280568803348,-8.869453094895766
1769250799768,120,-8,-7.48835074428176,-7.983328640390914,-8.650727509301996
1769250799772,120,-8,-7.3546069083644205,-8.45732289965734,-8.530799404661606
1769250799776,119,-9,-7.420422296761783,-9.080760205619848,-8.624024976682142
1769250799780,119,-9,-7.911716914752675,-9.30050294442672,-9.14040656032411
1769250799784,118,-10,-8.950703467232515,-9.95390119203905,-10.183598290806776
1769250799788,118,-10,-10.019498889064373,-10.304924425228531,-11.230013884549258
1769250799792,119,-9,-9.503256778633808,-9.129988050745848,-10.678875291202017
1769250799796,123,-5,-4.978599000075212,-5.435887787159544,-6.131237868601075
1769250799800,131,3,5.435091583749962,3.0880848041722944,4.277082377088057
1769250799804,146,18,21.256514071738913,17.678274860115444,20.06684166941284
1769250799808,165,37,38.73229383755649,37.11102315805363,37.50011784017216
1769250799812,182,54,51.96631313632679,53.46230563345188,50.69827923113173
1769250799816,185,57,55.79881057676917,56.90725114730556,54.514902308627974
1769250799820,176,48,48.63996676441809,47.69613584487455,47.36701255386978
1769250799824,159,31,33.30470946594051,30.986482604221557,32.065302354532115
1769250799828,141,13,15.335789450276764,12.824314381094888,14.134508720525217
1769250799832,127,-1,0.0784877913143304,-1.1835419436986996,-1.1036591142023435
1769250799836,118,-10,-9.581264984771972,-10.317937820191664,-10.776078666941276
1769250799840,114,-14,-13.686926199376966,-14.065068506640204,-14.91853923024006
1769250799844,114,-14,-14.111985913198872,-14.231303971431696,-15.382547920844743
1769250799848,114,-14,-12.981611563930896,-14.067126840855217,-14.272885991452418
1769250799852,115,-13,-11.653430813596048,-13.218122773463207,-12.940984998465987
1769250799856,116,-12,-10.600317407275776,-12.318364850336105,-11.86941071665927
1769250799860,117,-11,-9.833461288823136,-10.983250469750049,-11.086552832595563
1769250799864,119,-9,-9.295955305262126,-9.407220023609987,-10.547738672016338
1769250799868,118,-10,-8.9639845696154,-9.852169954089398,-10.228303935169588
1769250799872,118,-10,-8.787025475206834,-10.47887388362933,-10.066568832785531
1769250799876,118,-10,-8.67670796320217,-9.960994692123863,-9.96404389315275
1769250799880,119,-9,-8.559581306271316,-9.366721141005964,-9.846861711319589
1769250799884,119,-9,-8.388477331653753,-9.023066032729265,-9.674766882695575
1769250799888,119,-9,-8.102713135093444,-9.236340732863818,-9.392266922096306
1769250799892,119,-9,-7.632856755213477,-9.12373307276188,-8.928688166054954
1769250799896,120,-8,-6.977236387591006,-8.226604077988128,-8.278305972988376
1769250799900,121,-7,-6.245983454738666,-7.151164868632485,-7.550015768571607
1769250799904,122,-6,-5.584593901894513,-6.190561387091064,-6.891433310095573
1769250799908,122,-6,-5.044735634268826,-6.118577768840222,-6.3558986780323865
1769250799912,122,-6,-4.552188205101363,-6.216591602232773,-5.868234388741552
1769250799916,123,-5,-4.010880326395571,-5.115015006920139,-5.330683474606475
1769250799920,124,-4,-3.41884724700196,-4.254146397246213,-4.741347022322685
1769250799924,124,-4,-2.864386372332708,-4.075209441181203,-4.1899778859136365
1769250799928,125,-3,-2.4162608175245284,-3.2529970503381516,-3.746086930980336
1769250799932,125,-3,-2.0364767817653124,-3.0637706646625396,-3.370848307129758
1769250799936,125,-3,-1.6099101794311954,-3.273828156220728,-2.9479487268540634
1769250799940,126,-2,-1.056916521331705,-2.0604078950155285,-2.397858880377875
1769250799944,127,-1,-0.4111667465286064,-1.270500202569509,-1.755590953810129
1769250799948,127,-1,0.2110407410092314,-1.0721105641402122,-1.1381382495771568
1769250799952,128,0,0.7085579369697537,-0.2086371409106544,-0.6455054462129526
1769250799956,128,0,1.0635208229953772,-0.1653814884304805,-0.2938528113942245
1769250799960,128,0,1.3322708318286327,-0.1100909471105047,-0.026883286691449
1769250799964,129,1,1.5896193257415536,0.7448106279349109,0.2281190957156562
1769250799968,129,1,1.8791173505645955,0.9473101918583896,0.5130781534678037
1769250799972,129,1,2.1877645183857046,0.7499269977278598,0.8160755345229547
1769250799976,129,1,2.4440167551498093,0.9125379173129804,1.0679927729853438
1769250799980,130,2,2.558002391401098,1.7906803103658755,1.1794956569234238
1769250799984,130,2,2.507787946720301,1.883821284141523,1.1269320334327968
1769250799988,129,1,2.399850886636415,0.7785692568350207,1.0155362100925325
1769250799992,129,1,2.416489261627703,0.9563422020645658,1.0282444377830908
1769250799996,130,2,2.678494018510384,1.6832532190463323,1.2868516416698967
1769250800000,130,2,3.1576138373610494,2.047412633008834,1.7630487116431506
1769250800004,131,3,3.7213281037695136,2.638510508880827,2.323654681302506
1769250800008,131,3,4.252348734884445,3.02674608396278,2.851019774030326
1769250800012,132,4,4.722873653379578,3.713794593581809,3.317522998168335
1769250800016,132,4,5.160999703630082,3.9104091652105017,3.751895829318476
1769250800020,132,4,5.5503431283291995,3.852013370776559,4.1383300744851645
1769250800024,133,5,5.770176257177723,4.824291217456417,4.3557610249373155
1769250800028,133,5,5.652492502543733,4.887748723566483,4.235089312567182
1769250800032,132,4,5.112824891257837,3.802290779013744,3.6914672094259737
1769250800036,131,3,4.223977108096616,2.870197113134806,2.798715472247447
1769250800040,130,2,3.1586150935126565,1.8549252204258055,1.7306352698298764
1769250800044,129,1,2.065254134879121,0.8673168511057241,0.6355464872013652
1769250800048,128,0,0.9994439104313392,-0.1472289133726323,-0.4322810753866366
1769250800052,127,-1,-0.0412981292876051,-1.1703562894266568,-1.476297212161774
1769250800056,126,-2,-1.0365055718791587,-2.132266497020483,-2.475723520915671
1769250800060,125,-3,-1.9075536208478,-3.1793887052682894,-3.3506074076673045
1769250800064,124,-4,-2.5628153806859024,-4.034956482413143,-4.008291579844756
1769250800068,124,-4,-2.969995885217656,-4.280621159377903,-4.4169476971644634
1769250800072,124,-4,-3.174126225154447,-3.9797296016287698,-4.623096494128698
1769250800076,124,-4,-3.246099066874792,-4.368145880571661,-4.698255859566064
1769250800080,123,-5,-3.229164263998847,-4.909481274094578,-4.684709787024898
1769250800084,124,-4,-3.141587269900062,-4.308925569454333,-4.599749780964069
1769250800088,124,-4,-3.01234524276987,-3.996829938915945,-4.472759837127126
1769250800092,124,-4,-2.893375315860477,-4.2363748373468075,-4.356530526057809
1769250800096,124,-4,-2.836992169328855,-4.138851638772121,-4.30318502309251
1769250800100,124,-4,-2.865136545294481,-4.098776272204716,-4.333781500659267
1769250800104,124,-4,-2.9479205268625384,-4.157835342525664,-4.418201127779556
1769250800108,124,-4,-2.9985542968913865,-4.08871655165299,-4.470234425247012
1769250800112,124,-4,-2.899571842877727,-4.169740518644719,-4.37289334432152
1769250800116,124,-4,-2.563280591542783,-4.1742966644509965,-4.03858511977597
1769250800120,125,-3,-1.9885681578719248,-3.0835372031042296,-3.4664220482995294
1769250800124,126,-2,-1.2628176892960574,-2.146388206456815,-2.7439522974701935
1769250800128,126,-2,-0.5065731353646564,-2.10391022423922,-1.991016750881468
1769250800132,127,-1,0.1892193739469578,-1.1189097419961782,-1.2973519400735458
1769250800136,128,0,0.7944541642401488,-0.2527564615646973,-0.6928266177025266
1769250800140,128,0,1.339899896629947,0.0139949902934031,-0.14776003343137
1769250800144,129,1,1.8921747631563448,0.7514608347300831,0.4033821778211115
1769250800148,129,1,2.503413746456546,1.0303682018440328,1.012652563184231
1769250800152,130,2,3.1584550520483323,1.7465359727098226,1.6653455912617972
1769250800156,131,3,3.7640708606663065,2.8837257385810986,2.26856843545722
1769250800160,131,3,4.19499545693939,2.8885596583673823,2.697438437440242
1769250800164,131,3,4.356809087712758,2.8561937892535596,2.857984292267844
1769250800168,131,3,4.218004972706485,2.9982044334197333,2.7184465215734397
1769250800172,131,3,3.804807642795432,2.7080530714705477,2.304070341064758
1769250800176,130,2,3.175982204872925,2.0061827777695287,1.673363701620127
1769250800180,129,1,2.387604293870183,0.6959589025048021,0.8835118712194765
1769250800184,128,0,1.467034502692608,0.1128138036398942,-0.037327327145165
1769250800188,128,0,0.4291059592672228,-0.2689041962545309,-1.0752971872201953
1769250800192,126,-2,-0.6745645435147751,-2.014612337765155,-2.1801824458096233
1769250800196,125,-3,-1.743628205103167,-3.2525929019575823,-3.2513451656802577
1769250800200,124,-4,-2.6950953527688206,-4.065571669813357,-4.20436086313069
1769250800204,123,-5,-3.539623321556885,-5.095383060050213,-5.049584149770878
1769250800208,123,-5,-4.364878574586118,-5.0685995523234695,-5.875711906110472
1769250800212,122,-6,-5.228983674322207,-6.163782297193401,-6.740943457422405
1769250800216,120,-8,-6.0832203948761085,-8.149810719894738,-7.594975791893653
1769250800220,120,-8,-6.809871421215437,-8.12143283626384,-8.319678787053396
1769250800224,120,-8,-7.3214542786663,-8.08387611181011,-8.830397271694016
1769250800228,119,-9,-7.614087627826794,-9.020057903067016,-9.126410689380398
1769250800232,119,-9,-7.750449545654017,-9.208079992061837,-9.269153567414572
1769250800236,119,-9,-7.817675788238278,-9.101321920786011,-9.339856813302
1769250800240,119,-9,-7.883457282105511,-9.182193403998598,-9.400835454347709
1769250800244,119,-9,-7.950491501606846,-9.028159632832477,-9.455809740037973
1769250800248,119,-9,-7.945100678190304,-9.025326329632334,-9.439869237737184
1769250800252,119,-9,-7.796334828891956,-9.214990218005669,-9.293312071127833
1769250800256,119,-9,-7.587346383141758,-9.055747630344026,-9.103552435312611
1769250800260,119,-9,-7.62960439058142,-9.286437682802903,-9.172544645405669
1769250800264,118,-10,-8.261759804656412,-9.881615369455004,-9.81910029620498
1769250800268,118,-10,-9.329505645166504,-10.163690947703854,-10.87314830582008
1769250800272,118,-10,-9.633289548195744,-10.047712258044466,-11.13837585895953
1769250800276,121,-7,-6.90802557273382,-7.223143427782447,-8.372918560844791
1769250800280,128,0,1.209934494707789,-0.126086161691949,-0.2397841986789948
1769250800284,140,12,15.424741038868294,11.982432436495108,13.955303335041236
1769250800288,158,30,33.29383031426487,30.02571731532244,31.782340718586276
1769250800292,177,49,49.37468002407963,48.78157861780668,47.82214552494045
1769250800296,187,59,57.50469689107411,58.93982683272869,55.93126658036446
1769250800300,183,55,54.079669767603306,54.62518130104846,52.51381097819113
1769250800304,166,38,40.16210107069379,38.17650546579221,38.62933091812038
1769250800308,146,18,20.90766228021363,17.78968467364224,19.419487620087494
1769250800312,128,0,2.72000077640498,0.0768680980182905,1.266385499979112
1769250800316,117,-11,-9.895517711558892,-11.239861352670289,-11.342690110649396
1769250800320,112,-16,-15.846230559152042,-16.11754320511969,-17.317147069075588
1769250800324,111,-17,-16.80331350535907,-17.037756306425845,-18.311860113162947
1769250800328,112,-16,-15.352333780594824,-16.076350847247248,-16.888892345308783
1769250800332,113,-15,-13.40731595376146,-15.063852617494604,-14.94720366407309
1769250800336,114,-14,-11.735200024082536,-14.105110902494678,-13.255580158446898
1769250800340,116,-12,-10.406241410073507,-12.205676503332104,-11.89974435725278
1769250800344,118,-10,-9.3979954635011,-9.932815012167318,-10.874663811444698
1769250800348,119,-9,-8.7836681764376,-9.22492941443171,-10.260841490241392
1769250800352,118,-10,-8.555967169371483,-9.91250002010793,-10.044358285060396
1769250800356,118,-10,-8.49772864126878,-10.246547479235964,-9.994957948825578
1769250800360,118,-10,-8.323995621739336,-10.030596784970715,-9.820037288736328
1769250800364,119,-9,-7.924721996394679,-9.074877702223295,-9.412639964608545
1769250800368,120,-8,-7.420940387770227,-8.113383608176738,-8.902203448952354
1769250800372,120,-8,-6.988048070733171,-8.005167061091338,-8.468501683055699
1769250800376,120,-8,-6.662904613803431,-8.163918954016804,-8.14533764846941
1769250800380,120,-8,-6.335330112418073,-8.077397078425683,-7.817038957813598
1769250800384,121,-7,-5.890598844803928,-7.020878313850371,-7.36756896812408
1769250800388,122,-6,-5.317288721043978,-6.170448258287442,-6.789033706363118
1769250800392,122,-6,-4.680914756603486,-5.934018128554975,-6.150330738329635
1769250800396,123,-5,-4.038613622441546,-5.23966243569302,-5.507977723842187
1769250800400,123,-5,-3.4103530088687712,-4.96460270833585,-4.8788702482382895
1769250800404,124,-4,-2.814362876420051,-4.158007563772964,-4.279798351186913
1769250800408,125,-3,-2.28752822998636,-2.991087595354573,-3.749059382758673
1769250800412,125,-3,-1.8520111996893769,-3.145576062567968,-3.310528129649313
1769250800416,125,-3,-1.478514175298839,-2.978201770221963,-2.934678402206528
1769250800420,126,-2,-1.1016045936486782,-2.2486836564293946,-2.554855326131225
1769250800424,126,-2,-0.6685753004022104,-1.8431246901707248,-2.1182129140948693
1769250800428,127,-1,-0.1669948964580342,-1.3203843107651114,-1.613325501683937
1769250800432,127,-1,0.3828085959751661,-0.7807961652746203,-1.0610674978071573
1769250800436,128,0,0.9415041664869356,-0.3511312486178717,-0.5001166391516332
1769250800440,128,0,1.4535580737520737,0.137960505722841,0.0148577629539984
1769250800444,129,1,1.8548606296497727,0.7821881865146862,0.41968005534273
1769250800448,129,1,2.1003060634059794,1.038294329019097,0.668540327563408
1769250800452,129,1,2.1928611329692247,0.9156658483527548,0.7642350631289433
1769250800456,129,1,2.1814184807880186,0.91101365078275,0.7562747579518473
1769250800460,129,1,2.126949853658742,0.9308147765863763,0.7059937666666414
1769250800464,129,1,2.07307725912784,0.9495179745802512,0.6563394903256073
1769250800468,129,1,2.047382089669656,0.9209349225633834,0.6338938498053105
1769250800472,129,1,2.0778142073587373,1.020400913060187,0.6666739197533377
1769250800476,129,1,2.191679979521858,0.8378227431325904,0.7833008287067349
1769250800480,129,1,2.3960040477597495,0.9814888338315793,0.9918505150493132
1769250800484,130,2,2.6737392854852415,1.932098113123455,1.2747605152518853
1769250800488,130,2,3.0119403103833116,1.9256364551016771,1.6177352772082836
1769250800492,130,2,3.4226358278395552,2.0546023947758596,2.032295261118646
1769250800496,131,3,3.911168974641755,2.7976462524519135,2.524313316022414
1769250800500,131,3,4.414961315333446,3.0201934017514653,3.0315455295973037
1769250800504,132,4,4.787580577945895,3.9068928181260913,3.407286225406035
1769250800508,132,4,4.862557906041925,3.9628604159820857,3.4852511187209405
1769250800512,131,3,4.547344199314596,3.035738891372469,3.174045091464338
1769250800516,131,3,3.872687475157979,2.8175512769918276,2.5051573789141885
1769250800520,130,2,2.973369938758238,1.996097571915632,1.6123257647654743
1769250800524,129,1,2.024883198387764,0.936557672335158,0.6691601823913947
1769250800528,128,0,1.164161242917933,-0.0344097106405036,-0.188016631768922
1769250800532,127,-1,0.4229351907476791,-0.9553982034721762,-0.9264458400900956
1769250800536,127,-1,-0.2806417991306478,-1.1915242952899092,-1.6268344498042429
1769250800540,126,-2,-1.0651064021267254,-1.989391961078668,-2.4074480318206444
1769250800544,125,-3,-1.9698275040469848,-3.081692889279859,-3.307648810642891
1769250800548,124,-4,-2.8967626158591124,-3.981306970808886,-4.229039546456336
1769250800552,123,-5,-3.6614349530755934,-4.998138097062223,-4.987093603184202
1769250800556,123,-5,-4.106182028988348,-5.164901865267649,-5.425234679624267
1769250800560,123,-5,-4.183432384025449,-4.9780111275045185,-5.497449100541851
1769250800564,123,-5,-3.9637233584338913,-5.1280585994097025,-5.274656449366293
1769250800568,123,-5,-3.592662630838691,-4.857044590069817,-4.901215604392528
1769250800572,124,-4,-3.234814422044655,-4.164590787898956,-4.540110617203649
1769250800576,124,-4,-3.016023900353072,-3.968295485422258,-4.316514878384624
1769250800580,124,-4,-2.970987744934287,-4.185272067745069,-4.265306468975239
1769250800584,124,-4,-3.020993634650634,-3.919617282762861,-4.308267449610991
1769250800588,124,-4,-3.0045137347233943,-4.000647555561193,-4.284604704500472
1769250800592,124,-4,-2.753592851009768,-4.08598320818212,-4.027456503047645
1769250800596,125,-3,-2.1792075061276934,-2.950901909799142,-3.4487880743993866
1769250800600,126,-2,-1.3217838935269883,-2.3014922858134987,-2.5888501721792014
1769250800604,126,-2,-0.3417795111789877,-1.690082152870248,-1.6063609941855732
1769250800608,128,0,0.5494148914499422,-0.2866418522643037,-0.7107218202477985
1769250800612,128,0,1.1971357372067757,0.2528063847583297,-0.0562152496641947
1769250800616,129,1,1.5993587642295544,0.6877913917520899,0.3537087727784065
1769250800620,129,1,1.9182743476289377,1.055036845497367,0.6796123939953058
1769250800624,129,1,2.3716833523470355,1.0089904162818568,1.138810764804456
1769250800628,130,2,3.065398908900389,1.9640522452689,1.8374799173483536
1769250800632,131,3,3.8966236578241102,3.1092950805340145,2.673068983707232
1769250800636,132,4,4.61189912560264,3.7188673258300264,3.3922135162647065
1769250800640,132,4,4.971135136696758,4.144747423727073,3.755458687476146
1769250800644,132,4,4.8818560308246415,3.831488198123888,3.67143774048845
1769250800648,131,3,4.410195752158302,3.2199276436807427,3.2067256344603687
1769250800652,131,3,3.692676951913322,2.8311485800131173,2.4968682501650674
1769250800656,130,2,2.8432520503914747,2.000384909511138,1.65423556971985
1769250800660,129,1,1.9205026251246688,0.9034583842568658,0.7367250026626602
1769250800664,128,0,0.9474670641919868,0.0421052908842449,-0.2319610614992471
1769250800668,127,-1,-0.0591048299221106,-0.9302703421263224,-1.23391765309298
1769250800672,126,-2,-1.0790826765410544,-2.0600469068540215,-2.24834246271393
1769250800676,125,-3,-2.0983504126731543,-3.061326929624345,-3.261277656676219
1769250800680,124,-4,-3.1171889348505446,-4.048603753586902,-4.273808460406746
1769250800684,123,-5,-4.138937906594666,-4.986293752873631,-5.290053501929716
1769250800688,122,-6,-5.144395610984667,-5.881317298236899,-6.2906095714630945
1769250800692,121,-7,-6.0809250276306255,-7.125123552878639,-7.221489557219998
1769250800696,120,-8,-6.883864718889131,-7.959601564887635,-8.016994474865466
1769250800700,120,-8,-7.508761591540005,-8.171582178454566,-8.633781610966537
1769250800704,119,-9,-7.939241634982526,-8.817511605184922,-9.05841060507332
1769250800708,119,-9,-8.170332090876705,-9.06918018793231,-9.287585267233064
1769250800712,119,-9,-8.202068940452778,-8.898281187305237,-9.31867571150675
1769250800716,119,-9,-8.062002026994424,-9.212333472696796,-9.173045894354464
1769250800720,119,-9,-7.826033623193305,-8.887992704592563,-8.922665195437999
1769250800724,120,-8,-7.591525204195178,-8.09421408122932,-8.669329660133405
1769250800728,120,-8,-7.4159775404978525,-7.787042522153106,-8.48242274373211
1769250800732,120,-8,-7.311241017299256,-8.150717488620074,-8.383361977580094
1769250800736,119,-9,-7.340851453927433,-8.991046463214516,-8.432280398434326
1769250800740,119,-9,-7.680367358431379,-9.070236302151038,-8.78760180463876
1769250800744,119,-9,-8.38924547289522,-8.930761113769877,-9.489738937954966
1769250800748,119,-9,-8.865483619637878,-8.89875243604524,-9.931535469305889
1769250800752,121,-7,-7.421264665176546,-7.048025944240497,-8.440474151919432
1769250800756,126,-2,-1.6550294359603868,-2.0689235888276274,-2.6411242335680023
1769250800760,136,8,10.11664575418289,8.000573750244394,9.132075182775896
1769250800764,152,24,27.041672989056593,24.040192614032264,26.02978527606569
1769250800768,171,43,44.932686086438615,43.16962626063836,43.88363155637987
1769250800772,187,59,57.57549311336733,58.884178593351294,56.500479371824376
1769250800776,190,62,59.7905010576537,61.98521798824107,58.713916775416685
1769250800780,178,50,50.36349627043467,49.834479821731065,49.312928333996666
1769250800784,158,30,32.78562621462345,30.179441493941724,31.781157452588538
1769250800788,139,11,13.269816821555224,11.009278234876923,12.313043754558183
1769250800792,124,-4,-2.5245821439197513,-3.832851651154665,-3.4544133260238734
1769250800796,116,-12,-11.890757512083004,-12.19024263080056,-12.826191283783745
1769250800800,113,-15,-15.362077347293198,-14.916827905254587,-16.32740154544937
1769250800804,113,-15,-15.263605986408802,-15.125084794299678,-16.26015200187285
1769250800808,113,-15,-13.89200359216716,-14.725940098110696,-14.899422357236244
1769250800812,114,-14,-12.514270408089953,-14.103932500730576,-13.505702887258694
1769250800816,115,-13,-11.444871145963605,-12.872806297490165,-12.404667868756258
1769250800820,117,-11,-10.632313843032025,-11.18502992508027,-11.56438253277867
1769250800824,118,-10,-10.05913076549554,-9.92450228956959,-10.98081742649951
1769250800828,118,-10,-9.739168758012656,-9.899474267155895,-10.66599501774094
1769250800832,117,-11,-9.581762637705197,-10.98929389647615,-10.515819648244571
1769250800836,117,-11,-9.41381916142337,-10.857689825809048,-10.345584145168864
1769250800840,119,-9,-9.127442531883366,-9.248310212445734,-10.04768171435933
1769250800844,119,-9,-8.73618259625275,-8.801411550296095,-9.644622164004724
1769250800848,119,-9,-8.283698532341445,-9.098738873648289,-9.186309699329758
1769250800852,119,-9,-7.762230373515195,-8.739926881157528,-8.66276206954009
1769250800856,120,-8,-7.152922752757848,-8.089744821644633,-8.049396818310242
1769250800860,121,-7,-6.501368086986622,-7.0020489790509055,-7.390078413019219
1769250800864,122,-6,-5.894079115790204,-6.009641705041556,-6.774477922694994
1769250800868,122,-6,-5.355812768126228,-5.9587588602221295,-6.230339338490774
1769250800872,122,-6,-4.811523180103195,-5.814896255908867,-5.681883536531235
1769250800876,123,-5,-4.178121351170409,-5.040882328351682,-5.043451960339604
1769250800880,124,-4,-3.4787331661949437,-3.993270506001134,-4.3374610085006395
1769250800884,125,-3,-2.8360387805255,-3.0208723403238236,-3.6881460341679144
1769250800888,125,-3,-2.3466355243955475,-2.96063328409758,-3.193271142697577
1769250800892,125,-3,-1.9773916093925803,-2.794510857957867,-2.818906355623544
1769250800896,126,-2,-1.5937522291669506,-2.068434824445273,-2.4290717721761608
1769250800900,126,-2,-1.0843996585887428,-1.9161217259074057,-1.912475861449088
1769250800904,127,-1,-0.4564491146770235,-1.1087673035448604,-1.277912734108106
1769250800908,128,0,0.1811043802082419,0.1507793735403866,-0.6357814652209356
1769250800912,128,0,0.7124856132823105,0.0748675453276678,-0.1010165569163304
1769250800916,128,0,1.0883664220614162,0.0860323305107548,0.2795772165033903
1769250800920,129,1,1.323961293183556,0.9448566070992782,0.5225053050149693
1769250800924,129,1,1.4612277397008249,1.046601957694772,0.6680894481790126
1769250800928,129,1,1.5496026531222178,0.9870408124370004,0.7630570209175114
1769250800932,129,1,1.6388948540213877,1.2677794287509776,0.8564975404000443
1769250800936,129,1,1.7521543753581708,0.8716542961150164,0.9732590645051316
1769250800940,129,1,1.854411097933358,1.2025851177721698,1.0803749242091245
1769250800944,130,2,1.8718624630155245,1.7965355528275606,1.104196043468337
1769250800948,129,1,1.7710046365695262,1.2238256713539672,1.0099905652998076
1769250800952,129,1,1.6248227487452074,1.079242553017674,0.8698862387639861
1769250800956,129,1,1.5863669373903888,1.0093404623886637,0.8370466333143032
1769250800960,129,1,1.7806972584364007,1.1383003514308272,1.0368576459439902
1769250800964,130,2,2.210282598868532,1.8280111777053132,1.4717349996267308
1769250800968,130,2,2.7552846261393196,2.2420484279838693,2.021694977972661
1769250800972,131,3,3.2611020199731007,3.043045510488864,2.5323894160423603
1769250800976,131,3,3.631774609452265,3.058554519471288,2.908361256944928
1769250800980,131,3,3.8542626685287087,3.099060753937142,3.136644023370288
1769250800984,132,4,3.950057486129597,3.872235439141895,3.238182437669247
1769250800988,131,3,3.9116478069562546,3.2331869926296295,3.205010673789548
1769250800992,131,3,3.6819142215190546,3.0249764449212284,2.980173888532489
1769250800996,131,3,3.1939481723138083,3.1276281161808637,2.497141595456722
1769250801000,130,2,2.44186352596186,1.9857514345319116,1.750201553141018
1769250801004,129,1,1.520694616600438,1.0496880079938873,0.8345450770962786
1769250801008,128,0,0.5893921968421607,0.032994368581652,-0.0907728015157844
1769250801012,127,-1,-0.2190316471315834,-0.7449294752150615,-0.8932167557533757
1769250801016,127,-1,-0.862117503160116,-1.1082897852217548,-1.531300100713788
1769250801020,126,-2,-1.376467743469636,-1.757436441366809,-2.041963221602049
1769250801024,126,-2,-1.8150789064364592,-2.196925831941653,-2.477100129516853
1769250801028,125,-3,-2.1963274366362335,-2.7059974114199177,-2.8534476991551516
1769250801032,125,-3,-2.496393649999119,-2.9984901508508197,-3.14687385501573
1769250801036,125,-3,-2.668851902236004,-2.868595264197565,-3.312499699673727
1769250801040,125,-3,-2.6688357369974076,-2.9418494505020494,-3.30718141378303
1769250801044,125,-3,-2.4830215545326544,-3.054280068133805,-3.1176292008693673
1769250801048,125,-3,-2.163687647307942,-2.765324566084758,-2.794788775212901
1769250801052,126,-2,-1.8315139996732863,-2.015208007075463,-2.4584528703119575
1769250801056,126,-2,-1.614888291200274,-1.7765000636811186,-2.2372259115124495
1769250801060,126,-2,-1.5582939555177353,-2.0666849374546423,-2.1758583791102617
1769250801064,126,-2,-1.580609674968468,-1.8912302276859172,-2.1927795352327277
1769250801068,126,-2,-1.5252916702991277,-1.914747290674744,-2.131060992384489
1769250801072,126,-2,-1.2597232045372535,-1.8995899326354309,-1.8589791762014367
1769250801076,127,-1,-0.7426710862430023,-0.8261974992508925,-1.337178419150694
1769250801080,128,0,-0.0211271225376826,-0.0535224873481288,-0.6133905323486091
1769250801084,128,0,0.8103229280908744,0.1600393218640885,0.2197081102842033
1769250801088,129,1,1.6392023933125055,1.0052662234760823,1.0524796233557625
1769250801092,130,2,2.360306895883461,2.1913925512241894,1.780147599142455
1769250801096,131,3,2.927877336855314,3.0907829964412095,2.3545702320476245
1769250801100,131,3,3.401321094152459,3.054778466519589,2.833138494394908
1769250801104,131,3,3.9029621700071018,3.061143739375125,3.338642421723965
1769250801108,132,4,4.489126982143372,4.120404836951153,3.928732566145339
1769250801112,133,5,5.057341716147529,5.041044994607943,4.500960015729573
1769250801116,133,5,5.392976883323289,5.303300835075043,4.840054599372683
1769250801120,133,5,5.311540673109893,4.824556226316589,4.7618732524059215
1769250801124,132,4,4.766186964325321,4.339044766139054,4.220554612900951
1769250801128,132,4,3.849592721015,3.80946324005967,3.3089592934240724
1769250801132,130,2,2.720002762160825,2.347302412230113,2.184711291790449
1769250801136,129,1,1.517481247697867,1.054092203589911,0.987409994482757
1769250801140,128,0,0.3202295118673441,0.0511585026468845,-0.2050104727150929
1769250801144,127,-1,-0.8413426565218702,-0.8104510294587142,-1.3626325017738568
1769250801148,126,-2,-1.9417695048378063,-2.119851434479236,-2.460212090415129
1769250801152,124,-4,-2.946675500107947,-3.664858087224304,-3.462668915830585
1769250801156,124,-4,-3.845734012133393,-3.9503002266885874,-4.358587036816732
1769250801160,123,-5,-4.67959141452249,-4.898132442595914,-5.188147843213392
1769250801164,122,-6,-5.5058527686847665,-5.847409106138163,-6.00919550658033
1769250801168,122,-6,-6.325785495296076,-6.111425387528704,-6.823428693882703
1769250801172,120,-8,-7.051156099983521,-7.6357558690940115,-7.543328902542461
1769250801176,120,-8,-7.557308041019513,-8.020651625259047,-8.045737040178324
1769250801180,120,-8,-7.779878868652146,-7.720710087338969,-8.26773841907159
1769250801184,120,-8,-7.767705866807753,-8.094501115810665,-8.256953313936732
1769250801188,120,-8,-7.650093546337256,-7.794320369867568,-8.137623574877402
1769250801192,120,-8,-7.550479876553105,-8.000912177246358,-8.028140773661573
1769250801196,120,-8,-7.507463101565795,-7.639196126336799,-7.968730028512469
1769250801200,121,-7,-7.459506677975512,-7.034617412277443,-7.907987966076686
1769250801204,120,-8,-7.335257995257317,-7.839057723935301,-7.785929098611005
1769250801208,120,-8,-7.220651857569116,-7.957680226701381,-7.689922390640078
1769250801212,120,-8,-7.433569014643371,-7.942860569926694,-7.924642571227237
1769250801216,119,-9,-8.277745734953037,-8.592658253447297,-8.773661920238805
1769250801220,119,-9,-9.453311580920428,-9.128682067115284,-9.92587038560305
1769250801224,119,-9,-9.508738548316174,-8.664158179741586,-9.938803937939124
1769250801228,123,-5,-5.97825017785244,-5.173653891353416,-6.371363828188332
1769250801232,130,2,3.4092436474005847,2.2912556161783817,3.02577888102285
1769250801236,144,16,18.87261615368157,16.217777060998742,18.468384673099163
1769250801240,164,36,37.33335604611377,36.07166381408523,36.89272808698464
1769250801244,182,54,53.05881512478421,54.22606106175997,52.58605176528408
1769250801248,191,63,60.28454119736384,62.82684269012802,59.79855308753022
1769250801252,185,57,56.297650540080085,57.30109640600345,55.82409504045945
1769250801256,169,41,42.88213408396177,41.06891562773503,42.444208158696874
1769250801260,151,23,25.1494747093463,23.246328452856144,24.756259955994977
1769250801264,136,8,8.684033763172797,8.138306766528654,8.32261768403329
1769250801268,125,-3,-3.0183564544204504,-3.0247114564866067,-3.3772943504233313
1769250801272,119,-9,-9.38556821045225,-8.693008938380304,-9.7694891508353
1769250801276,117,-11,-11.87340209852278,-11.042926085077724,-12.290615998692424
1769250801280,115,-13,-12.406651942181387,-12.610393267266,-12.84314959571432
1769250801284,115,-13,-12.29200700066978,-13.059159146558862,-12.723332738605285
1769250801288,115,-13,-12.033010994519334,-12.761246481837796,-12.441158764451716
1769250801292,116,-12,-11.7116210221715,-11.917073563979857,-12.095084105153791
1769250801296,117,-11,-11.353806323616398,-10.869507308014512,-11.725095883795436
1769250801300,117,-11,-11.001117531317304,-10.760929452960882,-11.375179347507686
1769250801304,117,-11,-10.628320073415663,-10.972426409813211,-11.01141034095618
1769250801308,117,-11,-10.152823093790234,-10.722816184444648,-10.54023305912876
1769250801312,118,-10,-9.563031448141814,-9.997748092240844,-9.946131998322102
1769250801316,119,-9,-8.985117638169102,-8.730161253078998,-9.360021187915953
1769250801320,120,-8,-8.572798098865986,-7.972909385241712,-8.94227212003891
1769250801324,119,-9,-8.338321742574971,-8.714057267191508,-8.70649093155862
1769250801328,119,-9,-8.128930354596738,-8.973760777580647,-8.49617080743441
1769250801332,120,-8,-7.775756441721794,-7.699332850092816,-8.139609862767042
1769250801336,121,-7,-7.238686223465494,-7.045184085773419,-7.598135184109643
1769250801340,121,-7,-6.600443662137422,-6.6684186196554585,-6.9572362220932735
1769250801344,122,-6,-5.955786919977999,-5.9797111885243615,-6.31168930764976
1769250801348,122,-6,-5.336263654855331,-5.730423379131176,-5.690645095443078
1769250801352,123,-5,-4.72685105127392,-4.857084053337074,-5.0777091858093595
1769250801356,124,-4,-4.117001375373202,-3.9702922939804943,-4.4636152363891615
1769250801360,124,-4,-3.5189538951993953,-3.6580695657255062,-3.8626467353098697
1769250801364,125,-3,-2.952265233509067,-3.0637867284937395,-3.2946180166646557
1769250801368,125,-3,-2.430810311090716,-2.53793196916169,-2.7717678008954256
1769250801372,126,-2,-1.9639211425666787,-2.109643405135697,-2.302003335502327
1769250801376,126,-2,-1.5522103642651943,-1.6604680757331542,-1.8863983030674296
1769250801380,127,-1,-1.1694606465932698,-1.0013283628263756,-1.5004024709546395
1769250801384,127,-1,-0.7578753873489219,-0.6999366194818863,-1.0869256046102036
1769250801388,127,-1,-0.2678878639947899,-0.8551008653071575,-0.5953462233558617
1769250801392,128,0,0.280748348011975,0.1692299438041582,-0.0443098378855639
1769250801396,129,1,0.7899221593880246,1.1365254705758356,0.46761825412911
1769250801400,129,1,1.1564385838696376,1.1124287744531554,0.8362424225683787
1769250801404,129,1,1.3560995503932485,1.299188959936658,1.037723169511261
1769250801408,129,1,1.4463466755084602,1.0775335944887572,1.130751901017606
1769250801412,129,1,1.4929971889917266,1.3095940145882283,1.1810755977561609
1769250801416,130,2,1.5121257521077316,1.958260282456346,1.203036975078547
1769250801420,129,1,1.4825923766582003,1.3227596345525214,1.1744534135539753
1769250801424,129,1,1.3921861988595077,1.0933563193592546,1.0844068884724969
1769250801428,129,1,1.259987043925044,1.310876455723364,0.9541271210131168
1769250801432,129,1,1.1326074191199065,1.06396080680759,0.8307166900127597
1769250801436,129,1,1.080056694402218,1.2242710836774322,0.7826284190110309
1769250801440,129,1,1.186021647653561,1.0673402352645,0.891677125706202
1769250801444,129,1,1.50782689294248,1.3515966483320363,1.2146256660920691
1769250801448,130,2,2.015387232259188,2.0954269671708063,1.7223429542030786
1769250801452,130,2,2.561639622121211,2.242532009119771,2.2693030110717665
1769250801456,131,3,2.930710961119994,3.094782730856436,2.64055955190786
1769250801460,131,3,2.950545174915492,3.1778129045995547,2.663760971149981
1769250801464,130,2,2.5932924409543405,2.271593304884319,2.309898585741161
1769250801468,130,2,1.9815240042535671,2.1761202242783906,1.700540201155308
1769250801472,129,1,1.287974931353847,1.1725824533761016,1.008459941678119
1769250801476,128,0,0.605794390679351,0.1607650152333636,0.3277518365414062
1769250801480,128,0,-0.1015958660164089,0.1527515353968813,-0.3775044082811538
1769250801484,127,-1,-0.9224487035105224,-0.7125666827496979,-1.1959722874720446
1769250801488,126,-2,-1.8595694001359808,-1.8109007421825432,-2.1311843006262983
1769250801492,125,-3,-2.7712471428612813,-2.847963781490405,-3.0413253888091067
1769250801496,124,-4,-3.4585049414037,-3.8139975975381337,-3.7266464530789696
1769250801500,124,-4,-3.8183193180395913,-3.8502765251369424,-4.083828177242005
1769250801504,124,-4,-3.913457217435192,-3.69284028909409,-4.176256557349035
1769250801508,124,-4,-3.896002884567185,-3.811788409486887,-4.156783060939273
1769250801512,124,-4,-3.86783824020919,-3.8530950274328872,-4.127370089398109
1769250801516,124,-4,-3.814544725394587,-3.7977738486927617,-4.073014404439356
1769250801520,124,-4,-3.666079675887546,-3.875233769647175,-3.923037948403739
1769250801524,124,-4,-3.41055572216604,-3.620622624101418,-3.6654279552157223
1769250801528,125,-3,-3.1373771561549564,-2.889596316082981,-3.3900211438415093
1769250801532,125,-3,-2.958112959642836,-2.754898272715522,-3.20876654332532
1769250801536,125,-3,-2.8810594470046857,-2.90187080133469,-3.1296741750521098
1769250801540,125,-3,-2.770177113594336,-2.7755062004195823,-3.016121915602758
1769250801544,125,-3,-2.4400686721059364,-2.668250996340113,-2.682952247426787
1769250801548,126,-2,-1.8064372600722756,-1.8775292326192343,-2.047236965073417
1769250801552,127,-1,-0.9601652793302878,-0.6831237391023451,-1.2009523851171957
1769250801556,128,0,-0.1068220977773246,-0.0561549162135088,-0.3487339326458756
1769250801560,128,0,0.5709411126982173,0.4690587395064347,0.3293912624628374
1769250801564,129,1,1.0246878721885428,1.029276463415581,0.786631011280176
1769250801568,129,1,1.363633434279953,1.4871726291947571,1.1308771027912532
1769250801572,130,2,1.7874244184341204,1.94134193184118,1.5587902597838483
1769250801576,130,2,2.4575349528634747,2.3216907046559037,2.230282219920478
1769250801580,131,3,3.365991255594415,3.1273017535900163,3.138361760180506
1769250801584,132,4,4.290305142246389,4.341118842009901,4.062301120658443
1769250801588,133,5,4.89473458494672,5.243071134414254,4.667065089647769
1769250801592,133,5,4.926855545585404,5.141404428395812,4.700193751492405
1769250801596,132,4,4.361840216280154,4.1742151286094185,4.1371863144535705
1769250801600,131,3,3.384329894048869,3.2324550469671136,3.163079461966294
1769250801604,130,2,2.243774766245076,2.2832563454559396,2.0266473301235415
1769250801608,129,1,1.117364305674317,1.2891452661260605,0.9034408177741732
1769250801612,128,0,0.0722174347746439,0.1538793382177965,-0.1405287264800474
1769250801616,127,-1,-0.8922969603361852,-0.8788730759400893,-1.1054574996605604
1769250801620,126,-2,-1.7962885983788983,-1.6594579603083948,-2.01000777275344
1769250801624,125,-3,-2.6664512435605467,-2.880697770744045,-2.879676777923678
1769250801628,124,-4,-3.539765023884884,-3.465819724875624,-3.751204363175443
1769250801632,124,-4,-4.445619425288662,-4.1152680769960535,-4.654402974846671
1769250801636,122,-6,-5.36376419244263,-5.584129499727035,-5.569448387609365
1769250801640,122,-6,-6.200065791852164,-5.948338004627987,-6.402501048253309
1769250801644,121,-7,-6.8210626172620685,-6.623078989683905,-7.020732861312639
1769250801648,120,-8,-7.138639944777439,-7.637411794167091,-7.337341621034565
1769250801652,121,-7,-7.181645834116122,-7.010613080141799,-7.382367599796216
1769250801656,121,-7,-7.086969020955983,-6.56884868319342,-7.291498617740052
1769250801660,121,-7,-7.010714619967599,-7.092452545783107,-7.215884715659873
1769250801664,120,-8,-7.034685357495469,-7.350188545057239,-7.232113344708781
1769250801668,121,-7,-7.133498335796741,-6.996473097095611,-7.316424825488633
1769250801672,121,-7,-7.206790440226608,-6.570933317052078,-7.379191819646781
1769250801676,121,-7,-7.167420739112368,-7.008664792594597,-7.344949203176263
1769250801680,120,-8,-7.072785752794009,-7.683419376396221,-7.271459137100984
1769250801684,120,-8,-7.188479249651344,-7.690686884378986,-7.409675522551782
1769250801688,120,-8,-7.776170911658161,-7.729268972654355,-8.001663456020319
1769250801692,120,-8,-8.547165106298788,-7.73337611482036,-8.75022552250835
1769250801696,121,-7,-8.136041172014824,-6.890342533132221,-8.300969728443976
1769250801700,124,-4,-4.2424461366756185,-3.759467997856772,-4.376977501476901
1769250801704,132,4,5.183431672106527,4.380073553675372,5.053093344127708
1769250801708,146,18,20.175702679142404,18.21294926015517,20.022572208902027
1769250801712,164,36,37.660623705337784,36.39867893956581,37.47238785197216
1769250801716,182,54,52.203434130234776,53.964819078908974,51.98575541308155
1769250801720,189,61,58.55704008087727,61.40599853584474,58.32788435930546
1769250801724,183,55,54.48520807110584,55.100601640222706,54.26753602927094
1769250801728,168,40,41.91193380309986,40.45573892711253,41.725577889400824
1769250801732,152,24,25.631512029978236,24.13971251832832,25.48297067327892
1769250801736,138,10,10.610814905429072,10.28632324612397,10.487000953451751
1769250801740,128,0,-0.235108737671803,0.2458738319677422,-0.3606560438532136
1769250801744,122,-6,-6.578830600449985,-5.752849656016778,-6.729208791743329
1769250801748,119,-9,-9.697358320285964,-8.630980118995561,-9.877835380780052
1769250801752,117,-11,-11.066082824618166,-10.909773801848656,-11.26271986309414
1769250801756,115,-13,-11.552872987411112,-12.569775162789984,-11.743995193400789
1769250801760,116,-12,-11.466887275600444,-11.918646469819024,-11.63823559235732
1769250801764,117,-11,-10.993488231486149,-10.49730610978894,-11.146318791414652
1769250801768,118,-10,-10.429016552248704,-9.956527352527615,-10.576044293080484
1769250801772,118,-10,-10.056444229990822,-9.59190062169249,-10.209946845139331
1769250801776,118,-10,-9.93500583776236,-9.881139199107755,-10.097409597432469
1769250801780,117,-11,-9.898472812680556,-10.5806926345334,-10.062859068357596
1769250801784,118,-10,-9.756049313838462,-9.765294980254476,-9.914741070539652
1769250801788,119,-9,-9.459568766142144,-8.74456412642561,-9.611688599859374
1769250801792,119,-9,-9.080428542475326,-8.777207872933507,-9.231149020352824
1769250801796,119,-9,-8.682823545987894,-8.72915107943134,-8.836430894095155
1769250801800,119,-9,-8.268795483415184,-8.643464807871085,-8.424191366172234
1769250801804,120,-8,-7.827402044138336,-7.742709354604711,-7.980639861353936
1769250801808,121,-7,-7.376380931693768,-6.698717371811387,-7.525882935736082
1769250801812,121,-7,-6.929514629586645,-6.916641886955133,-7.077273461424811
1769250801816,121,-7,-6.454902722674355,-6.497959506516885,-6.603160263038894
1769250801820,122,-6,-5.9030398058378095,-5.903913661960487,-6.0515200921630035
1769250801824,122,-6,-5.272587703898479,-5.431763923495925,-5.419559733059683
1769250801828,124,-4,-4.618950533159322,-4.013972378788248,-4.76388946895117
1769250801832,124,-4,-3.9867523774376954,-3.6296348842762742,-4.130733428965165
1769250801836,124,-4,-3.354560699477218,-3.729204319916369,-3.4983053645454687
1769250801840,125,-3,-2.6678950179244287,-2.706889273177608,-2.8107566548039737
1769250801844,126,-2,-1.9197844979614456,-1.5442410344520705,-2.06106840826871
1769250801848,127,-1,-1.179496713179566,-0.9733963332665692,-1.31977760138023
1769250801852,127,-1,-0.5417352272845899,-0.5998203251022669,-0.6821508910501177
1769250801856,128,0,-0.05844518381139,0.1987420333011572,-0.199100222509583
1769250801860,128,0,0.2844237852979305,0.4097077398535202,0.1448107082407683
1769250801864,128,0,0.5416629286921761,0.3554302954828752,0.404447760876782
1769250801868,129,1,0.7718224460065399,1.1032398242566197,0.6368693273455877
1769250801872,129,1,1.0179933571633315,1.3777129393637706,0.8836522290092523
1769250801876,129,1,1.3008326799119472,1.168800862771123,1.1656664619964228
1769250801880,129,1,1.605903784351002,1.5230784373802877,1.4701582415695116
1769250801884,130,2,1.8787200483566,2.1975148185880853,1.743799805267407
1769250801888,130,2,2.0582246310269605,2.30737096662382,1.9250599993369737
1769250801892,130,2,2.135853662205965,2.1559674762344763,2.0041773627532375
1769250801896,130,2,2.1800828357109427,2.4078352007857857,2.049090878427947
1769250801900,130,2,2.289966485197521,2.3046968348081975,2.1592714449562616
1769250801904,130,2,2.513129069322107,2.410407838578075,2.382963959686335
1769250801908,131,3,2.8037476223660787,3.1290344789047606,2.6743889046605474
1769250801912,131,3,3.0617068599147657,3.3125738917178147,2.93296120941398
1769250801916,131,3,3.215819456066757,3.290970893624719,3.0872663994729783
1769250801920,131,3,3.270254612378801,3.406103568266638,3.14191404591668
1769250801924,131,3,3.272016366676282,3.340160985676668,3.1445381948737205
1769250801928,131,3,3.2375043773099814,3.1885893890449095,3.111484498420699
1769250801932,131,3,3.11552614500243,3.278150573244156,2.9905878651157507
1769250801936,131,3,2.824921802396694,3.329899593954897,2.699802997869667
1769250801940,130,2,2.3255831804320737,2.3785756507495255,2.1995260192874
1769250801944,129,1,1.6478099562411206,1.3828679934799113,1.5216334984533568
1769250801948,129,1,0.8600493886704572,1.1325242919365128,0.7353145964383774
1769250801952,128,0,0.027716481028942,0.3732961385234861,-0.0950533433553026
1769250801956,127,-1,-0.7913710468911284,-0.7860288229131291,-0.9131764035676452
1769250801960,126,-2,-1.532776407618528,-1.4442728166219472,-1.6549533514177437
1769250801964,126,-2,-2.1323316980303533,-1.8416870462272592,-2.255218095293152
1769250801968,125,-3,-2.557018665295104,-2.5892409120184268,-2.679777801323913
1769250801972,125,-3,-2.826073633768923,-2.937534180761224,-2.9477484024358485
1769250801976,125,-3,-2.9919048763577516,-2.4213596420576944,-3.1125725038700573
1769250801980,125,-3,-3.0923138905934926,-2.814277927654107,-3.2129090198590204
1769250801984,124,-4,-3.1258216603526914,-3.471961820152725,-3.24687119434065
1769250801988,125,-3,-3.079721283345118,-2.9321858680511963,-3.200861321265279
1769250801992,125,-3,-2.9702380294496264,-2.6303971191502376,-3.0910167666619004
1769250801996,125,-3,-2.8372478913418044,-2.648992533764446,-2.9576109908934907
1769250802000,125,-3,-2.7004022124063356,-2.6326465327277706,-2.820209278535344
1769250802004,125,-3,-2.5314921347711374,-2.5888610338201468,-2.6503879488144437
1769250802008,126,-2,-2.270669124416933,-1.8805818581202671,-2.388800301023363
1769250802012,126,-2,-1.8700294549407213,-1.6160512262514557,-1.9882612136154416
1769250802016,126,-2,-1.3376284964355438,-1.6787554976016963,-1.4567321639653092
1769250802020,127,-1,-0.7534254797754163,-0.5666531374721814,-0.8734879103940584
1769250802024,128,0,-0.2292899259629035,0.3526972310014349,-0.3499145173380482
1769250802028,128,0,0.1738561309603213,0.1371369600830527,0.0533896199533713
1769250802032,128,0,0.5033251373664218,0.4344911865729066,0.3840331038704176
1769250802036,129,1,0.8903467452637375,1.2320934565886814,0.7729147414181603
1769250802040,129,1,1.461115788935266,1.5881476540641306,1.3450713930732086
1769250802044,130,2,2.2458446403535075,2.169542589980379,2.1296290233099864
1769250802048,131,3,3.1389547245937814,3.3307013539498307,3.020917057536056
1769250802052,132,4,3.9319792508512785,4.262636023036909,3.811494642706407
1769250802056,132,4,4.4022116514667164,4.397777919080297,4.280222631408706
1769250802060,132,4,4.408537199580245,4.466720064890234,4.286979007482698
1769250802064,132,4,3.947649723662567,4.262346946028338,3.827938224150998
1769250802068,131,3,3.1501145747482138,3.2530305292040422,3.032067344549622
1769250802072,130,2,2.2177408646663572,2.3491908447873384,2.100058798396126
1769250802076,129,1,1.3257498788802513,1.3312495705179532,1.2073634708926804
1769250802080,128,0,0.542599096690389,0.5509318174353507,0.4232918086121167
1769250802084,128,0,-0.1767706524367619,0.1875265428211756,-0.2968225863741183
1769250802088,127,-1,-0.9208308555725344,-0.693883957811861,-1.041556940359237
1769250802092,126,-2,-1.7386627906947525,-1.6512513324200242,-1.859998805846573
1769250802096,125,-3,-2.615020397768847,-2.705639426579709,-2.736780717806199
1769250802100,124,-4,-3.5074273612669415,-3.336024305374867,-3.6295148172238054
1769250802104,124,-4,-4.38961031991184,-3.9893948163591624,-4.511939207943329
1769250802108,122,-6,-5.256835114692493,-5.453182002848311,-5.378873371526641
1769250802112,122,-6,-6.0980965837824215,-5.9222127355989125,-6.219167047029862
1769250802116,121,-7,-6.8659565393225535,-6.397010680450663,-6.9865824174780675
1769250802120,120,-8,-7.472937004789761,-7.6270389362804,-7.5954520394353136
1769250802124,120,-8,-7.828643369912353,-7.734794485449786,-7.955407676562557
1769250802128,120,-8,-7.8992101550197855,-7.627603356424829,-8.029352855715569
1769250802132,120,-8,-7.740585334622205,-7.8359660661994335,-7.868628807888639
1769250802136,120,-8,-7.469676796471865,-7.355836258066821,-7.589107670737196
1769250802140,121,-7,-7.191351174800339,-6.75582116402096,-7.301835783448455
1769250802144,121,-7,-6.953630656575654,-6.534982368901827,-7.065097887333447
1769250802148,121,-7,-6.79962894751356,-6.858858714011486,-6.926923389745679
1769250802152,120,-8,-6.874207719540395,-7.589661407947696,-7.024551352548378
1769250802156,120,-8,-7.390520453301772,-7.576053285855536,-7.554444901203423
1769250802160,120,-8,-8.277688736394722,-7.536271905441052,-8.432836023740787
1769250802164,120,-8,-8.645327896247888,-7.744474638773891,-8.771846654968638
1769250802168,122,-6,-6.592428803546579,-5.6236155617064805,-6.688122167505606
1769250802172,128,0,0.1008244290679218,0.1555681131045299,0.0181690828640599
1769250802176,138,10,12.454007045376674,10.747837364146188,12.358775449611414
1769250802180,155,27,28.8471392514964,27.119705013090183,28.721556197400425
1769250802184,173,45,44.91021628333342,45.67098882659427,44.7517703984026
1769250802188,186,58,55.27383152872648,57.923239058784304,55.09350768942269
1769250802192,185,57,56.29463261067348,57.58416099367544,56.11187023173345
1769250802196,175,47,47.954297475063086,47.2640757144689,47.79041147079869
1769250802200,160,32,33.65163134158831,32.5259837611928,33.51998489958186
1769250802204,145,17,18.163203015926076,17.344972622659036,18.06015607448768
1769250802208,133,5,5.27225534171377,5.291593529422525,5.17769847975956
1769250802212,125,-3,-3.4787302791195724,-2.634431728755705,-3.5890445634669152
1769250802216,120,-8,-8.505884597355763,-7.549161943597134,-8.645089711792771
1769250802220,117,-11,-11.041673215874134,-10.688398985550394,-11.205051915655565
1769250802224,115,-13,-12.138021803635183,-12.451091324599805,-12.308598999648176
1769250802228,115,-13,-12.365674467934756,-12.914088903772,-12.52672284701644
1769250802232,115,-13,-12.050519887601755,-12.31525098368962,-12.195930822755995
1769250802236,117,-11,-11.532730389679692,-10.940913345824136,-11.668818391862503
1769250802240,117,-11,-11.133944939222674,-10.272040116727643,-11.272325820594569
1769250802244,117,-11,-10.9561442324177,-10.933500673211851,-11.10370848313042
1769250802248,116,-12,-10.82984787366078,-11.37971549839408,-10.984320142526023
1769250802252,117,-11,-10.515975362894942,-10.77936509547028,-10.67054164005241
1769250802256,118,-10,-9.948406950505676,-9.529703315791094,-10.09980360757934
1769250802260,119,-9,-9.269696422617184,-8.614614925289231,-9.420872931746825
1769250802264,119,-9,-8.665826167567173,-8.708613220845848,-8.821176656754528
1769250802268,119,-9,-8.209311039247506,-8.466826974143821,-8.36915472453472
1769250802272,120,-8,-7.852427465284645,-7.756032198115187,-8.01326216727149
1769250802276,120,-8,-7.515942102764058,-7.468817440596305,-7.675177479798286
1769250802280,121,-7,-7.1483368938623295,-6.749244596439397,-7.307185400393014
1769250802284,121,-7,-6.722258998388937,-6.530660292102957,-6.883702187231739
1769250802288,121,-7,-6.224113109743073,-6.656987043666619,-6.389193030279965
1769250802292,122,-6,-5.667908216211854,-5.506285292335043,-5.835030682824796
1769250802296,123,-5,-5.095279374603637,-4.734123807587219,-5.262736145371004
1769250802300,123,-5,-4.532543831742922,-4.483699486732361,-4.700520121947013
1769250802304,124,-4,-3.95026336649456,-3.796644644894423,-4.1200422919669855
1769250802308,124,-4,-3.2890630237716603,-3.3789735523299935,-3.461102265266028
1769250802312,125,-3,-2.5375841761658853,-2.743124963496299,-2.7112191754143775
1769250802316,126,-2,-1.7741193531389432,-1.5145910462224128,-1.949033826540401
1769250802320,127,-1,-1.1136823277283796,-0.6695249604971639,-1.2907233245343874
1769250802324,127,-1,-0.6101725111564024,-0.6677256837801064,-0.7900683027795041
1769250802328,127,-1,-0.2188673863157666,-0.4186030456450599,-0.400671649285118
1769250802332,128,0,0.1459980242478011,0.2363429981787435,-0.0358304924550839
1769250802336,128,0,0.5314385740861003,0.5920797096943067,0.3499458174291872
1769250802340,129,1,0.926053342829511,1.1578956674926058,0.7427512161823817
1769250802344,129,1,1.2956297100036789,1.5572856767423169,1.1079999362758997
1769250802348,129,1,1.6081144152763842,1.343599448318994,1.4161759766750526
1769250802352,129,1,1.8226412227301445,1.495519144027948,1.6289548298976066
1769250802356,130,2,1.8934535738228055,2.350456493157024,1.7000730915328182
1769250802360,130,2,1.827783363233124,2.3833912698124515,1.634115861400065
1769250802364,129,1,1.737348594061492,1.3592028475195286,1.5415226433705045
1769250802368,129,1,1.7900705929592964,1.5380787352474532,1.5914326728468675
1769250802372,130,2,2.0799552775516505,2.3212249141416947,1.8792732557203204
1769250802376,130,2,2.544556251522774,2.529542873773246,2.3423143986147954
1769250802380,131,3,3.0154663326664672,3.216274783823594,2.8109539550673857
1769250802384,131,3,3.3476567883282797,3.5393175004951307,3.13985609991612
1769250802388,131,3,3.5041715300009058,3.354233627787708,3.2931598723910245
1769250802392,131,3,3.5313243844569975,3.5123475334614516,3.3185526438193844
1769250802396,131,3,3.4701349834677586,3.3577842183611684,3.257134015272521
1769250802400,131,3,3.303157815835633,3.3756339895719236,3.089850570018343
1769250802404,131,3,2.9844802293877235,3.436628317429142,2.7689807513926494
1769250802408,130,2,2.501919902242415,2.4068706493699943,2.2823011098996036
1769250802412,129,1,1.8877228090965072,1.5158772925176291,1.663871114848125
1769250802416,129,1,1.1687131482571025,1.3152441740963827,0.9422040751801912
1769250802420,128,0,0.3323133401023629,0.4674594656202453,0.1047158800519829
1769250802424,127,-1,-0.6338532224703708,-0.6619606970160472,-0.8622162452421045
1769250802428,126,-2,-1.667484636319522,-1.472923852077018,-1.8973839366221832
1769250802432,125,-3,-2.6117584740867104,-2.6122271798896706,-2.8441689306370237
1769250802436,124,-4,-3.2901340066407236,-3.555738370987509,-3.5255454294954305
1769250802440,124,-4,-3.621944228284145,-3.6322251292291408,-3.860274872295741
1769250802444,124,-4,-3.677831207388223,-3.5581868149722067,-3.918734629896477
1769250802448,124,-4,-3.6219481938383993,-3.5528385238421034,-3.8651091242212288
1769250802452,124,-4,-3.588735874431399,-3.54376768139742,-3.83408998768318
1769250802456,124,-4,-3.5979567655191835,-3.624345196317798,-3.845843534283968
1769250802460,124,-4,-3.5734418767986234,-3.545748942363027,-3.824341821869139
1769250802464,124,-4,-3.440693571408515,-3.634242070982083,-3.694552343635346
1769250802468,124,-4,-3.211228012667586,-3.4538227014267933,-3.4672846982355128
1769250802472,125,-3,-2.9696115634124465,-2.6560172282598806,-3.227231983984319
1769250802476,125,-3,-2.7688320944947193,-2.493699773547786,-3.028259215612883
1769250802480,125,-3,-2.5423841226707498,-2.6889583198112854,-2.8043238815797467
1769250802484,125,-3,-2.1416969510102564,-2.441819602522354,-2.4065311705039276
1769250802488,126,-2,-1.479244737108679,-1.6744553590666422,-1.747130323901532
1769250802492,127,-1,-0.6362123526199803,-0.4002504711834806,-0.9075460423393228
1769250802496,128,0,0.1775026643262416,0.2376376767142911,-0.0975332661770662
1769250802500,128,0,0.7788470580813005,0.5926158440180298,0.5007465706977381
1769250802504,129,1,1.1496413564606454,1.314371879462813,0.8697637162933918
1769250802508,129,1,1.4479378940020071,1.5141941440743576,1.167156926859997
1769250802512,129,1,1.883607017335887,1.4963552814356196,1.6017100143413612
1769250802516,130,2,2.5484454612315974,2.2508319993671035,2.264166367521313
1769250802520,131,3,3.3306935856325985,3.707763974588605,3.042271743224132
1769250802524,132,4,3.979611537777882,4.107088357238304,3.685989314320173
1769250802528,131,3,4.259182014193935,3.80653557162523,3.9610654237641474
1769250802532,132,4,4.069395919102477,4.153195848091419,3.768722653246132
1769250802536,131,3,3.4688052079127223,3.6033811113348806,3.1670257103987134
1769250802540,130,2,2.613232493198689,2.405719690447727,2.3104310405017263
1769250802544,129,1,1.661317521045993,1.3638643613352488,1.3566439460069208
1769250802548,128,0,0.7057872253334941,0.6372056094786909,0.3980230825584212
1769250802552,128,0,-0.2283167932969613,0.2322540354058309,-0.5402198751094085
1769250802556,126,-2,-1.13817083866019,-1.3879424261697326,-1.4541749725297834
1769250802560,125,-3,-2.0139186780955356,-2.6428786280880456,-2.3327940451037654
1769250802564,125,-3,-2.8475494937173345,-2.5497998586356916,-3.168503586883997
1769250802568,124,-4,-3.6405616988742624,-3.4304618233951647,-3.9644767342048626
1769250802572,123,-5,-4.390427877712668,-4.755717051298558,-4.71843442616976
1769250802576,122,-6,-5.08656693144367,-5.303343861910507,-5.417821559177396
1769250802580,122,-6,-5.72675908576891,-5.8114433853214065,-6.059024533663534
1769250802584,121,-7,-6.316048541531297,-6.288331078608273,-6.648875031072087
1769250802588,121,-7,-6.832189842365798,-6.7342468286997565,-7.168660193768753
1769250802592,120,-8,-7.206388065990133,-7.437300512494955,-7.550578678553976
1769250802596,120,-8,-7.368300170393645,-7.592990377491397,-7.720282385419952
1769250802600,120,-8,-7.324271225172862,-7.5568353472675405,-7.677839403901029
1769250802604,120,-8,-7.176498948917681,-7.476163922154432,-7.523404969924033
1769250802608,121,-7,-7.039019066491972,-6.587592412854289,-7.377469246749618
1769250802612,121,-7,-6.935813741270637,-6.5376542049337205,-7.275359271167523
1769250802616,120,-8,-6.828259525781382,-7.517788503651837,-7.184692899150756
1769250802620,120,-8,-6.782553071166717,-7.618877124504915,-7.165224411464646
1769250802624,120,-8,-7.042644506098747,-7.393390380066368,-7.444448348510974
1769250802628,120,-8,-7.72926977442985,-7.683935315748846,-8.128715832694912
1769250802632,120,-8,-8.225790223591073,-7.39206580441504,-8.601287964613707
1769250802636,122,-6,-6.795078663475657,-5.690610538335539,-7.14088055081689
1769250802640,126,-2,-1.0861842905985384,-1.4201718562930408,-1.4169485681919247
1769250802644,136,8,10.368366208479758,8.414400750933373,10.027659544971137
1769250802648,152,24,26.506395226674577,24.54353003210148,26.135635410175382
1769250802652,171,43,43.29395795395551,43.415767714696415,42.88686590914012
1769250802656,185,57,55.23517572201533,57.499581967016034,54.79989445383587
1769250802660,187,59,58.12597432995223,59.36120462808481,57.681379764253265
1769250802664,178,50,51.25424061673267,50.53092111073401,50.82320335776931
1769250802668,164,36,37.57092790309315,36.420133396597144,37.16964160116508
1769250802672,148,20,21.849141051860556,20.501253823172497,21.476989566470447
1769250802676,135,7,8.21569818434067,7.586709336837181,7.854257169011297
1769250802680,127,-1,-1.3729725432065347,-0.7201568861685526,-1.7489575114245066
1769250802684,121,-7,-7.076964927419475,-6.282012848068943,-7.483869399468608
1769250802688,118,-10,-10.07625569543564,-9.901607998863437,-10.512270620266875
1769250802692,115,-13,-11.47851828266953,-12.100839253587958,-11.926880681433314
1769250802696,115,-13,-11.90872267719858,-12.871275802211256,-12.350547411972306
1769250802700,115,-13,-11.703460314118812,-12.146864995888052,-12.13060308866432
1769250802704,117,-11,-11.194932772407336,-10.899109018890634,-11.613560078861898
1769250802708,117,-11,-10.725632528373056,-10.307081183216924,-11.148486848837356
1769250802712,117,-11,-10.471446997689258,-10.695716666578916,-10.906136636136845
1769250802716,116,-12,-10.362757027548716,-11.292338961480608,-10.806697294315388
1769250802720,117,-11,-10.216318729889018,-10.632172963403258,-10.66205012465834
1769250802724,118,-10,-9.919161619897316,-9.464536111645996,-10.363068809874267
1769250802728,118,-10,-9.480740546923505,-9.691639586273764,-9.92567603152688
1769250802732,118,-10,-8.962253877542201,-9.396514024788427,-9.412778173871615
1769250802736,119,-9,-8.413811874057782,-8.485503506087767,-8.870886417458587
1769250802740,119,-9,-7.878380163239295,-8.507317659805931,-8.339237950115518
1769250802744,120,-8,-7.40707997771603,-7.479069876969382,-7.869119715350917
1769250802748,121,-7,-7.02930849756779,-6.775088273919271,-7.49287884470799
1769250802752,120,-8,-6.707994614255891,-7.255169281534005,-7.175205568469054
1769250802756,121,-7,-6.353266593491483,-6.660690988210636,-6.82496896126789
1769250802760,121,-7,-5.900726830036773,-6.27036045633286,-6.3756352306089
1769250802764,122,-6,-5.368961534015967,-5.728539587020154,-5.8457287018774124
1769250802768,123,-5,-4.824012214522563,-4.516521609881057,-5.3032055626473635
1769250802772,123,-5,-4.291351577945436,-4.518010512488141,-4.774635195080416
1769250802776,123,-5,-3.726442634030065,-4.4114315039870995,-4.214235918723034
1769250802780,124,-4,-3.0838652026089974,-3.4549671264717627,-3.574879156607925
1769250802784,125,-3,-2.3954402690377163,-2.5832285423027903,-2.888650902138481
1769250802788,126,-2,-1.752158355965713,-1.6198654143265012,-2.248129563335086
1769250802792,126,-2,-1.208579446580221,-1.4373289017119,-1.708189709756195
1769250802796,126,-2,-0.7258640910424179,-1.48856999639613,-1.2286150860779688
1769250802800,127,-1,-0.2159335833216746,-0.3446961119420029,-0.7206140643090067
1769250802804,128,0,0.3703647455219052,0.2983920788556846,-0.1363462987852503
1769250802808,128,0,0.9984999116255808,0.5091727454461314,0.4880513264933281
1769250802812,129,1,1.569964978369592,1.4552253216640412,1.0544060474603931
1769250802816,129,1,1.9737795835708356,1.5798171956956768,1.453685060293024
1769250802820,129,1,2.141851199923491,1.6549172408271489,1.619097749079638
1769250802824,130,2,2.095403268045155,2.240238914022433,1.571276607822742
1769250802828,129,1,1.958988381557215,1.65259022903583,1.433335355385618
1769250802832,129,1,1.9120163734191704,1.2321029489037274,1.3839617893612142
1769250802836,129,1,2.08884732014427,1.8864457164061104,1.5576353011884445
1769250802840,130,2,2.4975092668037187,2.2928876776582032,1.962625082034988
1769250802844,130,2,3.0227111495515935,2.6545728533050506,2.483870562730916
1769250802848,131,3,3.505350628355624,3.2506094046867107,2.9627197695487597
1769250802852,131,3,3.831573949890876,3.5897042964883843,3.2858004417910043
1769250802856,131,3,3.9708677014169687,3.6012250017194334,3.4227222146947125
1769250802860,131,3,3.9509989956090994,3.4919262736581325,3.4009104670690515
1769250802864,131,3,3.8046545223856216,3.570735433844028,3.252448653479469
1769250802868,131,3,3.536444986562102,3.2569076112104343,2.981453520846285
1769250802872,130,2,3.131647048074232,2.651687409430151,2.5731631559734027
1769250802876,130,2,2.5878310208163695,2.496584269265066,2.025690484896533
1769250802880,129,1,1.9334898025929252,1.6168953846634582,1.3683939626077506
1769250802884,128,0,1.2149303240101794,0.4755412025526771,0.6479656571276635
1769250802888,128,0,0.4688290253767124,0.3247508665568028,-0.0997732953436416
1769250802892,127,-1,-0.2857638359793225,-0.3537949514805749,-0.8572224020912071
1769250802896,126,-2,-1.032335286039476,-1.578106030068832,-1.608065421759195
1769250802900,125,-3,-1.7493070263257806,-2.2097804607100633,-2.329080378435308
1769250802904,125,-3,-2.4204733416508053,-2.772548060163715,-3.002407419120045
1769250802908,124,-4,-3.033432212839208,-3.3453800822392226,-3.6159890108026578
1769250802912,124,-4,-3.550327207899284,-3.727793528248293,-4.133951335624602
1769250802916,123,-5,-3.8904789555726818,-4.181113655893163,-4.477004388125651
1769250802920,123,-5,-3.973772992406246,-4.596904125954913,-4.564443854391128
1769250802924,123,-5,-3.8050848182659553,-4.399149161479577,-4.399562907287355
1769250802928,124,-4,-3.509476843398043,-3.669655465095844,-4.106721036695838
1769250802932,124,-4,-3.254980894831385,-3.442710437167533,-3.8544375190553897
1769250802936,124,-4,-3.1159927295600807,-3.4181807270535223,-3.7174951034369217
1769250802940,124,-4,-3.006889502688254,-3.3988220083473957,-3.609909197477968
1769250802944,124,-4,-2.7552905844620783,-3.556673360588497,-3.359256674931133
1769250802948,125,-3,-2.2477567157608767,-2.5371600373179604,-2.8533405369941756
1769250802952,126,-2,-1.5169067464275496,-1.521222877887877,-2.1261355169589073
1769250802956,126,-2,-0.7087728882715437,-1.380584550109652,-1.3230452104220998
1769250802960,127,-1,0.0211406971853467,-0.3805216924341946,-0.5970783106088733
1769250802964,128,0,0.600864671888673,0.3696031296461124,-0.0184752294930504
1769250802968,128,0,1.0779675296465203,0.588234042425575,0.4593794608532922
1769250802972,129,1,1.5868451837755069,1.3329641737844482,0.9682873810662498
1769250802976,129,1,2.2558885664110284,1.80012660885687,1.6349803016432167
1769250802980,130,2,3.097235983637474,2.427043711462332,2.4721463716891607
1769250802984,131,3,3.955328591423711,3.560028248382782,3.326020329633187
1769250802988,132,4,4.571492486590481,4.427380282862975,3.9392992082576224
1769250802992,132,4,4.73538728835789,4.461386082907947,4.101858502496818
1769250802996,131,3,4.411390764205815,3.7505314673655503,3.777288740940983
1769250803000,131,3,3.7415901787777743,3.3806023237427247,3.106441565833828
1769250803004,130,2,2.929317584671695,2.7026732138981298,2.292001763479745
1769250803008,129,1,2.0979206105711468,1.2059723777894953,1.4579824773372234
1769250803012,128,0,1.2325169575145054,0.7715071306634574,0.5906057855931361
1769250803016,128,0,0.2504954605831299,0.4185590914048354,-0.3926743113272253
1769250803020,126,-2,-0.8617991076183509,-1.3008951679378646,-1.5063309712618471
1769250803024,125,-3,-1.984466990585136,-2.5791247355634797,-2.630830450974576
1769250803028,124,-4,-2.9514340057577275,-3.561963328287513,-3.5998066336003083
1769250803032,123,-5,-3.7085696888659503,-4.381729530173047,-4.359126394913243
1769250803036,123,-5,-4.375128165221246,-4.471001549032675,-5.028381098956888
1769250803040,122,-6,-5.135542893576421,-5.360091320546961,-5.791483655902491
1769250803044,121,-7,-6.060942564425864,-6.568751383244445,-6.717933321694462
1769250803048,120,-8,-7.025491057688902,-7.5337839939991005,-7.681178850811198
1769250803052,119,-9,-7.784920289207684,-8.428716713682991,-8.43918325759116
1769250803056,119,-9,-8.140921058963798,-8.38797656985196,-8.797392324448595
1769250803060,119,-9,-8.065149114294842,-8.442521222612863,-8.728276900979134
1769250803064,119,-9,-7.712067716822821,-8.485070131914615,-8.381679822255972
1769250803068,120,-8,-7.325907637339521,-7.620422551457896,-7.99521373162721
1769250803072,120,-8,-7.095771425964318,-7.326542002016112,-7.756404936744981
1769250803076,120,-8,-7.047706157322448,-7.498430390194481,-7.698520735332016
1769250803080,120,-8,-7.067972614983293,-7.294929244058423,-7.71942601275682
1769250803084,120,-8,-7.07339991818578,-7.663260611407784,-7.741520659225574
1769250803088,119,-9,-7.190517177942278,-8.428569588394017,-7.883312238607603
1769250803092,119,-9,-7.696354250093797,-8.504896224443605,-8.403970365264422
1769250803096,119,-9,-8.57779702242749,-8.330310853598487,-9.276577457205311
1769250803100,119,-9,-8.928237839253466,-8.40690510467619,-9.59725044336354
1769250803104,121,-7,-6.771850948600912,-6.6083569030486045,-7.408922088926739
1769250803108,127,-1,0.1501144725520093,-0.4205320042395026,-0.4738898802720621
1769250803112,138,10,12.763612584271844,10.452086358280145,12.125549519862322
1769250803116,154,26,29.219845536565288,26.78264458832757,28.54880693555883
1769250803120,173,45,44.90634978286331,45.49896365791726,44.19994113534703
1769250803124,184,56,54.36824931784158,56.453464895880195,53.63945842696256
1769250803128,182,54,54.12889923013971,54.50424779317016,53.400361825048165
1769250803132,171,43,44.54029699625368,43.3920806403655,43.83541269985975
1769250803136,155,27,29.41826472165546,27.88337599217192,28.749408895873312
1769250803140,140,12,13.82483144121603,12.352736025987166,13.184976706823493
1769250803144,128,0,1.571143553851651,0.7851242020667248,0.93706232084505
1769250803148,122,-6,-6.050661038215461,-5.8217797899551496,-6.704174879738
1769250803152,118,-10,-9.872370377978992,-9.239006183181443,-10.557282989238146
1769250803156,116,-12,-11.502318834405434,-11.537736498705728,-12.211427320968726
1769250803160,114,-14,-12.15044556214234,-13.265448881898596,-12.863850918932108
1769250803164,114,-14,-12.286429560381055,-13.520696471707176,-12.98548459046031
1769250803168,115,-13,-11.98002626596104,-12.550837109861416,-12.659192659916693
1769250803172,116,-12,-11.327951201041316,-11.445060916113205,-11.996365722535089
1769250803176,117,-11,-10.55839172070278,-10.43210332829562,-11.230524165615837
1769250803180,117,-11,-9.873947776503218,-10.31204458600099,-10.557488161202537
1769250803184,117,-11,-9.328410574754953,-10.507293202494743,-10.019710145212535
1769250803188,118,-10,-8.87819383769403,-9.49598131587322,-9.56830410586297
1769250803192,119,-9,-8.491039013016689,-8.524751514344004,-9.175128390587105
1769250803196,119,-9,-8.160521230956235,-8.362016614176271,-8.840972125016295
1769250803200,119,-9,-7.848142120704621,-8.375955534499234,-8.529695497670259
1769250803204,119,-9,-7.477729887233946,-8.434742199035416,-8.161824899963449
1769250803208,120,-8,-7.008671683225223,-7.550156748237179,-7.693301175343913
1769250803212,121,-7,-6.485278691477399,-6.452664315234105,-7.168738934098963
1769250803216,121,-7,-5.9900282685421145,-6.472979292960418,-6.672866454080553
1769250803220,121,-7,-5.559540690387712,-6.220893040844015,-6.242912675796631
1769250803224,122,-6,-5.162274562879794,-5.626712405723075,-5.845887603487758
1769250803228,122,-6,-4.7475803880243745,-5.301915143955492,-5.429991307676265
1769250803232,123,-5,-4.293535423948413,-4.734688675013436,-4.974012679638712
1769250803236,123,-5,-3.800845832624664,-4.156873912895368,-4.480334543258102
1769250803240,124,-4,-3.2557562758590777,-3.5672312867488145,-3.9357824220425894
1769250803244,124,-4,-2.6224656656712275,-3.246166062509511,-3.303209294894071
1769250803248,125,-3,-1.8854318437980464,-2.6932212307722474,-2.565335445213681
1769250803252,126,-2,-1.0908617225691786,-1.3254644682634034,-1.768458928407418
1769250803256,127,-1,-0.3268337428092328,-0.5664436254992375,-1.0026010242075245
1769250803260,127,-1,0.3427901729283285,-0.1663322843016835,-0.3330487152594738
1769250803264,128,0,0.9113094263328284,0.3812456569464253,0.2343394627387818
1769250803268,128,0,1.3902569605934114,0.6550310618165478,0.7131937324451674
1769250803272,129,1,1.7557506428484837,1.358774242513627,1.0806230290564276
1769250803276,129,1,1.9605599168625336,1.7316010783211695,1.2883686892805752
1769250803280,129,1,2.0093206736860503,1.5577120610527706,1.3393176190813696
1769250803284,129,1,2.0061271556706903,1.649972227167334,1.33688585700706
1769250803288,129,1,2.0995172779765015,1.400679138417222,1.430360137601093
1769250803292,129,1,2.359533480005321,1.5968322884437094,1.6907850992394398
1769250803296,130,2,2.7069463143964567,2.5289850862868053,2.039125166103487
1769250803300,130,2,2.975774024812903,2.7389976068899133,2.309104500662898
1769250803304,130,2,3.058767538888038,2.5074081334643097,2.3935516057051305
1769250803308,130,2,3.0020011132918305,2.503990259640107,2.338851960230247
1769250803312,130,2,2.9663325801357914,2.5296594226885074,2.305636120934745
1769250803316,130,2,3.0945311247180576,2.556269542902036,2.4359471363867757
1769250803320,130,2,3.39404992785055,2.7882749298802123,2.7367770714810007
1769250803324,131,3,3.72422345407183,3.395881501340458,3.067600118889146
1769250803328,131,3,3.89396053676544,3.688369929619344,3.237844488711473
1769250803332,131,3,3.789449088088557,3.2646042173255467,3.1343654966694268
1769250803336,130,2,3.4289803791834705,2.8880386255695187,2.775969766765336
1769250803340,130,2,2.910770961528186,2.429211841224247,2.2607524872930123
1769250803344,129,1,2.3158177848915815,1.774137117361173,1.6688241927548508
1769250803348,129,1,1.6568539649736709,1.3297275327598794,1.011913954897464
1769250803352,128,0,0.9067501951485234,0.5769757516466842,0.2627345638776008
1769250803356,127,-1,0.0612539222391106,-0.3580485371751498,-0.5819845558586065
1769250803360,126,-2,-0.8319588247016587,-1.3841662015102436,-1.4733832381600651
1769250803364,125,-3,-1.6979789157496197,-2.3365556153204916,-2.336536710996992
1769250803368,125,-3,-2.4737288875632633,-2.62247904063461,-3.109562102221803
1769250803372,124,-4,-3.120487479250667,-3.4167993807393495,-3.7544919303716218
1769250803376,123,-5,-3.615572754757835,-4.39612119903685,-4.247833916105605
1769250803380,123,-5,-3.9492204604427528,-4.318662149358784,-4.578677366501849
1769250803384,123,-5,-4.125897094180454,-4.393955313239374,-4.751898997287409
1769250803388,123,-5,-4.156306840182318,-4.59282738707191,-4.779860732714653
1769250803392,123,-5,-4.0521066553361,-4.39506202391666,-4.674921776085623
1769250803396,123,-5,-3.8432046073580506,-4.4691066994004744,-4.465621488026624
1769250803400,123,-5,-3.5977235225323,-4.190617257536913,-4.2180858638519645
1769250803404,124,-4,-3.3958280960691956,-3.5529839777747094,-4.012020329552378
1769250803408,124,-4,-3.2522907564279175,-3.416129480069712,-3.863592936180804
1769250803412,124,-4,-3.062603983438401,-3.5637319230555646,-3.670003334691125
1769250803416,124,-4,-2.6557404331915064,-3.3150025202845024,-3.260922863097286
1769250803420,125,-3,-1.9364071840746129,-2.320428610291106,-2.5406729759373436
1769250803424,126,-2,-0.9948747849499304,-1.435371520722627,-1.5984853079582797
1769250803428,127,-1,-0.0739229505716547,-0.5164115058264378,-0.6759149539593907
1769250803432,128,0,0.5981887326586273,0.5461162756200587,-0.0005250607080364
1769250803436,128,0,0.9833035251226256,0.5551868167730118,0.3891319393299211
1769250803440,128,0,1.2741732654059952,0.8269345758034259,0.6846640876682073
1769250803444,129,1,1.7542414323674418,1.4027386184297637,1.168618988056637
1769250803448,129,1,2.5738387776971865,1.6710521408182553,1.991164474465826
1769250803452,131,3,3.617370915889904,3.359626553332988,3.0368666603892605
1769250803456,132,4,4.570901251059406,4.75249217654195,3.9919916882525617
1769250803460,132,4,5.130940494670183,4.616559538722832,4.553651971386727
1769250803464,132,4,5.175483815224834,4.619321919379539,4.6007588992376345
1769250803468,132,4,4.770535784107768,4.4536459682225065,4.199638172141892
1769250803472,131,3,4.047739859270624,3.578619886842863,3.4812849063603006
1769250803476,130,2,3.088778178095366,2.551755287666885,2.5265026196730584
1769250803480,129,1,1.9147022217533811,1.8070067717785017,1.35600208265246
1769250803484,128,0,0.5658382461501272,0.4493192690235164,0.0103799525557288
1769250803488,126,-2,-0.8284351249529442,-1.40564113279429,-1.3805314616408708
1769250803492,125,-3,-2.078592141828305,-2.5109510713842775,-2.6271648602139317
1769250803496,124,-4,-3.0489876327501957,-3.414983195773058,-3.59440548396715
1769250803500,123,-5,-3.753586717386265,-4.142549819735259,-4.296622016351519
1769250803504,123,-5,-4.34233236023742,-4.682410633446718,-4.883238172295811
1769250803508,122,-6,-4.981255541009154,-5.188440458574663,-5.5190111916717575
1769250803512,122,-6,-5.718510583891832,-5.8019325003252495,-6.251137267059099
1769250803516,120,-8,-6.444287740249337,-7.066887362821637,-6.970364995273825
1769250803520,120,-8,-6.9787370175472985,-7.517499311046056,-7.49932293084396
1769250803524,120,-8,-7.213793465214997,-7.298325694407096,-7.732759561744325
1769250803528,120,-8,-7.193327519366936,-7.545703111698612,-7.714338030275721
1769250803532,120,-8,-7.078229190133684,-7.482649063238966,-7.5999744381395
1769250803536,120,-8,-7.033572002025516,-7.326606487541733,-7.548377782736999
1769250803540,120,-8,-7.116584898843332,-7.324343076962319,-7.615896776889991
1769250803544,120,-8,-7.240612997802166,-7.430324906595186,-7.72417575450512
1769250803548,120,-8,-7.2618167209763085,-7.452904341120672,-7.741928855104317
1769250803552,120,-8,-7.162852477665397,-7.543434272927576,-7.657229962085264
1769250803556,119,-9,-7.189188959099338,-8.269372153952965,-7.705847384349875
1769250803560,119,-9,-7.716218461314107,-8.397549810118665,-8.243104561640356
1769250803564,119,-9,-8.740594808946927,-8.327924779403372,-9.251043663977892
1769250803568,119,-9,-9.248635145426547,-8.57875180839147,-9.72035380305526
1769250803572,121,-7,-7.079046120123889,-6.384551242412704,-7.511336043439518
1769250803576,127,-1,0.1776838794568425,-0.4266926833772846,-0.2370314060608063
1769250803580,138,10,13.41908154693992,10.751794521293467,12.992623841952312
1769250803584,156,28,30.51953935019487,28.582950369066495,30.0619690992619
1769250803588,175,47,46.442725081124735,47.48325443851806,45.95247029159917
1769250803592,185,57,55.40284338503628,57.60414598721296,54.894410480122545
1769250803596,182,54,53.90241516807118,54.47699852236035,53.400195970147706
1769250803600,169,41,42.62412305558195,41.79530623450109,42.15285743415069
1769250803604,152,24,25.910086214255045,24.468991221333756,25.482616846526444
1769250803608,135,7,9.298658105669244,7.638339859246567,8.907501422813905
1769250803612,124,-4,-3.157016434234361,-3.39977225490337,-3.536504601168359
1769250803616,118,-10,-10.189874921421756,-9.48145787565212,-10.585098208643934
1769250803620,115,-13,-12.836570356699928,-12.214017687366646,-13.261463907629487
1769250803624,115,-13,-12.990539104472782,-12.625071977719742,-13.438256422491754
1769250803628,114,-14,-12.180724493639897,-13.25522875329204,-12.629714163392917
1769250803632,115,-13,-11.202803928022004,-12.49155777324382,-11.632018430522942
1769250803636,117,-11,-10.38289833694306,-10.33907521069442,-10.7855386619596
1769250803640,118,-10,-9.880268292688903,-9.384665443638108,-10.265865530239846
1769250803644,118,-10,-9.72244103592465,-9.5147690151843,-10.106161220240365
1769250803648,117,-11,-9.73389734824611,-10.347798401707404,-10.123298023910634
1769250803652,117,-11,-9.620123254976043,-10.40374297458823,-10.011401715316806
1769250803656,118,-10,-9.193766144576582,-9.344291953644822,-9.579125946696632
1769250803660,119,-9,-8.507222696718031,-8.418500665529997,-8.88385445355624
1769250803664,120,-8,-7.759958387861607,-7.499081644039278,-8.131278851362998
1769250803668,120,-8,-7.1067406699521385,-7.365654904697407,-7.476451785433893
1769250803672,120,-8,-6.574221276404937,-7.394021926586362,-6.941446156937049
1769250803676,121,-7,-6.127285724072921,-6.286344683566811,-6.4882955675688745
1769250803680,122,-6,-5.749843117388298,-5.514547093007695,-6.103112563813679
1769250803684,122,-6,-5.433717544424908,-5.40816315656698,-5.7814668238154425
1769250803688,122,-6,-5.127759364977234,-5.457695516560951,-5.472622371170534
1769250803692,122,-6,-4.751281737868403,-5.317165650484899,-5.09310410458966
1769250803696,123,-5,-4.265670515756466,-4.291405304666737,-4.6023518389482945
1769250803700,124,-4,-3.704666660797354,-3.566858506569863,-4.035133779871428
1769250803704,124,-4,-3.120279096488997,-3.311249827596677,-3.4454968165026014
1769250803708,125,-3,-2.5159701056350983,-2.617596082934954,-2.8372419480520614
1769250803712,125,-3,-1.8528709789504616,-2.105308962540679,-2.170100703712445
1769250803716,126,-2,-1.119984834902398,-1.5109644580672623,-1.4320644658532449
1769250803720,127,-1,-0.3802018849315304,-0.3397361757475766,-0.686751411745327
1769250803724,128,0,0.2679524992356552,0.475716117728522,-0.0340313018747648
1769250803728,128,0,0.7734364105196376,0.5314194256628468,0.4751663479338242
1769250803732,128,0,1.1690514098301312,0.8308721492450213,0.8753046524612029
1769250803736,129,1,1.5275531077263227,1.474252853778408,1.2401253698998858
1769250803740,129,1,1.8954658840728145,1.772346653975407,1.614861167576533
1769250803744,130,2,2.2726270204903183,2.277645122569015,1.997071814933757
1769250803748,130,2,2.635560291852847,2.780686946194395,2.3628047506400964
1769250803752,130,2,2.953356031349038,2.5595224454117655,2.6833080836198056
1769250803756,130,2,3.1773712464204458,2.745837959048045,2.912270277023519
1769250803760,131,3,3.2484889867075677,3.548880451534204,2.9902393658609783
1769250803764,131,3,3.1551084438590755,3.425805213579821,2.903196658245348
1769250803768,130,2,2.987383132994718,2.7138343602657464,2.740007587817199
1769250803772,130,2,2.8999232077890635,2.5440374563477826,2.6564684201149076
1769250803776,130,2,2.9932845341581227,2.8400867139965627,2.754744780104438
1769250803780,131,3,3.2332405957977843,3.404270898453774,3.0005076655421874
1769250803784,131,3,3.493287940284199,3.609216885065127,3.265938920500414
1769250803788,131,3,3.6699916920979794,3.5166821883729495,3.4468913551900076
1769250803792,131,3,3.75044319979409,3.72503462567779,3.5310543113265167
1769250803796,131,3,3.774824515597623,3.691442902363947,3.5598266094255693
1769250803800,131,3,3.747404344824445,3.5060531246526585,3.5381999695475415
1769250803804,131,3,3.5951926987347975,3.5799721928288126,3.3926027373128376
1769250803808,131,3,3.222767605317359,3.47869821124517,3.025991970014809
1769250803812,130,2,2.6106664648513354,2.8181517890772683,2.4178884208333793
1769250803816,129,1,1.8480660974440517,1.550046563315397,1.6584371373493558
1769250803820,128,0,1.052941336190158,0.6757861726943472,0.8676138387917527
1769250803824,128,0,0.2638764952230659,0.4122463532602068,0.084636806713704
1769250803828,127,-1,-0.5687022133203041,-0.3613459569421966,-0.7415161748965882
1769250803832,126,-2,-1.47585442211606,-1.317456166992197,-1.6435357883571524
1769250803836,125,-3,-2.37056166215095,-2.346550623996705,-2.5342528653516148
1769250803840,124,-4,-3.0756661679876074,-3.40236803921331,-3.2349664702889664
1769250803844,124,-4,-3.459964711601132,-3.5349133889868405,-3.6135748094381817
1769250803848,124,-4,-3.5460814233431575,-3.3751741004693763,-3.693553168461999
1769250803852,124,-4,-3.484957041139534,-3.3286484860916667,-3.627415574520852
1769250803856,124,-4,-3.428598781229883,-3.3058935705475117,-3.567656801925324
1769250803860,124,-4,-3.425266670328468,-3.4832926385861067,-3.5613242236125533
1769250803864,124,-4,-3.422832856774615,-3.4325459364695954,-3.554435216017065
1769250803868,124,-4,-3.3520672281642807,-3.4849705803959696,-3.477007958800937
1769250803872,124,-4,-3.190449097834376,-3.206348661815592,-3.3078170571331045
1769250803876,125,-3,-2.94349483500376,-2.4163587732347303,-3.054698433986284
1769250803880,125,-3,-2.5851092898576415,-2.4048505090376193,-2.6925217841662095
1769250803884,125,-3,-2.054910306008545,-2.4791832449920546,-2.1595104356746027
1769250803888,126,-2,-1.338465410861495,-1.4811241777824458,-1.4393407632010873
1769250803892,127,-1,-0.5338635618517792,-0.1464994234071349,-0.6298966571600696
1769250803896,128,0,0.1975035205956058,0.4688009147753724,0.1064903046724656
1769250803900,128,0,0.7648575914621132,0.7627055042528588,0.6789440762580079
1769250803904,129,1,1.2330984774045497,1.2991565853669411,1.1531974388574513
1769250803908,129,1,1.7754433582385405,1.761732743780931,1.7024247611755876
1769250803912,130,2,2.536540083606078,2.6178886458727257,2.4696487234242808
1769250803916,131,3,3.5135615184536335,3.695622179804724,3.4505074823261452
1769250803920,132,4,4.530585403130129,4.5770674441027905,4.469596658333558
1769250803924,133,5,5.311852136203199,5.417543456868749,5.253436696921106
1769250803928,133,5,5.610068345781145,5.7023330338517875,5.556438580782817
1769250803932,133,5,5.3265034393029795,5.608707928345952,5.279328411298293
1769250803936,132,4,4.558981320127836,4.786849963422402,4.518060271768549
1769250803940,131,3,3.54068597004927,3.4212867215113274,3.5048864122399035
1769250803944,130,2,2.499371825488634,2.6119747368304806,2.4683161811722987
1769250803948,129,1,1.5364837489260286,1.4787918882880728,1.5106482924961702
1769250803952,128,0,0.6226225834020069,0.8410953537693133,0.6018861446314078
1769250803956,128,0,-0.2965690765008228,0.5911773798273452,-0.3134249811841636
1769250803960,126,-2,-1.2049977158552387,-1.4149587307784186,-1.2186344763849513
1769250803964,125,-3,-2.042899870046771,-2.54441201218289,-2.0521208029453724
1769250803968,125,-3,-2.817107949135437,-2.377903520942241,-2.8204757185025504
1769250803972,124,-4,-3.641532827127918,-3.3109361710651917,-3.639854910199715
1769250803976,123,-5,-4.636698335919057,-4.203249183431517,-4.632289071759914
1769250803980,122,-6,-5.794973750110998,-5.652041617229713,-5.788041579378112
1769250803984,120,-8,-6.958251872850535,-7.310133704629067,-6.945380462253732
1769250803988,120,-8,-7.918254836255866,-7.635498590512857,-7.895842202660902
1769250803992,119,-9,-8.525430773118929,-8.044897475752592,-8.49453918342501
1769250803996,119,-9,-8.72628872161555,-8.415699958920094,-8.692908297524557
1769250804000,119,-9,-8.561689585905352,-8.47562085503781,-8.531266331253224
1769250804004,119,-9,-8.178273004517271,-8.456390941907307,-8.14977481280927
1769250804008,120,-8,-7.817653001565191,-7.592734294582698,-7.783139872227616
1769250804012,120,-8,-7.712583625177149,-6.97924239192738,-7.66311643182488
1769250804016,120,-8,-7.927724857544613,-7.534061845061592,-7.8613426211112
1769250804020,119,-9,-8.303366382310212,-8.301382267998171,-8.229418026117049
1769250804024,119,-9,-8.602448050559932,-8.668173783693863,-8.537756311157006
1769250804028,119,-9,-8.744337902449505,-8.475040943621998,-8.700650622045586
1769250804032,118,-10,-8.856877896954606,-8.930998967198963,-8.82745673082381
1769250804036,118,-10,-8.958796660473986,-9.737118771053296,-8.918158983274267
1769250804040,120,-8,-8.383300934698056,-6.874789251668289,-8.30525394991177
1769250804044,126,-2,-5.4358534967047225,-2.3479620193802457,-5.31496301093148
1769250804048,128,0,2.0606430753879863,1.3664942493553802,2.2046846366781425
1769250804052,140,12,15.171157321245754,12.146404211973977,15.30792468915411
1769250804056,158,30,32.12111915406407,31.264454631663433,32.22662939003125
1769250804060,177,49,48.01141638487118,49.19511753084119,48.07760534569979
1769250804064,187,59,56.77536070794552,59.37208509222921,56.81394635919938
1769250804068,183,55,54.395836855325285,55.88150096848292,54.43665029349479
1769250804072,168,40,41.256501012909865,40.17000984087547,41.33427783272556
1769250804076,149,21,22.051403441275465,22.613208247275196,22.18423420204588
1769250804080,132,4,3.355981010408803,3.495082720706627,3.5326516004865445
1769250804084,114,-14,-9.59955976859449,-12.529680613935469,-9.411619638813557
1769250804088,114,-14,-15.073788456982037,-14.33082642019766,-14.907919341778234
1769250804092,115,-13,-14.791652396689493,-11.497934967100033,-14.664101269565496
1769250804096,116,-12,-12.104808552271976,-11.793614371572197,-12.007615436979677
1769250804100,117,-11,-9.797308433219095,-10.148316833951386,-9.704364607219633
1769250804104,119,-9,-8.936552017955679,-8.824251941198181,-8.820816269607064
1769250804108,118,-10,-9.112714551460844,-9.190260606405593,-8.963422502772909
1769250804112,118,-10,-9.416345275720424,-9.456660379864765,-9.242897060318723
1769250804116,118,-10,-9.280999032583829,-9.018519815810508,-9.102340158961546
1769250804120,120,-8,-8.722355636504915,-7.746793947500975,-8.552770982733694
1769250804124,120,-8,-8.057440223301391,-7.366049212402553,-7.899188709682042
1769250804128,120,-8,-7.514276143672899,-7.546085162875878,-7.359610923613526
1769250804132,120,-8,-7.082674649795006,-7.189258908044942,-6.921589961115856
1769250804136,121,-7,-6.637793829634122,-6.219803962687247,-6.465334347800706
1769250804140,122,-6,-6.120722351225431,-5.604455354021322,-5.938890847711107
1769250804144,122,-6,-5.5857731148750345,-5.444745763389326,-5.399912319784223
1769250804148,123,-5,-5.110828280568554,-4.518519026655991,-4.924746951652782
1769250804152,123,-5,-4.6942500969511975,-4.187215623283852,-4.507974207099716
1769250804156,123,-5,-4.246165194297573,-4.261766015412165,-4.056945296981688
1769250804160,124,-4,-3.6758269837441055,-3.53097403712867,-3.480987249803946
1769250804164,125,-3,-2.9790530715453785,-2.531234369653651,-2.7784668957020164
1769250804168,126,-2,-2.235648084909288,-1.4136499980662856,-2.0315698449234425
1769250804172,126,-2,-1.5346255497502146,-1.3168912329630942,-1.3289646572147351
1769250804176,126,-2,-0.9205665345084106,-1.1230988327989304,-0.7128867282122301
1769250804180,128,0,-0.4024782939206842,0.3047070651364163,-0.1910907789353563
1769250804184,128,0,0.0209505610089603,0.6695894585519072,0.2367572861407222
1769250804188,128,0,0.3607641556379415,0.3590666638915711,0.5803659428127097
1769250804192,128,0,0.6451823299565873,0.9313905112300552,0.8678311074025991
1769250804196,129,1,0.9127653291440788,1.6061756064299058,1.138380189532611
1769250804200,129,1,1.197872378397776,1.5503449845052355,1.4269478572220535
1769250804204,129,1,1.517105785545001,1.4928670067401844,1.750129926372594
1769250804208,130,2,1.8597507227719128,2.4524929942620215,2.0963847991416253
1769250804212,130,2,2.1903802285019656,2.942532103067633,2.4293905673373652
1769250804216,130,2,2.4595360280671983,2.4592157720100944,2.7001240535549846
1769250804220,130,2,2.607140167610066,2.8078587380521025,2.850034588918232
1769250804224,131,3,2.5713730842099167,3.158132061443625,2.817905212652483
1769250804228,130,2,2.3322006544476928,2.8356053726426484,2.5826478147354184
1769250804232,130,2,1.9665334784328632,2.5561348668840864,2.2202262468881275
1769250804236,129,1,1.641397073266763,1.79101309577011,1.8982264481075328
1769250804240,129,1,1.52018453690347,1.5406830597090502,1.7808551198746017
1769250804244,130,2,1.659328227717798,2.3477469331573375,1.923783676563719
1769250804248,130,2,1.9899640366363205,2.7440819318576617,2.256612728098424
1769250804252,130,2,2.382139547760465,2.5708944779821,2.649492474418448
1769250804256,130,2,2.709935768298994,2.812362807685024,2.9784479311132706
1769250804260,131,3,2.873608934924976,3.4863994872117776,3.1451232334084893
1769250804264,131,3,2.8089773167809673,3.386426976693758,3.0847085837719193
1769250804268,130,2,2.509637561682502,2.775311531455688,2.7892967281592735
1769250804272,130,2,2.0364185694743817,2.462072304058982,2.318979249422176
1769250804276,129,1,1.4856271463145148,1.9859742814003616,1.7703742868227628
1769250804280,129,1,0.9318468458573164,1.2258181608306868,1.218736499875029
1769250804284,128,0,0.389396759148308,0.6995641084009498,0.6786933891177857
1769250804288,128,0,-0.1763073365600349,0.4772548360615392,0.1154079489339761
1769250804292,127,-1,-0.7974086600157098,-0.2822447640865246,-0.5035452210157256
1769250804296,126,-2,-1.4600679043816729,-1.2093778455351791,-1.1640697913421736
1769250804300,126,-2,-2.108887069664883,-1.7021323949624492,-1.8102963504172864
1769250804304,125,-3,-2.687204793007206,-2.250210287244208,-2.385639835132319
1769250804308,125,-3,-3.166627404897534,-2.659980074772188,-2.8623054632884424
1769250804312,124,-4,-3.541860017703516,-3.063115054150909,-3.2353598591319437
1769250804316,124,-4,-3.808869672147774,-3.488129530710552,-3.500549171088643
1769250804320,124,-4,-3.953834597300193,-3.4506135576948265,-3.643649256960739
1769250804324,124,-4,-3.9598111453538625,-3.441213176621913,-3.6475153239876232
1769250804328,124,-4,-3.8206379678170066,-3.5400236010542994,-3.505973586698133
1769250804332,124,-4,-3.548590238607687,-3.071973592416174,-3.2314414146902712
1769250804336,125,-3,-3.1674705323622065,-2.604511015057868,-2.848009745705281
1769250804340,125,-3,-2.6965019213285473,-2.2726166663099048,-2.3750595934390497
1769250804344,126,-2,-2.1440398348048353,-1.6613452486593625,-1.820761047867686
1769250804348,126,-2,-1.520900292910217,-1.286244619207693,-1.1957501468908174
1769250804352,127,-1,-0.8554046497747256,-0.3144988686641782,-0.528537706008289
1769250804356,128,0,-0.186202588199848,0.5941351247211637,0.1420938753443283
1769250804360,128,0,0.4621369829218422,0.538282245614929,0.7920407508536718
1769250804364,129,1,1.0950813738278815,1.5053090759969896,1.4273128164668103
1769250804368,130,2,1.7452523296426867,2.5892831879057168,2.0802951168228834
1769250804372,130,2,2.455495518625635,2.788009281119182,2.7930967499972654
1769250804376,131,3,3.2462297454908287,3.494320257718172,3.58573432142059
1769250804380,132,4,4.074002821341746,4.6043550246088945,4.41474724852086
1769250804384,133,5,4.814338580350553,5.453136549712805,5.155783387630085
1769250804388,133,5,5.294096011523866,5.648596020951765,5.63611334304915
1769250804392,133,5,5.357410829048946,5.742418082078729,5.700458252425512
1769250804396,133,5,4.9295579001872465,5.505422975112375,5.274231711722822
1769250804400,132,4,4.05263366385139,4.582536864631399,4.3992421322292605
1769250804404,131,3,2.874965611306038,3.471455275838482,3.223865391706245
1769250804408,129,1,1.590186491748117,1.654156752104727,1.9419999342979728
1769250804412,128,0,0.360098831529547,0.7381708823252433,0.7147707091848847
1769250804416,128,0,-0.724838748726019,0.491848685471675,-0.3688427696207894
1769250804420,126,-2,-1.6394178622810025,-1.4199673344012984,-1.2839050574852189
1769250804424,125,-3,-2.4163033450215674,-2.524716933106722,-2.061441696917484
1769250804428,125,-3,-3.149849480623874,-2.328056169883271,-2.794359091824955
1769250804432,124,-4,-3.962310930053945,-3.285625203508886,-3.605274109709117
1769250804436,123,-5,-4.9165055226162435,-4.507341766166901,-4.557877851628072
1769250804440,122,-6,-5.9482020607629575,-5.41490939287348,-5.587610592297684
1769250804444,121,-7,-6.893898515394307,-6.561875794838848,-6.530231411348012
1769250804448,120,-8,-7.594196120158742,-7.250628970983279,-7.227309043432505
1769250804452,120,-8,-7.981248755980397,-7.372587002774305,-7.613770299758049
1769250804456,120,-8,-8.086508424513625,-7.438924033221257,-7.722560264583663
1769250804460,120,-8,-7.989676281104249,-7.468701113581321,-7.630256359098996
1769250804464,120,-8,-7.774610669006559,-7.555359364273227,-7.414093035908826
1769250804468,120,-8,-7.519384989366424,-7.203511170440892,-7.148534631626854
1769250804472,121,-7,-7.291367099252347,-6.460596410021509,-6.906462272841303
1769250804476,121,-7,-7.134589811630674,-6.326737199980566,-6.744530878329483
1769250804480,121,-7,-7.096320322780442,-6.614100606100961,-6.718928100278219
1769250804484,120,-8,-7.308950119589221,-7.41001440625308,-6.9568012575602625
1769250804488,119,-9,-7.992001918917223,-8.342317622307155,-7.65914397509423
1769250804492,119,-9,-9.16451805181173,-8.33865052838718,-8.826863358300251
1769250804496,119,-9,-10.089382865712558,-8.420641812815504,-9.720680756555211
1769250804500,120,-8,-8.916420081216568,-7.559467202660505,-8.507899373525962
1769250804504,125,-3,-3.1783683129788134,-2.436747785149772,-2.7462167885210675
1769250804508,135,7,8.688314987866399,7.680628706813769,9.113453610546228
1769250804512,151,23,25.58661151060643,23.639792233116236,25.97894527547184
1769250804516,171,43,43.17935146598616,43.663207360873976,43.53138687466009
1769250804520,186,58,55.406770639475965,58.28213309043392,55.7305205769027
1769250804524,187,59,57.51796073760293,59.74929394219724,57.837765559432505
1769250804528,177,49,48.700126623497894,49.32986120605155,49.04221585817574
1769250804532,159,31,32.486934797774374,31.988906602833413,32.867970689052875
1769250804536,141,13,14.689833631152558,13.260833771318088,15.10791188272034
1769250804540,127,-1,0.3336865676983729,-0.2014116757098114,0.7677697689567293
1769250804544,121,-7,-8.397171900345114,-6.654564074922478,-7.976341837351114
1769250804548,117,-11,-12.17555414867172,-10.28796404599418,-11.7880725824833
1769250804552,115,-13,-13.038133379250583,-12.364573627430596,-12.682743128158732
1769250804556,115,-13,-12.769357412947478,-12.547585940443692,-12.425943412724216
1769250804560,115,-13,-12.202142378427448,-12.292785799980756,-11.846958305600522
1769250804564,116,-12,-11.484186566762606,-11.631233803788342,-11.105668366499708
1769250804568,117,-11,-10.65621126470314,-10.199878997124646,-10.26018641245012
1769250804572,119,-9,-9.917164120985044,-8.566428981493273,-9.519512619685422
1769250804576,119,-9,-9.471852572931546,-8.35081987459729,-9.085287783429774
1769250804580,118,-10,-9.303865775695504,-9.499845587925654,-8.928997902859756
1769250804584,118,-10,-9.197864627642314,-9.419378453645203,-8.825414945509495
1769250804588,119,-9,-8.966152579293388,-8.32791271286472,-8.587508211870649
1769250804592,120,-8,-8.592235773234439,-7.561082487456254,-8.207400748111066
1769250804596,120,-8,-8.153988507703296,-7.27672401035336,-7.769283542185837
1769250804600,120,-8,-7.67916296781522,-7.685684237197602,-7.298906957678124
1769250804604,120,-8,-7.129053452412988,-7.120790001923637,-6.751529802635304
1769250804608,122,-6,-6.495269458179784,-5.68307834294557,-6.116564684957674
1769250804612,122,-6,-5.849153023047927,-5.192564645860241,-5.468578595624292
1769250804616,123,-5,-5.277054781225062,-4.671872782430934,-4.897257469159436
1769250804620,123,-5,-4.797978436201164,-4.313878013405407,-4.420638318681929
1769250804624,123,-5,-4.367563730173794,-4.442633932147166,-3.990934324590223
1769250804628,124,-4,-3.941998795546579,-3.416320868674968,-3.563394287364504
1769250804632,125,-3,-3.5017763813437712,-2.3974641010531625,-3.121333085130175
1769250804636,125,-3,-3.0149257213961613,-2.566008236766759,-2.635500231167304
1769250804640,125,-3,-2.4258717336332376,-2.3460020371151344,-2.0494854155493982
1769250804644,126,-2,-1.7204154711187172,-1.4633621512449082,-1.346187072809505
1769250804648,127,-1,-0.9860172612059408,-0.3689736631310369,-0.6118335766948533
1769250804652,128,0,-0.3629266083210936,0.5507023477124807,0.012082959197047
1769250804656,128,0,0.0847733060638022,0.4510651223859099,0.4600178596569206
1769250804660,128,0,0.4393198360054771,0.6602833226836666,0.8140413971091458
1769250804664,129,1,0.8597814867142204,1.496376443511113,1.233685109409909
1769250804668,129,1,1.4378369443684238,1.6925757314946956,1.8107968356049051
1769250804672,130,2,2.111170256761246,2.476472213911486,2.4830101673459346
1769250804676,131,3,2.7075282908765246,3.5257532424785003,3.078190791317674
1769250804680,131,3,3.0781341652567185,3.573140211866586,3.4478819157278657
1769250804684,131,3,3.204833221203806,3.5698255554366294,3.5741468717587708
1769250804688,131,3,3.191588371334228,3.626371325708703,3.5607028062962263
1769250804692,131,3,3.1564881270333234,3.526463228946591,3.5249806569174313
1769250804696,131,3,3.1269185861258673,3.4837341327492832,3.4939102420344472
1769250804700,131,3,3.0312281126296003,3.607000980709716,3.396189048632232
1769250804704,131,3,2.790693065853791,3.517124202970878,3.154171711696745
1769250804708,130,2,2.4261258526527874,2.700422057394908,2.7895416531149926
1769250804712,130,2,2.081828882465144,2.407168334601619,2.446136943702549
1769250804716,130,2,1.9431796082431547,2.6449518156154332,2.3076501161248313
1769250804720,130,2,2.108467599813559,2.3960431940700646,2.4712005416345995
1769250804724,130,2,2.5031154235724227,2.75761834226414,2.862890541759936
1769250804728,131,3,2.898102053631486,3.447879864627933,3.2553293429112387
1769250804732,131,3,3.0358675261601316,3.629716900125562,3.391701152805536
1769250804736,131,3,2.7884494333317824,3.4629456851638185,3.1435829175081578
1769250804740,130,2,2.228153591524889,2.5017726692961046,2.582764899232009
1769250804744,129,1,1.5488415250412304,1.723034419050137,1.9031522140504469
1769250804748,129,1,0.9059784555193084,1.3998216646305348,1.2601644550949644
1769250804752,128,0,0.3172365232420251,0.7441998574004786,0.67071350702869
1769250804756,128,0,-0.297998536495063,0.2935714772673666,0.0532823031639757
1769250804760,127,-1,-0.9972936673183908,-0.3008041751047474,-0.6494509754204956
1769250804764,126,-2,-1.739910806426685,-1.49559233856102,-1.3950008814594597
1769250804768,125,-3,-2.4245114890496704,-2.407434018371311,-2.08035302325169
1769250804772,125,-3,-2.980215316062257,-2.4152194335805706,-2.635067640441771
1769250804776,125,-3,-3.4005654654089272,-2.593812340302379,-3.0550322544001003
1769250804780,124,-4,-3.694330714762946,-3.3657279306760812,-3.350686501567751
1769250804784,124,-4,-3.835741093189589,-3.4787650120761415,-3.4954846715145433
1769250804788,124,-4,-3.78830151539774,-3.4229910039268763,-3.450847822095776
1769250804792,124,-4,-3.571405392807002,-3.4014583110504515,-3.235193495919699
1769250804796,125,-3,-3.2784468364491604,-2.6294923139129383,-2.9428482546377466
1769250804800,125,-3,-3.0102261419535683,-2.282093058199183,-2.6759610672784904
1769250804804,125,-3,-2.788196485043537,-2.62986518286482,-2.4560196915768886
1769250804808,125,-3,-2.539090064207914,-2.243465325546243,-2.208675791128959
1769250804812,126,-2,-2.1649668148753234,-1.620218644562638,-1.835439070414632
1769250804816,126,-2,-1.6253697519226795,-1.4035426402388482,-1.296655996828531
1769250804820,127,-1,-0.9573203823817038,-0.4700509463313774,-0.6305563838260007
1769250804824,128,0,-0.2295663486794078,0.494029408304141,0.0940436093481873
1769250804828,128,0,0.5121505625268443,0.6746176230182912,0.8328156950570782
1769250804832,129,1,1.2579291132679824,1.3805108534539472,1.577234470238425
1769250804836,130,2,2.0113375236658393,2.6643378766877945,2.330497548854427
1769250804840,131,3,2.7719039467842856,3.418462732033202,3.090459883768509
1769250804844,131,3,3.530757419755796,3.633089951128203,3.847288495378071
1769250804848,132,4,4.255414743536753,4.494811001147603,4.5690276840730455
1769250804852,133,5,4.866773720148715,5.54384078333638,5.1775538017512845
1769250804856,133,5,5.244685940472315,5.519569171885345,5.553202146497022
1769250804860,133,5,5.275556013954645,5.549775867927041,5.582333020358578
1769250804864,133,5,4.911380789680729,5.524836090323746,5.216596613554104
1769250804868,132,4,4.1985161180987705,4.5409067017503615,4.502006410663395
1769250804872,131,3,3.2548119648952474,3.510692559608639,3.5564425484919795
1769250804876,130,2,2.208645491668469,2.5415983503857484,2.5085742291030924
1769250804880,129,1,1.1449285209245723,1.5435736549371524,1.443306975600743
1769250804884,128,0,0.0981727622493844,0.5367054034711654,0.3946904190652931
1769250804888,127,-1,-0.9139009365385558,-0.5197252019248642,-0.6198904282397311
1769250804892,126,-2,-1.8626685840213455,-1.4163163557197147,-1.5714458061622816
1769250804896,125,-3,-2.721055849234712,-2.5566523808924817,-2.4321824116631654
1769250804900,124,-4,-3.497565362026643,-3.3236409896843915,-3.2105771071388216
1769250804904,124,-4,-4.23951162643776,-3.614680456226049,-3.9547817870499946
1769250804908,123,-5,-4.986464908789366,-4.394204464476027,-4.704585863646542
1769250804912,122,-6,-5.723261001860354,-5.543785508968134,-5.443411529210828
1769250804916,121,-7,-6.3903006636786595,-6.452544775794133,-6.1104996574437465
1769250804920,121,-7,-6.93431653938091,-6.3922875229634375,-6.654456809562996
1769250804924,121,-7,-7.332879422397184,-6.573443731768275,-7.056648846648667
1769250804928,120,-8,-7.578669021380587,-7.443653461074903,-7.310374058089304
1769250804932,120,-8,-7.676121647349301,-7.5036431674201,-7.414710498990122
1769250804936,120,-8,-7.669335975395914,-7.521554278283854,-7.406734150030096
1769250804940,120,-8,-7.642823061899271,-7.280222341063982,-7.370371192279065
1769250804944,121,-7,-7.657210999661896,-6.7345728926068205,-7.375493446068294
1769250804948,120,-8,-7.695666210354962,-7.242342957859643,-7.418011122160223
1769250804952,120,-8,-7.733190600640992,-7.783696006253992,-7.477232179961372
1769250804956,119,-9,-7.886767544162815,-8.197909244796598,-7.659125977528432
1769250804960,119,-9,-8.395124442211516,-8.641687926878976,-8.182240078182815
1769250804964,119,-9,-9.208103761458998,-8.351269192609188,-8.983123042384024
1769250804968,120,-8,-9.360150093886327,-7.620424395647548,-9.102261988911131
1769250804972,122,-6,-6.767728884955209,-5.465680797525504,-6.478270559084805
1769250804976,128,0,0.921152733384396,0.5444808941224926,1.2193578842688089
1769250804980,140,12,14.55238870725703,12.543396100223037,14.83069662774696
1769250804984,158,30,31.91881055302496,30.575368988527536,32.159323118039886
1769250804988,177,49,47.89036256571899,49.37204119129883,48.0925571068832
1769250804992,187,59,56.65717862014651,59.6035391590999,56.83569494437607
1769250804996,184,56,54.83868102003697,56.314915646599616,55.01769193317777
1769250805000,170,42,43.34507647782356,42.763685450359255,43.5495277648578
1769250805004,153,25,26.714164447442037,25.230717552831432,26.95698532758875
1769250805008,137,9,10.500521707283916,9.80976477424626,10.772628911949935
1769250805012,127,-1,-1.4291887629833333,-0.767233523069645,-1.1554476922466843
1769250805016,120,-8,-8.083833938395944,-7.231727332112733,-7.837136000080188
1769250805020,118,-10,-10.71859196127239,-9.700115980065146,-10.510148438293122
1769250805024,117,-11,-11.291586275491662,-10.406282219520364,-11.110041542952924
1769250805028,116,-12,-11.205144503407242,-11.544694834398836,-11.027084899227006
1769250805032,116,-12,-10.964685088975854,-11.44979315233781,-10.771203560383013
1769250805036,117,-11,-10.56924763348289,-10.440603416555522,-10.356857560290395
1769250805040,118,-10,-10.012553922685848,-9.610144286244042,-9.792383956790964
1769250805044,119,-9,-9.445493155439136,-8.46841385122936,-9.232745159843663
1769250805048,119,-9,-9.026645027469636,-8.569898298423407,-8.828671961001392
1769250805052,118,-10,-8.768534350622508,-9.359896239206464,-8.580861842010158
1769250805056,119,-9,-8.567742210852527,-8.513839001701868,-8.380740478650509
1769250805060,120,-8,-8.329406092623543,-7.573190216107473,-8.138361718995213
1769250805064,120,-8,-8.018813381872626,-7.532493858951708,-7.827110094041757
1769250805068,120,-8,-7.628635679520619,-7.53465100588536,-7.442034393753724
1769250805072,120,-8,-7.165312406052269,-7.362385612892608,-6.985240276939059
1769250805076,121,-7,-6.679635888884787,-6.500362841503246,-6.502968803786725
1769250805080,122,-6,-6.257867963478472,-5.614179994476072,-6.081779446495276
1769250805084,122,-6,-5.937011340716267,-5.517636994624915,-5.762068761657263
1769250805088,122,-6,-5.6380928821182525,-5.579841551047616,-5.46650971398831
1769250805092,122,-6,-5.220915867381379,-5.280241567950647,-5.053312307176476
1769250805096,123,-5,-4.621416386624631,-4.591825828342987,-4.45642099080003
1769250805100,124,-4,-3.92060354193107,-3.532710580375319,-3.7572020902239824
1769250805104,125,-3,-3.2612234377536335,-2.622583650382498,-3.100273051468629
1769250805108,125,-3,-2.701323938478069,-2.50639169435183,-2.544216677269199
1769250805112,125,-3,-2.16776879605662,-2.3183124640895425,-2.014327275902664
1769250805116,126,-2,-1.557162216291514,-1.575793272128029,-1.405869634583257
1769250805120,127,-1,-0.8633281979207266,-0.5548906689876247,-0.7135672033071288
1769250805124,128,0,-0.18938853110189,0.3829731146950992,-0.0424095870333989
1769250805128,128,0,0.3564566943974141,0.4599845672225022,0.4992830447255802
1769250805132,128,0,0.7590442587521891,0.7505875400410964,0.8982109016205648
1769250805136,129,1,1.0955879978741478,1.318822831734829,1.2328903147829458
1769250805140,129,1,1.460300935453834,1.5518294922557887,1.5965418614724287
1769250805144,130,2,1.8953446712646984,2.255745400120074,2.0293842362888586
1769250805148,130,2,2.37071461151925,2.5695454116715033,2.5009588092452963
1769250805152,130,2,2.801884081858251,2.6787504260468453,2.928058187345388
1769250805156,131,3,3.0867788534924583,3.331300435473312,3.2097249012520543
1769250805160,131,3,3.1564782917293748,3.576665282044518,3.276705053797111
1769250805164,131,3,3.019156195740565,3.1603576129190514,3.136492728061958
1769250805168,130,2,2.757612288955038,2.6997720412685258,2.8722284768170963
1769250805172,130,2,2.47397105409396,2.541713812146942,2.5867294521230195
1769250805176,130,2,2.2350848203089004,2.431861677454658,2.346377408537331
1769250805180,130,2,2.0704320290616955,2.514805620581427,2.179278022693769
1769250805184,130,2,2.002491787375269,2.1427832087005085,2.1074482909279424
1769250805188,129,1,2.047474519009863,1.7750133691302177,2.148200513939152
1769250805192,130,2,2.175245896929492,2.422705608825241,2.2726384366302983
1769250805196,130,2,2.2886197561935546,2.55042009343596,2.3836074491565924
1769250805200,130,2,2.2687978031375975,2.400108143627228,2.3615519527582407
1769250805204,130,2,2.053311746927767,2.2107026150326266,2.1435506430274107
1769250805208,129,1,1.6724642318438248,1.739463340084844,1.7600041490685143
1769250805212,129,1,1.2116023214020637,1.417127898488571,1.2964627578677883
1769250805216,128,0,0.7346078114825518,0.5615748638988766,0.816750666731064
1769250805220,128,0,0.2361225216594191,0.3904659720053147,0.3152114434341719
1769250805224,128,0,-0.3362161294508894,0.172318339157691,-0.2605936244335867
1769250805228,126,-2,-1.013364444803722,-1.1675574271414488,-0.9410724494216014
1769250805232,126,-2,-1.7564333190260637,-1.7643200370759318,-1.6866816245405984
1769250805236,125,-3,-2.4672435722328547,-2.184528160971704,-2.399424295705724
1769250805240,125,-3,-3.0395040076243474,-2.948524115763154,-2.9738600718928274
1769250805244,124,-4,-3.4113503244614973,-3.445209437373636,-3.3485420519228217
1769250805248,124,-4,-3.592140464869213,-3.569455145079072,-3.53249875848139
1769250805252,124,-4,-3.648998076711507,-3.3969691645567033,-3.5925004187726777
1769250805256,124,-4,-3.659010231216824,-3.511898953540173,-3.6056616438257905
1769250805260,124,-4,-3.66273514049117,-3.698971397885256,-3.6126127217949064
1769250805264,124,-4,-3.6553853969196175,-3.636919414393729,-3.6083903286765926
1769250805268,124,-4,-3.612914858858296,-3.4401255239518056,-3.5686176390096773
1769250805272,124,-4,-3.5181291583750705,-3.500982110661157,-3.475887888195863
1769250805276,124,-4,-3.3607696496175428,-3.437462654731102,-3.3202214953140428
1769250805280,125,-3,-3.1170588309289964,-2.7737992132907388,-3.0786703658578944
1769250805284,125,-3,-2.739257159770559,-2.5794287160771896,-2.7041130948747165
1769250805288,125,-3,-2.184372385261833,-2.4910388776373886,-2.153176195532466
1769250805292,126,-2,-1.4695666755890315,-1.4895342662580289,-1.4420748149672251
1769250805296,127,-1,-0.6934364421941231,-0.4135275361137692,-0.6689398810062439
1769250805300,128,0,0.0202206856050628,0.129910002032576,0.0422689727168428
1769250805304,128,0,0.6169717068534013,0.5821578356126198,0.6368974302710471
1769250805308,129,1,1.1560962212861776,1.264572623814071,1.174090923716084
1769250805312,129,1,1.7590724347166882,1.794130410386834,1.775041533346617
1769250805316,130,2,2.5005337103739675,2.2671134579606314,2.513959616114279
1769250805320,131,3,3.3273391243397015,3.4332590653598096,3.3374339293086512
1769250805324,132,4,4.069697125110718,4.324001855885743,4.075881255879791
1769250805328,132,4,4.534550399778185,4.426408531877676,4.537015374480213
1769250805332,132,4,4.606764307136876,4.7160296636845285,4.606482047535302
1769250805336,132,4,4.287651431453201,4.232548514819138,4.285517515271058
1769250805340,131,3,3.661192674247371,3.533854900504514,3.6571508280180014
1769250805344,131,3,2.82969601421805,3.1833010147997873,2.822992402757997
1769250805348,129,1,1.8657539911821432,1.556945383630246,1.8560100602463605
1769250805352,128,0,0.8055266028760856,0.6015319742513765,0.793089355995403
1769250805356,128,0,-0.3172742783150554,0.2826193668074945,-0.3320534680212983
1769250805360,126,-2,-1.430919381254266,-1.4644334297032129,-1.448098270183183
1769250805364,125,-3,-2.4336057412047176,-2.880998741125531,-2.453319677143415
1769250805368,124,-4,-3.259884137507059,-3.3333332489969556,-3.2824226556347105
1769250805372,124,-4,-3.936845396538795,-3.5711850872686663,-3.9630191870098432
1769250805376,123,-5,-4.562581144836373,-4.529906882977707,-4.592905115523563
1769250805380,122,-6,-5.227089099500734,-5.658316370216845,-5.260399401478151
1769250805384,122,-6,-5.9463414206437575,-5.715384240087864,-5.980304788157603
1769250805388,121,-7,-6.648283637242718,-6.475313338367292,-6.681909436046883
1769250805392,120,-8,-7.210642062053428,-7.499336429728038,-7.245968906856552
1769250805396,120,-8,-7.535881185576779,-7.5524340014569455,-7.576765302206677
1769250805400,120,-8,-7.623808009021141,-7.686932190552669,-7.672500637698523
1769250805404,120,-8,-7.5827344193325565,-7.667346783274591,-7.636796467964367
1769250805408,120,-8,-7.554084839261945,-7.539747346942556,-7.606631770763082
1769250805412,120,-8,-7.599126897484261,-7.475993127496641,-7.643762660758753
1769250805416,120,-8,-7.646261065218315,-7.541484445521403,-7.684030381746943
1769250805420,120,-8,-7.571762142549118,-7.765239513738079,-7.613914910797776
1769250805424,120,-8,-7.378791644600514,-7.527550235416966,-7.44052159206457
1769250805428,120,-8,-7.308016534896805,-7.76462471784314,-7.395654012503547
1769250805432,119,-9,-7.67443542036169,-8.198768727325696,-7.776481090372852
1769250805436,120,-8,-8.378578802671614,-7.88842317375215,-8.47057743868437
1769250805440,120,-8,-8.365308712077246,-7.378971022789399,-8.427184397441453
1769250805444,123,-5,-5.58152058187408,-4.948756005800285,-5.613516130939469
1769250805448,129,1,2.1296790192623387,1.6587547767745434,2.106273958792996
1769250805452,141,13,15.414091271436073,13.39564763018458,15.371530924125448
1769250805456,158,30,32.09588302937109,30.47295733463804,32.01687103944586
1769250805460,176,48,47.38570250499593,48.34107099387718,47.27066756089888
1769250805464,186,58,55.93471154074276,58.217027320069576,55.798876407399696
1769250805468,183,55,54.622646025112886,55.51719945318571,54.48868907369814
1769250805472,171,43,44.223809269652875,43.36783936604745,44.112880050934095
1769250805476,155,27,28.821018589867712,27.491430567379656,28.742821784136005
1769250805480,140,12,13.463867656083291,12.334326375921714,13.410402729458063
1769250805484,129,1,1.719354196846286,1.3056312928067864,1.6682937054546487
1769250805488,123,-5,-5.410149899402299,-4.473340367604939,-5.482782101863441
1769250805492,120,-8,-8.904141046059735,-7.713452766180039,-9.009831240356752
1769250805496,117,-11,-10.333889394556092,-10.45563212295525,-10.465357197721568
1769250805500,116,-12,-10.81193811471102,-11.783082655094567,-10.949101005748098
1769250805504,116,-12,-10.805571611547794,-11.549561098080272,-10.929832541852116
1769250805508,117,-11,-10.502256283544108,-10.574521982064734,-10.60870877955104
1769250805512,118,-10,-10.112876574757411,-9.684417468301923,-10.21132607019561
1769250805516,118,-10,-9.838433872421708,-9.474765622482735,-9.94330180964891
1769250805520,118,-10,-9.700683283953522,-9.880848147062537,-9.818973918144774
1769250805524,117,-11,-9.543660058613378,-10.350237767679436,-9.671150238735628
1769250805528,118,-10,-9.23461692870377,-9.824932332553644,-9.362510683269106
1769250805532,119,-9,-8.81898975541353,-8.393927505513982,-8.943407646379637
1769250805536,120,-8,-8.44331414160871,-7.832638819875646,-8.567746390511235
1769250805540,119,-9,-8.156388285821484,-8.560494249789707,-8.285666721420231
1769250805544,119,-9,-7.84404623192168,-8.628577692798185,-7.978189369915503
1769250805548,120,-8,-7.367521541989838,-7.5911107196049965,-7.502878668482016
1769250805552,121,-7,-6.720178690535265,-6.57446173879871,-6.855180764639809
1769250805556,122,-6,-6.022040006392659,-5.747044676582651,-6.159321751749382
1769250805560,122,-6,-5.392579949379556,-5.609421467622526,-5.535070567225846
1769250805564,122,-6,-4.867933023155996,-5.631858405356539,-5.0148171957924585
1769250805568,123,-5,-4.42410163461453,-4.557725750462194,-4.572031399662205
1769250805572,124,-4,-4.020730352399241,-3.626595598704924,-4.167998330175282
1769250805576,124,-4,-3.596896391772694,-3.7287714571471726,-3.744789504181851
1769250805580,124,-4,-3.0661440857884754,-3.61513445057702,-3.216622999439852
1769250805584,125,-3,-2.3705357500826896,-2.679277608774523,-2.5243118487485035
1769250805588,126,-2,-1.5507052976200453,-1.467810717036424,-1.7077407297315257
1769250805592,127,-1,-0.7445217151179268,-0.768769467429637,-0.9048292818976968
1769250805596,127,-1,-0.1053113655809561,-0.5540586985018248,-0.2685125772920258
1769250805600,128,0,0.2905202137683111,0.1384749677545144,0.1255440746509495
1769250805604,128,0,0.4851209020303058,0.594195073379008,0.3194279789973963
1769250805608,128,0,0.6146074084560738,0.2156556427751339,0.4483108828858271
1769250805612,128,0,0.8323788772750973,0.5697719430057497,0.6647046347853109
1769250805616,129,1,1.2199358528674016,1.0979468004757482,1.0498172928413276
1769250805620,129,1,1.7417984294047266,1.428280509200238,1.568419851249291
1769250805624,130,2,2.274805555423548,2.350407368987803,2.0980521136243837
1769250805628,130,2,2.685246048739494,2.3780213941019004,2.5058400769090845
1769250805632,130,2,2.8976431495043964,2.482191343943774,2.716553460364187
1769250805636,131,3,2.919248069488983,3.0972410063754445,2.7368062278873975
1769250805640,130,2,2.8195509135911836,2.4630572885643605,2.6353891055542893
1769250805644,130,2,2.683347472603307,2.25257122106932,2.4972134880231383
1769250805648,130,2,2.566934928321736,2.516114401248062,2.3791195741173707
1769250805652,130,2,2.488749411409349,2.3038066679910316,2.29952230592538
1769250805656,130,2,2.4561864756620255,2.286844745663162,2.265136647950349
1769250805660,130,2,2.4896433721378526,2.2377781877201857,2.2959059728947255
1769250805664,130,2,2.606107198509639,2.4572603714106,2.4093173141782676
1769250805668,130,2,2.7729060480868304,2.32776211855762,2.5737534403876365
1769250805672,130,2,2.8866202157804253,2.4532899096542597,2.6861338025391803
1769250805676,131,3,2.82121382917328,3.1669670134305883,2.619531734825858
1769250805680,130,2,2.518031984103465,2.286807657614249,2.314375245539708
1769250805684,129,1,2.028515134686411,1.433805778942961,1.8224447945826887
1769250805688,129,1,1.4571506886820562,1.3074109909105704,1.2492229978710068
1769250805692,128,0,0.861191435267959,0.4975480670234594,0.6520611943086714
1769250805696,128,0,0.212002220135083,0.0846565933399916,0.001308468314676
1769250805700,127,-1,-0.5473309839082277,-0.618923796973986,-0.7607302100623086
1769250805704,126,-2,-1.4142234535244371,-1.7086922046267774,-1.6308527735677514
1769250805708,125,-3,-2.2979425156025837,-2.5412181179718982,-2.5167853868765513
1769250805712,124,-4,-3.071311728994035,-3.6657110725364617,-3.290661480304854
1769250805716,124,-4,-3.641954217528781,-3.7805145076008424,-3.861299214783037
1769250805720,124,-4,-3.975828059096608,-3.725379586424413,-4.196453965573005
1769250805724,123,-5,-4.077389497412441,-4.673790720057077,-4.300839375259002
1769250805728,123,-5,-3.9799745228377175,-4.53559408156949,-4.20648254771994
1769250805732,124,-4,-3.759418491423395,-3.7237868483875336,-3.9883052718099927
1769250805736,124,-4,-3.527665621465211,-3.7158138626289174,-3.758580772396607
1769250805740,124,-4,-3.384611041498928,-3.7966873131836896,-3.6176229197820553
1769250805744,124,-4,-3.3637394027018708,-3.6398273803923096,-3.598566620361437
1769250805748,124,-4,-3.413070220894684,-3.557007219053195,-3.648916267252826
1769250805752,124,-4,-3.418201705338943,-3.756558593761341,-3.654410459883818
1769250805756,124,-4,-3.251958984728221,-3.643272079593684,-3.4886936425575374
1769250805760,125,-3,-2.829835865299906,-2.9278673881491972,-3.0681566318384865
1769250805764,125,-3,-2.149578794917411,-2.4729066610684147,-2.3907864415169673
1769250805768,126,-2,-1.2990425106279786,-1.7905130895752774,-1.543739044394486
1769250805772,127,-1,-0.426029356842052,-0.4987706505493996,-0.6736773283002006
1769250805776,128,0,0.3239161266367667,0.0674612223154108,0.0745795310811312
1769250805780,128,0,0.8763312834317101,0.3520538566070827,0.6263514784818032
1769250805784,129,1,1.2648436708913868,1.2480158064743494,1.0143489844550064
1769250805788,129,1,1.6083159570481258,1.4363894406593674,1.356786877454094
1769250805792,129,1,2.031008835452318,1.2968676320046917,1.7781389092886748
1769250805796,130,2,2.571170331524213,2.2333040832791027,2.3169680939365858
1769250805800,131,3,3.147730929122098,3.2022396719744,2.8917404776979128
1769250805804,131,3,3.612943131311437,3.3641217893597544,3.3541430105685732
1769250805808,131,3,3.8367965765898377,3.3132349281082356,3.574682492669981
1769250805812,131,3,3.749428962325391,3.393891123638158,3.484762803686108
1769250805816,131,3,3.333336600462075,3.1299093942380463,3.0675722717635523
1769250805820,130,2,2.6105435899653986,2.2878396726436296,2.3447452904470287
