timestamp_ms,ecg_u8_raw,ecg_counts_raw_int,ecg_counts_filt_monitor,ecg_counts_filt_diagnostic,ecg_counts_filt_st
1768626884172,130,2,1.9225061014138216,2.307424012347593,2.2704677381771754
1768626884176,129,1,1.281475170795328,1.1675630986481744,1.6348038390240125
1768626884180,129,1,0.8057747029062918,1.305410057609866,1.1630859263404918
1768626884184,129,1,0.4914274608130378,1.147858680339652,0.8508220921274012
1768626884188,128,0,0.2956058036481344,0.3143286404602115,0.6559261162587958
1768626884192,128,0,0.1393479958843205,0.1122478083774741,0.5010325347276479
1768626884196,128,0,-0.0926512477620331,0.310950604189854,0.2715983887175388
1768626884200,128,0,-0.502772409330746,0.1643730598503178,-0.1353178486013614
1768626884204,127,-1,-1.091834314713958,-0.770603631649702,-0.7210066467826863
1768626884208,126,-2,-1.7196307662365649,-1.7512718767375828,-1.3450225709637165
1768626884212,126,-2,-2.172961700645237,-1.890412955798321,-1.794542058993538
1768626884216,126,-2,-2.2942141684242316,-1.6760310545112738,-1.913537201941756
1768626884220,126,-2,-2.078560995121236,-1.895991906835952,-1.6982382669138278
1768626884224,126,-2,-1.6893157183239276,-1.7208293548549012,-1.3109512927160112
1768626884228,127,-1,-1.3874671381165051,-0.811080582012242,-1.010525390186113
1768626884232,127,-1,-1.3984645762064671,-0.9037209250695888,-1.0210498574967168
1768626884236,126,-2,-1.779827701750539,-1.6366110073840208,-1.4001739102902524
1768626884240,126,-2,-2.3772704498361645,-2.017781759714012,-1.9948089492853136
1768626884244,125,-3,-2.908682321947784,-2.5677731709698737,-2.524338365242241
1768626884248,125,-3,-3.125331086251641,-3.02544077555535,-2.740900003977245
1768626884252,125,-3,-2.9483893191669424,-2.7018399246301223,-2.5652710920695303
1768626884256,126,-2,-2.500455036133525,-1.849022658045438,-2.118704980990535
1768626884260,126,-2,-2.0237624395519314,-1.8623635811661796,-1.6425925006880788
1768626884264,126,-2,-1.743087559489873,-1.6987231135975869,-1.3630069906899105
1768626884268,127,-1,-1.7429634540234429,-0.9800423729586278,-1.3674654978955056
1768626884272,126,-2,-1.8985894437228816,-1.7245508808915329,-1.5321549697742245
1768626884276,126,-2,-1.8681912271638907,-1.9007387536230385,-1.5107901989021246
1768626884280,127,-1,-1.1258216523072022,-0.7797912413607959,-0.7694219628634724
1768626884284,129,1,0.9975459466853208,1.1530626116361038,1.3650190595147988
1768626884288,134,6,5.239751370634302,6.180174032505257,5.624662930196699
1768626884292,141,13,12.179031768325192,13.078228278568323,12.574893320522616
1768626884296,149,21,21.754625245253763,21.280020554899103,22.144440014821004
1768626884300,160,32,32.695999767700684,32.023636251681836,33.062491403197946
1768626884304,170,42,42.34068598033437,42.30787646052534,42.67656630900356
1768626884308,176,48,47.31101161031323,47.99386384911121,47.622838475248194
1768626884312,174,46,44.990730108156434,46.21321913639431,45.29521630765919
1768626884316,164,36,35.03961800002951,36.10680544323999,35.35520921069712
1768626884320,148,20,19.93412284476068,20.103963769273204,20.272143320718826
1768626884324,131,3,4.03429702137105,3.2478606066278015,4.393614951461339
1768626884328,119,-9,-8.367962559599222,-8.998194546186825,-8.000487866366964
1768626884332,113,-15,-14.877904683996086,-14.678828298837916,-14.521306768980798
1768626884336,113,-15,-15.67336655271797,-15.035432337514315,-15.343407158039716
1768626884340,116,-12,-12.806125529795215,-11.741575331468283,-12.50747995834246
1768626884344,120,-8,-8.782684243561357,-7.979864253443225,-8.50666783596861
1768626884348,122,-6,-5.384268900497707,-5.859150666769921,-5.113898803249301
1768626884352,124,-4,-3.2893488825828574,-3.7957727480967542,-3.009619878352168
1768626884356,126,-2,-2.381844394385226,-1.997691766565296,-2.088951667768575
1768626884360,126,-2,-2.245074145682054,-1.7331186925026765,-1.947677494492909
1768626884364,126,-2,-2.4704200116728448,-2.0902897844380446,-2.1819370464947783
1768626884368,125,-3,-2.7557003892090446,-2.7307144351838835,-2.484445237697031
1768626884372,125,-3,-2.9344717110632783,-2.988354416974901,-2.679661350058573
1768626884376,125,-3,-2.9978027855222455,-2.780889379857321,-2.7531009899161676
1768626884380,125,-3,-3.0589421093594464,-2.9764281619974575,-2.8188267440554977
1768626884384,125,-3,-3.2304181837710333,-2.8874815163439034,-2.993853077565328
1768626884388,125,-3,-3.489209997659792,-2.954594257092458,-3.2586416871509267
1768626884392,124,-4,-3.657114085761102,-3.822984236610601,-3.434972259295749
1768626884396,124,-4,-3.538384313432522,-3.92643707409481,-3.325095427173346
1768626884400,125,-3,-3.0991024528239883,-2.86723414234886,-2.894333505689282
1768626884404,126,-2,-2.5143392054771545,-2.0117056773691457,-2.31893108509452
1768626884408,126,-2,-2.0373533949935303,-1.875029692881216,-1.8527824029397693
1768626884412,126,-2,-1.8215725233376352,-1.9242259330888367,-1.647768691687237
1768626884416,126,-2,-1.8492449910128037,-1.859416542453828,-1.6841546364070914
1768626884420,126,-2,-1.9898170335369283,-1.93388129177654,-1.831559668347404
1768626884424,126,-2,-2.0993297046096697,-1.998535531409258,-1.9482446822089727
1768626884428,126,-2,-2.0821684867782513,-1.881272830114399,-1.940370252892264
1768626884432,126,-2,-1.908096908212668,-1.982807822212678,-1.777393285292458
1768626884436,126,-2,-1.6108677369641922,-1.7882744353215496,-1.4916280992450777
1768626884440,127,-1,-1.274423706241811,-1.0546126985851931,-1.1662754677714489
1768626884444,127,-1,-0.9972490140632256,-0.8833498167754935,-0.9000008569426744
1768626884448,127,-1,-0.8467274231631936,-1.0327508975584618,-0.7601648726188852
1768626884452,127,-1,-0.833062818005833,-0.8653071020913687,-0.7564411122265213
1768626884456,127,-1,-0.9117917646224356,-0.9130646852251324,-0.8443146208509938
1768626884460,127,-1,-0.9997084171441744,-0.9856139065769604,-0.9415307451280804
1768626884464,127,-1,-0.9987517636154232,-0.924344113196338,-0.9511040477681774
1768626884468,127,-1,-0.8382890360061366,-1.073912919732261,-0.8025575111607532
1768626884472,127,-1,-0.5262297123799298,-0.8001443550089025,-0.5031554950123304
1768626884476,128,0,-0.1643387173002137,-0.0476380038542729,-0.1539588519147465
1768626884480,128,0,0.1061084528041904,0.1539555881863722,0.1043565876173509
1768626884484,128,0,0.1993188596605148,-0.0859014085446276,0.1865945631699098
1768626884488,128,0,0.1483066921972875,0.0334118929633355,0.1257981521244128
1768626884492,128,0,0.0899129613868405,0.109787987141417,0.0577386327304922
1768626884496,128,0,0.1818688176449265,-0.0590653388710771,0.1387299908715835
1768626884500,128,0,0.4993973672272519,0.242308752381779,0.4435381427726664
1768626884504,129,1,0.9727880022278425,0.7133043587128083,0.903141534330884
1768626884508,129,1,1.4163862072395892,1.287627059913704,1.3328880831178116
1768626884512,130,2,1.644353138585435,1.7616895578990133,1.5477949941122238
1768626884516,129,1,1.59457044155237,1.2900988514966136,1.486479388970983
1768626884520,129,1,1.3661551029294456,0.8783594465159602,1.2481285496089256
1768626884524,129,1,1.148670118655264,1.0203189578247835,1.0209534616379077
1768626884528,129,1,1.1069099323322942,1.0139199623857802,0.9677201262379684
1768626884532,129,1,1.2974501694751046,0.9287530271931088,1.1443358955141902
1768626884536,129,1,1.649271225031996,1.1876871385583103,1.4812252938611987
1768626884540,130,2,2.00901361839915,1.8747744805869728,1.8270083541264532
1768626884544,130,2,2.235008207322519,2.071142442651351,2.0406987745942327
1768626884548,130,2,2.29272787963523,1.8827448460588931,2.087068506446492
1768626884552,130,2,2.2841812523093243,2.059309554957978,2.0672439484477327
1768626884556,130,2,2.380520960599091,2.024423945693468,2.152146321157928
1768626884560,130,2,2.702226965974185,2.0069437259034837,2.4622549982091053
1768626884564,131,3,3.238593658849228,2.9383232614724406,2.9862323271417788
1768626884568,132,4,3.868506799893588,3.971240259254628,3.602121971368439
1768626884572,132,4,4.45222040868154,3.956186636559944,4.170730883315804
1768626884576,132,4,4.902210444837185,4.093253798381579,4.6066876323016
1768626884580,133,5,5.187278243216811,4.909700877692056,4.880316669127714
1768626884584,133,5,5.313496012308228,5.0186116377748204,4.996697870285382
1768626884588,133,5,5.332014890832532,4.860116057675914,5.004491395262695
1768626884592,133,5,5.352070736364228,5.0553545212804325,5.011588706005014
1768626884596,133,5,5.504983719694518,4.9546534112198755,5.150331985047201
1768626884600,133,5,5.861142563703291,5.0202896391220015,5.493086022537992
1768626884604,134,6,6.375746903013178,5.899512327567436,5.995670469232492
1768626884608,135,7,6.932560054899128,6.935997522478315,6.540757122218195
1768626884612,135,7,7.45412757936896,6.99505914711173,7.050016629991234
1768626884616,135,7,7.963155283098518,6.935358935149445,7.546706856248464
1768626884620,136,8,8.529702708384068,8.05283329930663,8.101597390353605
1768626884624,137,9,9.16871349534366,8.800994601793855,8.729076879711071
1768626884628,137,9,9.798223096886764,9.052861776452572,9.346111027164923
1768626884632,138,10,10.290844138057658,9.84647461645671,9.825332373632223
1768626884636,138,10,10.562404458519795,10.050194740803434,10.08385479886697
1768626884640,138,10,10.625234223127794,9.900269059012054,10.135287594005431
1768626884644,138,10,10.574102822481471,9.9279521079157,10.074378678646232
1768626884648,138,10,10.523983419954394,9.913619660990818,10.014619598209304
1768626884652,138,10,10.544079023095865,9.977779659026742,10.02348592085109
1768626884656,138,10,10.620165448402831,9.875234707304246,10.086400451333008
1768626884660,138,10,10.652233972334493,10.046156324702938,10.104831361842868
1768626884664,138,10,10.484689416562512,9.750321608516128,9.925154217561785
1768626884668,137,9,9.966306960982916,9.079297453508788,9.396677715417022
1768626884672,137,9,9.023403615949112,8.802092532226911,8.444376710860812
1768626884676,135,7,7.701690114386463,7.004580936491447,7.112371616285226
1768626884680,133,5,6.130916350409202,4.890629657777991,5.530236220093554
1768626884684,132,4,4.427454063547347,3.8638784756805338,3.815336280078293
1768626884688,130,2,2.6219487336058873,1.9780781147422324,1.999155252719079
1768626884692,128,0,0.6839937712392969,-0.1412721268126269,0.0512850178645918
1768626884696,126,-2,-1.3814528523889535,-2.03906320708814,-2.0240030704877903
1768626884700,124,-4,-3.460930266382854,-4.156065535085165,-4.113945182735908
1768626884704,122,-6,-5.356547364948825,-6.079672137773551,-6.020382742360114
1768626884708,120,-8,-6.897791709302254,-8.108881101948679,-7.571530779333869
1768626884712,119,-9,-8.046943350158369,-9.065104219093415,-8.729063918158715
1768626884716,119,-9,-8.892455193403192,-9.120398952352916,-9.582786384890754
1768626884720,118,-10,-9.528890006818868,-10.153167142087115,-10.229087507929853
1768626884724,117,-11,-9.952983237857277,-11.070734145111969,-10.664446802136904
1768626884728,117,-11,-10.096858460549122,-11.172576368540804,-10.818737073975232
1768626884732,117,-11,-9.95807625031821,-10.98335703178786,-10.68800712329692
1768626884736,118,-10,-9.66698166562558,-10.258399796431473,-10.403559582602409
1768626884740,118,-10,-9.40457694843361,-10.018896693153422,-10.148574198751705
1768626884744,118,-10,-9.2575104810914,-10.26065275891411,-10.010709515771982
1768626884748,118,-10,-9.16720781309139,-9.99100705287634,-9.930355231836591
1768626884752,118,-10,-9.027349044910418,-10.180427099268638,-9.799333440317222
1768626884756,118,-10,-8.825781799266709,-10.117062668306758,-9.604797618551794
1768626884760,119,-9,-8.676391635532198,-9.13071505938673,-9.461828402945914
1768626884764,119,-9,-8.698303348176843,-9.24267922265341,-9.491084200862296
1768626884768,118,-10,-8.867848600843107,-9.969278030273864,-9.668706738728153
1768626884772,118,-10,-9.008446294555618,-10.271041532275207,-9.816529814200797
1768626884776,118,-10,-8.937002961001138,-10.041380635634622,-9.750829720613812
1768626884780,119,-9,-8.619764484071075,-9.215715084504351,-9.439098403739289
1768626884784,119,-9,-8.194581045935692,-9.20946030688276,-9.020636287464542
1768626884788,119,-9,-7.86017902438788,-8.975748039722628,-8.694183988359628
1768626884792,120,-8,-7.741667559740624,-8.34373421738804,-8.583679555023682
1768626884796,119,-9,-7.831918841016342,-8.967423791009983,-8.680696748844493
1768626884800,119,-9,-8.030001740788991,-9.338576200241716,-8.883603679329813
1768626884804,119,-9,-8.220907550628706,-9.09285605926969,-9.077758218835845
1768626884808,119,-9,-8.31906267430606,-9.09966322939929,-9.178937894401644
1768626884812,119,-9,-8.25541335347819,-9.275913626815631,-9.11944751062422
1768626884816,119,-9,-7.963599686323279,-9.030568215022583,-8.833277864131986
1768626884820,120,-8,-7.42002882348209,-8.340546762730046,-8.296107713226608
1768626884824,120,-8,-6.7151519372923305,-8.080364345255704,-7.597348182606465
1768626884828,121,-7,-6.071001974480941,-7.135001442907774,-6.958495681853457
1768626884832,122,-6,-5.746288144357403,-6.288630272607842,-6.638269579071215
1768626884836,121,-7,-5.872490407824315,-7.006942923990349,-6.768004508819482
1768626884840,121,-7,-6.347245393292041,-7.46666854724059,-7.244837019244666
1768626884844,120,-8,-6.879474307475958,-7.884554672435979,-7.777785086138958
1768626884848,120,-8,-7.15708806363429,-8.441950175343788,-8.056207214165944
1768626884852,120,-8,-7.016529748043853,-7.922127822096111,-7.918440794247921
1768626884856,121,-7,-6.510098104106871,-7.447363030223943,-7.417227700467886
1768626884860,121,-7,-5.853336794680084,-7.052127963402743,-6.766334725303322
1768626884864,122,-6,-5.305989734730658,-6.281289834790167,-6.222968892657682
1768626884868,122,-6,-5.053736980076596,-6.1429518126461,-5.9718406319609
1768626884872,122,-6,-5.136576650784296,-6.155913347967208,-6.054274153890347
1768626884876,122,-6,-5.448487234007877,-6.3334338090912,-6.366265422331674
1768626884880,121,-7,-5.810215017673201,-7.113744072508062,-6.729241112242627
1768626884884,121,-7,-6.077043273004719,-7.3053564507404465,-6.997639475411872
1768626884888,121,-7,-6.208543021911723,-7.094543969146445,-7.130178195915951
1768626884892,121,-7,-6.248596860994247,-7.247085358852506,-7.170963894863696
1768626884896,121,-7,-6.243235594530054,-7.270070168050388,-7.166756581031753
1768626884900,121,-7,-6.183068527975919,-7.18236165531996,-7.1081345541050975
1768626884904,121,-7,-6.027455583712312,-7.3055644506782675,-6.953370641635235
1768626884908,121,-7,-5.777185246172259,-7.066305410735829,-6.702273060622775
1768626884912,122,-6,-5.506262937429946,-6.342158551872118,-6.429320932742079
1768626884916,122,-6,-5.305796534201252,-6.160571071665429,-6.227330031734617
1768626884920,122,-6,-5.195629024628783,-6.3454298791751915,-6.117302509439256
1768626884924,122,-6,-5.106508971844595,-6.162619521641762,-6.029232259357459
1768626884928,122,-6,-4.963475025651018,-6.231269956036746,-5.8861925216390985
1768626884932,122,-6,-4.783491436483375,-6.2082809613305106,-5.704144803459341
1768626884936,123,-5,-4.670021240445785,-5.299161948842614,-5.5876779244959005
1768626884940,123,-5,-4.692569798033997,-5.240251071400131,-5.60806964620381
1768626884944,122,-6,-4.778558714890928,-6.3024122138243746,-5.6928801788988
1768626884948,122,-6,-4.750119007308088,-6.10694773477463,-5.66288765029656
1768626884952,123,-5,-4.4814852599903565,-5.374838473152074,-5.391648914362245
1768626884956,123,-5,-4.017109878058811,-5.131329156432961,-4.924427217260452
1768626884960,124,-4,-3.5373805700107734,-4.43458674237526,-4.4424879677736175
1768626884964,124,-4,-3.21640222796243,-4.13325031166572,-4.119659562690426
1768626884968,124,-4,-3.105646314655236,-4.3133082611900075,-4.006505248989026
1768626884972,124,-4,-3.1319721033477226,-4.206535160964372,-4.029515631583902
1768626884976,124,-4,-3.188550582873872,-4.294957741086388,-4.082291991269567
1768626884980,124,-4,-3.225363969387753,-4.316609903112305,-4.115364970937798
1768626884984,124,-4,-3.2617407823330105,-4.2327377380057705,-4.1481912714429825
1768626884988,124,-4,-3.3200922396399193,-4.2983138935467595,-4.2029832603568105
1768626884992,124,-4,-3.351758357481014,-4.209298325344638,-4.230750486967477
1768626884996,124,-4,-3.236936183249706,-4.336551948535508,-4.11131619501259
1768626885000,124,-4,-2.875783877376332,-4.279938392458929,-3.744924593257056
1768626885004,125,-3,-2.294497399009762,-3.2843496894264463,-3.158875371211672
1768626885008,126,-2,-1.6627107125061693,-2.3059152263025733,-2.5240867711271573
1768626885012,126,-2,-1.2004105172353787,-2.196428262740631,-2.0600708753119505
1768626885016,126,-2,-1.0563090863158644,-2.4015459175213336,-1.913050154801394
1768626885020,126,-2,-1.2450024787047185,-2.2078181526724494,-2.095625055903179
1768626885024,126,-2,-1.6539619395204843,-2.403954458295855,-2.496063969113155
1768626885028,125,-3,-2.08919284799534,-3.2124746673746514,-2.9231892981620717
1768626885032,125,-3,-2.347763400019197,-3.3023894224471775,-3.176229209790246
1768626885036,125,-3,-2.3108786504896934,-3.330032607026158,-3.136302550115592
1768626885040,125,-3,-2.014618576570729,-3.2775966826006546,-2.837707096066339
1768626885044,126,-2,-1.6361288643713858,-2.3882857889783695,-2.455651178673296
1768626885048,126,-2,-1.3797762511789975,-2.2226519621444973,-2.193507756413986
1768626885052,126,-2,-1.3321196364567367,-2.3630847137573285,-2.138047939727324
1768626885056,126,-2,-1.3960656391690651,-2.2321082927991376,-2.193385537044751
1768626885060,126,-2,-1.3635507904455513,-2.4689151006330103,-2.153110890588274
1768626885064,126,-2,-1.080355040437006,-2.15259638861944,-1.8641989477696277
1768626885068,127,-1,-0.582447414449248,-1.5467669333416625,-1.362558421674077
1768626885072,127,-1,-0.0977935245292607,-1.005233064408135,-0.8747852049491126
1768626885076,128,0,0.0972063704268806,-0.6507292081653111,-0.6754087462708432
1768626885080,127,-1,-0.1305799186302509,-1.0547683697750745,-0.8963974706129463
1768626885084,127,-1,-0.6663843967519809,-1.6066398388359122,-1.4233309313510203
1768626885088,126,-2,-1.2038225586203195,-2.128012058247252,-1.951403202047324
1768626885092,126,-2,-1.4246110576855648,-2.4202960849903477,-2.1639896693687453
1768626885096,126,-2,-1.183063833017309,-2.281301117505886,-1.9162108808493548
1768626885100,127,-1,-0.5763194013880031,-1.4116607781146568,-1.3050204843920616
1768626885104,128,0,0.1372603163416985,-0.3106915491292833,-0.5877443292411754
1768626885108,128,0,0.699228639919486,-0.4269194924750758,-0.0212210211233076
1768626885112,128,0,0.9731410934879916,-0.1676361456696087,0.2593111632394752
1768626885116,129,1,0.9671426648888456,0.46374567828546,0.2617520519672903
1768626885120,128,0,0.7844825261342998,-0.2026740961315905,0.0879553153095673
1768626885124,128,0,0.557470269943805,-0.5207793696908947,-0.131055082777217
1768626885128,128,0,0.3988132277124809,-0.2680178030266352,-0.2830615525846036
1768626885132,128,0,0.379798661887111,-0.3187610451022458,-0.2964540120939846
1768626885136,128,0,0.5242076031948111,-0.4443240876902193,-0.1464910489968673
1768626885140,128,0,0.8014979545257281,-0.2690315726189634,0.1371204280032442
1768626885144,129,1,1.127676852858337,0.4665973037128142,0.4701306464813261
1768626885148,129,1,1.3972845725982928,0.7665006607632865,0.7460976990360834
1768626885152,129,1,1.5368513440371832,0.5870323519190462,0.8913819265508236
1768626885156,129,1,1.5365142469363056,0.646812268984727,0.8972109287762384
1768626885160,129,1,1.440452073407393,0.6156332517883397,0.8086479048463301
1768626885164,129,1,1.323249101473928,0.536005010076725,0.6996074287332638
1768626885168,129,1,1.2782517580713129,0.7001984321845472,0.6618819132706539
1768626885172,129,1,1.4034253292159753,0.6128607359520084,0.7927831396641614
1768626885176,129,1,1.7601235826024595,0.6063487322216934,1.1544572705530598
1768626885180,130,2,2.325051566634313,1.6390870368323287,1.7246745988046306
1768626885184,131,3,2.9910135755397684,2.4607680205968108,2.396583574672061
1768626885188,131,3,3.6331054298757968,2.7893489661098205,3.0452200920857373
1768626885192,132,4,4.184095966781638,3.463709798368707,3.6033100377302096
1768626885196,132,4,4.650517980524596,3.773568736793105,4.076939516600517
1768626885200,133,5,5.060835803093831,4.388088785149404,4.49355068937637
1768626885204,133,5,5.3943812299929865,4.7490016286154635,4.83182637846765
1768626885208,133,5,5.548266632134783,4.417781165830847,4.9894681211901695
1768626885212,133,5,5.3747953697388,4.877695447910395,4.820106254224227
1768626885216,133,5,4.7803166042235095,4.282548737578654,4.231028709752952
1768626885220,131,3,3.824448382602556,2.874904931621858,3.2819497702388105
1768626885224,131,3,2.7366617946365,2.231531775447597,2.201745993574835
1768626885228,129,1,1.8175016797467003,0.9100041672902576,1.2898508054002602
1768626885232,129,1,1.2814753998723734,0.3802492606491522,0.7594619627547962
1768626885236,129,1,1.1461584229720845,0.744136171119764,0.6274400799103033
1768626885240,129,1,1.2369834056727198,0.4046137769197352,0.719968720114521
1768626885244,129,1,1.2941585218260396,0.6467044091300856,0.7793418871011266
1768626885248,129,1,1.1084202231842477,0.5193545088823034,0.5981257283351276
1768626885252,128,0,0.613589615540246,-0.3168407817755662,0.1099522014357078
1768626885256,128,0,-0.0978127286235386,-0.5164937611909348,-0.5948007587264365
1768626885260,127,-1,-0.8340577311596968,-1.4218971625762866,-1.3263594591079664
1768626885264,126,-2,-1.4109677713810658,-2.502248919180382,-1.9004091582571871
1768626885268,126,-2,-1.7489582102091323,-2.3855156315790618,-2.2356938480839084
1768626885272,126,-2,-1.8914647278093577,-2.4015796703543613,-2.3745669866692625
1768626885276,126,-2,-1.9267608289321267,-2.4968963541666853,-2.4057667250476205
1768626885280,126,-2,-1.8867929736209264,-2.40776366046841,-2.362271425886229
1768626885284,126,-2,-1.7267352397813975,-2.6149656445033305,-2.19962243600095
1768626885288,126,-2,-1.4071955570301629,-2.2218784904911466,-1.878052353372951
1768626885292,127,-1,-0.988799682694417,-1.6556097693518876,-1.457708832123588
1768626885296,127,-1,-0.6288406296659782,-1.2100237105877676,-1.0954782627557504
1768626885300,128,0,-0.468839966237445,-0.7495039010041796,-0.9321669518492884
1768626885304,127,-1,-0.5199554961405556,-1.286206538553666,-0.9782279862848248
1768626885308,127,-1,-0.6633889955224923,-1.583716366549513,-1.115784146452902
1768626885312,127,-1,-0.7684484590330054,-1.3240885578472454,-1.2177094601889558
1768626885316,127,-1,-0.8093732296248205,-1.5438833681314577,-1.2622612624878489
1768626885320,127,-1,-0.8540867378476453,-1.453924505946689,-1.317165273312885
1768626885324,127,-1,-0.8980834301633108,-1.5751556004672371,-1.3709958977581176
1768626885328,127,-1,-0.631210990791158,-1.3654144704196438,-1.1034801149862132
1768626885332,129,1,0.7080829229745365,0.4658278310848827,0.2521316566431019
1768626885336,132,4,4.228040995315554,3.6320969906726894,3.797948354098587
1768626885340,139,11,10.93264981898454,10.366632561040143,10.522235608435128
1768626885344,149,21,20.998126111809142,20.6034121178551,20.586490010683708
1768626885348,160,32,33.09123164553352,31.412014146092403,32.65551986616132
1768626885352,171,43,44.22324879012445,42.65968511161592,43.75377539405736
1768626885356,179,51,50.54428634885204,50.43330343195073,50.05011586189457
1768626885360,178,50,48.98893631909665,49.454375146027786,48.49103281001944
1768626885364,168,40,38.98516571236585,39.55640074909549,38.50436475143921
1768626885368,151,23,23.1108596207634,22.28534569841549,22.65875629770683
1768626885372,132,4,6.090096076470961,3.863023290691661,5.665116645523415
1768626885376,120,-8,-7.379526109813957,-8.856211506669384,-7.791658492124414
1768626885380,113,-15,-14.65544150216831,-15.117483627799183,-15.076129886095144
1768626885384,113,-15,-15.873538172307866,-15.892076286095136,-16.320673250784402
1768626885388,115,-13,-13.171207933713069,-13.252924049176832,-13.64895461592344
1768626885392,119,-9,-9.166345333688774,-9.675082426746592,-9.663281815119644
1768626885396,122,-6,-5.707722399038292,-6.426121137070574,-6.2051310334206065
1768626885400,124,-4,-3.4707094852535967,-4.499324840921052,-3.954434234302562
1768626885404,125,-3,-2.303646364578678,-3.5975924241552546,-2.771401497976687
1768626885408,126,-2,-1.8152393609464257,-2.470514897857182,-2.276079549685113
1768626885412,127,-1,-1.732886089663218,-1.6003084750439345,-2.200290244366531
1768626885416,126,-2,-1.920538265177886,-2.469600531039021,-2.4032985190521843
1768626885420,125,-3,-2.264512374122358,-3.51677803144816,-2.7614488304194533
1768626885424,125,-3,-2.6414729529113505,-3.52814889628076,-3.144281023024978
1768626885428,125,-3,-2.9649499319934955,-3.6005584420835546,-3.466609625046829
1768626885432,125,-3,-3.1878734323524793,-3.482021825769574,-3.688465901542725
1768626885436,125,-3,-3.244764133878849,-3.6563173227109607,-3.7495533593706014
1768626885440,124,-4,-3.04593882303769,-4.304883725852533,-3.5591833992200153
1768626885444,125,-3,-2.577378937672115,-3.778496239014414,-3.099238820697042
1768626885448,126,-2,-1.9918382069936191,-2.3411936763451973,-2.520562248150492
1768626885452,127,-1,-1.5478363534973067,-1.8087981205614247,-2.082652984622849
1768626885456,126,-2,-1.424522701830495,-2.3480399097534495,-1.965416663874888
1768626885460,126,-2,-1.5895002196021304,-2.6170302749299137,-2.1358267968697913
1768626885464,126,-2,-1.836062261623911,-2.5170760365503084,-2.3871825280222474
1768626885468,126,-2,-1.9366232263572536,-2.5719945510198707,-2.493497267880955
1768626885472,126,-2,-1.7839257837169709,-2.6766334684883253,-2.348788116607656
1768626885476,126,-2,-1.4384516462599204,-2.42625018502687,-2.01286790855558
1768626885480,127,-1,-1.070017713589535,-1.6308877334941627,-1.653897877277558
1768626885484,127,-1,-0.8334043821828216,-1.4530381256732725,-1.425733939729314
1768626885488,127,-1,-0.7604745694246522,-1.720293083188882,-1.3603436920821466
1768626885492,127,-1,-0.7497714026591442,-1.5166723910963738,-1.3567324512961585
1768626885496,127,-1,-0.6604242639544404,-1.6364486141985513,-1.2745631647998414
1768626885500,127,-1,-0.4284436301203431,-1.4330415943313486,-1.0506290236311076
1768626885504,128,0,-0.1083183373211889,-0.6490903370544342,-0.740217889830975
1768626885508,128,0,0.183649846922778,-0.5732291653233925,-0.4595442247548847
1768626885512,128,0,0.3591997803009688,-0.6669695691546317,-0.2954440938501608
1768626885516,128,0,0.4014984471006122,-0.5403924222082235,-0.2630699830072193
1768626885520,128,0,0.3480447685879986,-0.5331025928156368,-0.3246955570109068
1768626885524,128,0,0.2583953721370653,-0.5692274460045116,-0.4223131486641238
1768626885528,128,0,0.2005117204891213,-0.669277105343402,-0.489774359926929
1768626885532,128,0,0.2423555978203111,-0.6002729280072163,-0.4594654478565285
1768626885536,128,0,0.4231748054726112,-0.6411803525009303,-0.2908572664889453
1768626885540,128,0,0.715832643811865,-0.447600710073546,-0.0096956387409529
1768626885544,129,1,1.0262410684007055,0.3264725557445104,0.2899593252977952
1768626885548,129,1,1.253130291344153,0.4293395438739467,0.5057939309983154
1768626885552,129,1,1.3647791828789373,0.2530573640037124,0.6055418972694833
1768626885556,129,1,1.4198681253138536,0.4931112432441924,0.6486109759791064
1768626885560,129,1,1.5119272142336817,0.3726229360924177,0.7295545072359205
1768626885564,129,1,1.693873227573052,0.5139450769067045,0.901087195935762
1768626885568,130,2,1.9545944744386237,1.2173389259978171,1.1505269992331677
1768626885572,130,2,2.2574540141429704,1.443436110138994,1.4400211356173724
1768626885576,130,2,2.5803593583000173,1.2652467041819313,1.7482512637444243
1768626885580,130,2,2.90504958336813,1.5759445379190196,2.059003714530338
1768626885584,131,3,3.1838599150776035,2.296636056190616,2.325636773079059
1768626885588,131,3,3.353719335956317,2.420185902682243,2.4841312447043125
1768626885592,131,3,3.404598775121288,2.2245834951265686,2.522860400248867
1768626885596,131,3,3.426897158906144,2.4345341886565506,2.5316907957710986
1768626885600,131,3,3.5693846400582565,2.3999555683009692,2.660250811638164
1768626885604,131,3,3.9282524193425057,2.4246848420355094,3.0057829034932264
1768626885608,132,4,4.4642839152082585,3.328521562081972,3.528843306369893
1768626885612,133,5,5.030729956759302,4.245704343445684,4.081302490209091
1768626885616,133,5,5.490001555413141,4.43206927332141,4.525023972615979
1768626885620,133,5,5.80505326618429,4.317342020786022,4.8244738788374395
1768626885624,133,5,6.024980955303904,4.53674560267855,5.030671231474853
1768626885628,134,6,6.209461560116184,5.16012898883767,5.203141805367539
1768626885632,134,6,6.392581197295297,5.436435283347886,5.373863713267518
1768626885636,134,6,6.609651375545446,5.186822359279254,5.576507881630505
1768626885640,134,6,6.92089495761795,5.544168080190103,5.87165054630322
1768626885644,135,7,7.380694218132438,6.284096498524288,6.315312060437944
1768626885648,135,7,7.980476095206408,6.393054658032024,6.900238380020303
1768626885652,136,8,8.632257565345721,7.202122558171664,7.538372891130766
1768626885656,137,9,9.22427953033992,8.389685510862547,8.116656622181225
1768626885660,137,9,9.706442069429103,8.304861915832127,8.583874253385595
1768626885664,137,9,10.120609839032744,8.501852775608194,8.982160960441279
1768626885668,138,10,10.53899505594612,9.156870487554675,9.38485515589957
1768626885672,138,10,10.975687430730453,9.426945558800696,9.806579398175142
1768626885676,139,11,11.370787917049388,10.142216767783747,10.187033831120448
1768626885680,139,11,11.665182672918824,10.526421819778156,10.466757863499245
1768626885684,139,11,11.880476790257102,10.242929193313646,10.667616001609527
1768626885688,139,11,12.111610835309827,10.4116268483931,10.88455675356652
1768626885692,140,12,12.433270276909465,11.140762258389382,11.191289244945375
1768626885696,140,12,12.805377694861438,11.425481529943877,11.546854308380984
1768626885700,140,12,13.055129297749131,11.204199040441974,11.77921770684402
1768626885704,140,12,12.94948085999438,11.545571054557222,11.65726943972171
1768626885708,140,12,12.319051881927276,11.088158227518631,11.012651005474169
1768626885712,138,10,11.161296076236733,9.426946102646856,9.84191744838219
1768626885716,137,9,9.645917777835528,8.157735479569238,8.31297873580099
1768626885720,135,7,8.001570140799128,6.392286308418432,6.653466915490984
1768626885724,133,5,6.357797429025755,4.3980677715854455,4.993324393491438
1768626885728,132,4,4.666569657130558,3.1422675059520113,3.2855742773577346
1768626885732,130,2,2.776392468894687,1.4407100603690215,1.3794014130738803
1768626885736,128,0,0.6057319809800434,-0.954834178828284,-0.8065248920751455
1768626885740,125,-3,-1.7323761333571666,-3.455375533106517,-3.1590326991557984
1768626885744,123,-5,-3.965498912100117,-5.831031108967707,-5.405738234907634
1768626885748,121,-7,-5.824491221529671,-7.636913673196984,-7.278129527527623
1768626885752,120,-8,-7.193770580604415,-8.762311550256754,-8.661571219551963
1768626885756,119,-9,-8.136378786523716,-9.818906711276648,-9.619562575725482
1768626885760,118,-10,-8.799275503883939,-10.543275281174903,-10.298682429654994
1768626885764,118,-10,-9.295666833153094,-10.85857184601702,-10.811258246989206
1768626885768,117,-11,-9.657920080791834,-11.56413466778804,-11.1887318405195
1768626885772,117,-11,-9.878196656976876,-11.899128374280128,-11.42269959695714
1768626885776,117,-11,-9.973822975545025,-11.663755944190438,-11.53079174354544
1768626885780,117,-11,-9.999633451017525,-11.72643299908945,-11.56911156397544
1768626885784,117,-11,-9.99615939012891,-11.733732284444397,-11.579539293552916
1768626885788,117,-11,-9.941862890105035,-11.666500684953858,-11.540688758505702
1768626885792,117,-11,-9.778732225919846,-11.871138535042546,-11.39321090080342
1768626885796,117,-11,-9.496008026286496,-11.640552897172244,-11.124762868586236
1768626885800,118,-10,-9.178530830202684,-10.829806115710422,-10.819900109407351
1768626885804,118,-10,-8.950756338115982,-10.616839892675069,-10.604191098493931
1768626885808,118,-10,-8.861154184562961,-10.836185229159469,-10.527297978934945
1768626885812,118,-10,-8.827673264690297,-10.701921608039424,-10.507382396736292
1768626885816,118,-10,-8.709976057307937,-10.83055873264608,-10.403512251633977
1768626885820,118,-10,-8.444655596695448,-10.669633883885052,-10.151668934281934
1768626885824,119,-9,-8.111931671095387,-9.790901843140148,-9.831853328221491
1768626885828,119,-9,-7.864920939303927,-9.688060422588451,-9.597167842411924
1768626885832,119,-9,-7.784519228123741,-9.870448858282789,-9.52853625790716
1768626885836,119,-9,-7.794506862388402,-9.666963207309877,-9.550029533714218
1768626885840,119,-9,-7.715721378366999,-9.886053948996295,-9.483009841619475
1768626885844,119,-9,-7.415465862275914,-9.576494050845817,-9.194913185703966
1768626885848,120,-8,-6.928172930718028,-8.9252386856361,-8.7196718790717
1768626885852,120,-8,-6.442859180161235,-8.654724655029016,-8.245992043433887
1768626885856,121,-7,-6.156415399070668,-7.878426567482257,-7.971231252324991
1768626885860,121,-7,-6.109718090296516,-7.7436505983634545,-7.936453534634341
1768626885864,120,-8,-6.156874220743507,-8.701846529249988,-7.994545064228067
1768626885868,120,-8,-6.105086664680517,-8.865080621473346,-7.951556076558628
1768626885872,121,-7,-5.885728456618407,-7.680839734517724,-7.740249400911304
1768626885876,122,-6,-5.580564041135817,-6.908503317613683,-7.44525215316717
1768626885880,121,-7,-5.300798300065624,-7.703124996703322,-7.178123845830835
1768626885884,121,-7,-5.08245506111475,-7.790814318812901,-6.971885679022482
1768626885888,122,-6,-4.902669522855691,-6.800605870326335,-6.801169950658313
1768626885892,122,-6,-4.749569984811405,-6.754512582096054,-6.655006726664894
1768626885896,122,-6,-4.640896059061621,-6.861053332877489,-6.553740731324648
1768626885900,122,-6,-4.589395217101622,-6.7346151533822445,-6.511320697587082
1768626885904,122,-6,-4.5789613885489056,-6.8298831625868806,-6.510816582728015
1768626885908,122,-6,-4.580449174657878,-6.766571639663275,-6.5216592359969185
1768626885912,122,-6,-4.581228768940209,-6.816758738366057,-6.530419466851519
1768626885916,122,-6,-4.592300592709485,-6.806273453375825,-6.548231751943146
1768626885920,122,-6,-4.623760828436922,-6.7799903437100415,-6.586057407325089
1768626885924,122,-6,-4.652306394988848,-6.859182447516456,-6.621579540715568
1768626885928,122,-6,-4.618082188495336,-6.729568206515059,-6.595130999611421
1768626885932,122,-6,-4.467320042253271,-6.90413538986293,-6.451996623349762
1768626885936,122,-6,-4.209302518741772,-6.6978711811885425,-6.2003905947297175
1768626885940,123,-5,-3.9251231451466135,-5.9080857509566105,-5.92155412752289
1768626885944,123,-5,-3.702035539762845,-5.778331646602267,-5.703860468323727
1768626885948,123,-5,-3.551647628991996,-5.819808843415739,-5.559384956880247
1768626885952,123,-5,-3.402694586114751,-5.861027765301454,-5.416056119601067
1768626885956,123,-5,-3.1825311693740086,-5.714318967796802,-5.200474675306653
1768626885960,124,-4,-2.8997865748022065,-4.937803243061753,-4.921784133857583
1768626885964,124,-4,-2.640251840618259,-4.747672135346092,-4.666783537252155
1768626885968,124,-4,-2.487933543007653,-4.907839337674422,-4.51943759665703
1768626885972,124,-4,-2.458064947892267,-4.7722026666163275,-4.493910892623114
1768626885976,124,-4,-2.4992866263168296,-4.824119201765846,-4.538190273509456
1768626885980,124,-4,-2.5447052717474907,-4.846200905190748,-4.5858859961875735
1768626885984,124,-4,-2.557846967474021,-4.847513988941941,-4.6014260118135395
1768626885988,124,-4,-2.542862020870558,-4.861704349726066,-4.589252291856078
1768626885992,124,-4,-2.5243702619049935,-4.809558567483663,-4.573578800236263
1768626885996,124,-4,-2.5201632293637877,-4.824757493437857,-4.571694752301935
1768626886000,124,-4,-2.527867374776448,-4.841308194788817,-4.58106295503554
1768626886004,124,-4,-2.5325920991800985,-4.887472248537112,-4.58691030586497
1768626886008,124,-4,-2.5256324962637846,-4.849599322841874,-4.580691783181174
1768626886012,124,-4,-2.5156476424916128,-4.832618598417181,-4.571195343844346
1768626886016,124,-4,-2.5208195653272387,-4.829785471248825,-4.576776517462432
1768626886020,124,-4,-2.547965658944646,-4.828735976914821,-4.604431711209103
1768626886024,124,-4,-2.577044675393154,-4.948204689994596,-4.634015175838455
1768626886028,124,-4,-2.5658879860041632,-4.79973893074982,-4.622737526176843
1768626886032,124,-4,-2.472784580648373,-4.908670100810422,-4.528144423805868
1768626886036,124,-4,-2.2772508383942927,-4.771886257468525,-4.329834339947856
1768626886040,125,-3,-1.9806338966162684,-3.8809641379838418,-4.030388623126233
1768626886044,125,-3,-1.595317466618802,-3.942761985416313,-3.6435026179347463
1768626886048,125,-3,-1.1529569279899436,-3.8191671039980024,-3.2008974395317287
1768626886052,126,-2,-0.7351909397354199,-2.9076598745909834,-2.782996663302151
1768626886056,126,-2,-0.4798325276866664,-2.8096495314064964,-2.5260997959677964
1768626886060,126,-2,-0.5197247608001225,-2.8141632030963337,-2.562171197469018
1768626886064,126,-2,-0.8801921509556667,-3.084651505768708,-2.9168838142740587
1768626886068,125,-3,-1.4176599045323175,-3.652717428353408,-3.448232383540268
1768626886072,125,-3,-1.8682124790096588,-4.1502622689969755,-3.89401213540694
1768626886076,124,-4,-1.999127523817557,-4.532271734650205,-4.021874868563753
1768626886080,125,-3,-1.7679850212912158,-4.1330201090161545,-3.788206617698393
1768626886084,125,-3,-1.3613945535622245,-3.7623584074168064,-3.378219075731856
1768626886088,126,-2,-1.0589305667184368,-3.018082745652801,-3.0710701488982735
1768626886092,126,-2,-1.0144533447747066,-2.7997905198795614,-3.020726823730794
1768626886096,125,-3,-1.139114192383782,-3.908439843265737,-3.138120413696541
1768626886100,125,-3,-1.1934719091679216,-3.7630155050206606,-3.183992559421003
1768626886104,126,-2,-1.0012982832901516,-3.157483926527534,-2.9838264526592777
1768626886108,126,-2,-0.5889179936746953,-2.6491943542403606,-2.5658892952193035
1768626886112,127,-1,-0.1479106390974913,-2.167937229230575,-2.121175474086744
1768626886116,126,-2,0.1111267075869513,-2.5802549650657145,-1.8571796866266113
1768626886120,127,-1,0.0888656110645498,-2.0823685325724335,-1.871084294884213
1768626886124,127,-1,-0.152771000545882,-1.9064450012516585,-2.1021063148487156
1768626886128,126,-2,-0.4285020390464833,-2.8699881844629624,-2.367577377323177
1768626886132,126,-2,-0.5414895282479679,-3.0173723648534057,-2.4717933175540554
1768626886136,126,-2,-0.4115704513082585,-2.67443357150949,-2.333972714128961
1768626886140,127,-1,-0.1223566133939848,-2.088417429184517,-2.036895773757856
1768626886144,127,-1,0.1578381874637613,-1.8495497908920608,-1.7484218272055356
1768626886148,127,-1,0.3091798893639956,-2.002237490252764,-1.5879239925395758
1768626886152,127,-1,0.3293272088090009,-1.8652955927552304,-1.557406134175619
1768626886156,127,-1,0.2936397081858857,-1.861704508090743,-1.5818065642702042
1768626886160,127,-1,0.2625753587306163,-1.9282677602453373,-1.6014753918942697
1768626886164,127,-1,0.2233889743490169,-2.0117230979384955,-1.629858420132788
1768626886168,127,-1,0.1101871323157031,-1.872018589772457,-1.7330091632061506
1768626886172,127,-1,-0.1229536893549916,-1.997233499632652,-1.9562587719152744
1768626886176,126,-2,-0.4458760687259067,-2.764520185252551,-2.268276792655555
1768626886180,126,-2,-0.763886853111676,-3.0375555328480113,-2.5736296617016245
1768626886184,126,-2,-0.9769742036500147,-2.9355479938931057,-2.773041412890661
1768626886188,126,-2,-1.0245084303531609,-2.9375653316902595,-2.8075284571066117
1768626886192,126,-2,-0.8885160827098357,-2.979152243103641,-2.659828989600848
1768626886196,126,-2,-0.5832589593218462,-2.754848141521209,-2.343208459942815
1768626886200,127,-1,-0.156796474548583,-2.1362601956872,-1.904315792666467
1768626886204,127,-1,0.3097817149342559,-1.7859322139306713,-1.4240468132466255
1768626886208,128,0,0.7283388218868039,-1.172553014276516,-0.991537251316162
1768626886212,128,0,1.0425202639379585,-0.6864061575116595,-0.6638883533310054
1768626886216,128,0,1.2411649523197776,-1.1269591904298009,-0.4519025964507371
1768626886220,128,0,1.3342590727106185,-0.7608244705043525,-0.3449243316433781
1768626886224,129,1,1.3275271732449672,-0.1856400427802428,-0.3372262204426526
1768626886228,128,0,1.2303733515167012,-0.8037858559348444,-0.4196767554286261
1768626886232,128,0,1.0794447623681642,-1.0224211753315022,-0.5554818376513943
1768626886236,128,0,0.937454391551388,-0.8634887486804816,-0.6818712209166081
1768626886240,128,0,0.8626757515564392,-1.0103875795215205,-0.7412779475583285
1768626886244,128,0,0.8758046221833875,-0.993854317483601,-0.7137502267615133
1768626886248,128,0,0.9436135452955856,-0.9651948422428832,-0.6320725957893981
1768626886252,128,0,0.9866652189580728,-0.9020514980936782,-0.5742763631952406
1768626886256,128,0,0.9181265154993684,-0.9816727577979436,-0.6264396848742366
1768626886260,128,0,0.7072156808646319,-0.951896793759952,-0.8201410602493787
1768626886264,128,0,0.4255335880406166,-1.0448889887768034,-1.0850220057073257
1768626886268,127,-1,0.219616737529912,-1.939994418116225,-1.2746840171718992
1768626886272,127,-1,0.2068260926684684,-1.9217999733781777,-1.2711072767437894
1768626886276,128,0,0.3800029175717556,-0.9984566791976716,-1.0814445657884957
1768626886280,128,0,0.6159054832231434,-0.9567438147764838,-0.8295555467396183
1768626886284,128,0,0.7783198509417182,-1.0597724594701905,-0.6514919352293413
1768626886288,128,0,0.8125766144866842,-0.9230140578333208,-0.6007923131849056
1768626886292,128,0,0.7555830546943012,-0.9686235506142477,-0.6399190751409315
1768626886296,128,0,0.679704843588226,-0.9710636061752442,-0.6972429170709816
1768626886300,128,0,0.634460089499226,-1.0097499932275105,-0.724482522041471
1768626886304,128,0,0.6256493805797332,-1.0214417857314082,-0.7163022110066286
1768626886308,128,0,0.6302242261188957,-0.9579978058015852,-0.6952021257961841
1768626886312,128,0,0.6240894121622034,-0.9654980929551076,-0.684404618438078
1768626886316,128,0,0.6005138922316531,-0.9918896944799158,-0.6901709866853397
1768626886320,128,0,0.5695352716467095,-1.0185691900374212,-0.7026615700479136
1768626886324,128,0,0.5445318287092409,-1.0199821685301096,-0.7091738957414319
1768626886328,128,0,0.5302792334620869,-0.9672390651008346,-0.7055745596257457
1768626886332,128,0,0.5213147695000053,-0.9743886654955664,-0.6973491323223334
1768626886336,128,0,0.5077756300679741,-1.0126879969350244,-0.6935980461381219
1768626886340,128,0,0.4818051994188455,-1.0177224195541503,-0.7012483385722228
1768626886344,128,0,0.4430868414670814,-1.0339997743301628,-0.7205246408450804
1768626886348,128,0,0.4044440974406531,-0.9611716368055182,-0.7396896054803781
1768626886352,128,0,0.3905461560333255,-0.990617539781386,-0.7354055475259957
1768626886356,128,0,0.4180863926107837,-1.039956937187406,-0.6911211660460944
1768626886360,128,0,0.4625026462481336,-0.9908136769973052,-0.6300128729632779
1768626886364,128,0,0.4452425075304391,-1.096842885861554,-0.6290851757772892
1768626886368,128,0,0.277323872003978,-0.8848332639287697,-0.7772684924841062
1768626886372,128,0,-0.0552367553373869,-1.0924069781775718,-1.089988533772851
1768626886376,127,-1,-0.4406662970575553,-1.972611118347419,-1.4567628549862346
1768626886380,127,-1,-0.6948286175803685,-2.0634892189548633,-1.69330718884903
1768626886384,127,-1,-0.6934945171082266,-2.061762331898349,-1.6742440030554426
1768626886388,127,-1,-0.4689062319273189,-1.8991995847627243,-1.4311064548794177
1768626886392,128,0,-0.1760232504972849,-1.1061922651513774,-1.1193525414965204
1768626886396,128,0,0.0460617681536965,-0.9781913782066942,-0.8790244897106474
1768626886400,128,0,0.186835891906669,-1.0836891624475506,-0.7206542142371282
1768626886404,128,0,0.3403347884481283,-1.0723929179023968,-0.5491467508666463
1768626886408,128,0,0.5711222483510452,-0.8711565420549668,-0.2993076149085704
1768626886412,129,1,0.8144816812580771,-0.1772098355454162,-0.0368207340862393
1768626886416,129,1,0.9202702912869404,0.1145494437372632,0.0866658668484928
1768626886420,129,1,0.7946307020862675,-0.2460300737275844,-0.0225876145647814
1768626886424,128,0,0.4907283715985406,-0.8931769817622879,-0.3094236728124695
1768626886428,128,0,0.1629550852211275,-1.09021090484815,-0.61791990190335
1768626886432,128,0,-0.0540426760421783,-0.9562836493810908,-0.8143804675554244
1768626886436,128,0,-0.1212960514874166,-1.1122174727522358,-0.8623891535466208
1768626886440,128,0,-0.0811008668748872,-1.0639322017229145,-0.8057458850026957
1768626886444,128,0,-0.002466511795328,-1.054508132244671,-0.7124845187506597
1768626886448,128,0,0.0518179462477914,-1.006696181707596,-0.6429033236472869
1768626886452,128,0,0.0298273748460506,-0.9781794327634662,-0.6470988494669965
1768626886456,128,0,-0.0985868179388984,-1.1825800297174287,-0.7556109592653548
1768626886460,128,0,-0.3069688975118932,-0.9330303910634666,-0.9442413235000804
1768626886464,128,0,-0.4885880814069375,-1.2762194195725458,-1.1082496171432872
1768626886468,127,-1,-0.500939003871637,-1.7530996593699435,-1.104997206521623
1768626886472,128,0,-0.2774576454609179,-1.269452120667656,-0.8661931930286307
1768626886476,128,0,0.0869051323287464,-0.8988851649476084,-0.4856690346952453
1768626886480,129,1,0.3783698723605166,-0.2167690610693516,-0.177680780608927
1768626886484,129,1,0.4212878237929278,-0.0418499450312392,-0.1186192037218054
1768626886488,128,0,0.2114967810350897,-0.9674068823981424,-0.3122277403864785
1768626886492,128,0,-0.0962335915783285,-1.1245911661736463,-0.6028647023952562
1768626886496,128,0,-0.3239356336430127,-1.0017240897128337,-0.8129144957598015
1768626886500,128,0,-0.3959329851955124,-1.1790994961641492,-0.8682274332673883
1768626886504,128,0,-0.3567024283911434,-1.0450100383790857,-0.8141944458291768
1768626886508,128,0,-0.2993595564583289,-1.0097634271362237,-0.7431807525608077
1768626886512,128,0,-0.2871240836320862,-1.0978888241643117,-0.7168809474684392
1768626886516,128,0,-0.3253012353461002,-1.042738208281798,-0.739832537797243
1768626886520,128,0,-0.3818941026316709,-1.150971250848008,-0.7805156218140178
1768626886524,128,0,-0.4204319094126959,-1.0943913292056364,-0.8033893888120248
1768626886528,128,0,-0.4164797071672363,-0.943698710480703,-0.7844252417128127
1768626886532,128,0,-0.3570260304785649,-1.241469502671198,-0.7104424983483401
1768626886536,128,0,-0.2366239431446325,-0.8509957327177049,-0.5759499364826282
1768626886540,129,1,-0.0590305207585348,-0.4173805376322665,-0.3850025369044922
1768626886544,128,0,0.1546544618417106,-0.7855334619285171,-0.1586902715004025
1768626886548,129,1,0.3574612688557335,-0.3011008182816155,0.0567116862599246
1768626886552,129,1,0.4854647229397892,0.1025688679986762,0.1980513484778535
1768626886556,129,1,0.4971484206698078,-0.2033985798832852,0.2238493576231847
1768626886560,129,1,0.4220768732147413,-0.1056729365686595,0.1628471104268015
1768626886564,129,1,0.371808986669384,-0.0540106444767444,0.1256107952032691
1768626886568,129,1,0.4854463057731184,-0.1194375544941817,0.251020141742255
1768626886572,129,1,0.8360279700183926,-0.0230709626595546,0.6127966013941792
1768626886576,130,2,1.3707621939783798,0.8282972686576227,1.158833482092477
1768626886580,131,3,1.9464555265673669,1.923247938002142,1.7460495003704386
1768626886584,131,3,2.436723261449537,1.8576646747623071,2.248043306778872
1768626886588,131,3,2.810607736446772,1.9814334004232543,2.6338769498304093
1768626886592,132,4,3.1116255427075075,2.8329743727503627,2.946511821299922
1768626886596,132,4,3.3686117540945113,2.956616326160193,3.2138124072649306
1768626886600,132,4,3.5251648571628356,2.7924601728875253,3.3792062700445498
1768626886604,132,4,3.4485266932792524,2.9868602879027866,3.3109292498414127
1768626886608,132,4,3.0212951175709413,2.8259299669272955,2.892738214455945
1768626886612,131,3,2.2585416271377943,1.9636693774481448,2.140265407287648
1768626886616,130,2,1.3537409574169432,0.8041031528942046,1.2469241532271167
1768626886620,129,1,0.5944519797839605,-0.0572527940550859,0.499363072872952
1768626886624,129,1,0.1961574484229192,-0.1657413411294421,0.1111852619615765
1768626886628,129,1,0.1741511349631191,-0.039287414283763,0.0960739459699192
1768626886632,129,1,0.3355562750818203,-0.1904951528284796,0.2616583665795328
1768626886636,129,1,0.3818984538231194,-0.0686675362766652,0.3121284441679038
1768626886640,129,1,0.0591409459946239,-0.1776007134314723,-0.0039652763380643
1768626886644,128,0,-0.7121213426648954,-1.083025996306145,-0.7656909473290345
1768626886648,127,-1,-1.784362282887575,-2.102667394453544,-1.827460127895396
1768626886652,126,-2,-2.8440524354288,-3.1932840024177267,-2.8781428598536185
1768626886656,125,-3,-3.567531295245576,-4.037397807243574,-3.5951132786863136
1768626886660,125,-3,-3.78997943521005,-4.2557554081606614,-3.812891571281575
1768626886664,125,-3,-3.582841752616807,-3.971172048572716,-3.6017087795559424
1768626886668,126,-2,-3.186580910297629,-3.258329780114788,-3.2014041281246732
1768626886672,126,-2,-2.8489570292241972,-3.0413005345950435,-2.859684987446837
1768626886676,126,-2,-2.691377257087353,-3.2205627238178596,-2.6978468161962854
1768626886680,126,-2,-2.692805637040515,-3.0895027189741544,-2.694593713425372
1768626886684,126,-2,-2.7699882098473663,-3.124860068085045,-2.7666391115251514
1768626886688,126,-2,-2.8579870286944407,-3.1510829116011094,-2.849287072658119
1768626886692,126,-2,-2.9246234648563436,-3.1195331013565086,-2.9106166660875608
1768626886696,126,-2,-2.938222798995886,-3.2122686109255936,-2.919260415875015
1768626886700,126,-2,-2.8558389593096973,-3.0646515771520733,-2.8330287776591
1768626886704,126,-2,-2.665198803601206,-3.191136323733625,-2.6411232447418
1768626886708,126,-2,-2.431212239540977,-3.080097795866575,-2.4100484058421277
1768626886712,127,-1,-2.2515129689733717,-2.2076100083686705,-2.2370798716746627
1768626886716,127,-1,-2.085186478740817,-2.15251680697697,-2.076658245602938
1768626886720,127,-1,-1.5508206933944635,-2.121825297314279,-1.5396229919743096
1768626886724,129,1,0.1357580887327442,-0.1589031471102666,0.1624908271695586
1768626886728,133,5,3.9682826013972217,3.893846595798992,4.017592730306253
1768626886732,140,12,10.70071449090949,10.790737057663662,10.765355161319889
1768626886736,149,21,20.249698703010253,19.871865769735503,20.31037995644557
1768626886740,159,31,31.19221868521477,29.82134505388522,31.229967853460465
1768626886744,169,41,40.743712904026445,39.89344015887533,40.752114774951586
1768626886748,175,47,45.54038842580651,45.80510917147816,45.52850772536989
1768626886752,173,45,43.10504168860584,43.82581038255266,43.09100284508486
1768626886756,163,35,33.26444221911915,33.829833852184976,33.26591809806361
1768626886760,147,19,18.569570484525027,17.79404317053273,18.5961956835892
1768626886764,131,3,3.2916726580014215,1.9234427906282925,3.340998640077647
1768626886768,120,-8,-8.492764293184107,-9.215907321020188,-8.43470443553485
1768626886772,114,-14,-14.603140915473684,-15.105790280968058,-14.555588489026814
1768626886776,114,-14,-15.3118171315281,-15.18005726429509,-15.28945693741149
1768626886780,117,-11,-12.6265449016297,-12.222364515131344,-12.631926069478666
1768626886784,120,-8,-8.938747131347288,-9.105589200293256,-8.961904784356424
1768626886788,123,-5,-5.91176965547195,-6.259171339298295,-5.936878565002102
1768626886792,124,-4,-4.125017093620443,-5.051644104230466,-4.1396355319694695
1768626886796,125,-3,-3.3899859500027074,-4.263767933796869,-3.391706436474633
1768626886800,126,-2,-3.271236559237675,-3.1000163866287496,-3.268154662584549
1768626886804,126,-2,-3.406500381156543,-3.31062110575566,-3.4109950296007896
1768626886808,125,-3,-3.5608891384015875,-4.042503127027434,-3.580811509111711
1768626886812,125,-3,-3.592847721355622,-4.289663716592861,-3.627069448118075
1768626886816,125,-3,-3.4608461076894015,-4.015522063652154,-3.50264983849971
1768626886820,126,-2,-3.229194066178488,-3.3357044380510557,-3.2734895899663243
1768626886824,126,-2,-2.99882242236693,-3.1366220452076514,-3.0459695115336283
1768626886828,126,-2,-2.8060135213798,-3.1967527321462144,-2.859592154423091
1768626886832,126,-2,-2.6023044509370443,-3.2030134441139806,-2.6646906261057524
1768626886836,126,-2,-2.343089727736566,-3.0330746860965423,-2.413934071839515
1768626886840,127,-1,-2.0803037818603407,-2.3961539078122973,-2.1586147463486087
1768626886844,127,-1,-1.9447362048363432,-2.0256019363507676,-2.031024022173942
1768626886848,127,-1,-2.030543803134612,-2.391566845943629,-2.126191841132669
1768626886852,126,-2,-2.3050230863832626,-2.982166239213997,-2.4102027626542277
1768626886856,126,-2,-2.631061076468524,-3.26681308218574,-2.744399323853264
1768626886860,126,-2,-2.862322053871534,-3.1943893719461887,-2.982827376245735
1768626886864,126,-2,-2.911680687382287,-3.184217579384014,-3.040264242262029
1768626886868,126,-2,-2.754675885414525,-3.3294293137409925,-2.893382689139138
1768626886872,126,-2,-2.4086671178458605,-2.967430381518764,-2.558848390681808
1768626886876,127,-1,-1.928456423204988,-2.375355637752486,-2.0900631556960643
1768626886880,127,-1,-1.4089498933351974,-2.024828770776906,-1.581296493115127
1768626886884,128,0,-0.96447785449562,-1.4124771057822023,-1.1472168241360192
1768626886888,128,0,-0.6815472769888227,-1.096616178702647,-0.8748489691664463
1768626886892,128,0,-0.5767039968481036,-1.2143480161427418,-0.7807972275522277
1768626886896,128,0,-0.5942745223318231,-1.1587049599141928,-0.8091652151600606
1768626886900,128,0,-0.6469458791662346,-1.215264853051453,-0.8727326270135067
1768626886904,128,0,-0.6680420148189534,-1.274671710113319,-0.9053794749290854
1768626886908,128,0,-0.640274638038498,-1.203792079928906,-0.8902828351275344
1768626886912,128,0,-0.589247794247038,-1.1609352687204808,-0.8527669971487434
1768626886916,128,0,-0.5549958928734153,-1.188704560681654,-0.8318482327684151
1768626886920,128,0,-0.5625920316269823,-1.2212156073761904,-0.8517045697396848
1768626886924,128,0,-0.6043612489744086,-1.2570619719276117,-0.9049000103064986
1768626886928,128,0,-0.6366910865003252,-1.256991072809876,-0.9491739107409638
1768626886932,128,0,-0.5952686138588683,-1.0993660523778332,-0.921311270096349
1768626886936,128,0,-0.4328964801934303,-1.277459722853134,-0.7736838142559567
1768626886940,128,0,-0.1634146619486105,-1.1300172344518922,-0.518696157585308
1768626886944,129,1,0.1323632685766509,-0.3602040353860323,-0.2364718095068254
1768626886948,129,1,0.3657385010344354,-0.1771697042571047,-0.016355920545485
1768626886952,129,1,0.5205264251491555,-0.1717785147875665,0.1247152539595671
1768626886956,129,1,0.6688606765603518,-0.2389141809798256,0.2589892410373413
1768626886960,129,1,0.8951360542766277,-0.1565876802618292,0.4711217584223404
1768626886964,130,2,1.202883935937384,0.6297631910577496,0.7641353365451087
1768626886968,130,2,1.500194166263829,0.8518152410034138,1.0455450349776418
1768626886972,130,2,1.6745894776282633,0.7633988721877811,1.2035558266463993
1768626886976,130,2,1.683302725522566,0.8429249999620493,1.1969904237604196
1768626886980,130,2,1.5878887721744526,0.7142906094460405,1.0880372445277535
1768626886984,130,2,1.5216200488631069,0.7723644137201437,1.0087244082263156
1768626886988,130,2,1.6187499461529231,0.6843894708749938,1.0913742407414126
1768626886992,130,2,1.941612340526418,0.9445581335948156,1.3975395313922312
1768626886996,131,3,2.440702798143077,1.633136413805531,1.8786775396323612
1768626887000,131,3,2.97600765240252,1.9252451066063083,2.3965244045534844
1768626887004,132,4,3.398818098563251,2.525738436131705,2.803474496551444
1768626887008,132,4,3.649769360181279,2.952522163542192,3.039930952990248
1768626887012,132,4,3.8047047628923134,2.6445892978167493,3.180588312164439
1768626887016,132,4,4.026336299495204,2.935623425863389,3.3870105590786768
1768626887020,133,5,4.449153920432025,3.6039696288902823,3.793255363694372
1768626887024,133,5,5.081173144850843,3.8243464373436344,4.407782658175178
1768626887028,134,6,5.797256126383374,4.679611221374461,5.106300235866302
1768626887032,135,7,6.430987226439092,5.877645537940587,5.723034667412995
1768626887036,135,7,6.893860230674098,5.727120741267687,6.169754220697996
1768626887040,135,7,7.224327608103258,5.744539074077422,6.484747571330284
1768626887044,136,8,7.531010985144705,6.724909075265219,6.775862387797744
1768626887048,136,8,7.889334162163815,6.725710064624944,7.117610557956816
1768626887052,136,8,8.280889940355394,6.872433724358102,7.491485243743074
1768626887056,137,9,8.617175226367152,7.699565505272362,7.809813695631281
1768626887060,137,9,8.824098755309112,7.749381022339253,7.999475391907474
1768626887064,137,9,8.919918537093473,7.724300121673765,8.079207428466413
1768626887068,137,9,9.019574318610296,7.697151462527771,8.163687496740478
1768626887072,137,9,9.256595718823656,7.931290943932515,8.385374677845316
1768626887076,138,10,9.685188024086887,8.59656283084051,8.79715132831696
1768626887080,138,10,10.237911627197487,8.87075356063589,9.331218328297322
1768626887084,139,11,10.762825595004744,9.551519238819106,9.836928754229154
1768626887088,139,11,11.106581634376733,9.911856731532051,10.163004049769842
1768626887092,139,11,11.190301565831003,9.663463569966831,10.231529018749534
1768626887096,139,11,11.039609813005006,9.895748462046708,10.066911766878102
1768626887100,139,11,10.755081332814884,9.519831641291953,9.767368121269168
1768626887104,138,10,10.432063545109678,8.911515063158859,9.4269834013879
1768626887108,138,10,10.067612374803147,8.548586233092362,9.043649247310574
1768626887112,137,9,9.52266748537715,8.013205841612436,8.480076896982233
1768626887116,137,9,8.59309899110506,7.548123911003626,7.53326694122071
1768626887120,135,7,7.158080343,5.839429794986763,6.082545934772943
1768626887124,133,5,5.290162344334541,3.585211267958156,4.19999082610662
1768626887128,131,3,3.2306289559933177,1.8709277797995805,2.1258764850295964
1768626887132,129,1,1.2473620154191511,-0.3190622299220509,0.1268743237604433
1768626887136,127,-1,-0.5142510758181147,-2.122189280535868,-1.6520631809006368
1768626887140,126,-2,-2.081106642998426,-3.497306569166883,-3.23695354489804
1768626887144,124,-4,-3.5753118854715673,-5.092109651381189,-4.748482517380612
1768626887148,123,-5,-5.072688213809826,-6.454434100515214,-6.2617339797199225
1768626887152,121,-7,-6.505876011312706,-8.00645404066226,-7.7096494564936515
1768626887156,120,-8,-7.690156731468919,-9.439213188608672,-8.908291590354375
1768626887160,119,-9,-8.454264686796666,-10.199069650368106,-9.687126493677908
1768626887164,119,-9,-8.769583183230733,-10.378211144405649,-10.01808089184339
1768626887168,119,-9,-8.771328252460515,-10.20382492443795,-10.03648391785585
1768626887172,119,-9,-8.661417079245968,-10.218367774995215,-9.943545977744764
1768626887176,119,-9,-8.583579849464858,-10.291313292461613,-9.88172854696741
1768626887180,119,-9,-8.570217166436377,-10.30862017956344,-9.882727877947383
1768626887184,119,-9,-8.581035215196387,-10.32872652736944,-9.906948600220298
1768626887188,119,-9,-8.575375397133412,-10.21769564973584,-9.915232482808166
1768626887192,119,-9,-8.55218554868079,-10.2282788914473,-9.90729151173242
1768626887196,119,-9,-8.53902839144503,-10.28411741508064,-9.909944774647972
1768626887200,119,-9,-8.55528774192445,-10.323155120261973,-9.941186918685524
1768626887204,119,-9,-8.582803604521503,-10.345061822762588,-9.982276421737865
1768626887208,119,-9,-8.56374912392947,-10.178664185511533,-9.9760168763149
1768626887212,119,-9,-8.431530645364255,-10.291991148807083,-9.856847578871978
1768626887216,119,-9,-8.162376151133536,-10.206679577637146,-9.601640495966794
1768626887220,120,-8,-7.811300270565906,-9.43467139664175,-9.265478210524655
1768626887224,120,-8,-7.49535676778931,-9.228243834732172,-8.964791528242879
1768626887228,120,-8,-7.327358206596069,-9.312126580972787,-8.811099633941554
1768626887232,120,-8,-7.344796455666006,-9.146239838290256,-8.840832920832883
1768626887236,120,-8,-7.477262945911169,-9.36858241317398,-8.983972664437255
1768626887240,120,-8,-7.567940482487248,-9.30253445574712,-9.085397947459448
1768626887244,120,-8,-7.444979280088991,-9.329813215056513,-8.974625400944088
1768626887248,120,-8,-7.0190392906352335,-9.27094985854256,-8.562153653076562
1768626887252,121,-7,-6.352826283025156,-8.107712185872352,-7.909526143088688
1768626887256,122,-6,-5.64336362671081,-7.499173638158415,-7.212897649471687
1768626887260,122,-6,-5.113262163339185,-7.119720228535342,-6.694832703664884
1768626887264,123,-5,-4.884298653785017,-6.564068678821736,-6.477406014239623
1768626887268,122,-6,-4.926414316590585,-7.029180905124464,-6.530568413466178
1768626887272,122,-6,-5.1131460008579825,-7.334553512520363,-6.727649430519177
1768626887276,122,-6,-5.324086762420955,-7.322249854230382,-6.948456481291856
1768626887280,122,-6,-5.500838770333028,-7.250862883927077,-7.135295690863259
1768626887284,122,-6,-5.6229643915084395,-7.500628789575057,-7.268094425717948
1768626887288,121,-7,-5.658571906704391,-8.030649287406362,-7.314562919017275
1768626887292,122,-6,-5.558130306550732,-7.394062470006141,-7.224647039936702
1768626887296,122,-6,-5.297135668342403,-7.232194396874611,-6.973725113117368
1768626887300,122,-6,-4.919627000147182,-7.374270847712172,-6.605879367377582
1768626887304,123,-5,-4.535761348703584,-6.375137428266503,-6.23127548854221
1768626887308,123,-5,-4.263659543046258,-6.13971061666895,-5.968136088523857
1768626887312,123,-5,-4.154464707180823,-6.333211915293075,-5.867693507968972
1768626887316,123,-5,-4.164640213105315,-6.252189101265934,-5.886333665530252
1768626887320,123,-5,-4.202501182133499,-6.415896059033911,-5.932361922802533
1768626887324,123,-5,-4.205581357477629,-6.299818379316072,-5.943543366821827
1768626887328,123,-5,-4.179187998360849,-6.224682452504294,-5.925328569356181
1768626887332,123,-5,-4.168839780441428,-6.266007856345418,-5.922972676044471
1768626887336,123,-5,-4.199819873862819,-6.299371517155477,-5.961384919879096
1768626887340,123,-5,-4.2395253377920135,-6.421347909424574,-6.008006765263698
1768626887344,123,-5,-4.2134499424332335,-6.259110248523456,-5.988712703918879
1768626887348,123,-5,-4.062303710494991,-6.293254147905475,-5.844336367321914
1768626887352,123,-5,-3.7957086066905066,-6.1790086394492665,-5.5842560308618605
1768626887356,124,-4,-3.4950726355806774,-5.412543598571428,-5.289824223351699
1768626887360,124,-4,-3.25549192126372,-5.303697569944607,-5.056445787690638
1768626887364,124,-4,-3.1146608003281555,-5.404009699176583,-4.921866549168664
1768626887368,124,-4,-3.0362534298896455,-5.114484759629084,-4.849175188054097
1768626887372,124,-4,-2.962929521045445,-5.400804901239445,-4.780484450845176
1768626887376,124,-4,-2.8813956969014876,-5.166970962068189,-4.702929608881847
1768626887380,125,-3,-2.830860359778936,-4.580758758599465,-4.656871571879384
1768626887384,124,-4,-2.851917915580733,-5.117718297865495,-4.683369059339979
1768626887388,124,-4,-2.9396239920992664,-5.396373133673837,-4.776554721932324
1768626887392,124,-4,-3.0506703322024387,-5.144519948875058,-4.8918987944282994
1768626887396,124,-4,-3.1428488317662353,-5.40249954051695,-4.987074104335338
1768626887400,124,-4,-3.192913533442539,-5.40269523434921,-5.039758608581206
1768626887404,124,-4,-3.178540117387213,-5.218295750762934,-5.028416168782661
1768626887408,124,-4,-3.0590167266701314,-5.385321586767354,-4.912205617195882
1768626887412,124,-4,-2.7900626359040928,-5.073613719769154,-4.646155343173613
1768626887416,125,-3,-2.366998695635972,-4.565430314794847,-4.225299515904897
1768626887420,125,-3,-1.854703567295113,-4.187101152813092,-3.715100519513066
1768626887424,126,-2,-1.370659749188771,-3.4562764566995763,-3.2338427647275525
1768626887428,126,-2,-1.030824459094267,-3.147965858049634,-2.8973359129331544
1768626887432,126,-2,-0.9009151094233744,-3.3016668806570357,-2.769988385782086
1768626887436,126,-2,-0.9818458272525712,-3.387945426770441,-2.8516208928569635
1768626887440,126,-2,-1.216701143261886,-3.325076120486247,-3.0858168964403148
1768626887444,126,-2,-1.497873164661105,-3.3575210648803853,-3.366437347906798
1768626887448,125,-3,-1.6890332265264258,-4.198315951849718,-3.55785006094941
1768626887452,125,-3,-1.686107995670873,-4.3009422696616575,-3.5556885883162432
1768626887456,126,-2,-1.4864990572956334,-3.3759181248772805,-3.3572690272478947
1768626887460,126,-2,-1.198293605577152,-3.3515668266579124,-3.070819878825053
1768626887464,126,-2,-0.9730826775539284,-3.331109340525794,-2.8470594755960774
1768626887468,126,-2,-0.9186051687639014,-3.1837775065674103,-2.792064002533893
1768626887472,126,-2,-1.046882900408974,-3.396266342595052,-2.917491885334182
1768626887476,126,-2,-1.269044432064213,-3.2216393342500727,-3.1363032406538505
1768626887480,126,-2,-1.434326341809557,-3.584507043740327,-3.299831875677585
1768626887484,125,-3,-1.4142784350725464,-4.010629655399579,-3.2797426097526454
1768626887488,126,-2,-1.1978971032131365,-3.5604655193598154,-3.0635081294725133
1768626887492,126,-2,-0.917018040572794,-2.993671019379178,-2.781818769876323
1768626887496,127,-1,-0.7546643740125436,-2.6679448240683645,-2.617701091716455
1768626887500,126,-2,-0.8007573172336162,-3.12115698724115,-2.661384311116624
1768626887504,126,-2,-0.981769493534694,-3.4624048280284647,-2.839426514328082
1768626887508,126,-2,-1.1223296324378884,-3.1307888213361217,-2.9766134811208675
1768626887512,126,-2,-1.0780907328673908,-3.404140792934953,-2.9288643324639843
1768626887516,126,-2,-0.832026370171564,-3.3159398659967794,-2.6793273010245926
1768626887520,127,-1,-0.4894511667450518,-2.4057847523643607,-2.333636326715854
1768626887524,127,-1,-0.1881924597631785,-2.2261795735996817,-2.030101643127567
1768626887528,127,-1,-0.0066251080572476,-2.3275578034046696,-1.846928540790305
1768626887532,127,-1,0.0504462890798604,-2.253775441537608,-1.7876582390021714
1768626887536,127,-1,-0.0064617629071093,-2.464909231112794,-1.840470716687188
1768626887540,127,-1,-0.1938737778035872,-2.2562571302607015,-2.0219782171808713
1768626887544,127,-1,-0.5167297809930398,-2.350826204589164,-2.338574625933779
1768626887548,126,-2,-0.8929027696856446,-3.224107831952113,-2.7095444549346297
1768626887552,126,-2,-1.1484108147667995,-3.352356649804552,-2.96117522918015
1768626887556,126,-2,-1.125536368994341,-3.404569561286621,-2.9350220996444767
1768626887560,126,-2,-0.8206061834073917,-3.288846437998505,-2.62649699385999
1768626887564,127,-1,-0.4189752002683902,-2.3113417902815865,-2.220478155405449
1768626887568,127,-1,-0.1755257635786984,-2.2507593334378653,-1.971931556971776
1768626887572,127,-1,-0.2266978810858302,-2.3670470904507317,-2.0176013052283013
1768626887576,127,-1,-0.4892025926371015,-2.3834868469596935,-2.2742401461307327
1768626887580,126,-2,-0.7341076083048872,-3.335101439965659,-2.512688855509868
1768626887584,126,-2,-0.7742904588973167,-3.2209732630807055,-2.546038881650637
1768626887588,127,-1,-0.6011506943607436,-2.343202777542158,-2.3667295212943253
1768626887592,127,-1,-0.3568182332354062,-2.3005862460046194,-2.1177194876571117
1768626887596,127,-1,-0.1887692785946531,-2.4386469570389075,-1.9457728694459535
1768626887600,127,-1,-0.135020780130969,-2.320607450498532,-1.8870773355575512
1768626887604,127,-1,-0.1307726773274875,-2.173942084587525,-1.8757139048043163
1768626887608,127,-1,-0.0989348440077588,-2.438144871016837,-1.8352877781923855
1768626887612,127,-1,-0.0248222009465826,-2.165027583845182,-1.7530447545824626
1768626887616,128,0,0.0456113850576016,-1.6276381887720102,-1.6764346052847594
1768626887620,127,-1,0.06002877215397,-2.1079558539495227,-1.6574038475030242
1768626887624,127,-1,-0.0040628841103651,-2.376280848978112,-1.716514686685363
1768626887628,127,-1,-0.1511273536212221,-2.255362484128536,-1.8568886057011715
1768626887632,127,-1,-0.3844744592068485,-2.3151638286848373,-2.082420489305431
1768626887636,127,-1,-0.684459634310479,-2.5484581281083742,-2.374720930619425
1768626887640,126,-2,-0.9751705785160636,-3.112139953780474,-2.657923328399412
1768626887644,126,-2,-1.1387982576888236,-3.4316545752912413,-2.8134743909668334
1768626887648,126,-2,-1.0803532381974152,-3.1437621296113916,-2.7467981344665633
1768626887652,127,-1,-0.7843119016641876,-2.4697443617980106,-2.444001413464906
1768626887656,127,-1,-0.3229031280170225,-2.3884096760688083,-1.9777622954728833
1768626887660,127,-1,0.1691739268689842,-2.254798201181514,-1.480753187464296
1768626887664,128,0,0.53443433264927,-1.3121977489593248,-1.1080519957470625
1768626887668,128,0,0.65602258548462,-1.2312407212654688,-0.9765871951307464
1768626887672,128,0,0.533481732989795,-1.4271423059528765,-1.0892680582227243
1768626887676,128,0,0.3036096948949267,-1.4013278617350124,-1.3113232274384163
1768626887680,127,-1,0.1500733729465317,-2.257412386648174,-1.4587411373803556
1768626887684,127,-1,0.1518284855623364,-2.30448822442014,-1.450920345775103
1768626887688,128,0,0.2123423823935353,-1.2242636786916377,-1.3835905765468062
1768626887692,128,0,0.1581630856881029,-1.4554427167068866,-1.430416698195184
1768626887696,127,-1,-0.0759317700657564,-2.358251127213241,-1.6565901642948135
1768626887700,127,-1,-0.3540924234635607,-2.303151603842841,-1.92596884118748
1768626887704,127,-1,-0.4245794068240038,-2.2760766022013197,-1.9872937644857651
1768626887708,127,-1,-0.1037225559418361,-2.2322277282281036,-1.6580449986674504
1768626887712,128,0,0.5898669100137273,-1.4544709735151349,-0.95753515038909
1768626887716,129,1,1.4470737175755253,-0.3450486517471465,-0.0946182587515946
1768626887720,130,2,2.2112779888357132,0.6775934960116781,0.6751395985556092
1768626887724,130,2,2.7382363674973305,0.731861434759316,1.2089548781843038
1768626887728,130,2,3.0489928151933223,0.7628828745097966,1.5287083361950098
1768626887732,131,3,3.2543403971183493,1.546998332641376,1.7442516994223
1768626887736,131,3,3.4400958173175966,1.6692264406894748,1.939204831089687
1768626887740,131,3,3.606716981599127,1.6521805806432834,2.1126709742049994
1768626887744,131,3,3.6813696107202016,1.7736903356440883,2.192462328586519
1768626887748,131,3,3.569562549006453,1.6952733741078734,2.085845818300203
1768626887752,131,3,3.2119348838973716,1.6323241916018527,1.734941326141898
1768626887756,130,2,2.6194697119330232,0.5855710979777384,1.1511804811808082
1768626887760,129,1,1.8719774128543496,-0.2702379691647647,0.4133486613374845
1768626887764,129,1,1.0902165867064069,-0.2848172743330207,-0.3599222879221686
1768626887768,128,0,0.4002289049402936,-1.2804360948612112,-1.0438335779635892
1768626887772,127,-1,-0.1115344982108754,-2.354155453475718,-1.5506408976933084
1768626887776,127,-1,-0.445829296641106,-2.446876478766619,-1.8787128955577932
1768626887780,127,-1,-0.6913059787910587,-2.214294219373569,-2.1162006691790283
1768626887784,127,-1,-0.9448496522226202,-2.364059077854286,-2.3616971385112726
1768626887788,126,-2,-1.2166898142070628,-3.1795202993980647,-2.6267953539878226
1768626887792,126,-2,-1.429715103745205,-3.4759694175915223,-2.8338826975119615
1768626887796,126,-2,-1.5234779447095426,-3.299377852787549,-2.9214099806009948
1768626887800,126,-2,-1.547409566413365,-3.3818580777744662,-2.938741810027409
1768626887804,126,-2,-1.6350391482873592,-3.1751152602716863,-3.0200766710294675
1768626887808,126,-2,-1.8807642711484012,-3.373656888064101,-3.2598319709081123
1768626887812,125,-3,-2.2429693956452055,-4.281459969352373,-3.615558614189227
1768626887816,125,-3,-2.566247428137835,-4.496460342285921,-3.931546467627403
1768626887820,125,-3,-2.695446124006128,-4.183909618478011,-4.0537289397006955
1768626887824,125,-3,-2.5783424036576488,-4.361812486595863,-3.9311390207178
1768626887828,125,-3,-2.285394649793172,-4.180988068593354,-3.633930131794507
1768626887832,126,-2,-1.951544657908144,-3.464658409509442,-3.295290079670941
1768626887836,126,-2,-1.6914635915271874,-3.3381017980580214,-3.028416623652725
1768626887840,126,-2,-1.5469194550332004,-3.323570989918851,-2.875377127888183
1768626887844,126,-2,-1.4993185253602752,-3.226641191608322,-2.819905587699385
1768626887848,126,-2,-1.5245436658234564,-3.3032334324437307,-2.841102069503366
1768626887852,126,-2,-1.6192939034916698,-3.336548523441107,-2.9373620008271786
1768626887856,126,-2,-1.737607948307363,-3.4848894076395993,-3.0603481347055155
1768626887860,126,-2,-1.6453872440422732,-3.1584491991202515,-2.9691629418293735
1768626887864,127,-1,-0.7844406504273951,-2.391421296273978,-2.0981728428511115
1768626887868,129,1,1.720675289127,-0.1284266196827985,0.429439042031579
1768626887872,135,7,6.812935441493882,5.5096056829133735,5.547832203280671
1768626887876,143,15,15.00834739406176,13.644317063879235,13.758272247207506
1768626887880,153,25,25.79434279355869,23.764247172354345,24.538648749064887
1768626887884,164,36,37.22478549628917,34.65189779882574,35.94668717506396
1768626887888,173,45,46.11824288792703,43.871158604198456,44.815589711071375
1768626887892,178,50,49.09697731802636,48.4384393797645,47.782690339393994
1768626887896,173,45,44.17024838603011,43.7335057615019,42.86434191215782
1768626887900,160,32,31.99280461720646,30.61163183344901,30.71261715361122
1768626887904,143,15,15.895345810194064,13.824459938489904,14.648096322672298
1768626887908,127,-1,0.4941485908438459,-2.302469969704858,-0.7266335053617694
1768626887912,117,-11,-10.358306566132676,-12.36048997740931,-11.570445467538097
1768626887916,113,-15,-15.091186577161364,-16.350590738752047,-16.31486349525227
1768626887920,113,-15,-14.620076843001328,-16.324704736414226,-15.866707416472671
1768626887924,117,-11,-11.328887036898443,-12.165096433621638,-12.595514797124018
1768626887928,121,-7,-7.608280921962198,-8.427085617555997,-8.880862965843022
1768626887932,122,-6,-4.83816609865084,-7.215321753496371,-6.100407873256273
1768626887936,124,-4,-3.250201646187562,-5.529928496618978,-4.492446322629144
1768626887940,125,-3,-2.454562827357007,-4.084068953702198,-3.6785254003450656
1768626887944,126,-2,-2.0494812382122793,-3.4496830229752797,-3.266191353379689
1768626887948,126,-2,-1.8844839489063976,-3.091065266843128,-3.1061972585985935
1768626887952,126,-2,-1.9721587909539056,-3.6193555118824303,-3.203857558674734
1768626887956,125,-3,-2.306192000794685,-4.060559184199983,-3.5433119900488643
1768626887960,125,-3,-2.786019136546619,-4.566902671330604,-4.019885197434126
1768626887964,124,-4,-3.2527003200061135,-4.950490361123345,-4.478450204099161
1768626887968,125,-3,-3.5454086528112914,-4.581197820357316,-4.7652713460833
1768626887972,124,-4,-3.541549476962462,-5.158209453650805,-4.761206057218601
1768626887976,124,-4,-3.2084042556646515,-5.476079743179651,-4.4311668582450725
1768626887980,125,-3,-2.654991782130841,-4.175658207336477,-3.87996931710086
1768626887984,126,-2,-2.104809620522719,-3.2915037033109606,-3.32956841567034
1768626887988,126,-2,-1.7602166686513765,-3.2902471696714435,-2.983511365237706
1768626887992,126,-2,-1.6613565451117411,-3.395697991920191,-2.883246389377919
1768626887996,126,-2,-1.6729134897990503,-3.28986518307083,-2.8937154973229906
1768626888000,126,-2,-1.6106010088455518,-3.3070644123749977,-2.8306485965574595
1768626888004,126,-2,-1.390469621366385,-3.1797047851199904,-2.6105566352683383
1768626888008,127,-1,-1.076738923068823,-2.380043859790155,-2.2981141870718687
1768626888012,127,-1,-0.8043686845148752,-2.2938042188877787,-2.0278764997216356
1768626888016,127,-1,-0.6595033743819165,-2.424165693646202,-1.8846958712554096
1768626888020,127,-1,-0.6218636468797722,-2.115702893056073,-1.847278448195317
1768626888024,127,-1,-0.6008050897863999,-2.423980115729941,-1.825425809329495
1768626888028,127,-1,-0.5132501135615253,-2.0673783374634267,-1.7376456382615015
1768626888032,128,0,-0.3352747106409994,-1.642700514073006,-1.5610741878181809
1768626888036,127,-1,-0.1036167271679553,-2.049405428979236,-1.331920462656479
1768626888040,128,0,0.1149774137005046,-1.4886660832829075,-1.1156538904599784
1768626888044,128,0,0.2637746541023444,-1.0564417178929282,-0.968477486644947
1768626888048,128,0,0.3278714002008085,-1.4007307782313945,-0.9056783714235124
1768626888052,128,0,0.3369797650249253,-1.3376406550108924,-0.8979421151007105
1768626888056,128,0,0.333499724471435,-1.302936327878641,-0.902934091604414
1768626888060,128,0,0.3354124233509099,-1.290053703042819,-0.9028032094458068
1768626888064,128,0,0.3312645754045962,-1.1851273547928591,-0.9093146647406688
1768626888068,128,0,0.3087666030515439,-1.3108412889276535,-0.9348134999616028
1768626888072,128,0,0.283575436792894,-1.3856942949316424,-0.9631202750912412
1768626888076,128,0,0.2990974239381263,-1.2672566240261605,-0.9500364075930336
1768626888080,128,0,0.4003984139824752,-1.3253595862584548,-0.8502143817440513
1768626888084,128,0,0.6094698693918499,-1.1268384047542543,-0.6424318777055882
1768626888088,129,1,0.922307209554481,-0.3660596485489531,-0.3319943072451591
1768626888092,129,1,1.317698396730145,-0.3181852242171978,0.0594121142846369
1768626888096,129,1,1.7518830413167346,-0.3241559017495357,0.4889648106180366
1768626888100,130,2,2.1428467339329975,0.7057923860828794,0.8759605362591594
1768626888104,130,2,2.384616596134461,0.901445302202279,1.1148454915460282
1768626888108,130,2,2.4094904836713047,0.550516902867541,1.1374010908043006
1768626888112,130,2,2.25340351931544,0.860446160499359,0.9788666568090642
1768626888116,130,2,2.05894280500485,0.4119534103360542,0.7815164018390957
1768626888120,129,1,1.998166357159921,0.0355454456431409,0.7174822598375339
1768626888124,130,2,2.1671384281915316,0.55193702653873,0.8828535468714109
1768626888128,130,2,2.534973308167419,0.920327564597536,1.2465210022183937
1768626888132,131,3,2.9867257815403327,1.5305265035552316,1.693597783573972
1768626888136,131,3,3.41528470894145,1.6977893101943995,2.1177081717690447
1768626888140,131,3,3.781291820385716,1.7963357138284408,2.480177344378624
1768626888144,132,4,4.1064217211892,2.751659655527398,2.802387211123193
1768626888148,132,4,4.427814903136086,2.7837739957903995,3.1205719057732964
1768626888152,132,4,4.756481965368499,2.650990942734817,3.4452345306952568
1768626888156,133,5,5.066863671553299,3.5945540218222254,3.7508941612098807
1768626888160,133,5,5.325862074174253,3.902543253875036,4.00484795998019
1768626888164,133,5,5.538197670984529,3.624193499895287,4.212596293699297
1768626888168,133,5,5.762116812639638,3.98307259885814,4.433176565146634
1768626888172,134,6,6.07821427442007,4.412735713051323,4.746898120748117
1768626888176,134,6,6.543046084093688,4.874833427639306,5.208786999295101
1768626888180,135,7,7.161022685354668,5.60406163397241,5.821990871733549
1768626888184,135,7,7.875265258170071,5.930652863236343,6.5300155437514
1768626888188,136,8,8.572336178095778,6.718608781512373,7.220967584978158
1768626888192,137,9,9.116502479463588,7.65932490699707,7.760299503325733
1768626888196,137,9,9.42034083426206,7.659845936825787,8.060719858113249
1768626888200,137,9,9.512255180262692,7.792253362581887,8.15003199915076
1768626888204,137,9,9.541150849396727,7.779195170151104,8.176198656671465
1768626888208,137,9,9.701007511858712,7.866066908229586,8.332286981945906
1768626888212,138,10,10.11984215329474,8.545595860531444,8.746114271005125
1768626888216,138,10,10.782237577349134,8.769480215207956,9.403058752103414
1768626888220,139,11,11.53481729268062,9.689545430022914,10.150682973578768
1768626888224,140,12,12.175838658516348,10.893525445352044,10.78736231236946
1768626888228,140,12,12.568820838506912,10.77132481563576,11.176191546658178
1768626888232,140,12,12.690937430929289,10.633996353093542,11.294172368105716
1768626888236,140,12,12.581800004776216,10.727310082478708,11.180982408360034
1768626888240,140,12,12.255778236216203,10.666181523304797,10.85104582132125
1768626888244,139,11,11.66672491467732,10.014886843542786,10.25850216895568
1768626888248,138,10,10.745287895524974,8.59165077579662,9.334194870017845
1768626888252,137,9,9.461689956003116,7.8836703311759955,8.047418124370342
1768626888256,136,8,7.85819377451545,6.459442844941464,6.438913870372307
1768626888260,133,5,6.017927659920007,3.905306388450593,4.592102787976
1768626888264,131,3,3.9830308287696807,1.8745846881184656,2.5517514401499852
1768626888268,129,1,1.7073342283633952,-0.3606838179470477,0.2734782478677218
1768626888272,127,-1,-0.8616668404399377,-2.0272732606184154,-2.2968192588955043
1768626888276,125,-3,-3.610949117632078,-4.7360415681678925,-5.048867392305414
1768626888280,120,-8,-6.1918259043244905,-8.811189248025432,-7.63405262848145
1768626888284,119,-9,-8.183388204340849,-10.441341163619736,-9.629285125628297
1768626888288,118,-10,-9.36621278991946,-11.017169781215406,-10.81441510608694
1768626888292,118,-10,-9.84284442063166,-11.329575728714373,-11.29371596066698
1768626888296,118,-10,-9.903503340970072,-11.454936938157102,-11.358756682725115
1768626888300,117,-11,-9.794752480625128,-12.031968719740451,-11.255182082225076
1768626888304,118,-10,-9.60567400760696,-11.291756354880032,-11.070303199882806
1768626888308,118,-10,-9.328567261312177,-11.089907529264286,-10.7956867028474
1768626888312,118,-10,-8.98814120515835,-11.293261247874732,-10.45651429373522
1768626888316,119,-9,-8.69938818816082,-10.420368630268037,-10.168944486192004
1768626888320,119,-9,-8.59591869559787,-10.082018496964206,-10.067883296520744
1768626888324,119,-9,-8.699506924566109,-10.25282318636456,-10.17528173940513
1768626888328,118,-10,-8.875538168346527,-11.09224464245109,-10.354892772552494
1768626888332,118,-10,-8.941153095122933,-11.305864217089184,-10.422186517960016
1768626888336,119,-9,-8.821591093553485,-10.345727311965671,-10.303108385508128
1768626888340,119,-9,-8.590356574550485,-10.170974703350277,-10.073536054243917
1768626888344,119,-9,-8.36472820763755,-10.148351146921796,-9.85149862666596
1768626888348,119,-9,-8.187387178394333,-10.187432698165477,-9.67761143795027
1768626888352,119,-9,-8.01368968544033,-10.204368390568815,-9.505051621478628
1768626888356,120,-8,-7.784985855422765,-9.422644060568729,-9.275667296611628
1768626888360,120,-8,-7.4906763883513,-9.069588302360632,-8.981186386517233
1768626888364,120,-8,-7.173795788800571,-9.256277890374731,-8.665965055401522
1768626888368,120,-8,-6.906400986838994,-9.050541853459643,-8.401536967486017
1768626888372,121,-7,-6.758393717896403,-8.351101032669549,-8.256674563337874
1768626888376,121,-7,-6.758358062492035,-8.248686380468982,-8.258715618366603
1768626888380,120,-8,-6.863143473322051,-9.211650866410793,-8.363026383546279
1768626888384,120,-8,-6.964343493902859,-9.129288361049928,-8.461000144840622
1768626888388,121,-7,-6.9220584426813785,-8.137247588883932,-8.415364724578643
1768626888392,121,-7,-6.603357714192445,-8.290796479140962,-8.096568508088488
1768626888396,121,-7,-5.944966772938079,-8.253030465309827,-7.441549368695038
1768626888400,122,-6,-5.047221952585488,-7.192900136827781,-6.547483193921981
1768626888404,123,-5,-4.208375966004347,-6.1567349240676,-5.70991665707519
1768626888408,124,-4,-3.7903306400907257,-5.076899245209207,-5.290839871928942
1768626888412,124,-4,-3.967699388778987,-5.372323833082199,-5.466005725756573
1768626888416,122,-6,-4.576551156255451,-7.107360119934422,-6.0716985393757374
1768626888420,122,-6,-5.217339329713601,-7.368476757055773,-6.708729983428962
1768626888424,122,-6,-5.527397960376607,-6.9339073538915175,-7.01624886816631
1768626888428,122,-6,-5.397754341668213,-7.324550395293976,-6.886733389042868
1768626888432,122,-6,-4.9956391389411365,-7.061104292220255,-6.486182747059004
1768626888436,123,-5,-4.61837744226682,-6.404837240064032,-6.109288719831707
1768626888440,123,-5,-4.489321237312961,-6.085505263603465,-5.978405358254767
1768626888444,123,-5,-4.6198776037071045,-6.179043797895501,-6.1058460686955796
1768626888448,122,-6,-4.830357394095455,-7.115082196628233,-6.31264264285356
1768626888452,122,-6,-4.91521266634059,-7.189238601849357,-6.39325193225545
1768626888456,123,-5,-4.806629666233456,-6.293607590005502,-6.280555276975071
1768626888460,123,-5,-4.587563630729076,-6.160220967115769,-6.058942580914165
1768626888464,123,-5,-4.36627742547874,-6.111685573517523,-5.836835753466377
1768626888468,123,-5,-4.167217743731202,-6.160615660331349,-5.636716126134517
1768626888472,123,-5,-3.948487429998772,-6.125817548959218,-5.414627691785352
1768626888476,124,-4,-3.6950810187140646,-5.338690384395981,-5.155719021564942
1768626888480,124,-4,-3.462123057476216,-5.091111033659201,-4.917096306627146
1768626888484,124,-4,-3.323612880081248,-5.181430015263903,-4.774278325501193
1768626888488,124,-4,-3.297241740821312,-5.061863346529171,-4.744765108564557
1768626888492,124,-4,-3.3307983642544405,-5.219593313946998,-4.775191211978672
1768626888496,124,-4,-3.357852230289673,-5.227096665787952,-4.798222899250389
1768626888500,124,-4,-3.3594633407126917,-5.166070547095444,-4.794687404974975
1768626888504,124,-4,-3.3689999458345614,-5.119954923428786,-4.798242070202691
1768626888508,124,-4,-3.416207568380786,-5.070770383257523,-4.839239444547273
1768626888512,124,-4,-3.46846135299988,-5.233346769454242,-4.885664206400359
1768626888516,124,-4,-3.4368926732838503,-5.1663999942580805,-4.848804840897277
1768626888520,124,-4,-3.258106106895999,-5.221629111053525,-4.664919655219556
1768626888524,124,-4,-2.981609102074946,-5.0484431480027965,-4.383263895708573
1768626888528,125,-3,-2.767280243269292,-4.110040011671654,-4.163815239532703
1768626888532,125,-3,-2.7719532447125284,-4.200227686171175,-4.163054372301905
1768626888536,124,-4,-3.0183593632166312,-5.157492089062096,-4.402542626640785
1768626888540,124,-4,-3.3629076754717633,-5.237116543059441,-4.738212760071639
1768626888544,124,-4,-3.581113600815443,-5.001477602973659,-4.94714265738634
1768626888548,124,-4,-3.495386352034538,-5.149497956763067,-4.853875018970804
1768626888552,124,-4,-3.0700165189432935,-5.125662050884518,-4.422897730937251
1768626888556,125,-3,-2.435399723414462,-4.21343460199686,-3.782943368132885
1768626888560,126,-2,-1.8226027660415376,-3.175987244113309,-3.163716452794845
1768626888564,126,-2,-1.4305752973989048,-3.0367180232553466,-2.764055944337135
1768626888568,126,-2,-1.3137208446312414,-3.1114222958874516,-2.6386571240152064
1768626888572,126,-2,-1.377575971228922,-3.121726399176678,-2.6931724422122816
1768626888576,126,-2,-1.4767017888065643,-3.2205829381485627,-2.7825272515168433
1768626888580,126,-2,-1.5215199391387002,-3.1397849403670826,-2.8179875232596996
1768626888584,126,-2,-1.5107772666894856,-3.0580732380390936,-2.798995151114095
1768626888588,126,-2,-1.4878077555786398,-3.067590671055364,-2.768667818068831
1768626888592,126,-2,-1.482199495273418,-3.136382594882967,-2.755499565425163
1768626888596,126,-2,-1.49152022818755,-3.204082059864567,-2.755971611159892
1768626888600,126,-2,-1.502999602081922,-3.1315186596633255,-2.757157852384955
1768626888604,126,-2,-1.5154099389714126,-3.0515609843683293,-2.758691015195471
1768626888608,126,-2,-1.5340493468398115,-3.0452611188635457,-2.766943544844528
1768626888612,126,-2,-1.5528391055582187,-3.1347286779167085,-2.776266117717511
1768626888616,126,-2,-1.5544472070587831,-3.199062932393905,-2.7689691145970614
1768626888620,126,-2,-1.5335944698845756,-3.1159237741510784,-2.7390933475016013
1768626888624,126,-2,-1.5149465689559034,-3.0494688682339257,-2.7107230340171435
1768626888628,126,-2,-1.537565511418847,-3.018850388551223,-2.722582493774024
1768626888632,126,-2,-1.6125203523864151,-3.1306565061651375,-2.785814535024639
1768626888636,126,-2,-1.6913888028092914,-3.2089410179579554,-2.8526664592213233
1768626888640,126,-2,-1.6814349940485966,-3.0662765117562985,-2.831358915967608
1768626888644,126,-2,-1.5104342691045796,-3.108803091020121,-2.6501161800865436
1768626888648,126,-2,-1.201117851850594,-2.8925461445285423,-2.3312344112796524
1768626888652,127,-1,-0.8908298678581583,-2.2687577441586866,-2.01121732579259
1768626888656,127,-1,-0.7591853742533496,-2.025878234016796,-1.8689895801575709
1768626888660,127,-1,-0.9034416025489196,-2.2648516088300044,-2.0013754218070448
1768626888664,126,-2,-1.2589709693807958,-2.864758294477157,-2.343800505821534
1768626888668,126,-2,-1.6312402213549038,-3.128057426684882,-2.7026734067188967
1768626888672,126,-2,-1.8142631075516755,-2.9979318613187127,-2.873339756026211
1768626888676,126,-2,-1.7115337327523277,-3.279372143219855,-2.7596638069835295
1768626888680,126,-2,-1.385803068016675,-3.00267122494639,-2.423441830978247
1768626888684,127,-1,-1.0099850267473367,-2.0819337379271805,-2.036535048917268
1768626888688,127,-1,-0.749347389871684,-1.917628737766872,-1.7640265226156835
1768626888692,127,-1,-0.6593336080039514,-2.1502376996864148,-1.6616331876966663
1768626888696,127,-1,-0.6794274916725433,-2.1462207168562246,-1.6689942605667576
1768626888700,127,-1,-0.717790829717686,-2.088717779443644,-1.6944706716778646
1768626888704,127,-1,-0.7369566791849294,-1.9992749708441304,-1.7009607430153677
1768626888708,127,-1,-0.762138117478077,-1.9473774515820717,-1.7137971165613226
1768626888712,127,-1,-0.8201752817373684,-2.1064617286959573,-1.759500793523408
1768626888716,127,-1,-0.8811640171019681,-2.17614547699093,-1.807858333115308
1768626888720,127,-1,-0.8630240337821866,-2.0310857876777715,-1.7768479792611152
1768626888724,127,-1,-0.6988095984158655,-2.0596018619619536,-1.5997208829273566
1768626888728,127,-1,-0.4113750881975231,-1.8181413728818916,-1.2994737067131532
1768626888732,128,0,-0.1266469345285319,-1.243923577908156,-1.0023385737867292
1768626888736,128,0,-0.0002415242706073,-0.9928524357969112,-0.8642397698769915
1768626888740,128,0,-0.109746173241803,-1.22447168889971,-0.9622597569133656
1768626888744,127,-1,-0.4039782286755338,-1.8304037344143704,-1.2437982189495211
1768626888748,127,-1,-0.7477224526302477,-2.021663714859497,-1.5727793838052175
1768626888752,127,-1,-1.0083886995142148,-2.012943264459236,-1.817735704257116
1768626888756,127,-1,-1.1069914276152983,-2.1988919467713233,-1.902070882876194
1768626888760,127,-1,-1.0192088866010485,-2.0065371324678516,-1.8027602249538517
1768626888764,127,-1,-0.7708018330047357,-2.0156109059307963,-1.5444204720828774
1768626888768,127,-1,-0.4506855624954584,-1.8219517487946608,-1.213586382861376
1768626888772,128,0,-0.2032023946615013,-1.171166523673726,-0.9533020275026098
1768626888776,128,0,-0.1558323108572414,-1.032017548454493,-0.8915932035828175
1768626888780,128,0,-0.3159666800767611,-1.1474418200104377,-1.0369606076447229
1768626888784,127,-1,-0.5373753213773595,-1.8496935640279,-1.2437565383394316
1768626888788,127,-1,-0.6121561884657838,-1.9764467695579688,-1.3046284033566946
1768626888792,128,0,-0.4233540391393806,-0.9730227067814824,-1.1035743292629443
1768626888796,128,0,-0.0355133401236951,-1.2098693418076016,-0.7053762296850399
1768626888800,128,0,0.3406041014717669,-0.9514907018226212,-0.3193264983230818
1768626888804,129,1,0.4800074359650994,0.0014587010319904,-0.1683448572923169
1768626888808,128,0,0.2917654167826351,-0.8486430376656897,-0.3426344867016396
1768626888812,128,0,-0.106475279593738,-1.0415918130304431,-0.725600001849249
1768626888816,128,0,-0.445338336836742,-1.1276248052139797,-1.0495454511891769
1768626888820,127,-1,-0.4677737152903798,-2.012008969090244,-1.0586043520179482
1768626888824,128,0,-0.0916344093971404,-0.8972225428281448,-0.6710531973389902
1768626888828,129,1,0.5471477639667912,0.061708133141265,-0.0224408840852967
1768626888832,129,1,1.1973598747576244,0.0742398736546807,0.6373883465795851
1768626888836,130,2,1.6536882914000293,0.8040515607070686,1.1048572642404058
1768626888840,130,2,1.8613250513724535,1.0467875261438009,1.325799451655245
1768626888844,130,2,1.9141643086395153,1.0907737968706326,1.393090919111292
1768626888848,130,2,1.9700449029496911,1.0764437273343572,1.462927915107432
1768626888852,130,2,2.142651742091336,1.110920082210205,1.6478998703560648
1768626888856,131,3,2.4353501253130507,1.7852978905568793,1.951126076012486
1768626888860,131,3,2.7529638202666673,2.0957461920198797,2.278044568578408
1768626888864,131,3,2.9695528851179955,2.0627227996227413,2.504121298551294
1768626888868,131,3,2.9952481933164097,2.1158841339857952,2.540858456640791
1768626888872,131,3,2.807219712082314,2.1305533811010084,2.365516959931666
1768626888876,131,3,2.4489738157432743,1.751257469608887,2.020255822853737
1768626888880,130,2,2.0087691007945923,1.2054569193180094,1.591863257064014
1768626888884,130,2,1.5768506277039087,0.9290973456981496,1.170307157308065
1768626888888,129,1,1.1914508856367827,0.3071879339490366,0.7946265046030672
1768626888892,129,1,0.8089892427997799,-0.0392947619649937,0.4219086105883574
1768626888896,129,1,0.3333472498615892,-0.0643869708847657,-0.044113960472464
1768626888900,128,0,-0.3065522229357067,-0.9085684112435491,-0.6747356866732501
1768626888904,127,-1,-1.0923905283132689,-2.0025779672809634,-1.4510267534976122
1768626888908,126,-2,-1.9181052911615504,-2.6556988028772457,-2.2660311914877243
1768626888912,126,-2,-2.645431150330351,-3.13285036981353,-2.981625603245755
1768626888916,125,-3,-3.1604064748800527,-3.8586820808103472,-3.4852785363086545
1768626888920,125,-3,-3.4017463901246523,-4.139313448949227,-3.717277536408007
1768626888924,125,-3,-3.3716535386564015,-3.7192439457911,-3.6801131089937575
1768626888928,125,-3,-3.1449822815073887,-3.914661332070968,-3.447178587247543
1768626888932,125,-3,-2.867316648984785,-3.8809138337665687,-3.1620625263792603
1768626888936,126,-2,-2.709814071360705,-3.011591902729464,-2.9953407865693
1768626888940,126,-2,-2.7719512291895323,-3.039516692542714,-3.0476679334534147
1768626888944,125,-3,-2.9947425509092978,-3.706966270542453,-3.261319113007464
1768626888948,125,-3,-3.1780746163346403,-3.988027445902024,-3.4362751678254364
1768626888952,125,-3,-3.1140992844310413,-3.713092144116936,-3.364198266897474
1768626888956,126,-2,-2.7338420140113735,-3.192788238977049,-2.97596056810374
1768626888960,126,-2,-2.1519128232851,-2.7839301332715687,-2.386337698446901
1768626888964,127,-1,-1.5889483814631975,-1.9585895352937972,-1.8162281979609824
1768626888968,127,-1,-1.243391192386985,-1.7007957921706025,-1.4647035449192338
1768626888972,127,-1,-1.1956826115459382,-1.9979394651482123,-1.4132782311246
1768626888976,127,-1,-1.369843934751001,-1.855993791619618,-1.58646470474975
1768626888980,127,-1,-1.5154766553579122,-2.093664623838386,-1.7319752732277385
1768626888984,127,-1,-1.1730954241024447,-1.6185827918927345,-1.3854682534548428
1768626888988,129,1,0.3486052753029477,0.0077052482887927,0.1493732588672052
1768626888992,132,4,3.890710710795782,3.268001421342726,3.7133986029617914
1768626888996,139,11,10.170642277496514,9.999761559286748,10.015593509408498
1768626889000,148,20,19.32092521695835,18.99602845124545,19.17617469222382
1768626889004,158,30,30.391384953587508,29.44315648582212,30.238347255487803
1768626889008,169,41,41.121050781179946,39.849109694242415,40.94637219451496
1768626889012,176,48,48.33048214388224,47.53937500048904,48.13466562875573
1768626889016,179,51,49.049454626790265,49.65391650365132,48.84628899392438
1768626889020,171,43,41.97820443544055,42.415323092841554,41.78695689674437
1768626889024,157,29,28.441766164961457,28.00668926537791,28.277675941887185
1768626889028,140,12,12.111490593997887,11.285921971694725,11.9786754342342
1768626889032,125,-3,-2.5081411441208576,-3.822312437071139,-2.6188402060599936
1768626889036,116,-12,-12.015118961158208,-12.964273901623098,-12.121934394610944
1768626889040,113,-15,-15.380611985125626,-15.77743541149867,-15.50179779508053
1768626889044,115,-13,-13.92098037480024,-13.822539972524396,-14.065729458586446
1768626889048,119,-9,-10.16561503606087,-9.807197022966111,-10.32995004589492
1768626889052,122,-6,-6.4340605823003365,-6.802958864833675,-6.603726457958096
1768626889056,124,-4,-3.9526343244985194,-4.953696445411435,-4.111455834968485
1768626889060,125,-3,-2.8204696634694177,-3.7358390232153793,-2.959772110997827
1768626889064,126,-2,-2.532902591925966,-2.848976674265659,-2.6561919417751425
1768626889068,126,-2,-2.5397510937886443,-2.713049751339687,-2.6591313229551963
1768626889072,126,-2,-2.5209308283813368,-2.9361145637074326,-2.6478643560930157
1768626889076,126,-2,-2.3925217732262754,-2.739048790202941,-2.530377426001285
1768626889080,126,-2,-2.2077131927711897,-2.937909276096546,-2.351790261110965
1768626889084,126,-2,-2.0628477259590556,-2.5729729206886445,-2.2066252185758075
1768626889088,127,-1,-2.026479758027156,-1.9730770106637792,-2.167541655756115
1768626889092,126,-2,-2.0958592768224755,-2.6714772708266565,-2.236395286212146
1768626889096,126,-2,-2.208082094737155,-2.9597891343140983,-2.3511013155249434
1768626889100,126,-2,-2.302142046837862,-2.687527246086913,-2.448385445236028
1768626889104,126,-2,-2.3670193245161983,-2.758304489783696,-2.5153253435154177
1768626889108,126,-2,-2.420442906390639,-2.77433475091272,-2.570051421191351
1768626889112,126,-2,-2.4473141347553096,-2.8377978823730743,-2.5992699442137237
1768626889116,126,-2,-2.3805865743987864,-2.782692415076036,-2.5369986084527927
1768626889120,126,-2,-2.1648389260595065,-2.807959754198083,-2.3269421486336226
1768626889124,126,-2,-1.847099894759608,-2.5946227610066286,-2.014260512909221
1768626889128,127,-1,-1.5872746762919063,-1.9084815806227793,-1.7581010466916989
1768626889132,127,-1,-1.5400178435906966,-1.6749149199477782,-1.7141587844267805
1768626889136,127,-1,-1.6973352782734157,-1.9349629778883777,-1.8756137424687336
1768626889140,126,-2,-1.8550592564420871,-2.596841692214025,-2.038039149236768
1768626889144,126,-2,-1.766069072683236,-2.773503020492731,-1.95359844553507
1768626889148,127,-1,-1.3504897343315294,-1.6939653401249926,-1.5431762956847668
1768626889152,128,0,-0.7641326073323573,-0.850625257948313,-0.964226492015485
1768626889156,128,0,-0.2694694997198701,-0.7504955097882903,-0.4789923631399795
1768626889160,128,0,-0.0431711108654506,-0.7035367681715486,-0.2613387371152794
1768626889164,128,0,-0.082209976895061,-0.6762791012915472,-0.3058437407132875
1768626889168,128,0,-0.2447294527730172,-0.7233290378790799,-0.4716763780445756
1768626889172,128,0,-0.353260359668252,-0.8229961278815099,-0.5849342553280206
1768626889176,128,0,-0.2875969345515068,-0.7109334295637589,-0.5277575156520065
1768626889180,128,0,-0.0416436624830565,-0.7137188027710044,-0.292937406726931
1768626889184,128,0,0.2680942244384492,-0.6272915684188911,0.0059429978799747
1768626889188,129,1,0.464261035050828,0.2527797167202874,0.1930910896156685
1768626889192,129,1,0.4296763781379848,0.2355053392971982,0.1506740274899434
1768626889196,128,0,0.2049533904135225,-0.7304678177036732,-0.0818963081290442
1768626889200,128,0,-0.0303062225593666,-0.6502393782988362,-0.3255353966950163
1768626889204,128,0,-0.0863927166979372,-0.6597911268660372,-0.3907851612479489
1768626889208,128,0,0.1089787803339734,-0.6941407369957159,-0.205772411660051
1768626889212,129,1,0.486801125911509,0.240068808414184,0.1605111656618512
1768626889216,129,1,0.9165330027716412,0.2985497636705325,0.5784360957557262
1768626889220,129,1,1.3068437843800922,0.3595587848188477,0.9577128270468368
1768626889224,130,2,1.649234081222289,1.3658451823459756,1.2898473872339324
1768626889228,130,2,1.9880797550930696,1.2915457796998164,1.6182364218848346
1768626889232,130,2,2.3535111229734795,1.312942587862505,1.9721518347533036
1768626889236,131,3,2.7130257406571423,2.268430652527562,2.31902430387767
1768626889240,131,3,2.9843090417502243,2.4267476659900966,2.577143703651252
1768626889244,131,3,3.10176348816675,2.3245653720979953,2.6817958171495877
1768626889248,131,3,3.0782137756664874,2.370112271658391,2.646291194519661
1768626889252,131,3,3.0085674816577024,2.260472487646791,2.564994356985454
1768626889256,131,3,3.01448299403774,2.389357798189372,2.558393483282712
1768626889260,131,3,3.1698040341144607,2.327027162052333,2.699747247269685
1768626889264,131,3,3.454904781072382,2.471874063465826,2.969912390588708
1768626889268,132,4,3.774928606894699,3.236723969637196,3.2749149991493156
1768626889272,132,4,4.037993161244114,3.455049438950211,3.5235008840046915
1768626889276,132,4,4.236327184009829,3.2177546740262857,3.708126531393237
1768626889280,132,4,4.462128298185913,3.569363464022496,3.920637824974831
1768626889284,133,5,4.845672960562199,4.223744656995209,4.290404611801751
1768626889288,133,5,5.465506334890279,4.547016766582705,4.8952806990782
1768626889292,134,6,6.291151852827257,5.171881781006832,5.704944809994728
1768626889296,135,7,7.1920808935782015,6.557330171036436,6.589423508623169
1768626889300,136,8,8.00894464025952,7.279528482033294,7.389660820365076
1768626889304,136,8,8.640500405739866,7.509893486695958,8.004589550910993
1768626889308,137,9,9.08382791248119,8.336185970187618,8.431733817090397
1768626889312,137,9,9.405694269941836,8.379314065698873,8.738281849339465
1768626889316,137,9,9.683438649404764,8.44054764807108,9.001206064360138
1768626889320,138,10,9.971692815766856,9.414324271412518,9.273851876780444
1768626889324,138,10,10.310224773093728,9.413399687856083,9.594935451571148
1768626889328,138,10,10.733939180507194,9.47177899932568,9.999860174472778
1768626889332,139,11,11.246848076756851,10.271442198817113,10.494323668740174
1768626889336,139,11,11.782829759927504,10.624603818295732,11.013231377816144
1768626889340,140,12,12.213583967376437,11.234184939413089,11.427569696510956
1768626889344,140,12,12.417911740423907,11.677014357837123,11.614687700237068
1768626889348,140,12,12.348716483254828,11.187149939983543,11.527090143613378
1768626889352,139,11,12.024732645891818,10.64154429029264,11.18444480577838
1768626889356,139,11,11.45564199954213,10.275764051479085,10.597182258352522
1768626889360,138,10,10.589490137937233,9.62802461165359,9.712867370062972
1768626889364,137,9,9.347750917195064,8.349079723998342,8.452220341751026
1768626889368,135,7,7.711709116621955,6.501459978595761,6.796878053023805
1768626889372,133,5,5.76971542409094,4.43032893168342,4.836233559893859
1768626889376,131,3,3.685224236487163,2.4563080913031463,2.7338788845731994
1768626889380,129,1,1.6246765446946427,0.57219771586496,0.6551444106672468
1768626889384,127,-1,-0.2973117436367141,-1.6219988204474391,-1.2863017191153183
1768626889388,125,-3,-2.0333934853620876,-3.424486645855836,-3.0427454153388167
1768626889392,124,-4,-3.5871148356305342,-4.659456026260985,-4.616575666704819
1768626889396,122,-6,-4.979193258575828,-6.366267150000567,-6.027887637538355
1768626889400,121,-7,-6.215232738026943,-7.59805079319861,-7.282779985722961
1768626889404,120,-8,-7.27608116091576,-8.365545381320036,-8.36306729048172
1768626889408,119,-9,-8.139770877944011,-9.682487641456254,-9.24710376338804
1768626889412,118,-10,-8.818975370798796,-10.332039093558135,-9.946934496457992
1768626889416,118,-10,-9.376317721356108,-10.66788134241044,-10.524460430493324
1768626889420,117,-11,-9.888628896667951,-11.247783405345258,-11.056514783119182
1768626889424,117,-11,-10.380317811949292,-11.651584788596812,-11.5679769562771
1768626889428,116,-12,-10.789431105471236,-12.38807325828891,-11.99710178256474
1768626889432,116,-12,-11.00876612143513,-12.55582365435657,-12.236524994699533
1768626889436,116,-12,-10.972037285381717,-12.436616628356145,-12.219920225815851
1768626889440,116,-12,-10.708986360725133,-12.389171260677909,-11.977333426034914
1768626889444,117,-11,-10.322559529515557,-11.499676583253558,-11.611916064748977
1768626889448,117,-11,-9.914865218056049,-11.454934218152658,-11.2253965966678
1768626889452,117,-11,-9.531363015545628,-11.508003442599296,-10.862586859299014
1768626889456,118,-10,-9.163916600464486,-10.393040680888811,-10.515218151370412
1768626889460,118,-10,-8.793351175805844,-10.417640933022836,-10.164580796801896
1768626889464,118,-10,-8.427283345464009,-10.403782526593204,-9.818781627822451
1768626889468,119,-9,-8.104553158017463,-9.49703162405735,-9.516949803176054
1768626889472,119,-9,-7.863616046471685,-9.462379712012227,-9.297588111318133
1768626889476,119,-9,-7.701802537331042,-9.367635836249317,-9.157432066597153
1768626889480,119,-9,-7.566940176159259,-9.40419995464088,-9.04320101110066
1768626889484,119,-9,-7.390579702512815,-9.36956947558635,-8.886092438144416
1768626889488,120,-8,-7.124218307308021,-8.467816780972164,-8.63878829499893
1768626889492,120,-8,-6.746451418204638,-8.48223310810582,-8.281395545008333
1768626889496,120,-8,-6.260379300027245,-8.281935673940904,-7.817095748552241
1768626889500,121,-7,-5.711987797306734,-7.444863304340675,-7.290659900416871
1768626889504,121,-7,-5.209579688153759,-7.282861658068481,-6.809577364951652
1768626889508,122,-6,-4.8933739723111405,-6.504373367281428,-6.5143739805624845
1768626889512,122,-6,-4.851923140457802,-6.4095480104785105,-6.493859335504218
1768626889516,121,-7,-5.052686600589574,-7.315483393362853,-6.7147217156328995
1768626889520,121,-7,-5.352369680689105,-7.350873584244264,-7.03296774904411
1768626889524,121,-7,-5.57535112879676,-7.338074213604207,-7.274001614430464
1768626889528,121,-7,-5.59472837708711,-7.396988663102316,-7.313065963798938
1768626889532,121,-7,-5.376968354870938,-7.466947531550488,-7.117528453747041
1768626889536,121,-7,-4.992930719447621,-7.220341181900055,-6.756886162302966
1768626889540,122,-6,-4.592665643388547,-6.38934373219629,-6.378881218638282
1768626889544,122,-6,-4.3320302773560435,-6.261044713220985,-6.137912499382559
1768626889548,122,-6,-4.276323696951279,-6.419865411678553,-6.099558421516792
1768626889552,122,-6,-4.346848592334027,-6.398132168466463,-6.187066653583178
1768626889556,122,-6,-4.360194354679347,-6.255538478288329,-6.219350195337861
1768626889560,122,-6,-4.150294455464627,-6.285944887066613,-6.030945302479777
1768626889564,122,-6,-3.7028184442431686,-6.343722935889954,-5.605754324538247
1768626889568,123,-5,-3.1980352218301276,-5.241127179822186,-5.121900369982333
1768626889572,124,-4,-2.896850846761933,-4.580023786652042,-4.839899201311135
1768626889576,123,-5,-2.934600909174516,-4.984601638762673,-4.896048001397432
1768626889580,123,-5,-3.1999779020208248,-5.543569121534647,-5.179677790149627
1768626889584,122,-6,-3.4211827658958036,-6.02713947380585,-5.419038975081039
1768626889588,123,-5,-3.3872516991769275,-5.49654041343112,-5.40348871108225
1768626889592,123,-5,-3.1067150424718744,-5.3041552718056515,-5.142176465570413
1768626889596,123,-5,-2.7754979667640076,-5.150887545317206,-4.831089000710582
1768626889600,124,-4,-2.601505572726493,-4.400825755507853,-4.67728197825118
1768626889604,123,-5,-2.6451978791358535,-5.048827966563019,-4.74004330769988
1768626889608,123,-5,-2.8030752417633633,-5.515293022610079,-4.915374837101583
1768626889612,123,-5,-2.9256931516207016,-5.155351026536784,-5.054619479346432
1768626889616,123,-5,-2.9462615284184803,-5.296350519025463,-5.0924562684353125
1768626889620,123,-5,-2.9068470840998866,-5.181887402743805,-5.071593009882088
1768626889624,123,-5,-2.8819518563763262,-5.202661391218902,-5.065665165762495
1768626889628,123,-5,-2.888513509041719,-5.374038289997829,-5.0902562880882005
1768626889632,123,-5,-2.8638795688982817,-5.173378692930435,-5.082310103384646
1768626889636,123,-5,-2.7228577505392595,-5.293866823778826,-4.957482015155406
1768626889640,123,-5,-2.439808527021831,-5.070278584924873,-4.691359018005695
1768626889644,124,-4,-2.084771904675647,-4.302314716812896,-4.354421359476333
1768626889648,124,-4,-1.7829263030844853,-4.216126738752784,-4.070898414113414
1768626889652,124,-4,-1.6316354669631394,-4.283727204076413,-3.936516482450449
1768626889656,124,-4,-1.638366269673508,-4.1288701750567505,-3.958181612749375
1768626889660,124,-4,-1.7155224709028838,-4.181472518320126,-4.0496901613863265
1768626889664,124,-4,-1.729053950853599,-4.1417207342606925,-4.0788663083492835
1768626889668,124,-4,-1.5785353957121029,-4.328202203057013,-3.945449536129329
1768626889672,124,-4,-1.2681032835169683,-4.123822272876369,-3.651960693923724
1768626889676,125,-3,-0.911251199892244,-3.223521029420655,-3.3105107739714628
1768626889680,125,-3,-0.6468999631479666,-3.0417902401228853,-3.0602573926909216
1768626889684,125,-3,-0.5296412733510962,-3.2230497029468577,-2.9570506424451883
1768626889688,125,-3,-0.4983326626959075,-3.2056084360296593,-2.9407112133249713
1768626889692,125,-3,-0.4568554759387728,-3.1996251277553096,-2.9150723731861463
1768626889696,125,-3,-0.3878575206912513,-3.085965383748164,-2.8617429215643684
1768626889700,125,-3,-0.3847313030549881,-3.1240388614179695,-2.872831332960148
1768626889704,125,-3,-0.5602613599086612,-3.07915684741694,-3.060814551901809
1768626889708,125,-3,-0.9052035798753386,-3.31423675429954,-3.417595151324898
1768626889712,124,-4,-1.2319073360366564,-4.034520562056772,-3.757008469902964
1768626889716,124,-4,-1.2837771041073458,-4.207373985203069,-3.8227450271450225
1768626889720,124,-4,-0.9440592898338732,-3.9268403896587234,-3.4970803092815723
1768626889724,125,-3,-0.362654771975349,-3.227222020706511,-2.929093059324128
1768626889728,126,-2,0.1338435375598741,-2.1149713988038017,-2.4455589622825564
1768626889732,126,-2,0.2914087519660699,-2.174587171376267,-2.300855715168681
1768626889736,125,-3,0.1209953254304152,-3.0413738762101583,-2.4834828301088923
1768626889740,125,-3,-0.1358824671122389,-3.009018546699496,-2.751015383791282
1768626889744,125,-3,-0.2247994890290521,-3.114493859090845,-2.8492326119050584
1768626889748,125,-3,-0.0733735527421499,-3.1588214040792852,-2.707418710339966
1768626889752,126,-2,0.1987657479744227,-2.0642322534298874,-2.446845364243318
1768626889756,126,-2,0.4296038686871553,-2.1164066273637756,-2.2292542446359644
1768626889760,125,-3,0.5575353415476347,-2.861473184608496,-2.1140182517393495
1768626889764,126,-2,0.6293051082778576,-2.2342362908182944,-2.052457310709273
1768626889768,126,-2,0.7052237135535999,-1.9675217300666132,-1.9845693442301124
1768626889772,126,-2,0.7871156542632702,-2.202804610695905,-1.9103815480711752
1768626889776,126,-2,0.8354467178346887,-1.9150580799135533,-1.870796176822244
1768626889780,126,-2,0.8344266571867902,-1.9949679150065376,-1.8816446109025815
1768626889784,126,-2,0.8265350660869744,-2.0994697341086037,-1.8996264030994097
1768626889788,126,-2,0.8787820907227415,-1.978891136072087,-1.856689124415008
1768626889792,126,-2,1.0111984607609643,-2.2084345987439136,-1.732192450238323
1768626889796,126,-2,1.161059009418258,-1.762234632782874,-1.5893123594525935
1768626889800,127,-1,1.230564687327132,-1.165695324302329,-1.5270052199313138
1768626889804,126,-2,1.1785643259216636,-1.8353373142353615,-1.586879397995738
1768626889808,126,-2,1.0591991417152165,-2.2122984453633627,-1.7139847290459995
1768626889812,126,-2,0.9646518818011068,-1.9102059130516509,-1.815302142467714
1768626889816,126,-2,0.938008927924414,-1.9795538649468616,-1.8480176323964117
1768626889820,126,-2,0.949001500541928,-1.9278251901102383,-1.8431489719857348
1768626889824,126,-2,0.9468893372956612,-1.9661249825278355,-1.851480412115461
1768626889828,126,-2,0.9270865084612784,-2.097206308987934,-1.8769778656085747
1768626889832,126,-2,0.947197731031449,-1.8948890193558603,-1.8616793930394344
1768626889836,126,-2,1.0808077310610984,-1.9943063449244145,-1.732382985628739
1768626889840,126,-2,1.3490558019186114,-1.806350827158958,-1.4687382002585598
1768626889844,127,-1,1.687745792929242,-1.0601595477260457,-1.135409199880424
1768626889848,127,-1,1.9797603445970895,-0.939788007761646,-0.8490286897352308
1768626889852,127,-1,2.128311491741523,-0.9929595558214273,-0.7051144759272697
1768626889856,127,-1,2.117036794588486,-0.8364677924324724,-0.7191705001026742
1768626889860,127,-1,2.02211112950581,-0.9047256010752698,-0.8155430987757684
1768626889864,127,-1,1.9746404509332476,-0.9069072693565184,-0.8644534206783729
1768626889868,127,-1,2.0889640243817222,-1.036330491047498,-0.7523767445435117
1768626889872,127,-1,2.389038471193492,-0.831978097772009,-0.4553154978695442
1768626889876,128,0,2.7820341996659455,0.0606467577825344,-0.0657392739900237
1768626889880,128,0,3.1073253567208785,0.2685114383710922,0.2562846338936619
1768626889884,128,0,3.2287027021337407,-0.0400561268186858,0.3754604710543301
1768626889888,128,0,3.1042490081269407,0.1694675055103582,0.2505640095199124
1768626889892,128,0,2.7978265301182907,0.0059481087610357,-0.0548462316870612
1768626889896,127,-1,2.440133720433274,-0.7085243705044022,-0.4111591795803768
1768626889900,127,-1,2.1638246359992954,-0.890539998110512,-0.6867510231111376
1768626889904,127,-1,2.04221838268869,-0.8386056677356558,-0.8087759257739071
1768626889908,127,-1,2.0626891090078927,-0.9525144783198184,-0.7895843658894484
1768626889912,127,-1,2.1472338525365067,-0.8390024554246157,-0.7060946203391167
1768626889916,127,-1,2.204026312160921,-0.7667480949911143,-0.6487387358731374
1768626889920,127,-1,2.181245566809712,-0.8049854623566859,-0.6687194716526141
1768626889924,127,-1,2.0985172571346498,-0.8310360099632073,-0.7473083546019327
1768626889928,127,-1,2.0391722788350335,-0.9356951202980948,-0.8030249769733975
1768626889932,127,-1,2.098708750614928,-0.7703090307002264,-0.7415421651502564
1768626889936,127,-1,2.308799963504274,-0.7797603370659681,-0.5305733880847632
1768626889940,127,-1,2.587145302636516,-0.7279825633037441,-0.2507912203704876
1768626889944,128,0,2.7702894104726257,0.1580251938969035,-0.0647170041328448
1768626889948,128,0,2.7315443259969294,0.1254755294757197,-0.0992445080704573
1768626889952,127,-1,2.4958006503742465,-0.7681455522815415,-0.3298765287315172
1768626889956,127,-1,2.241420139560606,-0.7109049747729864,-0.5784037667518228
1768626889960,127,-1,2.17563943398981,-0.7470086359916901,-0.6380903628617139
1768626889964,127,-1,2.385583911256121,-0.7480581225910081,-0.4227929195638177
1768626889968,128,0,2.780836317828714,0.0847162118326254,-0.0234834268087715
1768626889972,128,0,3.158265843879798,0.3552883590663986,0.3573646837133186
1768626889976,128,0,3.3278382968444156,0.2050536569879437,0.5311679486309888
1768626889980,128,0,3.2118172711190116,0.4202635663642986,0.421233488102366
1768626889984,128,0,2.868979018206486,0.1171521884903903,0.0863362061858488
1768626889988,127,-1,2.4494510482295837,-0.6931453836209567,-0.3241154893303799
1768626889992,127,-1,2.118358192735142,-0.8094067768470086,-0.6459816063357269
1768626889996,127,-1,1.992727505816999,-0.559385565414285,-0.7632042294871462
1768626890000,128,0,-2.166720964717962,0.3093931581308899,0.2316910541367444
1768626890004,128,0,-2.15027273360411,0.3034751399948442,0.2473741198660506
1768626890008,128,0,-2.0999648227825944,0.2462076457567114,0.2956794024204265
1768626890012,128,0,-2.0297555784955392,0.2816438766633571,0.3640164313372767
1768626890016,128,0,-1.9895232269791183,0.419588059823674,0.4035162098816989
1768626890020,128,0,-2.049830874735325,0.2793441684603794,0.3433573810324853
1768626890024,128,0,-2.241190091819216,0.3383035134039649,0.151764795565328
1768626890028,128,0,-2.4986962584611447,0.2113331680404059,-0.1071931869650249
1768626890032,127,-1,-2.6816570345405975,-0.7075149426528338,-0.2922912642034534
1768626890036,127,-1,-2.6743914348331046,-0.5743301626855879,-0.286932923050458
1768626890040,128,0,-2.4807990748040725,0.2684548275308075,-0.0952366928992585
1768626890044,128,0,-2.219050711258451,0.3508633115758233,0.1636603119671577
1768626890048,128,0,-2.027535140073355,0.2203503517410749,0.3512549632523979
1768626890052,128,0,-1.9790865658126529,0.2286492775857025,0.3956179289890479
1768626890056,128,0,-2.0677455757113954,0.5365143877503306,0.3033920312940423
1768626890060,128,0,-2.2482288558547285,0.1006815312954277,0.119809325749543
1768626890064,127,-1,-2.4760767172661144,-0.413765576424118,-0.110998575426609
1768626890068,128,0,-2.7169269912926985,-0.0578031718884762,-0.3551019846333111
1768626890072,127,-1,-2.9265655525316383,-0.4837095545925043,-0.5688444216676756
1768626890076,127,-1,-3.0352120613638416,-0.7595365543298276,-0.6826584560390538
1768626890080,127,-1,-2.9737891308352307,-0.618264262185605,-0.6269936433419265
1768626890084,127,-1,-2.7335524180817288,-0.643526462977087,-0.3924703371534476
1768626890088,128,0,-2.3986406289552047,0.1112244228614501,-0.0631209297999504
1768626890092,128,0,-2.104836881225129,0.4094192201813944,0.2249807329647868
1768626890096,128,0,-1.9510513676546395,0.2627579269771971,0.3728352058115174
1768626890100,128,0,-1.939886720219974,0.4299420243765379,0.3779947728402454
1768626890104,128,0,-1.9949263803313613,0.2670710061983221,0.3168082823080565
1768626890108,128,0,-2.0316978686423424,0.2179828601237196,0.273390474346436
1768626890112,128,0,-2.0191609881894936,0.3047957526655118,0.2786376221475516
1768626890116,128,0,-1.986007172871864,0.3342044771108231,0.3042442241024854
1768626890120,128,0,-1.9759220145688496,0.3975559789831863,0.3070633536345672
1768626890124,128,0,-1.9968048461777337,0.2727392933788982,0.2791749554850573
1768626890128,128,0,-2.010487698435301,0.2288413908317345,0.2579366685209843
1768626890132,128,0,-1.9723090052063972,0.2817812560869631,0.2871454413095694
1768626890136,128,0,-1.8861250482216156,0.3436791770011142,0.3631774634477722
1768626890140,128,0,-1.824697831689411,0.4105158085105507,0.4147641426008907
1768626890144,128,0,-1.8869010310520211,0.244422146356039,0.3443032850154005
1768626890148,128,0,-2.108737500010938,0.2724250884430456,0.1152326787890904
1768626890152,128,0,-2.393558365022279,0.2134234866747799,-0.1776908980950108
1768626890156,127,-1,-2.540351256783741,-0.5787971250248809,-0.3344961069869931
1768626890160,127,-1,-2.3829608954726833,-0.6775892726716042,-0.1883134075975534
1768626890164,128,0,-1.934336490602104,0.3579175216317574,0.248989008667724
1768626890168,129,1,-1.389771274389291,1.1352196901386025,0.7823863335412624
1768626890172,129,1,-0.966119739179312,1.370153249285125,1.1950856759273851
1768626890176,129,1,-0.7216091485258267,1.2396490788127574,1.4292756038064447
1768626890180,129,1,-0.5195870174786346,1.5087058839024012,1.6215394209687626
1768626890184,130,2,-0.1573045606116405,2.170087797875649,1.97355386899795
1768626890188,130,2,0.4578726455080977,2.323334183545837,2.5770003008188755
1768626890192,131,3,1.221773147963373,3.1937729136111,3.3279667817306526
1768626890196,132,4,1.895219244104645,4.404209710044964,3.9882211982673
1768626890200,132,4,2.264825703303969,4.344317881905487,4.344916560778638
1768626890204,132,4,2.277232152640022,4.318210499963081,4.344675670992807
1768626890208,132,4,2.040504251912658,4.195164748096077,4.095507817068918
1768626890212,131,3,1.7013033596505145,3.3011897837935993,3.744060084644531
1768626890216,131,3,1.318102371407482,3.3114036468555934,3.348401717691558
1768626890220,131,3,0.8496226042522769,3.43230568001853,2.866566601862731
1768626890224,130,2,0.2570920281823162,2.218115567276616,2.259725754654627
1768626890228,129,1,-0.3999002718352482,1.3216777756720832,1.5883131066984983
1768626890232,129,1,-0.9797542979524976,1.138387773021018,0.9945863290167868
1768626890236,128,0,-1.3682543436822128,0.5031315371534555,0.5923673937447902
1768626890240,128,0,-1.5729012654201704,0.2089693074904572,0.3732955447060698
1768626890244,128,0,-1.7189882799265828,0.4813686319990574,0.2118015199041763
1768626890248,128,0,-1.9540213186336477,0.0285134307513401,-0.0390852401096152
1768626890252,127,-1,-2.3397748274467274,-0.5578612060338091,-0.4403946748127472
1768626890256,127,-1,-2.815168699976155,-0.812709007257473,-0.9307693416652636
1768626890260,126,-2,-3.2503394324841675,-1.4853460882128329,-1.380646733712579
1768626890264,126,-2,-3.5400288633230312,-1.7963465450929563,-1.6852798184215487
1768626890268,126,-2,-3.661035966066902,-1.7144085773891644,-1.8219177850601744
1768626890272,126,-2,-3.655502413653032,-1.7969631216715782,-1.833001640716583
1768626890276,126,-2,-3.5676788761909815,-1.603367859862609,-1.7626646052768122
1768626890280,126,-2,-3.4016789498513806,-1.674059693648995,-1.6142347240243318
1768626890284,126,-2,-3.1417501826018137,-1.6230120584135397,-1.3708689904036626
1768626890288,127,-1,-2.808602364861601,-0.8703138028165104,-1.052767902243971
1768626890292,127,-1,-2.488848716408339,-0.6530406681084981,-0.7472931154583947
1768626890296,127,-1,-2.306055938023867,-0.7558745006746509,-0.5800817777706413
1768626890300,127,-1,-2.355446969567496,-0.5112340586966558,-0.6489427059610955
1768626890304,127,-1,-2.641056898153744,-0.7993178313677021,-0.9589613504755596
1768626890308,126,-2,-3.0317136178900044,-1.6838747169303812,-1.3762633578567287
