timestamp_ms,ecg_u8_raw,ecg_counts_raw_int,ecg_counts_filt_monitor,ecg_counts_filt_diagnostic,ecg_counts_filt_st
1768729190232,171,43,43.51539554680049,42.778466905304676,42.900607741329154
1768729190236,182,54,52.38974236086701,54.043581707352665,51.75901713651369
1768729190240,182,54,52.987278709357014,53.82583604103801,52.35861906387842
1768729190244,172,44,44.37789682090037,43.92224827888791,43.77395606770446
1768729190248,156,28,29.303081581840896,28.00875819986409,28.741477010035
1768729190252,139,11,12.70267689507028,10.901586951163658,12.185158252490783
1768729190256,126,-2,-0.808258886428078,-1.831567191984501,-1.2987702584502123
1768729190260,119,-9,-8.896507305876828,-9.183647027315445,-9.386161565732332
1768729190264,116,-12,-11.894050031704376,-11.87647646177986,-12.402046116206067
1768729190268,117,-11,-11.753283796989049,-11.177263542704814,-12.281167024718735
1768729190272,117,-11,-10.548033420709029,-10.84178936549784,-11.08071653928684
1768729190276,117,-11,-9.514206600433674,-11.00546264677736,-10.030733611595547
1768729190280,118,-10,-8.97888114879626,-9.880203011215052,-9.46572430395921
1768729190284,119,-9,-8.816517144283885,-9.07680560325954,-9.274996656386984
1768729190288,119,-9,-8.856123750089758,-8.925811690573742,-9.298977528739432
1768729190292,119,-9,-8.981422352047657,-8.996525868046984,-9.421491401913611
1768729190296,118,-10,-9.06734318168663,-9.770979340444388,-9.5080044689312
1768729190300,118,-10,-8.977890854613916,-9.959347500537117,-9.413121705791294
1768729190304,119,-9,-8.65047265587193,-8.918097290705955,-9.072992184393748
1768729190308,120,-8,-8.136302826175278,-7.987718616689522,-8.544574449186452
1768729190312,120,-8,-7.538021663127598,-7.873503659876988,-7.93547639690979
1768729190316,120,-8,-6.933644015260415,-7.767539623605309,-7.323074111732318
1768729190320,121,-7,-6.3739548213230846,-6.864161793117076,-6.754636976711189
1768729190324,122,-6,-5.9160015459912145,-5.907227438066313,-6.285870421256726
1768729190328,122,-6,-5.612028075951168,-5.908751451703127,-5.970626283804347
1768729190332,122,-6,-5.460967072996055,-5.8920930860041,-5.8093929244085025
1768729190336,122,-6,-5.3977334627786355,-5.600216843099818,-5.736634067323704
1768729190340,122,-6,-5.348242617009144,-5.974693801177712,-5.676957087075584
1768729190344,122,-6,-5.291896146759271,-5.648464695951213,-5.609687980184567
1768729190348,123,-5,-5.260933612950681,-5.103861707878214,-5.568348277783774
1768729190352,122,-6,-5.280791144925474,-5.614683578849789,-5.579013616975254
1768729190356,122,-6,-5.327358604666484,-5.733847103464114,-5.616315573973382
1768729190360,122,-6,-5.352923349271077,-5.800390995797659,-5.630984294591701
1768729190364,122,-6,-5.340093581267681,-5.643680367641669,-5.606185840653739
1768729190368,123,-5,-5.308495058834104,-5.098061829966929,-5.563790621876893
1768729190372,122,-6,-5.2717160227088256,-5.453027282216062,-5.518259554595392
1768729190376,122,-6,-5.215208546601043,-5.847088533769074,-5.453149432960839
1768729190380,122,-6,-5.128564123703604,-5.556956689319285,-5.355854835908441
1768729190384,123,-5,-5.034066155162322,-4.788270704079107,-5.249031985754764
1768729190388,123,-5,-4.9550375257291455,-4.885163384017579,-5.158240035724479
1768729190392,122,-6,-4.865636695738224,-5.516002694579535,-5.058859229480853
1768729190396,123,-5,-4.703816587367372,-4.745907452672935,-4.887993851871651
1768729190400,123,-5,-4.447062039754785,-4.501013407016023,-4.6216283900557595
1768729190404,123,-5,-4.164558987749558,-4.792920931088009,-4.328438020326548
1768729190408,124,-4,-3.976989987541057,-3.7487512664745894,-4.12982272768766
1768729190412,124,-4,-3.949533145318647,-3.553542625925437,-4.091674549858433
1768729190416,123,-5,-4.02163114908733,-4.636348197414741,-4.153007847340682
1768729190420,123,-5,-4.053231481786308,-4.480240625814044,-4.173069855562273
1768729190424,124,-4,-3.9457297309897887,-3.7432395464927586,-4.054002135194055
1768729190428,124,-4,-3.715735439250738,-3.6836757401457496,-3.813963228338217
1768729190432,124,-4,-3.4641385685729658,-3.4947989308230283,-3.553696976931684
1768729190436,124,-4,-3.294183725845884,-3.627258227354611,-3.3743175733831174
1768729190440,124,-4,-3.2486702251269204,-3.374189382805398,-3.3172199384981607
1768729190444,125,-3,-3.284421877720562,-2.7683879940967606,-3.3402589711198427
1768729190448,124,-4,-3.2857189430664393,-3.5493330979942375,-3.3295819361812833
1768729190452,124,-4,-3.1282874960746745,-3.5018974697552476,-3.161438465752309
1768729190456,125,-3,-2.7695569463612353,-2.547837870996283,-2.792542549774292
1768729190460,125,-3,-2.290843505961435,-2.3396557236053948,-2.30357479082468
1768729190464,126,-2,-1.8451496863763663,-1.731194671044905,-1.8474020592982576
1768729190468,126,-2,-1.5536263333410107,-1.4411152206594977,-1.5451727878203716
1768729190472,126,-2,-1.438448352743788,-1.537353319230847,-1.4190310067497571
1768729190476,126,-2,-1.4380507384792849,-1.3908172888443475,-1.4074085628702764
1768729190480,126,-2,-1.4767453002756876,-1.4328717724826605,-1.4345817136419026
1768729190484,126,-2,-1.5227647185265691,-1.5147347944810383,-1.4687748779867391
1768729190488,126,-2,-1.588611326326443,-1.5573009040325538,-1.5228443545739268
1768729190492,126,-2,-1.6825567852453749,-1.2949327518777718,-1.6056952556771842
1768729190496,126,-2,-1.7689416732339942,-1.5655927682112347,-1.6817282883843303
1768729190500,125,-3,-1.7920250375319762,-2.1433912122365304,-1.6943369952184724
1768729190504,126,-2,-1.747881461660972,-1.7251747723894075,-1.6388986699992394
1768729190508,126,-2,-1.7195382488056374,-1.2150807011779752,-1.598855054225865
1768729190512,126,-2,-1.8209567129872437,-1.5261282388538455,-1.6888737085616623
1768729190516,125,-3,-2.1015178267296357,-2.259399644436276,-1.9582289741421344
1768729190520,125,-3,-2.506136528543367,-2.3298984841354913,-2.3513958750862933
1768729190524,125,-3,-2.9192531038696625,-2.4863866038477536,-2.752901664585596
1768729190528,124,-4,-3.2440981739745416,-3.2877983452058626,-3.066195596684505
1768729190532,124,-4,-3.4566018352341583,-3.3731553183233625,-3.2670233730447604
1768729190536,124,-4,-3.599514861812651,-3.293986920893893,-3.398095852708792
1768729190540,124,-4,-3.7219299081046144,-3.220974434571695,-3.5089579247090854
1768729190544,124,-4,-3.820037115416852,-3.5020442542659804,-3.595939508203623
1768729190548,123,-5,-3.8455574808819577,-4.132878760128194,-3.610205917841826
1768729190552,124,-4,-3.775839111151192,-3.4461096089858,-3.5288517879693484
1768729190556,124,-4,-3.65953338033656,-3.083554301425182,-3.40110157959041
1768729190560,124,-4,-3.5766685099549287,-3.3933363105464434,-3.3072046853964996
1768729190564,124,-4,-3.554280673023378,-3.178734259430531,-3.2731970584218075
1768729190568,124,-4,-3.5247856764705254,-3.3776349803154737,-3.230561104718855
1768729190572,124,-4,-3.3606236471858333,-3.0746608762884016,-3.052598298515951
1768729190576,125,-3,-2.9506680690676665,-2.349787854987322,-2.630233055087357
1768729190580,125,-3,-2.270725886247992,-2.063221617244637,-1.940086125851992
1768729190584,126,-2,-1.4172183424815767,-1.3589018732799238,-1.0771537858196756
1768729190588,127,-1,-0.5779224375642058,-0.1387805798487797,-0.2272248726750598
1768729190592,128,0,0.0692186016663773,0.8527599026217598,0.4323943250551711
1768729190596,128,0,0.4762794448069629,0.7661168879144054,0.8530705631642119
1768729190600,128,0,0.7646962618649469,0.9565633005463527,1.155187349697082
1768729190604,129,1,1.1358047193044127,1.6968414749784475,1.539208558391136
1768729190608,129,1,1.7172889021828364,1.9217877716964449,2.1323963000100754
1768729190612,130,2,2.4646520404300505,2.9269417214033924,2.890589797504254
1768729190616,131,3,3.1887887103173425,3.762908647226462,3.6255386683321023
1768729190620,131,3,3.684793902310058,4.089251312167012,4.132958626008482
1768729190624,132,4,3.865057458092288,4.623893332819378,4.325329609254807
1768729190628,131,3,3.7976809683805905,4.135068891493581,4.270716144487194
1768729190632,131,3,3.626378258152611,3.8082141516184618,4.1127862276624
1768729190636,131,3,3.4491249726689346,3.991650401853972,3.9489226486829
1768729190640,131,3,3.267565805575027,3.969090139185729,3.779673241716564
1768729190644,131,3,3.0418046299546675,3.814446964852056,3.564818934131052
1768729190648,130,2,2.7738736528102805,3.1049118088895464,3.3076625074245736
1768729190652,130,2,2.525842420948975,2.891294120596661,3.0718866538984377
1768729190656,130,2,2.3672375272923416,3.066323264199458,2.9270444663265085
1768729190660,130,2,2.3218508714173636,2.9455501637568595,2.895359076955892
1768729190664,130,2,2.362829446267601,2.9774134778778123,2.948695259808127
1768729190668,130,2,2.4391691347742097,3.03900445649353,3.0363553960112735
1768729190672,130,2,2.495434919601009,3.067238580528721,3.104104007224633
1768729190676,130,2,2.477345192968573,2.992854024665343,3.0982185396578186
1768729190680,130,2,2.3431689866304675,3.1126650008988053,2.976487284307896
1768729190684,130,2,2.088726613973784,2.925550779755294,2.734315988740412
1768729190688,129,1,1.7636101200547722,2.1956284827221357,2.4218348759312103
1768729190692,129,1,1.4560860982974162,2.028945008326845,2.1279662025564066
1768729190696,129,1,1.258492646631015,2.1135494210952164,1.944444003625025
1768729190700,129,1,1.240043647010997,2.114838487872811,1.938994305649778
1768729190704,129,1,1.4267488121214968,2.014166824886055,2.1370593181614232
1768729190708,129,1,1.7741983685276912,2.2416390982774943,2.4952520977692423
1768729190712,130,2,2.1533040405184263,3.0691341278367714,2.885845498942878
1768729190716,130,2,2.3921512641062304,3.182602767111422,3.137332466190844
1768729190720,130,2,2.3718087111301784,3.145656528832403,3.1303241028724975
1768729190724,130,2,2.106952977645401,3.091977574570315,2.878982226641118
1768729190728,129,1,1.7388662708714393,2.2842913816596506,2.524355619337603
1768729190732,129,1,1.4396655839791643,2.109656961393539,2.2383170784826665
1768729190736,129,1,1.3034523802948188,2.2714662900530302,2.1145699315968214
1768729190740,129,1,1.3078798154342666,2.137371912134567,2.130713142017675
1768729190744,129,1,1.362809115254627,2.239154568976212,2.1973126250048223
1768729190748,129,1,1.3917446295765368,2.2355521193825574,2.2387602900354997
1768729190752,129,1,1.3803432015650383,2.2497306054890296,2.2407676067781677
1768729190756,129,1,1.365824053778146,2.2558258575714656,2.2396939960655065
1768729190760,129,1,1.3857073722382065,2.2274253105633184,2.2722988219042235
1768729190764,129,1,1.4280235676190471,2.3075531621859593,2.3267440780180864
1768729190768,129,1,1.4239128499815836,2.2363907994238845,2.334816652298941
1768729190772,129,1,1.295998248105254,2.3820958611548027,2.2194621755789505
1768729190776,129,1,1.0292560427172668,2.2001264395978337,1.9655785948675584
1768729190780,128,0,0.7002886539882249,1.407190256863872,1.6497667604790012
1768729190784,128,0,0.4295652953018893,1.2385933891817684,1.392478179115288
1768729190788,128,0,0.295714997544325,1.4129305047987757,1.2718290026869925
1768729190792,128,0,0.2893596590635892,1.3159854047638238,1.277780854447892
1768729190796,128,0,0.3394104848894973,1.3577089069771735,1.3394089152273976
1768729190800,128,0,0.3750365410779624,1.3810769069212911,1.3869374692840657
1768729190804,128,0,0.3689084552195073,1.3505562960860291,1.3938446980982435
1768729190808,128,0,0.3400425227098863,1.4334255794257444,1.3788166313242751
1768729190812,128,0,0.3271918563719554,1.3818801493596395,1.379582261322315
1768729190816,128,0,0.352915915172407,1.4030316684682522,1.4180985291671595
1768729190820,128,0,0.3969690520610704,1.458848832846766,1.4743310647884105
1768729190824,128,0,0.3968195370517508,1.3603480858725057,1.4861512932844718
1768729190828,128,0,0.2837484659706275,1.560543732522688,1.3849447347695527
1768729190832,128,0,0.0356285033231488,1.33476224405493,1.148849365977851
1768729190836,127,-1,-0.2964005825301585,0.5693472669069415,0.829830514642806
1768729190840,127,-1,-0.6121131317207013,0.4064257533330742,0.5285644575761985
1768729190844,127,-1,-0.8114708238061566,0.5065193898554003,0.3439855089220809
1768729190848,127,-1,-0.8269431667802327,0.5522287719868522,0.3417191898436349
1768729190852,127,-1,-0.6374966550739587,0.4229410884960347,0.5422460672466909
1768729190856,127,-1,-0.2891305491812063,0.6149173191610888,0.9010427625779488
1768729190860,128,0,0.0900931270736682,1.4482054692656492,1.2918791081717802
1768729190864,128,0,0.3277243285052669,1.5860687987455695,1.5427266446653611
1768729190868,128,0,0.3035573019205088,1.5824984537965756,1.532451614491002
1768729190872,128,0,0.0353821078869867,1.4978257788780809,1.2778455271867273
1768729190876,127,-1,-0.3282169616120829,0.6529420362700997,0.9272519087059504
1768729190880,127,-1,-0.6133031142489261,0.4985901335987615,0.654846541123947
1768729190884,127,-1,-0.7381812500564698,0.6750920891870478,0.5424284939205992
1768729190888,127,-1,-0.7448707872244568,0.5825198421976605,0.5479348090732081
1768729190892,127,-1,-0.7275981452676763,0.640369849803724,0.5773145479985375
1768729190896,127,-1,-0.7325450344297014,0.5883512719930173,0.5847558977756258
1768729190900,127,-1,-0.7181433554244712,0.6785131859124305,0.6120381809591176
1768729190904,127,-1,-0.6038736755159715,0.6031095605298291,0.7395536328238412
1768729190908,127,-1,-0.3581541522999063,0.7714156372730101,0.9984266256236424
1768729190912,128,0,-0.042940889240021,1.5738089934922774,1.3261207109683877
1768729190916,128,0,0.2267109608359636,1.751475208667169,1.6074751201152635
1768729190920,128,0,0.3679174033599065,1.622452059797435,1.760370933245318
1768729190924,128,0,0.380604736012219,1.765042074138084,1.7856907932782229
1768729190928,128,0,0.3280371027444503,1.7321820300788282,1.7467039089920853
1768729190932,128,0,0.2799933699418316,1.7172599701551494,1.7121727465555
1768729190936,128,0,0.2701670068551561,1.7340496505872922,1.7148866776905587
1768729190940,128,0,0.2901475750877588,1.7228161373027442,1.746559694338112
1768729190944,128,0,0.3106519571032643,1.795317951576485,1.7787970451007031
1768729190948,128,0,0.3093914723965397,1.8020234582179588,1.790002929359196
1768729190952,128,0,0.2881035227169237,1.7721509474709656,1.7818046939802743
1768729190956,128,0,0.269917107185232,1.7842443134223158,1.7766457348746334
1768729190960,128,0,0.279350043874021,1.7782439519364672,1.7985213525689017
1768729190964,128,0,0.3177039631884346,1.8463597084234316,1.8488928316014928
1768729190968,128,0,0.3512499127567863,1.8780702737947288,1.894623383694431
1768729190972,128,0,0.3246836490528456,1.7938987437199323,1.880644240221458
1768729190976,128,0,0.1966038468383895,1.897184491391912,1.765121214066621
1768729190980,128,0,-0.0283067910291899,1.73776014016725,1.5523619173214511
1768729190984,127,-1,-0.30344806760033,1.031391152919746,1.2893465504985682
1768729190988,127,-1,-0.5827408243171355,0.7755577376155789,1.022676160227797
1768729190992,127,-1,-0.8553226198288331,1.0427429922314275,0.7628980512241936
1768729190996,127,-1,-1.130413779578652,0.7373855834562626,0.5001638573516805
1768729191000,126,-2,-1.396305212236177,0.0154018432338105,0.2464783133913646
1768729191004,126,-2,-1.613145443983138,-0.1320764570610539,0.0424360606259659
1768729191008,126,-2,-1.7480595063520206,0.0313568091677818,-0.0796151464800676
1768729191012,126,-2,-1.801673158617481,-0.0628385830479261,-0.1219696667773759
1768729191016,126,-2,-1.793848943789297,-0.0851355546701904,-0.1046913308376011
1768729191020,126,-2,-1.7348748344586966,-6.895727624156578e-05,-0.0350891887382585
1768729191024,126,-2,-1.6197664166001675,-0.0697728273627973,0.0956366871189939
1768729191028,126,-2,-1.4424575477755537,0.1408409704278099,0.2931915453129439
1768729191032,127,-1,-1.200365832547006,0.8862274031436534,0.5534563009863565
1768729191036,127,-1,-0.8881529516474052,1.1406977716132358,0.8735234783385515
1768729191040,127,-1,-0.5124517390364826,0.8364651305736164,1.2456767598288092
1768729191044,127,-1,-0.1133557273378365,1.2303204208703504,1.639812271894003
1768729191048,128,0,0.3150870842488427,1.9351396895418016,2.076570556492337
1768729191052,129,1,1.0845355688555942,3.20247799176904,2.87464387820698
1768729191056,132,4,3.0945512596415488,5.983939724546371,4.925550784956022
1768729191060,136,8,7.734901415459856,10.064306292169016,9.600822642980669
1768729191064,143,15,16.106496019448258,17.153257679616225,17.986345755394268
1768729191068,154,26,27.81836675886858,28.092798176948765,29.689587378317466
1768729191072,167,39,40.23867357978804,41.183095936133675,42.089991975865914
1768729191076,178,50,49.09014471397259,52.14356285376411,50.92617351549445
1768729191080,180,52,50.4191146719452,53.970507949621975,52.2570553001007
1768729191084,171,43,42.823721238982344,45.33748412352077,44.685732517132024
1768729191088,156,28,28.424942195082785,29.9148773456194,30.328426376262215
1768729191092,138,10,11.856962118101972,12.494000042879248,13.805569403565633
1768729191096,125,-3,-2.0724305973981494,-1.0116425049089504,-0.0918756530310185
1768729191100,117,-11,-10.548157493966183,-8.65581169625831,-8.55920922636395
1768729191104,115,-13,-13.508713316763522,-10.876169299772528,-11.532186040468092
1768729191108,116,-12,-12.840665862319472,-9.799713174529275,-10.882896143742457
1768729191112,117,-11,-10.84876813672037,-8.696422188317758,-8.898626676262671
1768729191116,118,-10,-9.08509665864661,-7.7540939609345,-7.121679235757856
1768729191120,119,-9,-8.071110713015939,-6.7517020075247585,-6.0773699017222835
1768729191124,120,-8,-7.681762657624828,-5.677207568539738,-5.654909409561838
1768729191128,121,-7,-7.620910825846629,-4.911998611451806,-5.572007152799962
1768729191132,120,-8,-7.644176841904176,-5.458548366723169,-5.587736432255233
1768729191136,120,-8,-7.581673330565752,-5.927423463178089,-5.5246351151626705
1768729191140,120,-8,-7.347631686909825,-5.376210087330399,-5.286797045167538
1768729191144,121,-7,-6.980318453834146,-4.987446561156132,-4.908382288523873
1768729191148,121,-7,-6.623092654277659,-4.461230410077364,-4.535748573854228
1768729191152,122,-6,-6.4095383555038365,-3.8182956286904,-4.307255264260991
1768729191156,121,-7,-6.346099875735896,-4.473099907723459,-4.2310720775053605
1768729191160,121,-7,-6.3081283290451875,-4.665025770216433,-4.1813661785774725
1768729191164,122,-6,-6.150100101573036,-3.624721842551045,-4.011531853070011
1768729191168,122,-6,-5.821493527757078,-3.6672358175099777,-3.671328164905875
1768729191172,122,-6,-5.395428850246653,-3.555745979699023,-3.2342976083716892
1768729191176,123,-5,-5.008075184866223,-2.5683045933046045,-2.836212283389035
1768729191180,123,-5,-4.766210016168303,-2.492863550097384,-2.5830680100291254
1768729191184,123,-5,-4.68696830320122,-2.646435659532492,-2.491552749987944
1768729191188,123,-5,-4.706609277134283,-2.554527325265436,-2.4981936501653625
1768729191192,123,-5,-4.742151931196169,-2.559139051107855,-2.5209822692148993
1768729191196,123,-5,-4.749458637965236,-2.444318473603066,-2.516737454063728
1768729191200,123,-5,-4.736051507159108,-2.4901908177685197,-2.4928811815187077
1768729191204,123,-5,-4.733898164085047,-2.539141570968529,-2.4801500107075625
1768729191208,123,-5,-4.7621848762643255,-2.533927587991859,-2.4966249988156974
1768729191212,123,-5,-4.8022952145104645,-2.506102213358813,-2.523880340778484
1768729191216,123,-5,-4.796272684545812,-2.3429384473096153,-2.5050957922082855
1768729191220,123,-5,-4.67704052797853,-2.4998053119981876,-2.3739751985205224
1768729191224,123,-5,-4.422099263119556,-2.3788896560036155,-2.1079378823268993
1768729191228,124,-4,-4.09027924288795,-1.6099961597016013,-1.7654451060986247
1768729191232,124,-4,-3.798518449060653,-1.3126403865916896,-1.4630906722812715
1768729191236,124,-4,-3.64759819295733,-1.4167677149536555,-1.3010320370787878
1768729191240,124,-4,-3.657365954364346,-1.3122646124191006,-1.2984651340775826
1768729191244,124,-4,-3.7597186107806007,-1.4234460247228613,-1.387593074233875
1768729191248,124,-4,-3.843461418237853,-1.501298960899491,-1.458643192433731
1768729191252,124,-4,-3.814508291117038,-1.2617375418380947,-1.4186419864445727
1768729191256,124,-4,-3.642214254006411,-1.3925812287323316,-1.2363543590263837
1768729191260,124,-4,-3.374120620505602,-1.1734025658964145,-0.9576247221791389
1768729191264,125,-3,-3.104345932364378,-0.46228440149586,-0.675769130642242
1768729191268,125,-3,-2.902579485025424,-0.3637067047005815,-0.4613991933990458
1768729191272,125,-3,-2.7557603247093656,-0.2681101437879143,-0.3027633335660478
1768729191276,125,-3,-2.585307421239621,-0.2894702889478422,-0.1213975402456455
1768729191280,125,-3,-2.336526447779459,-0.1331179354179641,0.138303714573488
1768729191284,126,-2,-2.0533478624170938,0.6069775863387188,0.4329980117605689
1768729191288,126,-2,-1.8540913280112756,0.669387972234218,0.6440147611143461
1768729191292,126,-2,-1.8231841268725328,0.8298056245137373,0.6863728490645804
1768729191296,126,-2,-1.925051323628396,0.7077771242375857,0.595763398398776
1768729191300,125,-3,-2.0288585382657907,0.0176495142785824,0.5035540042121045
1768729191304,126,-2,-2.0215974464501016,0.5402120778710946,0.5227264036407884
1768729191308,126,-2,-1.899005782880635,0.8821463455613152,0.6568297134478818
1768729191312,126,-2,-1.7525940588750726,0.7051724597162834,0.8140129263265394
1768729191316,126,-2,-1.678323146084448,0.975192617851586,0.8989660297477562
1768729191320,126,-2,-1.697722276709342,0.8638203779990885,0.8909682292381373
1768729191324,126,-2,-1.753236023035156,0.7816889869286849,0.8474731298065965
1768729191328,126,-2,-1.7688074692560818,0.8011335724289974,0.8436895899548482
1768729191332,126,-2,-1.7201234295783354,0.8442848737623652,0.9034132523245204
1768729191336,126,-2,-1.6595048557464585,1.0286106540444346,0.9747128983433512
1768729191340,126,-2,-1.6776518427591072,0.865089058324362,0.9675992185221488
1768729191344,126,-2,-1.8312622932582712,0.9358123152945288,0.825498208439728
1768729191348,126,-2,-2.093149100587492,0.735615239252084,0.5751380454042487
1768729191352,125,-3,-2.370204754365898,0.0321233328748473,0.3093562193809649
1768729191356,125,-3,-2.5812179284979866,-0.0192232560778282,0.1095284483244833
1768729191360,125,-3,-2.726125725325486,0.0027847569456049,-0.0242289763808001
1768729191364,125,-3,-2.8771290015217685,-0.0557885734708922,-0.1643406440418771
1768729191368,125,-3,-3.0984267967538823,-0.1929501486331406,-0.3749036706319355
1768729191372,124,-4,-3.3764016501792655,-0.8831874435017442,-0.6417058731841154
1768729191376,124,-4,-3.6281555038078217,-1.0208040027208245,-0.8816352961978986
1768729191380,124,-4,-3.7724346719803665,-0.8472518587183133,-1.0141832940448363
1768729191384,124,-4,-3.79246564461888,-1.111378358656436,-1.0234233802524633
1768729191388,124,-4,-3.7428756588381575,-1.0150224389346896,-0.9637944777128165
1768729191392,124,-4,-3.7050135493193608,-0.9188428991295958,-0.9156865314410594
1768729191396,124,-4,-3.7237042909668903,-0.916015613030273,-0.9233728521083746
1768729191400,124,-4,-3.764902733492024,-0.7743131633613942,-0.9530478881190074
1768729191404,124,-4,-3.7266566225504807,-1.130717229003864,-0.9031743890764214
1768729191408,124,-4,-3.5030799826321735,-0.8290953272346933,-0.6680516338351978
1768729191412,125,-3,-3.0550197559184373,-0.0030441467182484,-0.2087115718820833
1768729191416,125,-3,-2.4313980298849422,0.2738228208567934,0.4256008570257259
1768729191420,126,-2,-1.7302793890285808,1.1933256956130518,1.1366811904956
1768729191424,127,-1,-1.040580029158365,1.962437080356952,1.8360138121670473
1768729191428,127,-1,-0.4123440665760802,2.2526883305223384,2.474390099359483
1768729191432,128,0,0.1335850263507922,2.97841306628962,3.031546839525469
1768729191436,128,0,0.58692913449645,3.4581443291011205,3.4968592040508906
1768729191440,129,1,0.9524157703514504,4.091558127999727,3.874059976455485
1768729191444,129,1,1.267516217926315,4.205927773003373,4.200002017569031
1768729191448,129,1,1.5941568141669924,4.118616852846412,4.536817851333226
1768729191452,130,2,1.9736069913722512,5.215765813505952,4.926323612059836
1768729191456,130,2,2.3824378249936142,5.37787059003289,5.345490720098159
1768729191460,130,2,2.7321893288443184,5.236062828951178,5.7059091590828475
1768729191464,131,3,2.91980156799057,6.248198144173158,5.904058303594154
1768729191468,131,3,2.898179172471422,6.12868932389775,5.892334999443495
1768729191472,130,2,2.713346285748523,5.36035031279838,5.717202036552574
1768729191476,130,2,2.472204008930404,5.3438423687755225,5.486787604641362
1768729191480,130,2,2.2712315015029607,5.374334292340137,5.2979752618606915
1768729191484,130,2,2.158095500991349,5.2635484003972035,5.197133009135391
1768729191488,130,2,2.1512722616025837,5.196683900935886,5.200927968645843
1768729191492,130,2,2.267330529079938,5.438408459541239,5.325529443690191
1768729191496,130,2,2.5012993389176565,5.369445438581826,5.567488828630479
1768729191500,130,2,2.7771557936072155,5.458815736051001,5.8527032215553545
1768729191504,131,3,2.9460405053699823,6.331209437479181,6.032685645410394
1768729191508,131,3,2.876652943220154,6.201959672244544,5.974872174378458
1768729191512,130,2,2.573590682891081,5.606944856313025,5.68270314826396
1768729191516,130,2,2.2008714842018327,5.259154817116692,5.320281907290802
1768729191520,129,1,1.967681507778789,4.7316945698654065,5.097346697104176
1768729191524,130,2,1.9727142352716047,5.145100051827427,5.112471305779386
1768729191528,130,2,2.14571768635526,5.539771626438938,5.294907031033363
1768729191532,130,2,2.3273106041197904,5.385899618401567,5.485482336195765
1768729191536,130,2,2.4023476975641387,5.5790897361594745,5.569970704526652
1768729191540,130,2,2.3722716400446653,5.55144938270681,5.550290049857317
1768729191544,130,2,2.322764569480077,5.398255229362613,5.51158095311089
1768729191548,130,2,2.3298645130734155,5.467898764382764,5.529062908507494
1768729191552,130,2,2.3852281472011945,5.540639264790027,5.59414778201089
1768729191556,130,2,2.399170792518661,5.565621606887462,5.617378276277946
1768729191560,130,2,2.278351846288759,5.664569179162113,5.505621044744521
1768729191564,130,2,2.0122919245457185,5.396421757269271,5.24865305583915
1768729191568,129,1,1.6902996036544968,4.6157095554927965,4.936326407783134
1768729191572,129,1,1.4320012350738136,4.497260014918793,4.688579085221205
1768729191576,129,1,1.299702889173995,4.7405485436857235,4.56709088472401
1768729191580,129,1,1.274892308423629,4.592725584700884,4.552230668467227
1768729191584,129,1,1.305238016289809,4.587953334054464,4.591290163660744
1768729191588,129,1,1.356256057384705,4.571009991923591,4.6505260464911045
1768729191592,129,1,1.414622281042217,4.627018782154173,4.717614258200705
1768729191596,129,1,1.4562854507508305,4.769265209561732,4.768839811524823
1768729191600,129,1,1.4301822349214357,4.628869791998305,4.752692519119115
1768729191604,129,1,1.2862492457456425,4.721074936059337,4.618439888320969
1768729191608,129,1,1.0251033567330012,4.531255086986899,4.366501443089925
1768729191612,128,0,0.7170808133722961,3.805668442286043,4.067638976837273
1768729191616,128,0,0.4632441991874687,3.695183203271128,3.823288882902452
1768729191620,128,0,0.3297875776106596,3.816594625617294,3.6993260817624543
1768729191624,128,0,0.3135983885526627,3.667967841319972,3.692040347697875
1768729191628,128,0,0.3606712603520025,3.702317766923704,3.7474499903392102
1768729191632,128,0,0.4101768679097929,3.770910732720729,3.805387877876784
1768729191636,128,0,0.4281600796843892,3.816162219426605,3.832363465939411
1768729191640,128,0,0.4160214456072737,3.833632383038931,3.829581798945058
1768729191644,128,0,0.3970178636406934,3.75606482929848,3.8198300701537864
1768729191648,128,0,0.3925583308866028,3.7626355796291766,3.8243016496405646
1768729191652,128,0,0.404987841574857,3.8191502683349583,3.845427160442276
1768729191656,128,0,0.419748447681985,3.879978077468286,3.8687907405900415
1768729191660,128,0,0.4232918859783298,3.887301655738971,3.880932406029989
1768729191664,128,0,0.417637690331464,3.824913960344733,3.8839320824374903
1768729191668,128,0,0.4163995639146857,3.829271504129782,3.89137860551748
1768729191672,128,0,0.4277927045188321,3.86809963390859,3.911309425100538
1768729191676,128,0,0.4442016874178743,3.939500470335393,3.935957762760159
1768729191680,128,0,0.4496421336143716,3.9490643041081106,3.949532176107718
1768729191684,128,0,0.4368638943830345,3.8835512658111058,3.9452814197070616
1768729191688,128,0,0.4172464402019044,3.9071113131966335,3.934828793263048
1768729191692,128,0,0.4149474465207059,3.90631094328685,3.9418396989896127
1768729191696,128,0,0.448551326370294,4.003631732637469,3.983986229604998
1768729191700,128,0,0.5085108728212476,4.022788503668791,4.051305971246758
1768729191704,128,0,0.5421829494760871,3.903965327087663,4.091738052697228
1768729191708,128,0,0.4636093839990411,4.0603798124291295,4.0204175781970175
1768729191712,128,0,0.198199237868085,3.8212464011511647,3.763442541577856
1768729191716,127,-1,-0.2567206211496959,3.245016026037102,3.3179400829143937
1768729191720,127,-1,-0.8020344276454889,2.8615950594757744,2.7821394588000428
1768729191724,126,-2,-1.2739959966777297,2.2144451836115175,2.31885379255928
1768729191728,126,-2,-1.5362196013042244,1.8764178088128651,2.064164629596347
1768729191732,126,-2,-1.56668792160022,2.1081035227698237,2.040664538192481
1768729191736,126,-2,-1.4754846002392352,2.1110572466655984,2.139206363359559
1768729191740,126,-2,-1.4349309378548123,2.053233882802082,2.187688747580993
1768729191744,126,-2,-1.5652012181476898,2.2216433773615956,2.064969805853337
1768729191748,126,-2,-1.8524307791410175,1.918197056576855,1.784041768919147
1768729191752,125,-3,-2.1606966172070683,1.2534468363083178,1.4819943704668694
1768729191756,125,-3,-2.3318342573164457,1.024779779456475,1.3198597407508057
1768729191760,125,-3,-2.287183070733615,1.296722620947912,1.3775775691943566
1768729191764,126,-2,-2.0396600767675572,2.080991991743042,1.639157520154641
1768729191768,126,-2,-1.6250498480763158,2.2121719425586672,2.062719123804404
1768729191772,126,-2,-1.055685574643719,2.055014788456865,2.631674544733964
1768729191776,127,-1,-0.3525569420707316,3.352979246449426,3.327367259013761
1768729191780,128,0,0.4310520147809434,4.063412085422178,4.1061807787419955
1768729191784,128,0,1.3316816530750235,4.4590988138256265,5.0159657555161115
1768729191788,131,3,2.7440244553731405,6.966192522175309,6.454636591050821
1768729191792,134,6,5.603845160722368,10.420440609521435,9.348069703386392
1768729191796,139,11,11.128118346176317,15.095118511223063,14.89657864196884
1768729191800,146,18,19.95663690701829,22.450128819665583,23.728942885606237
1768729191804,157,29,31.091627324660703,33.2011081122461,34.84878411459323
1768729191808,169,41,41.51046014964889,45.365608882490335,45.24449357431069
1768729191812,176,48,47.11997169617051,52.140416383048816,50.8370382773428
1768729191816,173,45,44.77078146530224,49.44573983168726,48.48878058017169
1768729191820,162,34,34.11796092411702,38.188261746798574,37.859214692943965
1768729191824,145,17,18.06510990640177,21.511433509820144,21.845441494557704
1768729191828,128,0,1.4464294270146103,4.2227630514059395,5.266002018596122
1768729191832,115,-13,-11.24374248591668,-8.563672295317497,-7.401432363337099
1768729191836,110,-18,-17.717141082350064,-13.625871098359516,-13.876516680209548
1768729191840,110,-18,-18.384126208651303,-13.616732118422789,-14.56381348055543
1768729191844,112,-16,-15.468375578508194,-11.560669478569318,-11.670894488906203
1768729191848,116,-12,-11.542222492612147,-7.624365733818969,-7.753858817660545
1768729191852,119,-9,-8.398595385919297,-4.607273387722808,-4.599203101033975
1768729191856,120,-8,-6.698593718147163,-3.4658310773717425,-2.873957714034806
1768729191860,121,-7,-6.252861986063491,-2.661222527148311,-2.401573700017299
1768729191864,121,-7,-6.510584292541244,-2.4008613915563513,-2.642343946118753
1768729191868,121,-7,-6.920028586230915,-2.685573629433307,-3.047648624837708
1768729191872,120,-8,-7.093152861634185,-3.393795256947403,-3.22395079143577
1768729191876,120,-8,-6.871058234606511,-3.5595675997298217,-3.0036696564893526
1768729191880,121,-7,-6.340393790318206,-2.4330878411596,-2.468638874328459
1768729191884,122,-6,-5.755442894475883,-1.5164794362815237,-1.8745948122781368
1768729191888,122,-6,-5.360484459176524,-1.4660127907178833,-1.4699775903260714
1768729191892,122,-6,-5.227147223017537,-1.4696064844903336,-1.3287002103798005
1768729191896,122,-6,-5.235702498668018,-1.3728194011540664,-1.330419046336578
1768729191900,122,-6,-5.202156090379108,-1.4982398329567723,-1.289716885263057
1768729191904,122,-6,-5.027198875246839,-1.3278768040291165,-1.1071243020465282
1768729191908,123,-5,-4.7410310718271935,-0.5480684210233315,-0.8139681119329527
1768729191912,123,-5,-4.4289381504764265,-0.2317213047535115,-0.4962354226266488
1768729191916,123,-5,-4.136303228733807,-0.513385487498015,-0.1983763368495862
1768729191920,123,-5,-3.8538252795096577,-0.2237940726966991,0.0903970293251292
1768729191924,124,-4,-3.5756680487106993,0.5001816947260783,0.376017231069947
1768729191928,124,-4,-3.34075472856669,0.7419888914404765,0.6183314746846227
1768729191932,124,-4,-3.2064747887945826,0.6393914866391226,0.7592509371468764
1768729191936,124,-4,-3.1926103607044567,0.6996697115762813,0.7795660224636647
1768729191940,124,-4,-3.255469140901012,0.7200337148855095,0.7235985061994883
1768729191944,124,-4,-3.308966681812088,0.6161896881611654,0.6771546804760977
1768729191948,124,-4,-3.272670856067721,0.797269638548167,0.7201519129487062
1768729191952,124,-4,-3.1195833514875684,0.6983516915919634,0.87971164151435
1768729191956,124,-4,-2.894997118066594,0.7667720117162158,1.1108489067366372
1768729191960,125,-3,-2.6838129805611817,1.7787760887533028,1.3284250729762652
1768729191964,125,-3,-2.543078082757914,1.6359971783085785,1.4752110143876307
1768729191968,124,-4,-2.462661307801554,0.941891634924513,1.5620214986707197
1768729191972,125,-3,-2.39490011150765,1.658726212131319,1.6371982078416778
1768729191976,125,-3,-2.3126885966425808,1.9505451980040984,1.727234772253941
1768729191980,125,-3,-2.227975576747097,1.6888775751526728,1.8188975311068225
1768729191984,125,-3,-2.1649168429712,1.8503448252307255,1.8877233284031396
1768729191988,125,-3,-2.1340827891151006,1.857939631664509,1.9240921739413088
1768729191992,125,-3,-2.133086721368117,1.8582113773087965,1.9314310674141455
1768729191996,125,-3,-2.1571461686160944,1.897710313459505,1.9146732434996212
1768729192000,125,-3,-2.197262841114286,1.8267803505979192,1.8821082073601216
1768729192004,125,-3,-2.2267391676134283,1.8508140704656648,1.8596143467956443
1768729192008,125,-3,-2.196912385015869,1.9739996627326744,1.8957616168337563
1768729192012,125,-3,-2.060243617763868,1.8703463583432471,2.0388439410711507
1768729192016,125,-3,-1.8107139795965856,2.020387264264058,2.295507589774156
1768729192020,126,-2,-1.502660764328514,2.7980982029561257,2.6109084477543987
1768729192024,126,-2,-1.2215911407078832,3.018438294863328,2.8984246555651163
1768729192028,126,-2,-1.0333107526020542,2.911889436431002,3.0921278732799338
1768729192032,126,-2,-0.9638113135491168,3.080389725084008,3.1673111385427735
1768729192036,126,-2,-1.019208133722228,2.915925313867849,3.1190524691876953
1768729192040,126,-2,-1.2005917878523162,3.01710215829417,2.9459362879154303
1768729192044,126,-2,-1.4823292646744048,2.928952101687045,2.672242606120465
1768729192048,125,-3,-1.7864926933119638,2.1170224474281856,2.3751026034987843
1768729192052,125,-3,-2.008410665888431,2.013355569380133,2.1595208117689624
1768729192056,125,-3,-2.0912822500997317,2.101249321413927,2.082940568316624
1768729192060,125,-3,-2.0824896754349247,1.9264806499829188,2.0981696291729266
1768729192064,125,-3,-2.1126045360230123,2.179279025529774,2.074548399976037
1768729192068,125,-3,-2.3089302468047177,1.9535390567472688,1.8849015059376764
1768729192072,124,-4,-2.712842225753861,1.3425334065975734,1.4881538568569854
1768729192076,124,-4,-3.2624069422892084,0.8498710486304901,0.9461769802409276
1768729192080,123,-5,-3.842516346528905,0.3138304092788014,0.373504111677354
1768729192084,123,-5,-4.353550579814253,-0.0906896291994575,-0.1306294549188268
1768729192088,122,-6,-4.748841698485313,-0.6472771739602838,-0.5191282457858993
1768729192092,122,-6,-5.025137238589146,-0.9121575198562022,-0.7880853441491488
1768729192096,122,-6,-5.182233791129004,-0.8162464061679702,-0.9374879033581288
1768729192100,122,-6,-5.188098478582496,-0.8628545009986804,-0.9361499015841585
1768729192104,122,-6,-4.989543204457105,-0.8416400123311112,-0.7310908468910485
1768729192108,122,-6,-4.573169889210485,-0.7025824722505631,-0.3081528677968475
1768729192112,123,-5,-4.017912119867491,0.2034140503438661,0.254266660378688
1768729192116,124,-4,-3.465994231640717,1.2421991639042775,0.8135572003990872
1768729192120,124,-4,-3.019065881934937,1.137406957173583,1.2676410927930757
1768729192124,124,-4,-2.6565576378366416,1.3317208853604483,1.6374221131920934
1768729192128,125,-3,-2.2569630521422512,2.21039109927491,2.044943784438268
1768729192132,125,-3,-1.6999787578262948,2.4496426060325365,2.6103983034603213
1768729192136,126,-2,-0.9591612772089708,3.074249124739243,3.3594445115092775
1768729192140,127,-1,-0.115583272253132,4.467328750388582,4.210143677531281
1768729192144,128,0,0.7057487449618283,5.0896848439101445,5.037377621879002
1768729192148,128,0,1.4124638417614004,5.598186591262824,5.749923260623364
1768729192152,129,1,1.9689428223996144,6.1869287131975765,6.313738748686094
1768729192156,129,1,2.368964931922749,6.414701824625619,6.7228545825537624
1768729192160,130,2,2.6148206049203755,7.307091299685806,6.978053754268511
1768729192164,130,2,2.7332403503449902,7.30614693602967,7.104576886430368
1768729192168,129,1,2.788929446448052,6.582916501521215,7.167282354748457
1768729192172,130,2,2.8528215666181747,7.250447510663681,7.23818794251005
1768729192176,130,2,2.95095994754294,7.524287552925781,7.343769283763993
1768729192180,130,2,3.0531153671292564,7.268217271386609,7.453559802827786
1768729192184,130,2,3.111654085953469,7.518163198104948,7.5199661918892815
1768729192188,130,2,3.108644324948318,7.475762040909044,7.525377715420338
1768729192192,130,2,3.0724697684391056,7.464453751273467,7.498033565975394
1768729192196,130,2,3.0562312749769243,7.452285144937036,7.490342985540142
1768729192200,130,2,3.0935463152156415,7.416804927029702,7.535419674754912
1768729192204,130,2,3.161072044213552,7.560314431627626,7.610130425777108
1768729192208,130,2,3.179215381186461,7.50326501433916,7.635537355318685
1768729192212,130,2,3.0617873369973876,7.595062724289349,7.525979961727683
1768729192216,130,2,2.785853815608233,7.398601681383045,7.258711887075198
1768729192220,129,1,2.4268498761033976,6.618936351939788,6.909024866976991
1768729192224,129,1,2.1257207142787213,6.472023783730198,6.617302102021459
1768729192228,129,1,2.0109717912235165,6.73133452757741,6.511332270364784
1768729192232,129,1,2.1302752972247117,6.470378993060109,6.638674786438158
1768729192236,129,1,2.429373695922365,6.645044669048932,6.945677111899062
1768729192240,130,2,2.7853480401903403,7.496876669497543,7.309804439587478
1768729192244,130,2,3.0761145974367197,7.715978692795394,7.608714724977051
1768729192248,130,2,3.240300130475387,7.619929708732327,7.781006370892769
1768729192252,130,2,3.2803077267383984,7.688378936303097,7.829782868514933
1768729192256,130,2,3.215763728404503,7.542508854086303,7.775067613351223
1768729192260,130,2,3.0502883702548593,7.719831903289388,7.619594303858663
1768729192264,130,2,2.7926619133834105,7.630687612255565,7.370863834295522
1768729192268,129,1,2.4956852385134667,6.82468794869486,7.081734500477326
1768729192272,129,1,2.247474630929442,6.6038720855128075,6.841767567538887
1768729192276,129,1,2.1125023593421544,6.727936063083746,6.716447885908128
1768729192280,129,1,2.0879948068331307,6.666652410940169,6.7023260376135365
1768729192284,129,1,2.1231650429445272,6.810720857587299,6.7470965844033195
1768729192288,129,1,2.1728634926213624,6.790748206491272,6.805026423347239
1768729192292,129,1,2.221814102710018,6.716168125038453,6.861866720767066
1768729192296,129,1,2.257770103315851,6.759521847242752,6.906897892198227
1768729192300,129,1,2.237618292423727,6.716251389548486,6.897288815904075
1768729192304,129,1,2.103206956827548,6.941499813159756,6.773519154569457
1768729192308,129,1,1.843270418407053,6.75554066779193,6.522932623836012
1768729192312,128,0,1.5302396181918212,5.881491368576747,6.218325851533281
1768729192316,128,0,1.276221935726713,5.683612020179435,5.973473416335148
1768729192320,128,0,1.1460991651978547,5.920625206236386,5.8540839789887125
1768729192324,128,0,1.1206247713642332,5.881324533912711,5.839916891331889
1768729192328,128,0,1.1427116586066592,5.9388995869074686,5.872332421695664
1768729192332,128,0,1.1825040152173272,5.828782141783613,5.9210294719119725
1768729192336,128,0,1.24333986404603,5.796059283620522,5.990237214466829
1768729192340,128,0,1.3093485033236902,5.975250491508073,6.065292417327984
1768729192344,128,0,1.3084328314457738,5.920154523820425,6.074625552137117
1768729192348,128,0,1.1517367674305723,6.0795606196835035,5.929073855577057
1768729192352,128,0,0.8265022644992523,5.76975269998543,5.615276641680696
1768729192356,127,-1,0.4503119686426833,4.9532441908156395,5.2503830771906195
1768729192360,127,-1,0.2170526022825806,4.954312725796408,5.027988248311612
1768729192364,127,-1,0.2627903428160935,5.048478411301062,5.083927669492656
1768729192368,127,-1,0.5567081174802909,5.1396429583856555,5.3874171979272685
1768729192372,128,0,0.9074357555149856,5.768738740740298,5.747454836035157
1768729192376,128,0,1.0871746665159066,6.1017453298706075,5.936737103612872
1768729192380,128,0,0.9842701501578398,5.870044736012614,5.844161846482264
1768729192384,127,-1,0.668624772926876,5.30972101746134,5.540166119109585
1768729192388,127,-1,0.3240443056411125,4.99419184886345,5.208515359087068
1768729192392,127,-1,0.1128847387294924,5.0272430753678705,5.010449258441031
1768729192396,127,-1,0.0845245060180708,4.962451930258421,4.993709893076497
1768729192400,127,-1,0.1809569244906576,5.0931236574885475,5.099538417747114
1768729192404,127,-1,0.3024084136470802,5.268545834498353,5.229211145018555
1768729192408,127,-1,0.3633559348457219,5.13071449685188,5.299463223458987
1768729192412,127,-1,0.3093381047413449,5.020001503762744,5.257416191975977
1768729192416,127,-1,0.1203955465474366,5.073197276099929,5.082454262008892
1768729192420,127,-1,-0.1688722551910165,5.065101821686014,4.8068539639711325
1768729192424,126,-2,-0.4543958054616285,4.504268108981346,4.533060335732815
1768729192428,126,-2,-0.6048223158734236,3.940173495556522,4.392949524473661
1768729192432,126,-2,-0.5575984426847401,4.413768784349603,4.450670834555823
1768729192436,127,-1,-0.384134359135549,4.689920392415498,4.635551953715315
1768729192440,126,-2,-0.2467695054715716,4.637456384700562,4.784720788632722
1768729192444,127,-1,-0.273117174722785,5.040712843582787,4.769946919448534
1768729192448,126,-2,-0.4581514066463242,4.533968035067103,4.596640492600231
1768729192452,126,-2,-0.6813003687999988,3.946387227161551,4.38633974741681
1768729192456,126,-2,-0.8171432420078321,4.2076952244708785,4.264444868448885
1768729192460,126,-2,-0.8312129327796111,4.31048572815598,4.2637792189833785
1768729192464,126,-2,-0.7786334190898985,4.438689602326539,4.3275809840630854
1768729192468,126,-2,-0.7317093396385143,4.3528754194433485,4.384108562054424
1768729192472,126,-2,-0.7248824497937374,4.137052066108806,4.4015274679281156
1768729192476,126,-2,-0.757260295013091,4.192231741949509,4.382642805751596
1768729192480,126,-2,-0.8116290922917183,4.377629539407838,4.343670821030974
1768729192484,126,-2,-0.8443309046286784,4.585317225052688,4.3254272961576365
1768729192488,126,-2,-0.7702215484317012,4.2893443568298695,4.411557402135589
1768729192492,126,-2,-0.501447205327921,4.33681642148066,4.691238470064918
1768729192496,127,-1,-0.0334175546870774,5.050267224158664,5.171306753233365
1768729192500,127,-1,0.5126195395678689,5.668907040686078,5.730966837990159
1768729192504,128,0,0.9593186449154056,6.433459200488296,6.19136136626936
1768729192508,128,0,1.203972321132014,6.583315155176088,6.448615021178599
1768729192512,128,0,1.2812738693969328,6.138205625350428,6.5382078850432475
1768729192516,128,0,1.295471895026074,6.309251873393158,6.565938718009569
1768729192520,128,0,1.300617557905036,6.578370565757323,6.585877466313692
1768729192524,128,0,1.2594740869266232,6.621321500735966,6.559070628220326
1768729192528,128,0,1.113863585638911,6.614227855277947,6.426152028208499
1768729192532,128,0,0.8708364572657029,6.116539736880356,6.195240731114989
1768729192536,127,-1,0.6007105222822468,5.4789723889222595,5.938643154403794
1768729192540,127,-1,0.3580885032378145,5.478038508774793,5.710999202465069
1768729192544,127,-1,0.130240929188705,5.91243701578659,5.497417481218967
1768729192548,127,-1,-0.129052626644651,5.468794802421283,5.250597370937495
1768729192552,126,-2,-0.4393579250221695,4.330535676563562,4.953084234357388
1768729192556,126,-2,-0.7854284397480058,4.3753788362240655,4.622603467594603
1768729192560,126,-2,-1.144640151621613,4.650410051965334,4.280489274321285
1768729192564,125,-3,-1.48730106674644,3.952486450528303,3.952142450019139
1768729192568,125,-3,-1.756647999980535,3.543662618690804,3.692373691527452
1768729192572,125,-3,-1.8879086704310888,3.373662925888933,3.5698535379892253
1768729192576,125,-3,-1.866035392114787,3.380459949497419,3.6066485976636056
1768729192580,125,-3,-1.744500457658007,3.7615709003111752,3.752324852045603
1768729192584,125,-3,-1.5779647106186518,4.0354703076692875,3.94606417515882
1768729192588,126,-2,-1.3373967461540122,4.568151011464324,4.204264165557126
1768729192592,126,-2,-0.9367885126399308,4.503083078830066,4.604668524078232
1768729192596,126,-2,-0.3953438730132301,4.232613558952275,5.1346970384160615
1768729192600,126,-2,0.0547012262887843,5.091715911232349,5.582477071352688
1768729192604,127,-1,0.1848290490921021,5.848551707984075,5.7380890818228245
1768729192608,128,0,0.3178034675430173,6.880885246825565,5.922822425001563
1768729192612,130,2,1.7350256695565305,8.39665454480851,7.3932872555149265
1768729192616,134,6,6.26695195740078,12.196978351478991,11.950751842519388
1768729192620,140,12,14.86847837090736,19.507744767230015,20.54223555023409
1768729192624,149,21,25.99112534298354,27.32682848236618,31.63851476409633
1768729192628,160,32,35.27615849537405,39.83559902784272,40.90670651201392
1768729192632,172,44,37.52468884186227,49.33076141057036,43.15942956062196
1768729192636,159,31,30.024280577325477,38.40783024165158,35.68341909686188
1768729192640,139,11,14.724398864911588,17.305456710580692,20.426442408044153
1768729192644,121,-7,-2.652853597355838,0.595341289238343,3.10483810838546
1768729192648,110,-18,-15.966918328898682,-11.16893089098252,-10.160023387714356
1768729192652,106,-22,-21.92507464941172,-15.61154523332172,-16.09907359894534
1768729192656,107,-21,-21.111927546126687,-14.195344687447095,-15.302236734754466
1768729192660,111,-17,-16.627516534796346,-10.25604584576493,-10.84826793820934
1768729192664,115,-13,-11.786293061468122,-5.570797752061232,-6.020808051774775
1768729192668,118,-10,-8.497024410877588,-3.143061314586652,-2.7123582941283546
1768729192672,119,-9,-7.015744246307606,-2.3998638742761234,-1.1866491212904997
1768729192676,120,-8,-6.6829435665330355,-1.2251330818237207,-0.8066692034625764
1768729192680,121,-7,-6.774054691613634,-0.1807749809815462,-0.867767112652861
1768729192684,120,-8,-6.877342068082817,-0.4797027982368425,-0.9626955161954244
1768729192688,120,-8,-6.829583209323828,-1.2660423639258704,-0.9169856981929558
1768729192692,120,-8,-6.571003159362588,-1.032279861531305,-0.6551256804933043
1768729192696,121,-7,-6.129828881295931,-0.4600608835839885,-0.1979231597532806
1768729192700,121,-7,-5.64967201368562,0.1674856679047356,0.3064083000059954
1768729192704,122,-6,-5.3121267674389685,1.286021301287965,0.6667168354731725
1768729192708,122,-6,-5.186944908493209,0.9662567862984756,0.8084834620756705
1768729192712,121,-7,-5.179559584753514,-0.0298454194638315,0.8291917506558288
1768729192716,122,-6,-5.147688892531098,0.6220900005949805,0.8762243561581893
1768729192720,122,-6,-5.051887340416937,1.2688983441206378,0.9900256941511136
1768729192724,122,-6,-4.9662089514030106,1.2159085785676904,1.093596115968642
1768729192728,122,-6,-4.954206019499796,1.1420876376144382,1.1213652154555334
1768729192732,122,-6,-4.972059679304443,0.9390228457205758,1.1186547040050092
1768729192736,122,-6,-4.907413297502401,0.7861987366068575,1.2003769903406614
1768729192740,122,-6,-4.692344156023604,1.255716044923695,1.434419505506633
1768729192744,123,-5,-4.35545066195602,2.2756265764132717,1.7896033065786296
1768729192748,123,-5,-3.972205573450346,2.2020158947062347,2.188814450728564
1768729192752,123,-5,-3.5986272779836757,2.000207021997155,2.5773745823212577
1768729192756,124,-4,-3.268167080112465,2.880763105941718,2.924072255329093
1768729192760,124,-4,-3.0231921635871046,3.2769404964287117,3.186786218614457
1768729192764,124,-4,-2.9086566481081233,3.3254052200356727,3.3191495728857134
1768729192768,124,-4,-2.9270376694625093,3.2714948610166257,3.3180404934605345
1768729192772,124,-4,-3.0175920649711805,3.037445045129192,3.245006797006282
1768729192776,124,-4,-3.0915072449774996,3.0195618181317805,3.189377233709762
1768729192780,124,-4,-3.0867679347987784,3.2181650600711,3.212145815542604
1768729192784,124,-4,-2.9949926894655574,3.507137643883836,3.320366013760599
1768729192788,124,-4,-2.8560370640795583,3.1577332931889477,3.4745377215189217
1768729192792,124,-4,-2.741251145262247,3.3076510713043676,3.6052081368230895
1768729192796,125,-3,-2.7245450000646247,3.8789308636914415,3.639782019341579
1768729192800,124,-4,-2.8301455251036947,3.464663018577602,3.553457350691619
1768729192804,124,-4,-2.9852723363692197,3.375974244214987,3.4174006688180274
1768729192808,124,-4,-3.035907722766414,3.3475522559108697,3.3845892273145
1768729192812,124,-4,-2.8417561648691825,3.299212451433931,3.595519872042337
1768729192816,125,-3,-2.386958968034576,3.9689318059489582,4.0669071786451445
1768729192820,125,-3,-1.8115411884687065,4.555407569466752,4.659231633150517
1768729192824,126,-2,-1.3247898996479917,5.314410014068689,5.163071912062632
1768729192828,126,-2,-1.064035603130988,5.5598525826960055,5.440998475004725
1768729192832,126,-2,-1.0164957560771122,5.173122067437058,5.506236915705579
1768729192836,126,-2,-1.0655692467817,5.247249948158865,5.475731291686463
1768729192840,126,-2,-1.105124537988003,5.4004541288376435,5.454972362930875
1768729192844,126,-2,-1.109954853286898,5.536161084000026,5.468018235862401
1768729192848,126,-2,-1.1131238351900412,5.485667206643916,5.4815981101447555
1768729192852,126,-2,-1.1398477761418504,5.318731013944024,5.471581250357897
1768729192856,126,-2,-1.173000467666022,5.289692026492731,5.456084418252283
1768729192860,126,-2,-1.17136013681538,5.414333897414183,5.47600010999291
1768729192864,126,-2,-1.1086794308106742,5.673298855758524,5.556568512541835
1768729192868,126,-2,-0.999180498914054,5.403629193414127,5.683341632118411
1768729192872,126,-2,-0.8960578011855151,5.567547818523753,5.80379746915357
1768729192876,127,-1,-0.8609883365021906,6.1377566320673145,5.856687892040766
1768729192880,126,-2,-0.9181875444093874,5.697570906096953,5.817478290434519
1768729192884,126,-2,-1.0308634402768315,5.481138744448426,5.722546094451441
1768729192888,126,-2,-1.1304503033355855,5.691432215127386,5.640545246685617
1768729192892,126,-2,-1.1790910079773902,5.426370631779515,5.609703976152204
1768729192896,126,-2,-1.2082127814377286,5.36569202177333,5.598580854667107
1768729192900,126,-2,-1.2938539539978169,5.646294526910352,5.530521195243449
1768729192904,126,-2,-1.4878613468428847,5.5534471320426775,5.353300136991766
1768729192908,125,-3,-1.7720322896482008,4.800914418210611,5.085914727872167
1768729192912,125,-3,-2.0832487171410063,4.3616546486828955,4.792714710260526
1768729192916,125,-3,-2.376641776165381,4.6194164751314215,4.518428614196275
1768729192920,125,-3,-2.649252254237796,4.466626137901737,4.264382291394881
1768729192924,124,-4,-2.9049486548897527,3.853869115910134,4.025618986635436
1768729192928,124,-4,-3.120786084198007,3.6064878432936,3.8258844581932174
1768729192932,124,-4,-3.2631205836591075,3.644375190951013,3.7004178000177874
1768729192936,124,-4,-3.325962233603092,3.5073976254062043,3.655744176747631
1768729192940,124,-4,-3.3346743522135993,3.6351201770820136,3.6656110972254594
1768729192944,124,-4,-3.3058465865139857,3.865135504221712,3.7123217886082633
1768729192948,124,-4,-3.211471905694208,3.61231132907342,3.8237487683451272
1768729192952,124,-4,-2.9940785376306724,3.828537108221072,4.058075153488462
1768729192956,125,-3,-2.620947209343936,4.382956358141374,4.448515592518405
1768729192960,125,-3,-2.118385291287587,4.92095643343976,4.9685724904810975
1768729192964,126,-2,-1.5491730151230296,5.669291050740824,5.555211819560733
1768729192968,126,-2,-0.9596844396611302,5.902641579599732,6.1622406776337115
1768729192972,127,-1,-0.3506864564731042,6.6644619429213705,6.789037206301157
1768729192976,128,0,0.3053734247995547,7.643384690030601,7.46274038485692
1768729192980,128,0,1.02059952069229,7.805486362565091,8.194901454326812
1768729192984,129,1,1.757522437205269,8.870258011446044,8.948128849519588
1768729192988,130,2,2.432919555830072,9.819793476634697,9.639977858717735
1768729192992,130,2,2.9631283521874496,9.842265514002664,10.18755141344225
1768729192996,131,3,3.3215319183989913,10.583097441512455,10.564198256048783
1768729193000,131,3,3.5633376395906176,11.005673454158616,10.824284867562673
1768729193004,131,3,3.789321224142177,10.738649031264266,11.067780449190916
1768729193008,131,3,4.0630218468259205,11.096131245591833,11.358039832047512
1768729193012,132,4,4.343871482216745,11.636010621116542,11.654711491650914
1768729193016,132,4,4.502570677438936,11.92783403508389,11.828973643586266
1768729193020,132,4,4.416801467254787,11.787127867081892,11.759429625755494
1768729193024,131,3,4.069760377420254,11.037043902333668,11.430043615663031
1768729193028,131,3,3.577230888155052,10.926225682464084,10.95608830227859
1768729193032,131,3,3.133286102384395,10.875534115671446,10.530186129221502
1768729193036,130,2,2.9104240645014965,9.84483247927615,10.324188299879228
1768729193040,130,2,2.9645396737610654,9.965866598647604,10.394583423058611
1768729193044,131,3,3.2059248862274465,10.99160467801112,10.65207400097773
1768729193048,131,3,3.46984991166834,11.035810251304609,10.931614475474396
1768729193052,131,3,3.6330420069551006,10.897112022185484,11.110100572878412
1768729193056,131,3,3.6723795051266297,10.92880047355202,11.165523092105564
1768729193060,131,3,3.6303213946414497,11.000005027252648,11.141003962687437
1768729193064,131,3,3.5533554125380213,11.071186227269337,11.08215690332197
1768729193068,131,3,3.4768851132493506,11.032693398620694,11.022887217618932
1768729193072,131,3,3.4513889706305294,11.040557703097797,11.013258407576853
1768729193076,131,3,3.5500502872251514,10.86880266121652,11.127455195296356
1768729193080,131,3,3.827693846375422,11.209732691654724,11.421342318096949
1768729193084,132,4,4.268158302800067,11.931263142355336,11.878520981435008
1768729193088,132,4,4.777476641302315,12.299064692111433,12.403892413944575
1768729193092,133,5,5.23252192305718,12.869312894179792,12.873885907104375
1768729193096,133,5,5.540227670356559,13.157873787674555,13.196488313689258
1768729193100,133,5,5.662135632050918,13.043340928642802,13.33470716783849
1768729193104,133,5,5.60444724772205,13.164314623971151,13.294737927177716
1768729193108,133,5,5.405834793764012,13.222066373460498,13.113464808516747
1768729193112,133,5,5.13461422304691,12.984165526169736,12.857681760673778
1768729193116,132,4,4.8680828413952595,12.24944268551486,12.605375714735256
1768729193120,132,4,4.641449405284217,11.965267744764004,12.393742884872086
1768729193124,132,4,4.4147937973670475,12.42698369639964,12.18354628136636
1768729193128,132,4,4.113282241139232,11.997727039606676,11.898673527501934
1768729193132,131,3,3.711272168297209,11.355626380661567,11.512204781976564
1768729193136,131,3,3.2649532108516466,10.999394886187808,11.080637243217142
1768729193140,130,2,2.8515926159305356,10.273464048988156,10.682349790724132
1768729193144,130,2,2.484393590846187,10.283288497871574,10.330812891614965
1768729193148,130,2,2.102289275179705,10.170311446493107,9.964228396438456
1768729193152,129,1,1.6485806272066312,9.380796357631862,9.525518216327043
1768729193156,129,1,1.1526323013007276,9.013419817909954,9.044810304593872
1768729193160,128,0,0.726201068448808,8.419314600325094,8.634787816067712
1768729193164,128,0,0.4755121910574003,8.177228472525805,8.40121130825532
1768729193168,128,0,0.4104262050256979,8.42962994012834,8.351937209546982
1768729193172,128,0,0.4280356615736069,8.216247266326597,8.382256419006339
1768729193176,128,0,0.3793110304466873,8.300346938103125,8.343773923625534
1768729193180,128,0,0.1651199218171239,8.22865574909301,8.141076358386398
1768729193184,127,-1,-0.2017004115032425,7.445979948223269,7.791531696765594
1768729193188,127,-1,-0.5961798337240778,7.279209981163962,7.42106813457552
1768729193192,127,-1,-0.8323886730444663,7.486591461893582,7.21007411365224
1768729193196,127,-1,-0.7475024707485214,7.141388768063852,7.3117600789565556
1768729193200,127,-1,-0.3025347982278574,7.483595979778166,7.759071605264285
1768729193204,128,0,0.3540588982338941,8.293544360038895,8.408427551062811
1768729193208,128,0,0.9693864330468992,8.5052425094493,9.022397064834632
1768729193212,129,1,1.4934815598356823,9.431048736991638,9.566371323504947
1768729193216,131,3,2.503584656013162,11.250844163057923,10.618957761765191
1768729193220,134,6,5.384118181678497,14.531296730208648,13.548109118732755
1768729193224,140,12,11.827498981947604,20.28277210916793,20.02367786771594
1768729193228,148,20,22.58977864293592,28.683984406004143,30.789992550832036
1768729193232,162,34,36.16983193750764,42.33198738537934,44.351825291912135
1768729193236,177,49,48.559787078857646,57.50924834517414,56.71847593178137
1768729193240,184,56,54.74336978723412,64.33644058321573,62.891808865452006
1768729193244,180,52,51.31900596608147,60.53642772427365,59.48196622213408
1768729193248,167,39,38.57655492973041,47.48913582411001,46.7795179538947
1768729193252,147,19,20.563717775447607,27.55158558930473,28.820360086626735
1768729193256,129,1,3.036988366615484,9.4470096351993,11.34109807034972
1768729193260,118,-10,-9.375245189672658,-1.426813521992317,-1.0474634594612242
1768729193264,113,-15,-15.043737873739504,-6.521473586252654,-6.7206371740262165
1768729193268,113,-15,-15.307747815452377,-6.307621748189626,-7.005884448259051
1768729193272,116,-12,-12.946702871823096,-3.599093671673871,-4.6617659721461315
1768729193276,117,-11,-10.398017016924376,-2.3410628807066267,-2.1089436884000117
1768729193280,118,-10,-8.809254916889891,-1.5512316144538651,-0.49253144688074
1768729193284,119,-9,-8.171657329157945,-0.2806319584520809,0.1838794570080226
1768729193288,120,-8,-8.008937783512373,0.5569606493189854,0.3790345892585245
1768729193292,120,-8,-7.941862012447926,0.6310298469569213,0.4621566005729187
1768729193296,120,-8,-7.840007399108321,0.5115340509889137,0.5669415047444932
1768729193300,120,-8,-7.7041647605384656,0.7024799385673646,0.7039677537818623
1768729193304,120,-8,-7.539625283144248,0.587292975737796,0.8771553259255223
1768729193308,120,-8,-7.334545856467452,0.7891612083911754,1.0991805836664437
1768729193312,121,-7,-7.093817411741819,1.5137586705565438,1.359354521075984
1768729193316,121,-7,-6.8486469425564485,1.6814113740549257,1.6206216529482278
1768729193320,121,-7,-6.634875041141567,1.682232727190125,1.8461972208211055
1768729193324,121,-7,-6.4820128391166065,1.6604605235442458,2.009774583654078
1768729193328,121,-7,-6.418983271008793,1.8947425877851336,2.085323541770019
1768729193332,122,-6,-6.458080961962246,2.4192570878634916,2.060519760535815
1768729193336,121,-7,-6.552824855920798,1.953318958306544,1.9803823797106448
1768729193340,121,-7,-6.588421741558054,1.4306660698569251,1.9590971889368252
1768729193344,121,-7,-6.443858034743222,2.085978675327799,2.1177544078381327
1768729193348,122,-6,-6.0772881372952146,2.541397333320232,2.497724061663299
1768729193352,122,-6,-5.55607181198855,2.85868633159041,3.03102551479516
1768729193356,123,-5,-5.015566238779251,3.663823032475309,3.582901024164318
1768729193360,123,-5,-4.592672292937993,3.729692208190353,4.018082406090532
1768729193364,123,-5,-4.3746269751190106,3.9941990314476454,4.250174588130994
1768729193368,124,-4,-4.36998328361194,4.630786246509985,4.269704686423739
1768729193372,123,-5,-4.505427881997429,3.9587185221946335,4.148500833857877
1768729193376,123,-5,-4.664359211454902,3.5862424350660245,4.002683430924117
1768729193380,123,-5,-4.758332045666535,3.9560386104527594,3.921183076540976
1768729193384,123,-5,-4.777287553158296,3.84417565120149,3.914598326691275
1768729193388,123,-5,-4.772781026168933,3.8819441191497583,3.93170647701362
1768729193392,123,-5,-4.792819936474251,3.841967660333402,3.924767101995228
1768729193396,123,-5,-4.829156107805736,3.736065310738814,3.902024236641059
1768729193400,123,-5,-4.818654732479115,3.9690626771833,3.926201532592948
1768729193404,123,-5,-4.693912803160196,3.8651466141977417,4.064276020429062
1768729193408,123,-5,-4.443510076369014,4.02086196988489,4.327576546382799
1768729193412,124,-4,-4.133546790609938,4.768302262913048,4.650115514557647
1768729193416,124,-4,-3.8689630829342856,4.918939581781783,4.9271280878388275
1768729193420,124,-4,-3.7248396621181934,4.871056784657169,5.083840630868798
1768729193424,124,-4,-3.705123010703803,5.061835971555199,5.116591679271327
1768729193428,124,-4,-3.756758530004257,4.934777164232243,5.078374300573143
1768729193432,124,-4,-3.816489336037048,4.932696301088704,5.032088598051487
1768729193436,124,-4,-3.8480131028034967,4.8866642217186245,5.013755311314084
1768729193440,124,-4,-3.845568365825465,4.937519575507917,5.029111348096737
1768729193444,124,-4,-3.811728400141068,5.169857524947819,5.075704190655429
1768729193448,124,-4,-3.73771619203814,4.844061157498174,5.162387905673734
1768729193452,124,-4,-3.607670710881833,5.20108130079832,5.3049912394031455
1768729193456,125,-3,-3.4208147200151924,5.645824249572087,5.504353432136631
1768729193460,124,-4,-3.2073504751968547,5.3124728531729435,5.730612548079543
1768729193464,125,-3,-3.019842276257976,5.874960278833532,5.931460971070516
1768729193468,125,-3,-2.9006740096145744,6.238267873658953,6.06417467481858
1768729193472,125,-3,-2.849207631936324,5.917054767935655,6.128714253766776
1768729193476,125,-3,-2.8238559473407214,5.996361510793068,6.166422544218818
1768729193480,125,-3,-2.7873361556413103,6.0856425162040795,6.21500880631204
1768729193484,125,-3,-2.7544357382729094,6.161294274375569,6.260319537669
1768729193488,125,-3,-2.7901173088562485,6.091191462176898,6.237667088952649
1768729193492,125,-3,-2.951125386169224,6.126656499561672,6.090042230002567
1768729193496,125,-3,-3.2219145270097993,5.9055793692650225,5.832544479514061
1768729193500,124,-4,-3.5103936256416346,5.237567250098143,5.557112636309512
1768729193504,124,-4,-3.7195896014297576,5.133061660223928,5.360774093617733
1768729193508,124,-4,-3.8352981113789584,5.1868781504772326,5.257571483696199
1768729193512,124,-4,-3.9459750645699385,5.171019806263374,5.158824155045304
1768729193516,124,-4,-4.172963837754379,4.904421475853431,4.943534263675137
1768729193520,123,-5,-4.572004877815969,4.375680755410798,4.556879461609482
1768729193524,123,-5,-5.086039655813853,4.037306643111101,4.056516932206141
1768729193528,122,-6,-5.578706762352898,3.4165409681970234,3.5783327317665528
1768729193532,122,-6,-5.9156858700235,3.023547514811959,3.2553233328493416
1768729193536,122,-6,-6.034430062920375,3.1415135484079517,3.1489108126630265
1768729193540,122,-6,-5.9610885858352445,3.2522304845820065,3.233097787019462
1768729193544,122,-6,-5.775974423625312,3.2077210248359513,3.4290546256912036
1768729193548,122,-6,-5.557253817079353,3.392688166178212,3.660087953270648
1768729193552,123,-5,-5.330017934608547,4.094440844636831,3.901193409695295
1768729193556,123,-5,-5.041566234653556,4.20159973429491,4.20400495572035
1768729193560,123,-5,-4.586187686134625,4.253733484901073,4.6732623641127535
1768729193564,124,-4,-3.8802169494635086,5.3070381573246355,5.392249127466762
1768729193568,125,-3,-2.939033830555123,6.388342066135064,6.345470814110613
1768729193572,126,-2,-1.8938554160798171,7.186800690705915,7.401806416043348
1768729193576,127,-1,-0.9329485783236372,8.217234418504955,8.373545196779823
1768729193580,128,0,-0.2073848329044318,9.305571818450176,9.110601271118624
1768729193584,128,0,0.2398626368618392,9.355781010884748,9.57094777317201
1768729193588,128,0,0.482944550372224,9.411260069994,9.82881774508638
1768729193592,129,1,0.6650809001634399,10.284060502880624,10.026132250059186
1768729193596,129,1,0.9289300663378868,10.191424085972749,10.303696630420596
1768729193600,129,1,1.3529425612032786,10.434637925955474,10.739222387472829
1768729193604,130,2,1.9061336564907827,11.310245510266416,11.302674835307393
1768729193608,130,2,2.4439569431991046,11.533272958226652,11.851070476841429
1768729193612,131,3,2.7700701923359903,12.280612126639571,12.188989938114178
1768729193616,131,3,2.7464244626625485,12.260514645270092,12.178428781866554
1768729193620,130,2,2.382413026174795,11.476520562021411,11.828336483460006
1768729193624,130,2,1.8363323065987447,11.321812516278555,11.296318588962002
1768729193628,129,1,1.3259092959925782,10.63887598030898,10.799334028376894
1768729193632,129,1,1.0102173789554505,10.240165404386849,10.496022094053451
1768729193636,129,1,0.9193364068624936,10.431509724848848,10.416665864134146
1768729193640,129,1,0.9695243911816304,10.367634543915688,10.478150417692746
1768729193644,129,1,1.042376529861446,10.516807956051991,10.562633996834917
1768729193648,129,1,1.0657838377338988,10.541361845203609,10.598228064557826
1768729193652,129,1,1.0412363020748168,10.400462090620607,10.58636272093788
1768729193656,129,1,1.010073856958353,10.405051783746837,10.56819826152988
1768729193660,129,1,1.0003282226348849,10.440917501656212,10.571504861127805
1768729193664,129,1,1.0045857068808828,10.553068764290916,10.588539004543572
1768729193668,129,1,1.0017515027590014,10.572583246482347,10.597968883799846
1768729193672,129,1,0.9896087784624776,10.469265999903596,10.597607935590428
1768729193676,129,1,0.9878595915292758,10.428408889880696,10.607400970717746
1768729193680,129,1,1.0088253021129912,10.497055406931802,10.639935796188164
1768729193684,129,1,1.032171116920479,10.581431093041184,10.675128879692128
1768729193688,129,1,1.0176973433499494,10.623281507199597,10.673058886892289
1768729193692,129,1,0.9503564407935814,10.521472133000174,10.618776178243984
1768729193696,129,1,0.8761508854545468,10.44990040637302,10.557868326021964
1768729193700,129,1,0.888883474802475,10.57953620798051,10.583350132053743
1768729193704,129,1,1.063656065733997,10.548634663373695,10.769813319043324
1768729193708,129,1,1.379656637183494,10.775529656371246,11.096577244065934
1768729193712,130,2,1.6994659032038617,11.427384258081606,11.426744777436427
1768729193716,130,2,1.841858465018919,11.667134604280951,11.579809877048127
1768729193720,130,2,1.7063461818374717,11.409276555830854,11.456216603060708
1768729193724,129,1,1.3527778847994405,10.823047043824545,11.116337817894587
1768729193728,129,1,0.9734288432840048,10.559175246890067,10.75151967628205
1768729193732,129,1,0.7823999682150404,10.74787033239107,10.57378878847619
1768729193736,129,1,0.8961364319828082,10.444052482871138,10.698365113320373
1768729193740,129,1,1.266711643567476,10.693795701442248,11.078223593536045
1768729193744,130,2,1.7013323757693086,11.654523697350385,11.522499062910212
1768729193748,130,2,1.9685581439538864,11.749409667257362,11.800818701548977
1768729193752,130,2,1.936351364463162,11.705964543433064,11.780895088042127
1768729193756,130,2,1.647130119473074,11.52178513692906,11.504432475588368
1768729193760,129,1,1.2720234294801425,10.73835564974215,11.14204248026564
1768729193764,129,1,0.98363499544111,10.649097410414097,10.865909481056992
1768729193768,129,1,0.852476191283618,10.859809430221988,10.746131951793089
1768729193772,129,1,0.840842066021932,10.67528888121394,10.745045991223336
1768729193776,129,1,0.8732430121929752,10.64816710210489,10.787866764650252
1768729193780,129,1,0.9043310455730578,10.694118445317429,10.829883391400934
1768729193784,129,1,0.9318760552983664,10.743376257757625,10.868704112368183
1768729193788,129,1,0.963944552428865,10.862430917840827,10.91189546414932
1768729193792,129,1,0.9815675411248996,10.757356311482214,10.940576308483712
1768729193796,129,1,0.9329969004484896,10.651473227151577,10.903466043500032
1768729193800,129,1,0.7718544496115224,10.789587222898612,10.7539965472767
1768729193804,129,1,0.5138625144129682,10.66802148932694,10.5070861140663
1768729193808,128,0,0.2530803431996554,10.074288911469196,10.256667654126256
1768729193812,128,0,0.0992888870431354,9.577894599106044,10.11340000855158
1768729193816,128,0,0.0828427091227926,9.974228902652248,10.108104514328062
1768729193820,129,1,0.1274475031107216,10.501155176480475,10.163725177616126
1768729193824,128,0,0.1259847356908244,10.043705638310172,10.17239738503352
1768729193828,128,0,0.0386397328595172,9.780506391179207,10.094823577727318
1768729193832,128,0,-0.0856090513235315,9.934940509699366,9.981032745322864
1768729193836,128,0,-0.1701668945007304,9.738006755782836,9.907779922842376
1768729193840,128,0,-0.1815123621843919,9.763269569221642,9.907748220574472
1768729193844,128,0,-0.1468315693786759,9.912218691993964,9.952901277809795
1768729193848,128,0,-0.1168596728714677,9.930801931802954,9.992400583612437
1768729193852,128,0,-0.1178474756933056,9.920405509301862,10.000646518732074
1768729193856,128,0,-0.1371770458615197,9.79193981034024,9.991106988666765
1768729193860,128,0,-0.1489662668054178,9.808641082526446,9.989972719478368
1768729193864,128,0,-0.1457967167009438,9.929101188204164,10.00409373259844
1768729193868,128,0,-0.1414637421961702,9.989826028940875,10.018739038674006
1768729193872,128,0,-0.1473939293231734,9.953097587234856,10.022131017235354
1768729193876,128,0,-0.1564356714176264,9.827797242395077,10.022011236566874
1768729193880,128,0,-0.1547819636316482,9.851250674736496,10.033036606080788
1768729193884,128,0,-0.1441166400646529,9.9553581985174,10.053718029626337
1768729193888,128,0,-0.1423769028351609,10.037206414850523,10.06558548008202
1768729193892,128,0,-0.1601796775708412,9.99834732558994,10.057501197549394
1768729193896,128,0,-0.1829530345687063,9.848978003241324,10.044047918328118
1768729193900,128,0,-0.1833216075706903,9.90548994634812,10.05286250435262
1768729193904,128,0,-0.1520500064300969,9.972022008083176,10.09321042562246
1768729193908,128,0,-0.1143587490884155,10.083275767491363,10.139746795427753
1768729193912,128,0,-0.1146670767879447,10.067081896074347,10.14815988875551
1768729193916,128,0,-0.1827593112866373,9.811863909006068,10.088973445357327
1768729193920,128,0,-0.3066781029192365,10.057840310484988,9.97429539593647
1768729193924,128,0,-0.4315795558706948,9.840058779860302,9.85888651907042
1768729193928,127,-1,-0.4900675621335197,9.32907658505065,9.809904477178067
1768729193932,128,0,-0.4469298592437637,9.88384681993574,9.862048068551037
1768729193936,128,0,-0.3234640528032216,10.076614743791415,9.993452373809596
1768729193940,128,0,-0.1829117969568161,9.862400655759842,10.14104492640934
1768729193944,128,0,-0.0940937304358185,10.091119990203897,10.23710904151912
1768729193948,128,0,-0.0978754079898365,10.169774694442864,10.241794154354846
1768729193952,128,0,-0.1839039513732834,10.099895014910016,10.165362368948308
1768729193956,128,0,-0.2831129657455469,9.960799907047951,10.075878664933985
1768729193960,128,0,-0.2917433260768465,10.01887084301332,10.076163492469751
1768729193964,128,0,-0.1307633195448223,10.023256565215585,10.244967418720954
1768729193968,128,0,0.1903955207126692,10.291054237573388,10.573058562864984
1768729193972,129,1,0.5568794293006402,11.076475074648911,10.945914072502548
1768729193976,129,1,0.8029960626264329,11.043514583675554,11.198338313882088
1768729193980,129,1,0.8071794843189251,11.011706470541826,11.209519238898048
1768729193984,129,1,0.5637983407055116,11.081430500440591,10.974465410171826
1768729193988,128,0,0.1867525754205602,10.313077057156832,10.60699203064341
1768729193992,128,0,-0.1539835490213379,10.115896068922618,10.276005549147373
1768729193996,128,0,-0.3230844617484418,10.109916031291338,10.115232583225955
1768729194000,128,0,-0.2880217219080407,9.970927818234427,10.156169593948814
1768729194004,128,0,-0.1343529906307137,10.229414198971416,10.31378431188869
1768729194008,128,0,-0.0252891311940162,10.193006258672003,10.426843573976598
1768729194012,128,0,-0.1204323089403902,10.337449065654637,10.337894352133336
1768729194016,128,0,-0.4842538390441591,9.954006647860933,9.983253202280263
1768729194020,127,-1,-1.0316829734869146,9.177463933302452,9.446661736764472
1768729194024,127,-1,-1.5547366915745695,9.106183544087386,8.933280571462705
1768729194028,126,-2,-1.83465254565948,8.36085118206195,8.659394679758922
1768729194032,126,-2,-1.783296764717293,8.258685326195303,8.712884373527874
1768729194036,127,-1,-1.515300045823411,9.114134660779849,8.98169961584441
1768729194040,127,-1,-1.2773443882556137,9.057992014657792,9.223483944126452
1768729194044,127,-1,-1.2638451693493111,9.31522917764316,9.247280309573966
1768729194048,127,-1,-1.4542767059922903,9.183012546895576,9.072874748957922
1768729194052,126,-2,-1.612569045543376,8.532954758761457,8.929695068696642
1768729194056,127,-1,-1.470362015317386,8.889223584647135,9.076556530409997
1768729194060,127,-1,-0.9587257652784396,9.369072386706566,9.577923318815516
1768729194064,128,0,-0.2800923275842207,10.048333031631069,10.239275537993224
1768729194068,128,0,0.3140124452519229,10.532333467347357,10.82710322543014
1768729194072,129,1,0.9859779956719548,11.241391032247446,11.51786899752608
1768729194076,132,4,2.7358852036783907,14.23992468286069,13.307323218997183
1768729194080,137,9,7.345462184292797,19.108645776751516,17.955279313564617
1768729194084,144,16,16.50402438489724,26.34399980161831,27.128746984635804
1768729194088,156,28,30.32161240626037,38.361595603523824,40.931724094138886
1768729194092,173,45,46.18624940988301,55.43504847483958,56.76382361368583
1768729194096,189,61,59.12870332815528,71.15129420859142,69.67484589375246
1768729194100,194,66,63.97415618318496,76.22371383290638,74.50682164099493
1768729194104,187,59,58.123069280257894,69.24587687634319,68.66923886069344
1768729194108,171,43,43.11474673222021,53.470551067062885,53.69826848004674
1768729194112,151,23,23.88812061448044,33.29351298368815,34.51693039813522
1768729194116,133,5,6.237663599323046,15.464096585601876,16.898543683649635
1768729194120,122,-6,-5.891660053202859,4.020374940898397,4.774042503104332
1768729194124,117,-11,-11.691854284086244,-0.3494298343387285,-1.0472508721473377
1768729194128,117,-11,-12.884439677355829,-0.9264510310122702,-2.271298257116624
1768729194132,116,-12,-12.007996852599977,-1.284374081016484,-1.4161272921661483
1768729194136,117,-11,-10.909862428734,-0.9408998314633612,-0.3158485059131317
1768729194140,117,-11,-10.256377651384858,-0.4992660174941665,0.3608662934531921
1768729194144,118,-10,-9.93744082166552,0.2721816877162029,0.7083974138857903
1768729194148,119,-9,-9.688951514973756,1.4730417424124642,0.9737436206908736
1768729194152,119,-9,-9.408123392603684,1.3854396381621648,1.2538529865255166
1768729194156,119,-9,-9.126251282091006,1.3695781326161267,1.5255791543727586
1768729194160,119,-9,-8.890450396832822,1.360917703290654,1.754931675044495
1768729194164,119,-9,-8.723351566432925,1.394950789005022,1.925615276897502
1768729194168,120,-8,-8.629046151451256,2.5109788888602393,2.029524649643263
1768729194172,120,-8,-8.572988226229384,2.28327049221559,2.093438349905309
1768729194176,119,-9,-8.467272580844956,1.5914235397297265,2.2020235651082354
1768729194180,120,-8,-8.227778856333629,2.1683964640581808,2.4419860101032533
1768729194184,120,-8,-7.865131398193008,2.687942322674986,2.8061887526929423
1768729194188,121,-7,-7.494595246562732,3.272169433599426,3.1798971256477375
1768729194192,121,-7,-7.232822855452486,3.5473539563724623,3.444971865952979
1768729194196,121,-7,-7.087386883031211,3.398780275521845,3.59313588745154
1768729194200,121,-7,-6.958914793561574,3.3837442554803507,3.724434553747088
1768729194204,121,-7,-6.7506705310850625,3.6031429296440134,3.935975769259272
1768729194208,122,-6,-6.466340294417084,4.350203992976057,4.223189848954457
1768729194212,122,-6,-6.200019789348905,4.579143622683892,4.491134022045007
1768729194216,122,-6,-6.044316453739758,4.3549073242290515,4.647901574635739
1768729194220,122,-6,-6.016846197619068,4.525526568935733,4.6774224947535705
1768729194224,122,-6,-6.062794675352861,4.5146586393972825,4.634866304098189
1768729194228,122,-6,-6.108061543159925,4.484732858970458,4.592963733562662
1768729194232,122,-6,-6.1092545013046005,4.521839712474975,4.593651077518585
1768729194236,122,-6,-6.072709483235524,4.420161701287367,4.630711114860958
1768729194240,122,-6,-6.041510576288314,4.548422857070451,4.662527613434577
1768729194244,122,-6,-6.058329462167499,4.543657564969345,4.647608895183232
1768729194248,122,-6,-6.120478123118943,4.500510803153205,4.588395135657329
1768729194252,122,-6,-6.157888082677374,4.585152919295896,4.5537318010402865
1768729194256,122,-6,-6.062894602603886,4.35315023713604,4.650406140401206
1768729194260,122,-6,-5.7647203209249955,4.719380712026328,4.949364622898202
1768729194264,123,-5,-5.294434389416548,5.398547097772447,5.420299829521095
1768729194268,123,-5,-4.7799608496000925,5.723831371019127,5.935766402729215
1768729194272,124,-4,-4.364655179427554,6.401812100916686,6.35225312826831
1768729194276,124,-4,-4.111395722923332,6.571333956988704,6.6065585800427975
1768729194280,124,-4,-3.9723551196213296,6.55902286375912,6.746689533128052
1768729194284,124,-4,-3.8504998037339617,6.613979136489227,6.8701630369408715
1768729194288,124,-4,-3.693426375109396,6.567833642942068,7.029129255425495
1768729194292,125,-3,-3.5262411327521006,7.596832174602846,7.197331476234105
1768729194296,125,-3,-3.3967279052802657,7.440063623635931,7.326496441893888
1768729194300,124,-4,-3.3060461242209263,6.699880397748953,7.416728260474807
1768729194304,125,-3,-3.205882085401024,7.586621928032052,7.517895738114378
1768729194308,125,-3,-3.051114958918684,7.5770116403631,7.674811720057225
1768729194312,125,-3,-2.837011735340461,7.702178240873929,7.890345882081864
1768729194316,126,-2,-2.5909770552302787,8.325111687372683,8.136008015338671
1768729194320,125,-3,-2.350082767252798,7.907895602742288,8.375647404410339
1768729194324,126,-2,-2.153241389196128,8.38995789082014,8.572052351798968
1768729194328,126,-2,-2.03598896810336,8.850935234536255,8.69026981514228
1768729194332,126,-2,-2.0077762752209627,8.460573242771765,8.719937233592832
1768729194336,126,-2,-2.026773135500167,8.606306730045644,8.701637286421352
1768729194340,126,-2,-2.008452828779471,8.709932795435975,8.719542343421454
1768729194344,126,-2,-1.8772326023692203,8.565196087412236,8.850004456170462
1768729194348,126,-2,-1.624853747117427,8.810956786894199,9.102272012892556
1768729194352,127,-1,-1.3220887242901576,9.46110276123525,9.40561198462988
1768729194356,127,-1,-1.0656281939928378,9.724840024107207,9.662356518629185
1768729194360,127,-1,-0.9067616715546,9.58906560985144,9.820416383115482
1768729194364,127,-1,-0.8328079544151654,9.73935346017886,9.892831696005436
1768729194368,127,-1,-0.8168531742626957,9.701735194092707,9.907653905261824
1768729194372,127,-1,-0.8735020248639229,9.56698838246374,9.850949594338111
1768729194376,127,-1,-1.047758123448213,9.737573026194488,9.677220585038931
1768729194380,127,-1,-1.337749532130846,9.541632862946528,9.387372189526978
1768729194384,126,-2,-1.636321344890978,8.90099410871987,9.08836530743126
1768729194388,126,-2,-1.7749552533687618,8.518582094849464,8.949299711140963
1768729194392,126,-2,-1.650151774682901,8.83519012013842,9.073717560766308
1768729194396,127,-1,-1.3158367740337793,9.502783153390345,9.406759904018651
1768729194400,127,-1,-0.952737806284613,9.812080515542682,9.767260917967814
1768729194404,127,-1,-0.7461836431675097,9.710501521195884,9.971127751302012
1768729194408,127,-1,-0.775927365509957,9.672960309943354,9.94031816755904
1768729194412,127,-1,-0.9838457271805024,9.806859808257958,9.733109497711467
1768729194416,127,-1,-1.2149120336227597,9.472308892125406,9.503065338449456
1768729194420,126,-2,-1.298414102389835,9.00680890957215,9.419466947168134
1768729194424,127,-1,-1.1317840143021325,9.445978822064877,9.584483074626874
1768729194428,127,-1,-0.7228530603226868,10.066878814239628,9.990701210717322
1768729194432,128,0,-0.1658690532123437,10.371488856925993,10.54479327859205
1768729194436,128,0,0.4235685337580341,11.002954621327302,11.132261153819544
1768729194440,129,1,0.964157152428635,11.512380100154797,11.67221541951459
1768729194444,129,1,1.428938682268969,11.944190156237074,12.13678815415948
1768729194448,130,2,1.8352084176358137,12.662425129209042,12.541896292066706
1768729194452,130,2,2.2149934800496425,12.722362342498972,12.919358090802682
1768729194456,130,2,2.577035131222917,12.799172105004311,13.279096318057809
1768729194460,131,3,2.8878348229178337,13.662939955751211,13.588573590817028
1768729194464,131,3,3.0992887436866066,13.911348415566088,13.799235629636176
1768729194468,131,3,3.202617743137656,13.65969156621804,13.901187050253828
1768729194472,131,3,3.2450208060679704,13.798076441131611,13.941209916221544
1768729194476,131,3,3.2787371720591123,13.759382018581176,13.972073725374852
1768729194480,131,3,3.2920829566851775,13.716264437488816,13.982851267433336
1768729194484,131,3,3.2009659288078387,13.948652716202632,13.889816024023116
1768729194488,131,3,2.9218244066150136,13.582158757035009,13.60929328212104
1768729194492,130,2,2.4633786224756156,12.975505924044231,13.149590699043964
1768729194496,130,2,1.949203720369212,12.568463148165652,12.633789307990844
1768729194500,129,1,1.541105340780482,11.968700705205018,12.223403698202546
1768729194504,129,1,1.3212540188638835,11.737354287591156,12.000717560142249
1768729194508,129,1,1.232094126205981,11.79402976595764,11.908541640529258
1768729194512,129,1,1.13033452533341,11.847261862992662,11.80393352362504
1768729194516,129,1,0.913598305336319,11.670261377150172,11.584837738049371
1768729194520,128,0,0.6089232274018058,10.962520018574732,11.278523144603874
1768729194524,128,0,0.3440520537421551,10.718178089984043,11.012418922640652
1768729194528,128,0,0.2308372610946925,10.88064533659075,10.897388799429098
1768729194532,128,0,0.2656776637572938,10.778652733434708,10.929029845339688
1768729194536,128,0,0.3266784696804142,10.769414764390843,10.985776228460043
1768729194540,128,0,0.2633668945274347,10.926682878810528,10.918402651432132
1768729194544,128,0,0.00923330490314,10.728913536469998,10.661519552638628
1768729194548,127,-1,-0.3646132161214716,9.95166652803043,10.28640007085654
1768729194552,127,-1,-0.692267159470512,9.68194552104767,9.95797644882246
1768729194556,127,-1,-0.8171988708260232,9.95333923956571,9.8313078139148
1768729194560,127,-1,-0.6826527216249516,9.740685395855795,9.962422545019738
1768729194564,127,-1,-0.3561553812662216,9.958712791843023,10.284414320269727
1768729194568,128,0,0.0161970913929875,10.747473851184974,10.652385953375486
1768729194572,128,0,0.2947290910599375,10.89448363725612,10.927400021972776
1768729194576,128,0,0.4183335431192144,10.802052166196644,11.048429618339116
1768729194580,128,0,0.4178327768639708,10.891397140962912,11.04595518559312
1768729194584,128,0,0.3701044915978118,10.859595665053254,10.996217126094376
1768729194588,128,0,0.3381715377696787,10.8417126252823,10.961586930853104
1768729194592,128,0,0.3416469851399286,10.854093044143992,10.961489588787629
1768729194596,128,0,0.3657099152155499,10.854770923209829,10.981518173219804
1768729194600,128,0,0.3876107373259639,10.884345808992872,10.999543467640818
1768729194604,128,0,0.3965134134561872,10.873408005458984,11.005068560795545
1768729194608,128,0,0.3962126533232508,10.855134221752737,11.001799183050764
1768729194612,128,0,0.3957042789654199,10.864974497990085,10.998397252011904
1768729194616,128,0,0.3996480244584573,10.876465472903426,10.999207310316446
1768729194620,128,0,0.4067286010921082,10.889553846940686,11.002790140939304
1768729194624,128,0,0.4142452954196308,10.885735528482046,11.006547924694145
1768729194628,128,0,0.4217023382310676,10.86111009169702,11.010219159277169
1768729194632,128,0,0.4295519892508261,10.8834514899952,11.014454249017692
1768729194636,128,0,0.436322831965143,10.891055462574592,11.017817631814165
1768729194640,128,0,0.439272649337926,10.894717746242543,11.017433316045144
1768729194644,128,0,0.4386188933296078,10.90366163018676,11.013305345432386
1768729194648,128,0,0.4400682694317601,10.853488325120006,11.010982110397483
1768729194652,128,0,0.4511861438740643,10.91561531483074,11.01807485773294
1768729194656,128,0,0.4730662672840789,10.895249785407977,11.03598579466361
1768729194660,128,0,0.4940880500125411,10.894455748984935,11.053433576392072
1768729194664,128,0,0.4932000371354386,10.94915656072017,11.049260570208745
1768729194668,128,0,0.4545264303871615,10.7851516935601,11.006919528764058
1768729194672,128,0,0.3831920924426241,11.041174928809443,10.931073808070646
1768729194676,128,0,0.3027210272194864,10.770209873081049,10.845893173195067
1768729194680,127,-1,0.2275668331222261,10.05319382128616,10.767003526868894
1768729194684,128,0,0.1407663683957678,10.802876427701843,10.677436677110425
1768729194688,128,0,0.0144665273960389,10.936778700948734,10.547966699822512
1768729194692,127,-1,-0.1460377754189029,9.921164087083898,10.383060287142854
1768729194696,127,-1,-0.3010413836541193,9.90650126012843,10.223142782382087
1768729194700,127,-1,-0.4314170523826116,9.942787735904004,10.088198924841056
1768729194704,127,-1,-0.5772197597526574,9.90793073239352,9.937970099571018
1768729194708,127,-1,-0.8006907385062487,9.861134129977549,9.709918486094583
1768729194712,126,-2,-1.1098428646832403,9.017523898408976,9.396731697220217
1768729194716,126,-2,-1.422708253731484,8.81418699065459,9.08108244699159
1768729194720,126,-2,-1.6016083471605944,9.077549756685038,8.899827752720093
1768729194724,126,-2,-1.5260977852169335,8.738093571487237,8.971674054509325
1768729194728,126,-2,-1.164333738099654,9.092924634420395,9.327901349663026
1768729194732,127,-1,-0.6128833786720399,9.784028722939713,9.87319546780109
1768729194736,127,-1,-0.073664365215741,10.061748857537982,10.407116277102118
1768729194740,128,0,0.2438677527076674,10.858497095658892,10.720368518003736
1768729194744,128,0,0.2466871071027572,10.925837395064086,10.719227376385223
1768729194748,127,-1,0.0132377387233131,9.96642500852767,10.48197497694245
1768729194752,127,-1,-0.2739246771342144,9.879018407488305,10.191565783387876
1768729194756,127,-1,-0.4607043006921733,10.028036124846968,10.001843994352388
1768729194760,127,-1,-0.5036145503623523,9.855272220721586,9.95516666774907
1768729194764,127,-1,-0.449902644545416,9.977690603037727,10.003541733428452
1768729194768,127,-1,-0.3675832687844613,9.9136841214559,10.079527528997335
1768729194772,127,-1,-0.3028613132668566,9.930700535811749,10.138270862260653
1768729194776,127,-1,-0.2851525980874314,10.019505146207315,10.151279182102884
1768729194780,127,-1,-0.3411301953976459,9.81714682281699,10.09176487816711
1768729194784,127,-1,-0.4790024933320933,10.08587499535984,9.950756197499995
1768729194788,127,-1,-0.6534349621498557,9.771534560287634,9.77293935362999
1768729194792,126,-2,-0.7601433836775906,9.108288178701002,9.6622698282469
1768729194796,127,-1,-0.6875738851913256,9.83717254131415,9.730018553400736
1768729194800,127,-1,-0.3948526386811372,10.001360722612777,10.01705770953073
1768729194804,127,-1,0.0421756572584985,9.925648366545577,10.448347319546848
1768729194808,128,0,0.4539608908680009,10.931186620109123,10.855353431393072
1768729194812,128,0,0.6673093075701162,10.9727798873053,11.0647330707722
1768729194816,128,0,0.6156361331862409,10.935892779108498,11.008637282117936
1768729194820,128,0,0.3885606655821901,10.955809421821206,10.77619729147855
1768729194824,127,-1,0.167321449117759,9.924158754247753,10.550002176049624
1768729194828,127,-1,0.0917754431193014,9.99524200704853,10.47131046077338
1768729194832,128,0,0.1843217010865537,10.87789393232294,10.561575225588117
1768729194836,128,0,0.4027350651134312,11.0456188159251,10.776060205882628
1768729194840,128,0,0.740492941217015,10.862041333451929,11.107407962071084
1768729194844,128,0,1.2310728783922338,10.994369370556385,11.590987864505928
1768729194848,129,1,1.8418368701768617,11.965115953404627,12.196237751107423
1768729194852,130,2,2.400934927731973,12.860507843121418,12.751290118645771
1768729194856,130,2,2.675150770984034,13.123379712161944,13.021684526728416
1768729194860,130,2,2.5408089104501266,12.74130625454708,12.883249903876973
1768729194864,129,1,2.0824115822101072,12.147725810991505,12.420845027284845
1768729194868,129,1,1.526623798001866,11.780320707970418,11.861103720656828
1768729194872,128,0,1.072374387640274,11.050510167794304,11.402295778579656
1768729194876,128,0,0.757801789650465,10.961975643336554,11.082311235240857
1768729194880,128,0,0.4620987096309741,10.886795388230947,10.781060036191548
1768729194884,127,-1,0.0300423860357473,10.028228827489505,10.344141440445709
1768729194888,127,-1,-0.5836055414092152,9.844961324029873,9.72617111481866
1768729194892,126,-2,-1.263568918587663,9.027925409933404,9.041679008829488
1768729194896,125,-3,-1.819218877878728,7.943214418033964,8.48131627207472
1768729194900,125,-3,-2.138644876874998,7.9674165880163565,8.157951823925579
1768729194904,125,-3,-2.277553183540891,7.894141560242446,8.01614145334535
1768729194908,125,-3,-2.3960688410892166,7.999901738323008,7.8941576385428
1768729194912,125,-3,-2.5991563211438766,7.850639699243177,7.684908033850461
1768729194916,124,-4,-2.838028076384497,7.1288627771499815,7.437255996058331
1768729194920,124,-4,-2.971051471155611,6.788916788321152,7.296103426632394
1768729194924,124,-4,-2.91183223379809,7.0468655285426225,7.352053954304962
1768729194928,125,-3,-2.696055609760985,7.856980556752648,7.570801342640419
1768729194932,125,-3,-2.396109103728376,7.969960974909627,7.8761575207158705
1768729194936,125,-3,-1.9982873532814351,8.043407663758579,8.2738703434895
1768729194940,126,-2,-1.4113934367338157,8.831941389816299,8.848058535999574
1768729194944,126,-2,-0.6227791416832247,9.023288189477888,9.612314877792642
1768729194948,127,-1,0.1904202710813124,9.826224519488278,10.401690480663742
1768729194952,128,0,0.8339028585489268,11.049050140189348,11.038566053603317
1768729194956,129,1,1.5759262064382795,11.93180031445094,11.79825537915524
1768729194960,132,4,3.583257490595984,14.95301954165219,13.836123653625766
1768729194964,137,9,8.735858143854614,19.886598635978057,19.00933958063851
1768729194968,144,16,18.50560638577102,26.93307261540867,28.773288960506537
1768729194972,157,29,32.368243133096854,39.98693517122632,42.60481912727357
1768729194976,174,46,46.96326283165533,56.97855009113602,57.15835178814284
1768729194980,186,58,57.06537890264327,68.91278119443369,67.22647576778104
1768729194984,187,59,58.169375785804675,69.87876776241025,68.31719400234023
1768729194988,177,49,49.089959978521286,59.85185026907816,59.250007904614584
1768729194992,159,31,32.7589995567219,42.009217955797915,42.950399704982715
1768729194996,140,12,14.647354797754936,22.91014084615875,24.872230187782748
1768729195000,126,-2,-0.0872053624030559,9.084060605099491,10.153236103793128
1768729195004,119,-9,-8.858285063549578,1.7540850495050917,1.3688920273867955
1768729195008,116,-12,-12.085768684306968,-0.952876417074222,-1.894423415693197
1768729195012,116,-12,-11.971160832328346,-1.2643094954993952,-1.818230186322614
1768729195016,116,-12,-10.784858016782517,-0.8622912635246376,-0.6527547274584915
1768729195020,117,-11,-9.81082139830218,-0.1943657075854545,0.32507624768518
1768729195024,117,-11,-9.305649079943228,0.0645251756339124,0.849403712369833
1768729195028,118,-10,-9.047393980727714,0.7199685973887346,1.1248223347828397
1768729195032,119,-9,-8.831200140476453,2.0437984033151855,1.3433924121128902
1768729195036,119,-9,-8.601714601756969,1.7663249551804645,1.5603285787014345
1768729195040,118,-10,-8.356281333892724,1.1624865452474609,1.788801070571863
1768729195044,119,-9,-8.084047884716668,1.733979097701842,2.0507013518290584
1768729195048,119,-9,-7.808400642821454,2.0306632735336843,2.325126949019209
1768729195052,120,-8,-7.608312981061891,2.722207588220346,2.527188430687503
1768729195056,120,-8,-7.543425788931866,3.024179493135894,2.5908447178331713
1768729195060,119,-9,-7.573099246241248,1.904853435489384,2.556169281063733
1768729195064,119,-9,-7.584677244682218,1.9663339370977724,2.539465953456234
1768729195068,120,-8,-7.500369879869274,2.833982394319742,2.6205667187813564
1768729195072,120,-8,-7.33088010776593,2.8331875376527877,2.78721885572529
1768729195076,120,-8,-7.126476526154382,2.9387914335190084,2.987363551590442
1768729195080,120,-8,-6.910441298883675,2.9125635708683637,3.1985896931022193
1768729195084,120,-8,-6.678765812216248,2.9924243893412923,3.4269342209286364
1768729195088,121,-7,-6.441732895820269,3.765200790230407,3.6621680103549954
1768729195092,121,-7,-6.233243626442007,3.899689675803156,3.868271191447019
1768729195096,121,-7,-6.076569267348873,3.810772033718534,4.020499600973923
1768729195100,121,-7,-5.963623094371148,4.04971492600342,4.128102754848381
1768729195104,121,-7,-5.881364054200643,3.796918265546582,4.206557923420035
1768729195108,121,-7,-5.8434299627742945,3.991778866433953,4.242939441740957
1768729195112,122,-6,-5.867912150856749,4.600068725586193,4.217248601964287
1768729195116,121,-7,-5.916933054484186,4.125153462945987,4.165203970898629
1768729195120,121,-7,-5.885589166660085,3.6587273940402953,4.191864606469596
1768729195124,121,-7,-5.684922019159443,4.209590737957052,4.388150025764496
1768729195128,122,-6,-5.341181084429543,4.530205052399259,4.728976357003112
1768729195132,122,-6,-4.991763698736283,5.042950098036831,5.0761907180592765
1768729195136,123,-5,-4.765110563423663,5.678583196327667,5.300178853108828
1768729195140,122,-6,-4.665409827986261,5.016419505982828,5.39683901133769
1768729195144,122,-6,-4.583595846514042,4.892290567513718,5.476029500640028
1768729195148,123,-5,-4.419670091717083,5.748941165505606,5.637590926369928
1768729195152,123,-5,-4.186987990021086,5.864905487576493,5.867165313229561
1768729195156,123,-5,-4.002615004195481,5.7879506983947895,6.047535805568147
1768729195160,123,-5,-3.986171872247476,5.892621956933955,6.060208048142165
1768729195164,123,-5,-4.155610155577654,5.982776248425605,5.888238179008355
1768729195168,123,-5,-4.393705926410817,5.593927245540053,5.648771632831579
1768729195172,122,-6,-4.509979646722993,5.053716543207569,5.5314692530066
1768729195176,123,-5,-4.359452878793809,5.504111523788738,5.680303341053218
1768729195180,123,-5,-3.931377960655574,6.212249398143628,6.105291108194284
1768729195184,124,-4,-3.3443154362185137,6.5654767785763015,6.68812843368493
1768729195188,124,-4,-2.766241861635943,7.01514884255253,7.262170668724196
1768729195192,125,-3,-2.32874935041953,7.600566390574939,7.697002434322643
1768729195196,125,-3,-2.0829811324289977,7.894029482517344,7.941309896461774
1768729195200,125,-3,-2.003015786597696,7.838533822195049,8.019889919685156
1768729195204,125,-3,-2.0219763342611023,7.829460741661077,7.998873209217679
1768729195208,125,-3,-2.0766909618554763,7.792138089120883,7.941630798143706
1768729195212,125,-3,-2.1314476177335995,7.727640139884337,7.884426033282224
1768729195216,125,-3,-2.1662184826434063,7.783217331323103,7.847481263226618
1768729195220,125,-3,-2.1486195113127273,7.879641366472962,7.863058328272857
1768729195224,125,-3,-2.029635804517837,7.756550123527752,7.980130526676175
1768729195228,125,-3,-1.780827611279024,7.837335985137789,8.22708340051701
1768729195232,126,-2,-1.440874739953958,8.624825941565666,8.564845780414073
1768729195236,126,-2,-1.1203485792945358,8.887255896017248,8.882491388739913
1768729195240,126,-2,-0.953046847794871,8.69001118577251,9.04661926071555
1768729195244,126,-2,-1.0304806291486048,8.94741555732445,8.966660282278198
1768729195248,126,-2,-1.359877695865555,8.56288135951527,8.635865539444453
1768729195252,125,-3,-1.8609897120335557,7.888277260995989,8.134037205970166
1768729195256,125,-3,-2.3990137698414418,7.580455916647418,7.595135840225326
1768729195260,124,-4,-2.8402988680261583,6.947307784037134,7.152297886744712
1768729195264,124,-4,-3.106098311406119,6.664188075706869,6.884280760302345
1768729195268,124,-4,-3.196758134428209,6.775054004331962,6.791014443420991
1768729195272,124,-4,-3.1742758194755556,6.670731865897707,6.810818737992497
1768729195276,124,-4,-3.118028011979156,6.723004589535138,6.864668586010353
1768729195280,124,-4,-3.084325121762822,6.79862544547822,6.896592967572585
1768729195284,124,-4,-3.0911845654654475,6.722726986078639,6.888661414015612
1768729195288,124,-4,-3.127050367254874,6.70179038010269,6.852023831207651
1768729195292,124,-4,-3.1673475566417846,6.6823129351580866,6.810453264422902
1768729195296,124,-4,-3.184854045232136,6.680520218023203,6.790609347576661
1768729195300,124,-4,-3.153388860847582,6.796570975110163,6.819125194089773
1768729195304,124,-4,-3.052988550911932,6.6613056602341,6.917302637730211
1768729195308,124,-4,-2.875292688575458,6.728370194616749,7.094337706867942
1768729195312,125,-3,-2.61529285650944,7.594314335652505,7.354435880403191
1768729195316,125,-3,-2.2519997455133076,7.751344815554837,7.716914249940967
1768729195320,125,-3,-1.7523383130746597,7.6469767040612036,8.214087667129577
1768729195324,126,-2,-1.1181231200158328,8.787871152282367,8.844880799383807
1768729195328,127,-1,-0.4333318913581281,9.516139180724227,9.526672779161457
1768729195332,127,-1,0.1551013112973271,9.782045331129474,10.113435895690172
1768729195336,128,0,0.5317513620264522,10.51969892739246,10.489642908089618
1768729195340,128,0,0.7133626101295865,10.811474252553053,10.67111800858462
1768729195344,128,0,0.8636902470862207,10.586745169673808,10.820776334431956
1768729195348,128,0,1.1871175122342903,10.624975800685949,11.142860148307363
1768729195352,129,1,1.770805081672652,11.667565660830912,11.724741261547535
1768729195356,130,2,2.5052865792546637,12.557453581653313,12.457012020526877
1768729195360,130,2,3.1531463060988245,12.75292033503112,13.102232903463776
1768729195364,131,3,3.5084014108804884,13.558790263501743,13.454629604246112
1768729195368,131,3,3.5194346877500946,13.5958554827077,13.46326949699486
1768729195372,130,2,3.287288625765447,12.644928724576294,13.230169886402894
1768729195376,130,2,2.959081864795011,12.52469649143246,12.902601138573935
1768729195380,130,2,2.62647650746776,12.759879356847462,12.57064907885762
1768729195384,130,2,2.31880130998203,12.452441299238712,12.261599049071428
1768729195388,129,1,2.0605167344991173,11.680721688382096,11.99979082565694
1768729195392,129,1,1.8915619963777532,11.462792631808403,11.827174372717389
1768729195396,129,1,1.8193197496094695,11.688895399318572,11.752891858809011
1768729195400,129,1,1.7771213326350852,11.519935883130348,11.709981728523095
1768729195404,129,1,1.6613200213974897,11.6381901503871,11.593290653360627
1768729195408,129,1,1.4208884803056063,11.438217841434124,11.35109751060502
1768729195412,128,0,1.107475639590826,10.62112069643147,11.035794440475206
1768729195416,128,0,0.8338408045745732,10.499376612141967,10.760970550401348
1768729195420,128,0,0.6841112193771843,10.626226574115377,10.610323410114493
1768729195424,128,0,0.6611609684405504,10.496000059876962,10.585588684316026
1768729195428,128,0,0.7055512655305011,10.498082942838598,10.62709851818457
1768729195432,128,0,0.7496991667387416,10.511635385247184,10.668355826376828
1768729195436,128,0,0.7573694344874651,10.52689604219692,10.67426225443979
1768729195440,128,0,0.7314140843991873,10.55437738789121,10.647613283707036
1768729195444,128,0,0.6993267347958684,10.492855813917258,10.614780687651187
1768729195448,128,0,0.689635553207284,10.446834394634752,10.603231474828853
1768729195452,128,0,0.7095766419039928,10.486523246635228,10.620127654847554
1768729195456,128,0,0.7362143846698008,10.490147694138685,10.643465387480036
1768729195460,128,0,0.7311316328610425,10.520443989119496,10.63598310972536
1768729195464,128,0,0.6751672943758286,10.476874662770957,10.57892844318128
1768729195468,128,0,0.6008523357240331,10.376207091919222,10.504111026208918
1768729195472,128,0,0.5917528811427062,10.505780300371123,10.493864525425032
1768729195476,128,0,0.7330657605969535,10.382276617281036,10.632723621948164
1768729195480,128,0,1.0366592366182217,10.573731096648094,10.932902352286364
1768729195484,129,1,1.4001123228727177,11.36039218169014,11.292812669591386
1768729195488,129,1,1.6490964165595208,11.410687420722269,11.538761802892548
1768729195492,129,1,1.64666181984012,11.415057948727318,11.534040596099736
1768729195496,129,1,1.3889884218420805,11.375666015401457,11.274795032180826
1768729195500,128,0,1.0103473310203723,10.532449705510263,10.89502650756673
1768729195504,128,0,0.6913698884407848,10.307136876256454,10.574743823952076
1768729195508,128,0,0.5429453373183191,10.424118526388906,10.423986104781356
1768729195512,128,0,0.5536134642414654,10.298938716353153,10.43091784908769
1768729195516,128,0,0.6279032010514248,10.440253520798269,10.500817698719493
1768729195520,128,0,0.6693346871736172,10.38548078776253,10.53863312865322
1768729195524,128,0,0.6422221940244109,10.36515879810204,10.50943027509378
1768729195528,128,0,0.5802793568579652,10.326866392015802,10.446213027563369
1768729195532,128,0,0.5510786416908499,10.266235324626104,10.415122362885324
1768729195536,128,0,0.604023157820948,10.461517077515762,10.46488281109536
1768729195540,128,0,0.7305092780987769,10.224035314122215,10.58746220706239
1768729195544,128,0,0.8615844164957139,10.50314729399737,10.71476814513406
1768729195548,129,1,0.9132175235558546,11.07281353334597,10.762992868082913
1768729195552,128,0,0.8507840501531947,10.463042471937026,10.697396513784494
1768729195556,128,0,0.7155005514812828,10.179046253895883,10.559276353926634
1768729195560,128,0,0.5869166529602833,10.420561272822864,10.428110792978972
1768729195564,128,0,0.5210053205873657,10.239226061425226,10.359288593778311
1768729195568,128,0,0.5205309589645486,10.235045461536092,10.355066795685085
1768729195572,128,0,0.5507271915717002,10.25997124537776,10.38092803749899
1768729195576,128,0,0.57331755860222,10.253557327199973,10.399319277859648
1768729195580,128,0,0.5708552494920454,10.306529850913073,10.393208023038406
1768729195584,128,0,0.5507180705936641,10.226389480433305,10.369781289729223
1768729195588,128,0,0.5320849290680016,10.200161744345094,10.347740727047537
1768729195592,128,0,0.5276572971489404,10.19711786882006,10.339438534532407
1768729195596,128,0,0.5341894703772286,10.234681921972252,10.34160577794898
1768729195600,128,0,0.5381782109612782,10.242011463075608,10.341049955512602
1768729195604,128,0,0.5296946544753143,10.19196601075411,10.328300757680564
1768729195608,128,0,0.5112555763461528,10.166812573084814,10.306073790624009
1768729195612,128,0,0.4955410419980118,10.13435619632178,10.286657195027498
1768729195616,128,0,0.4959952648206412,10.214833272553967,10.282761774983785
1768729195620,128,0,0.5164329532997536,10.174419643262896,10.297932144266465
1768729195624,128,0,0.5426832905279892,10.153131176989708,10.318673771547598
1768729195628,128,0,0.5417942179981564,10.151788338690473,10.313015552314791
1768729195632,128,0,0.4792748785349973,10.01931652960841,10.246551755203852
1768729195636,128,0,0.3537212620708269,10.286597111590094,10.116902017467917
1768729195640,128,0,0.2191617722496615,9.963053041063564,9.977322218768528
1768729195644,127,-1,0.1574716358787157,9.309293257659302,9.910049803435344
1768729195648,128,0,0.2105224799573478,9.881741730633498,9.95770662483872
1768729195652,128,0,0.3389065829174398,10.212264553248229,10.080935709040464
1768729195656,128,0,0.4558207270317332,10.000371567043246,10.19254071071049
1768729195660,128,0,0.5020520810572091,10.146134702819692,10.233288285132362
1768729195664,128,0,0.4864198108297779,10.049656252183455,10.212252459692534
1768729195668,128,0,0.4600246179374905,10.007227580810511,10.180451476063718
1768729195672,128,0,0.458612236412798,10.045290288218563,10.173228807841523
1768729195676,128,0,0.4690780618250518,10.020453591960488,10.177323275181507
1768729195680,128,0,0.4492210635537357,10.083810065352566,10.150883390735729
1768729195684,128,0,0.3844802066407254,9.967632151001048,10.079920797988851
1768729195688,128,0,0.3332442343832223,10.012488071082748,10.023227552617511
1768729195692,128,0,0.4155543590585309,9.943199057409238,10.100786857407408
1768729195696,128,0,0.742004249226219,10.00904382138914,10.422393954366832
1768729195700,129,1,1.3319644016187573,11.036473851646802,11.00607014436514
1768729195704,130,2,2.082312437558244,11.85922171599528,11.748000946454692
1768729195708,130,2,2.803749841678474,12.080070891282174,12.46002135360828
1768729195712,131,3,3.2946339487659992,12.711860521867791,12.942722403663408
1768729195716,131,3,3.4194024253014055,13.199377646473613,13.061711177513953
1768729195720,131,3,3.169678244367243,12.6922310228626,12.807660529256246
1768729195724,130,2,2.6756523924879647,12.128261213978911,12.308754166098256
1768729195728,130,2,2.1394684759628637,11.707276824960784,11.76576739300314
1768729195732,129,1,1.7147874099521818,10.951171249826029,11.33242514555146
1768729195736,129,1,1.4131663177498828,10.915164949179555,11.021470861130194
1768729195740,129,1,1.1119360643712937,10.805245857168645,10.711629794149845
1768729195744,128,0,0.664031492731793,9.979827712470108,10.256449324263478
1768729195748,128,0,0.0285857736429138,9.683651352826327,9.61443782771571
1768729195752,127,-1,-0.6791093876154668,8.913156023327966,8.899676635587431
1768729195756,126,-2,-1.2616564354687148,7.81556385859284,8.3091041458292
1768729195760,126,-2,-1.5847763138560076,7.811687727961815,7.9777941523153135
1768729195764,126,-2,-1.6767594996622923,7.880004687850813,7.878399213895241
1768729195768,126,-2,-1.6954561217000184,7.645063600640402,7.852601414284237
1768729195772,126,-2,-1.7889174239030732,7.87573121854506,7.750419263870117
1768729195776,126,-2,-1.973322786254906,7.712723156946353,7.55444014676557
1768729195780,125,-3,-2.140205638252033,6.809725393539949,7.374973566074809
1768729195784,125,-3,-2.1816170126004515,6.787423987112482,7.324264062538905
1768729195788,126,-2,-2.095268486616833,7.5920720290685075,7.407423329905283
1768729195792,126,-2,-1.9485100350104432,7.863141843782829,7.5548191581114015
1768729195796,126,-2,-1.7485346614861748,7.573794840826322,7.751999775811795
1768729195800,126,-2,-1.3924795742525928,7.861304861861852,8.094129531996366
1768729195804,127,-1,-0.7860274987867315,8.599489014774814,8.674368494917358
1768729195808,127,-1,-0.0016144154542713,8.666237367236244,9.429936652950078
1768729195812,128,0,0.7731403050178053,9.684183300637114,10.18901979521148
1768729195816,130,2,1.6160673878845555,11.650826749425176,11.038568076744102
1768729195820,132,4,3.349453594296375,13.63804376302851,12.793445119941884
1768729195824,136,8,7.572841741774784,17.747164399172853,17.033264888697236
1768729195828,143,15,15.81759980446277,24.339597059331496,25.27218559253214
1768729195832,153,25,28.07699772104476,34.98013962382338,37.50104099502898
1768729195836,169,41,41.765174630604136,50.177150451489595,51.145474558806995
1768729195840,181,53,52.23356008495686,63.06574540898202,61.57331635035935
1768729195844,185,57,54.95441669685841,66.12682566338381,64.27055080107553
1768729195848,176,48,48.0878462065813,57.805608399903875,57.404094349182465
1768729195852,161,33,33.65727745725761,42.33933916276359,42.99368921709572
1768729195856,143,15,16.495069785518208,24.61559511122475,25.85690072922147
1768729195860,128,0,1.6989584266150397,9.648302561902604,11.072370163725155
1768729195864,120,-8,-7.719438175943111,1.4174687560452135,1.6398104934362046
1768729195868,117,-11,-11.63915314305729,-1.4400699843578175,-2.3169031861278757
1768729195872,117,-11,-11.93403853059993,-1.6639748037570996,-2.65565455633776
1768729195876,117,-11,-10.834608191329428,-1.4809952071456909,-1.587789090208675
1768729195880,117,-11,-9.74570398033301,-1.4593143474468755,-0.507791846999675
1768729195884,118,-10,-9.06213340785468,-0.5563400502054598,0.1845298779942883
1768729195888,119,-9,-8.658674987117552,0.4347084480069192,0.5981506582967064
1768729195892,120,-8,-8.387295761270124,1.2890322486338803,0.8661785842359038
1768729195896,120,-8,-8.219342218290826,1.448563374592716,1.0148497108382948
1768729195900,119,-9,-8.14809999000245,0.4308125825478566,1.0610780017571564
1768729195904,119,-9,-8.121327141672968,0.474457290155188,1.0691794248937685
1768729195908,120,-8,-8.080901328987226,1.2884448266692932,1.1004685953618765
1768729195912,120,-8,-7.999175500079924,1.2875597023958711,1.1763744665488964
1768729195916,120,-8,-7.847514011110352,1.3225511409328128,1.3182908013291126
1768729195920,120,-8,-7.571853985171076,1.3863212911526794,1.5791544444026808
1768729195924,120,-8,-7.1491789280503975,1.4210510604468831,1.9860493755222792
1768729195928,121,-7,-6.66535449053417,2.212180487512888,2.456408350633347
1768729195932,122,-6,-6.290402793288961,3.2374476649214925,2.8194924024553476
1768729195936,122,-6,-6.139494169427667,3.2222547919996076,2.957904977350376
1768729195940,121,-7,-6.162922051968427,2.3316316459727524,2.92121220539443
1768729195944,121,-7,-6.194485109983377,2.356286895180884,2.877019606306316
1768729195948,122,-6,-6.107350634086484,3.138064371368521,2.9521096926710806
1768729195952,122,-6,-5.911394268702878,3.1986845487839757,3.1348246177711445
1768729195956,122,-6,-5.712935499241563,3.1041234487028113,3.318043041559047
1768729195960,122,-6,-5.609127092974329,3.307340463057244,3.4061468924436458
1768729195964,122,-6,-5.622620320813152,3.2354939441791526,3.3785473168106943
1768729195968,122,-6,-5.707189477057862,3.118600330079695,3.28172589042496
1768729195972,122,-6,-5.789397863733701,3.1085035428171386,3.1873894381907037
1768729195976,122,-6,-5.8063837430483485,3.028006985644912,3.156531096986191
1768729195980,122,-6,-5.727131671614865,3.2464577852429173,3.2200657771522234
1768729195984,122,-6,-5.5633534965106435,3.145791767435244,3.3679892231051154
1768729195988,122,-6,-5.3680838842103205,3.061072206718313,3.5487770561890866
1768729195992,123,-5,-5.205901002517978,4.058192233034531,3.6974155193094456
1768729195996,123,-5,-5.10036210135573,3.9071851974035745,3.788770132794059
1768729196000,122,-6,-5.009713459503691,3.22199451858555,3.864060881466456
1768729196004,123,-5,-4.87230369588416,4.025027221117288,3.985910145781429
1768729196008,123,-5,-4.682466770948451,4.017062165209204,4.160832073314012
1768729196012,123,-5,-4.509740212898558,4.00461439261386,4.31880398197828
1768729196016,124,-4,-4.431574315702264,4.7728670451465405,4.381341264782941
1768729196020,123,-5,-4.44729228985463,4.246023601493707,4.349207443257885
1768729196024,123,-5,-4.467221070623063,3.781463955088331,4.313465350730471
1768729196028,123,-5,-4.390973413735002,4.17976752689706,4.375269471320932
1768729196032,124,-4,-4.188390081055946,4.645696698046254,4.563510180034376
1768729196036,124,-4,-3.9005860504774112,5.030435236320735,4.835242247968095
1768729196040,124,-4,-3.582737277627758,4.816593754581416,5.135345308314379
1768729196044,124,-4,-3.270330428495124,5.023926647736572,5.430153798440195
1768729196048,125,-3,-2.9935776252263,5.825703190096196,5.690699897758321
1768729196052,125,-3,-2.791591600506453,5.80765379907495,5.877346354381816
1768729196056,125,-3,-2.6920432509184633,5.770916804428596,5.96117534890932
1768729196060,125,-3,-2.6810214042252625,5.890795197547259,5.955461501339254
1768729196064,125,-3,-2.70214007067276,5.774329273799909,5.916871654420001
1768729196068,125,-3,-2.6911057974244534,5.9317777165252545,5.910544161392265
1768729196072,125,-3,-2.6195797290699097,5.547526018571898,5.965467861436077
1768729196076,125,-3,-2.511126223313844,5.883663787921094,6.057660649593058
1768729196080,126,-2,-2.410611895969541,6.645912725227555,6.141012262996188
1768729196084,125,-3,-2.3369557871213376,5.777250005680804,6.196118094978587
1768729196088,125,-3,-2.2762313670756265,5.85150400929993,6.237989684939336
1768729196092,126,-2,-2.2238705829779417,6.388416483759495,6.272560052570728
1768729196096,125,-3,-2.2149464850718954,5.982849562335013,6.2647939436554125
1768729196100,126,-2,-2.2928892448595963,6.304469034257568,6.170097260871399
1768729196104,125,-3,-2.448599493542406,6.0014480270118415,5.996564963633977
1768729196108,125,-3,-2.6058721597932446,5.418172972501711,5.820427460989534
1768729196112,125,-3,-2.681965946676925,5.678736019519294,5.725186688915399
1768729196116,125,-3,-2.669377434198048,5.569698655190186,5.719012708871813
1768729196120,125,-3,-2.656178966188765,5.487070241172974,5.713852724881168
1768729196124,125,-3,-2.7566005268140508,5.731839342564213,5.594938090153084
1768729196128,125,-3,-3.008688970803047,5.411177141196184,5.323816761558134
1768729196132,124,-4,-3.3335080423756813,4.618410455297672,4.979741446070452
1768729196136,124,-4,-3.598307849009231,4.4048789480032955,4.696085309415055
1768729196140,124,-4,-3.724631201584204,4.52570598601167,4.551259885510497
1768729196144,124,-4,-3.737425556712907,4.493329270343686,4.519506179312296
1768729196148,124,-4,-3.715897386488753,4.482248594815218,4.52099921434394
1768729196152,124,-4,-3.705919595850753,4.387276243202409,4.51017354986203
1768729196156,124,-4,-3.6808628318946224,4.463206896644769,4.514623961877758
1768729196160,124,-4,-3.5788753675964173,4.306659465693008,4.596937543263089
1768729196164,124,-4,-3.36842811472084,4.5065976128134375,4.788415436209499
1768729196168,125,-3,-3.0717358073142726,5.331110769278277,5.06581083261904
1768729196172,125,-3,-2.7272570124385833,5.324715979305675,5.389899828510742
1768729196176,125,-3,-2.3430605963566555,5.417349564464544,5.752853481811948
1768729196180,126,-2,-1.8987071705457244,6.106893914746921,6.175824100169679
1768729196184,126,-2,-1.3894265035054612,6.580913015801838,6.663908660704943
1768729196188,127,-1,-0.8574479213718147,7.027608210700828,7.174826791693931
1768729196192,127,-1,-0.3735979362501165,7.497645058324348,7.637750193422121
1768729196196,128,0,0.0171394172227028,8.066827526216258,8.007726892163456
1768729196200,128,0,0.3394094384073398,8.239196060831272,8.309217599796538
1768729196204,128,0,0.678089004362159,8.325963255787196,8.62672612658712
1768729196208,129,1,1.1138470143115469,9.00013790912946,9.04066178867032
1768729196212,129,1,1.650597419510481,9.483317449461506,9.555066182134988
1768729196216,130,2,2.193788529002524,9.776952174413774,10.07575917639558
1768729196220,130,2,2.602390691192358,10.455571332391722,10.461826953225303
1768729196224,131,3,2.781666815162015,10.829601142896648,10.618393605874465
1768729196228,130,2,2.7449946421336247,10.347764995623432,10.559116755569612
1768729196232,130,2,2.5895564963902387,9.976134129350998,10.381832015033837
1768729196236,130,2,2.4093400287695417,10.048644357158686,10.180316938961534
1768729196240,130,2,2.2335333409227234,10.082353970192962,9.982289030458118
1768729196244,130,2,2.042755891786844,9.898117268261114,9.767361749483292
1768729196248,129,1,1.8204748294025104,9.20865042494699,9.520034847267782
1768729196252,129,1,1.57035380494687,8.827728779572698,9.245880422173222
1768729196256,129,1,1.2986719086450598,9.098749258106146,8.951552589286356
1768729196260,129,1,1.0110929459608256,8.778066600055348,8.64136734376335
1768729196264,128,0,0.733495767470661,8.03662196802887,8.340151766250544
1768729196268,128,0,0.5152924644245367,7.882000030038844,8.097616585156992
1768729196272,128,0,0.3970589163749012,7.942391759311009,7.954982860091882
1768729196276,128,0,0.3776475267254922,7.83010121638796,7.911107700613076
1768729196280,128,0,0.4159640389991605,7.813513484853714,7.924605818851575
1768729196284,128,0,0.4608470537459104,7.842823456674768,7.944384779722769
1768729196288,128,0,0.4803206579146223,7.8456230555242605,7.938835207196906
1768729196292,128,0,0.4721094107480112,7.812329596048038,7.905890573466259
1768729196296,128,0,0.4549040277452383,7.745612228987795,7.864078763422204
1768729196300,128,0,0.4499441737140361,7.717346138200075,7.834213421932191
1768729196304,128,0,0.465493676605673,7.728740891851112,7.824141922454642
1768729196308,128,0,0.492780273464499,7.765112344692149,7.825025639530692
1768729196312,128,0,0.5129041279452659,7.696097945269547,7.818425053542868
1768729196316,128,0,0.5085519248039879,7.657892512858645,7.787704100452858
1768729196320,128,0,0.4767978486993245,7.619529218537275,7.730178001728822
1768729196324,128,0,0.4413352818250501,7.599816493127165,7.669091904466819
1768729196328,128,0,0.455016150729189,7.718949435098956,7.656717274490252
1768729196332,128,0,0.5776359162739497,7.514053780585117,7.752757004486121
1768729196336,128,0,0.8313687898935971,7.661523040865405,7.979531296478086
1768729196340,129,1,1.168291816745231,8.400425366741205,8.288925046351842
1768729196344,129,1,1.4852449986371508,8.609649393915015,8.577582791411437
1768729196348,129,1,1.6766009939864197,8.519249487652868,8.740453929364604
1768729196352,129,1,1.6815614372403729,8.481564110902326,8.717699534284044
1768729196356,129,1,1.5023206379661755,8.519023419421146,8.511606980898431
1768729196360,129,1,1.2011088057025994,8.2965551327685,8.183488973156408
1768729196364,128,0,0.8801890445070208,7.5441925452162675,7.834848511098601
1768729196368,128,0,0.639257232652108,7.343509130791069,7.56542224973844
1768729196372,128,0,0.5272706169090899,7.473388911938322,7.424479576450706
1768729196376,128,0,0.5257204136297404,7.300471515068437,7.393643034729636
1768729196380,128,0,0.5756856933241912,7.308131520846653,7.414158005406419
1768729196384,128,0,0.6214766325883071,7.333027529166885,7.430638967869669
1768729196388,128,0,0.6379188042079406,7.316898754008783,7.41801416547495
1768729196392,128,0,0.6311047159311481,7.312474196416236,7.382119758249488
1768729196396,128,0,0.6215288155565488,7.219125737610401,7.343149937096987
1768729196400,128,0,0.6241193624761383,7.199293746245166,7.31598790208944
1768729196404,128,0,0.6381980887789552,7.213496940152496,7.30006311003551
1768729196408,128,0,0.6529878109439552,7.223150774795066,7.284607097882369
1768729196412,128,0,0.6614673973303035,7.18855082665843,7.262506070956579
1768729196416,128,0,0.6674474504219708,7.11931897909195,7.23758482508069
1768729196420,128,0,0.6782986701900935,7.089637787576203,7.217416774306569
1768729196424,128,0,0.6927228208342728,7.09717881066944,7.200923980116565
1768729196428,128,0,0.6998806748630316,7.122988873829922,7.177289205806856
1768729196432,128,0,0.6934710702546886,7.06427706746929,7.1399981669796695
1768729196436,128,0,0.6854205589531744,7.019117940642321,7.100684106890936
1768729196440,128,0,0.7003955431063664,6.976722630626082,7.083862545465918
1768729196444,128,0,0.7498039566567188,6.973268524733959,7.101060033158398
1768729196448,128,0,0.8062642383955235,7.039645022697876,7.1251476053293885
1768729196452,128,0,0.8058517670427285,6.90292397086278,7.092256313794639
1768729196456,128,0,0.6870003492861843,6.971508745572793,6.940637553423004
1768729196460,128,0,0.4412743962813474,6.786090693411995,6.661939546539866
1768729196464,127,-1,0.1314700406895839,5.945554350227875,6.319573914112157
1768729196468,127,-1,-0.1433225907713138,5.826556678176515,6.0129836291508925
1768729196472,127,-1,-0.3039999237412906,5.9043668639326565,5.820459299463167
1768729196476,127,-1,-0.3209863820856899,5.7151187364196785,5.770243641456357
1768729196480,127,-1,-0.2105131097954749,5.852577846464694,5.845882194057388
