timestamp_ms,ecg_u8_raw,ecg_counts_raw_int,ecg_counts_filt_monitor,ecg_counts_filt_diagnostic,ecg_counts_filt_st
1769159157208,133,5,4.663578824815518,5.538398605067883,5.311800781883378
1769159157212,132,4,4.154262307492354,4.738799963910856,4.838285391968837
1769159157216,132,4,3.625130871533272,4.470249541144333,4.344465755517223
1769159157220,131,3,3.171259772668719,3.81450794515284,3.9255363848008864
1769159157224,131,3,2.8713997353278025,3.5289683599798973,3.6605848396135183
1769159157228,131,3,2.7395473080138766,3.7158404126158286,3.5635987117779475
1769159157232,131,3,2.722306014771526,3.575251757275754,3.580991048044426
1769159157236,131,3,2.740684915304356,3.6363112034547584,3.63387970481571
1769159157240,131,3,2.738303042919184,3.681164042596097,3.666275133826213
1769159157244,131,3,2.70171746855384,3.635782366206377,3.664939863370188
1769159157248,131,3,2.648378225999896,3.6588259938857224,3.64710767135712
1769159157252,131,3,2.6006245215336388,3.609714138165917,3.6347201728344265
1769159157256,131,3,2.567015111630051,3.642468637863707,3.636099054852692
1769159157260,131,3,2.5410536245983173,3.670571954224655,3.6447769776794225
1769159157264,131,3,2.512514230567152,3.6582354882902512,3.650719196187292
1769159157268,131,3,2.4781126734369012,3.6510417248608817,3.6508435971866726
1769159157272,131,3,2.442029204625398,3.6236210148185632,3.649426732484755
1769159157276,131,3,2.4085395954749806,3.6488512613938977,3.65068997070786
1769159157280,131,3,2.3766401723299215,3.670564187575951,3.653489709879456
1769159157284,131,3,2.342516774659934,3.6676375076649905,3.653911703061931
1769159157288,131,3,2.305685737153816,3.654411571783947,3.651452939692779
1769159157292,131,3,2.2706374750502696,3.630265159927233,3.650573976661379
1769159157296,131,3,2.2417692855340445,3.6578973693864865,3.655576822853711
1769159157300,131,3,2.217354168593145,3.6717104541396655,3.6647211408515976
1769159157304,131,3,2.1892529173516437,3.67326469678169,3.6701337566815537
1769159157308,131,3,2.1494000106691655,3.664325073084302,3.664171495351606
1769159157312,131,3,2.098569070061503,3.628057427944161,3.647687787679565
1769159157316,131,3,2.0509535206402583,3.676014530712475,3.6342765786431617
1769159157320,131,3,2.028226359915811,3.666793598902866,3.644745687939275
1769159157324,131,3,2.0401693117887447,3.677201771655609,3.6886712531099
1769159157328,131,3,2.0605050898777177,3.690754893207497,3.740605058771225
1769159157332,131,3,2.02201052826234,3.58789412003502,3.734391153591929
1769159157336,131,3,1.8531303673270092,3.757991154215001,3.59867570233585
1769159157340,131,3,1.542469584677224,3.5696215247670944,3.3213575400697963
1769159157344,130,2,1.173839451455232,2.801572772436646,2.9855450653394757
1769159157348,130,2,0.8826545550034504,2.5700219113149965,2.7264541918391276
1769159157352,130,2,0.7566559732426206,2.7133906345095538,2.631837690349622
1769159157356,130,2,0.7648197702815962,2.6680224968492103,2.6706785270863467
1769159157360,130,2,0.777145275532152,2.6423364961265157,2.71314456564927
1769159157364,130,2,0.6604203711927883,2.7810003417004907,2.626442446387471
1769159157368,130,2,0.3756354617014532,2.5489751608759716,2.3721446516347067
1769159157372,129,1,0.0028366046584642,1.7878280454435882,2.030759841322633
1769159157376,129,1,-0.3224824985365757,1.5715339866171976,1.737466136815319
1769159157380,129,1,-0.5034368380542853,1.7773899657333168,1.587747918656585
1769159157384,129,1,-0.5303839502812835,1.6551149172628743,1.589859201997609
1769159157388,129,1,-0.4653667942406299,1.6686487997013495,1.682020728095159
1769159157392,129,1,-0.4014831585692109,1.7115652660009482,1.7730199827883886
1769159157396,129,1,-0.4293923881666712,1.6083334820499702,1.7737128190316016
1769159157400,129,1,-0.6054301176268095,1.8083747412590876,1.6273653385140905
1769159157404,129,1,-0.916842110033868,1.589810597619633,1.345225954290463
1769159157408,128,0,-1.274527981005876,0.7806467859367492,1.015665773517393
1769159157412,128,0,-1.5621759405755289,0.5860793514909882,0.7554322400568275
1769159157416,128,0,-1.712613040059763,0.7488986156885,0.6320893497099772
1769159157420,128,0,-1.743277920765345,0.6897532461550884,0.6279099093216771
1769159157424,128,0,-1.7231048951733832,0.7134399891640546,0.6737450181840243
1769159157428,128,0,-1.7122261940108552,0.6891132440599492,0.7099766799834444
1769159157432,128,0,-1.730255294857561,0.6538032888941403,0.7176998053507377
1769159157436,128,0,-1.7661623341604302,0.713976970641969,0.7079315114939029
1769159157440,128,0,-1.8032471803006356,0.7190298577514209,0.6965911723879217
1769159157444,128,0,-1.8328659364467983,0.7215924915601296,0.6916220405282514
1769159157448,128,0,-1.854089601784032,0.6842520530775473,0.6940489431943986
1769159157452,128,0,-1.8702636889462116,0.6608943322652538,0.7012311157243324
1769159157456,128,0,-1.887556639902191,0.7166621725448739,0.7075105641066401
1769159157460,128,0,-1.9115036797405809,0.7294116757852442,0.7071576701801172
1769159157464,128,0,-1.9406137067145748,0.7353604032710158,0.7010383487881612
1769159157468,128,0,-1.9650378250769376,0.6837825800707409,0.6986248807555703
1769159157472,128,0,-1.9764432428404144,0.6559255178657037,0.7084796062935701
1769159157476,128,0,-1.981015058968755,0.7357279489828653,0.7249945636704784
1769159157480,128,0,-1.99880263716576,0.7225021981910447,0.7284880753559985
1769159157484,128,0,-2.0438109029515754,0.762941136068082,0.7047668423034683
1769159157488,128,0,-2.1012358279337127,0.6820167236733696,0.668038714360168
1769159157492,128,0,-2.127433241926571,0.628433325548092,0.6614991574193619
1769159157496,128,0,-2.082056351565128,0.8111641373027038,0.7256605766753095
1769159157500,128,0,-1.9709048525653152,0.6162297954011937,0.8552816641906926
1769159157504,128,0,-1.8582663923359255,0.9401176147030224,0.9862878060815936
1769159157508,129,1,-1.8251308615755064,1.478866956648279,1.0373917904715455
1769159157512,128,0,-1.9029784325728831,0.8555007097336047,0.977019228599415
1769159157516,128,0,-2.047547010330265,0.5790867457929005,0.8498077151255974
1769159157520,128,0,-2.1793114773252853,0.8607724755511559,0.7353280473404367
1769159157524,128,0,-2.246649671425858,0.7324919746674581,0.684522064692707
1769159157528,128,0,-2.253490014585681,0.6780892329054711,0.6929418282270161
1769159157532,128,0,-2.2406199781032026,0.6928757604857443,0.7201973884601214
1769159157536,128,0,-2.2473103458303676,0.7077018006620293,0.7277810584792725
1769159157540,128,0,-2.279048942422221,0.777553476832501,0.710452368359358
1769159157544,128,0,-2.297165701195726,0.815570993272229,0.7066434355416493
1769159157548,128,0,-2.23909022833653,0.623356977405015,0.7786597216460099
1769159157552,128,0,-2.058089322968989,0.7503288129131124,0.9728868032224428
1769159157556,129,1,-1.7488681970783753,1.6453116963955263,1.2941586704899717
1769159157560,129,1,-1.3386145878438809,1.865431963014604,1.715420538264407
1769159157564,129,1,-0.8639524645541413,1.7418184258412526,2.2010036155347525
1769159157568,130,2,-0.3603087587034553,2.7183820919480586,2.715979506143804
1769159157572,131,3,0.1443336759728677,3.6575582522801913,3.231531438734643
1769159157576,131,3,0.6426650548126851,3.7269977001241537,3.739461598194724
1769159157580,131,3,1.1464283057538078,3.826698710506126,4.251943812940731
1769159157584,132,4,1.6582506841266498,4.770954883708495,4.772537254273619
1769159157588,133,5,2.153775835565469,5.734241761323915,5.276970962286139
1769159157592,133,5,2.602511013049544,5.615286393751453,5.734268190377421
1769159157596,133,5,2.995166756629233,5.799986636209958,6.134799616925825
1769159157600,134,6,3.335839491850836,6.750467072426886,6.482267604152807
1769159157604,134,6,3.6081371546109944,6.879215386836131,6.759919285480738
1769159157608,134,6,3.7509507427059954,6.626634468523483,6.9071483398587254
1769159157612,134,6,3.666420706104174,6.74816943158074,6.82729561113769
1769159157616,134,6,3.269345194583377,6.647093951587716,6.435658784337345
1769159157620,133,5,2.562493637984077,5.940811428038812,5.734268536717635
1769159157624,132,4,1.678787211149415,4.686868377738034,4.855069984461048
1769159157628,131,3,0.8329525538029706,3.8515023709682144,4.012522520379521
1769159157632,131,3,0.2022880013745727,3.516376479101186,3.3843115780974635
1769159157636,130,2,-0.1716240667667554,2.8941103902235144,3.0124981418958727
1769159157640,130,2,-0.3826517522352642,2.7050639962189416,2.803209876303519
1769159157644,130,2,-0.5655644592253757,2.952914278085765,2.621113272342888
1769159157648,130,2,-0.7889775473723291,2.585332623960435,2.397360852292261
1769159157652,129,1,-1.0303996823463355,1.795573486094716,2.155328190699482
1769159157656,129,1,-1.250214530051196,1.6076233234573385,1.93567747710268
1769159157660,129,1,-1.4731532504467033,2.0170452528250618,1.7132456338540805
1769159157664,129,1,-1.7757271626439213,1.66182354352704,1.4099602040873724
1769159157668,128,0,-2.1943760179540903,0.8903148149075709,0.9887560853276668
1769159157672,128,0,-2.667298007439006,0.4991818322848114,0.5124786594609241
1769159157676,127,-1,-3.078568734652576,-0.1121976669646944,0.0981462604922481
1769159157680,127,-1,-3.351456369387464,-0.2320872455660521,-0.1779211135923643
1769159157684,127,-1,-3.4892302359631424,-0.0702384056342448,-0.3201538076167012
1769159157688,127,-1,-3.530664780468922,-0.3464967824669993,-0.3670663766767728
1769159157692,127,-1,-3.4838331211544418,-0.2783343283410091,-0.3244911444848711
1769159157696,127,-1,-3.318317768403184,-0.3216376235085474,-0.1603807273784487
1769159157700,127,-1,-3.022908008881197,-0.0379990910306369,0.1341289952083677
1769159157704,128,0,-2.6618915432794763,0.804490963205367,0.4887481788516121
1769159157708,128,0,-2.3656709183490605,0.7644886078550338,0.7688330230379573
1769159157712,128,0,-2.2466804970235694,0.6405199418191035,0.8654332873554949
1769159157716,128,0,-2.261571757779488,0.7299031397322742,0.8328762585656126
1769159157720,128,0,-2.0399499835559833,0.9263390288033504,1.0519622344785762
1769159157724,130,2,-0.7471456168902324,2.882009041314699,2.357573606578406
1769159157728,134,6,2.841122054251754,6.70323039943342,5.961770637519931
1769159157732,140,12,9.847176491685564,12.73830891600636,12.970256328303764
1769159157736,150,22,20.411694946591552,22.58871088669983,23.514654736754977
1769159157740,162,34,32.888586953515016,35.13552681246238,35.95370199918627
1769159157744,174,46,43.826450588769795,46.64196288275366,46.851049385023806
1769159157748,180,52,49.12925254459475,53.02057261270934,52.12592143265662
1769159157752,178,50,45.97905654987281,50.344406112292326,48.967049448366424
1769159157756,165,37,34.4021184109818,37.94199898616472,37.39670690994547
1769159157760,147,19,17.409168212302273,19.767220102320493,20.41525479318413
1769159157764,128,0,-0.4655668895924947,1.0106267245468463,2.546012642001259
1769159157768,114,-14,-15.294624506653063,-13.200804880348423,-12.291146214385426
1769159157772,106,-22,-25.19255374779597,-21.43707128814277,-22.212804340985887
1769159157776,101,-27,-30.305424439759296,-26.171567588595604,-27.359895603836208
1769159157780,99,-29,-31.735676070947225,-28.205981914807772,-28.823686492935877
1769159157784,99,-29,-30.461117425231663,-27.948485591506874,-27.57111027905688
1769159157788,102,-26,-27.02090403979883,-25.29089129388292,-24.13913167033896
1769159157792,108,-20,-21.890853373201836,-19.285009223618392,-19.012436782983727
1769159157796,115,-13,-15.899928039445491,-12.323831989520508,-13.032218341194785
1769159157800,120,-8,-10.18922184476328,-7.061155211129214,-7.344010093760124
1769159157804,124,-4,-5.771607508587287,-3.074293306628891,-2.9541241712417188
1769159157808,127,-1,-3.1036432637567075,-0.2099210259375662,-0.3092162096113952
1769159157812,128,0,-1.9873092761130715,0.6846204183307244,0.7923409848329284
1769159157816,128,0,-1.8100594943780723,0.6846808223784315,0.9583935214396552
1769159157820,128,0,-1.9173174474545056,0.9963783481029406,0.83633033597659
1769159157824,128,0,-1.8938298172386676,0.8433882998570771,0.8383397441359419
1769159157828,128,0,-1.6425453829420766,0.9012337721723964,1.0639677556880336
1769159157832,129,1,-1.2825520735561753,1.585378213749184,1.3985201783749952
1769159157836,129,1,-0.9696606218779382,1.789753332370477,1.6884345321082617
1769159157840,129,1,-0.7607290934128303,1.9360177210452736,1.876323889459801
1769159157844,129,1,-0.5989777714047599,1.876508816842939,2.017609560520299
1769159157848,129,1,-0.4029330782087092,1.8973338104180804,2.1929151313596114
1769159157852,130,2,-0.1570231298493546,2.5818555861297003,2.417175709386072
1769159157856,130,2,0.0882344743546981,2.8296234992256712,2.6391660526375844
1769159157860,130,2,0.293557978495255,2.9138037915960555,2.819554401549485
1769159157864,130,2,0.4859925610373037,2.897679581525365,2.9864874627540408
1769159157868,130,2,0.7242951199265879,2.8845423496168197,3.20002745142692
1769159157872,131,3,1.0180497226798362,3.5864752608264503,3.469894056761271
1769159157876,131,3,1.298564698371923,3.87933060439211,3.726368644008279
1769159157880,131,3,1.4768725357249268,3.8596528054002177,3.879584256348599
1769159157884,131,3,1.5259876017814642,3.981305629151017,3.902632476744745
1769159157888,131,3,1.5030319928092903,3.774305869381496,3.8532850713843696
1769159157892,131,3,1.4930994668757889,3.709724624838469,3.817032528469917
1769159157896,131,3,1.5328940291062956,3.799189462221123,3.8304345572208143
1769159157900,131,3,1.587474170606889,3.940981205264558,3.8582020860197153
1769159157904,131,3,1.6003465472258287,3.941954655344364,3.843765545922449
1769159157908,131,3,1.567298288278553,3.760370777820306,3.783213765936607
1769159157912,131,3,1.5627675108396375,3.776886488927252,3.7513073505147014
1769159157916,131,3,1.6924998706209724,3.7156918963603,3.8537136532445992
1769159157920,131,3,2.0130697884998128,4.095153522781059,4.1465162454270015
1769159157924,132,4,2.486208202596744,4.757943029906874,4.590986371207796
1769159157928,132,4,3.0029689935123565,4.969337414696093,5.078197599623843
1769159157932,133,5,3.4544035747112543,5.544877800750365,5.499726526947089
1769159157936,133,5,3.793138912168211,6.000554732675892,5.808915152914847
1769159157940,133,5,4.0439514191597965,5.813453238991093,6.0309924218886
1769159157944,133,5,4.26545771676866,6.0618271051085015,6.224244465902609
1769159157948,134,6,4.504680434640893,6.653967100229393,6.434586338179988
1769159157952,134,6,4.781768691372459,6.861391812182247,6.681374960412585
1769159157956,134,6,5.097168482882875,6.730774978208954,6.9655902625623165
1769159157960,134,6,5.432260330717614,7.083997628122871,7.269756728837958
1769159157964,135,7,5.745843779453225,7.82410412404609,7.552916471210765
1769159157968,135,7,5.9903319095858,7.854698158507183,7.766816262184888
1769159157972,135,7,6.1412325973698945,7.700798939846024,7.886651599253867
1769159157976,135,7,6.207915223643503,7.892790833602204,7.9222033631003805
1769159157980,135,7,6.219126319152522,7.967750939967241,7.902539366027585
1769159157984,135,7,6.207035594187204,7.921958153002083,7.859639469733379
1769159157988,135,7,6.202342698817615,7.777482851355253,7.8239021919880605
1769159157992,135,7,6.229773116434393,7.764600106201836,7.819885923770749
1769159157996,135,7,6.2970611831775845,7.882191339940904,7.855152175627692
1769159158000,135,7,6.386228850140053,7.971530631481033,7.911714348933802
1769159158004,135,7,6.455744936492487,7.9534056700530655,7.948577722651874
1769159158008,135,7,6.45370888891685,7.7151048089259024,7.914573739750916
1769159158012,135,7,6.342113022059934,7.85979183998239,7.771681215262053
1769159158016,135,7,6.127540215860881,7.797376856313625,7.525642891060423
1769159158020,134,6,5.87303789740511,7.083579179268313,7.238945964903011
1769159158024,134,6,5.663152207317731,6.853778764272129,6.9965007597211
1769159158028,134,6,5.538644237855104,6.7960765072974585,6.839600288336375
1769159158032,134,6,5.461740573517562,6.810199598318688,6.7303749664863535
1769159158036,134,6,5.34797547958051,6.848814090523287,6.584040578642909
1769159158040,133,5,5.129659520246299,6.08967267016282,6.33301770483054
1769159158044,133,5,4.789332861101132,5.811028452521543,5.960075882949443
1769159158048,133,5,4.3453148587688135,5.870357418929149,5.483406002974454
1769159158052,132,4,3.81872565695924,4.716029474754553,4.92403724162886
1769159158056,131,3,3.2149770601646983,3.987244808366458,4.287716579256662
1769159158060,131,3,2.5354640530294716,3.9887340421290634,3.5761091921606116
1769159158064,130,2,1.812836076867801,2.8763113560857967,2.821654684390751
1769159158068,129,1,1.1326496809621702,1.8509830028403973,2.109554724902891
1769159158072,129,1,0.6021812575787209,1.688742727766715,1.5468761048108788
1769159158076,128,0,0.278349168939866,1.1051547140980085,1.190363684313625
1769159158080,128,0,0.1159674079246864,0.8357197774214469,0.9947443259441984
1769159158084,128,0,-0.013851583926808,1.0924277538284652,0.8314458082287577
1769159158088,128,0,-0.2432061746263092,0.5761576425612123,0.5691538530655718
1769159158092,127,-1,-0.6228205189732825,0.0091224516203718,0.1578516751547136
1769159158096,127,-1,-1.0924527825467227,-0.2041360762301924,-0.3423693189029229
1769159158100,126,-2,-1.521603665905645,-0.8365392057565046,-0.8020818397316065
1769159158104,126,-2,-1.7896350239205612,-1.2065027145329754,-1.101723254505198
1769159158108,126,-2,-1.8557385277813896,-1.1620957583844311,-1.2006400042572387
1769159158112,126,-2,-1.777354760724165,-1.2008806382129489,-1.1554783766651728
1769159158116,126,-2,-1.665703816667072,-1.013003863781393,-1.076390497398553
1769159158120,126,-2,-1.6088525290193876,-0.9540402735864544,-1.050785978815195
1769159158124,126,-2,-1.617889263287923,-1.1361030663311928,-1.0898565824376278
1769159158128,126,-2,-1.6354299295140953,-1.1927654475465226,-1.137102264584491
1769159158132,126,-2,-1.596593136647224,-1.1937685962849385,-1.1288786051370034
1769159158136,126,-2,-1.492087271737159,-0.9771394831866238,-1.056503414969086
1769159158140,126,-2,-1.3860621240680238,-0.9545337345008033,-0.983265493125367
1769159158144,126,-2,-1.3782246131621207,-1.1626577674668548,-1.007051056759783
1769159158148,126,-2,-1.533472841489993,-1.1238200011606971,-1.1917557700305457
1769159158152,126,-2,-1.8188612209873931,-1.313779354302428,-1.5053252120389051
1769159158156,125,-3,-2.0945392511623986,-1.773272464671047,-1.809681566257189
1769159158160,125,-3,-2.187436108958637,-2.1699534959811144,-1.932598162030339
1769159158164,125,-3,-2.01439076533008,-1.930371672959207,-1.7903627291596
1769159158168,126,-2,-1.6589476477859868,-1.338761880101916,-1.4655384759844392
1769159158172,126,-2,-1.3248435096850808,-1.146990503296781,-1.1613142529977187
1769159158176,126,-2,-1.193376732186409,-0.8222998471061569,-1.0588820788094546
1769159158180,126,-2,-1.3013001245396196,-1.200683140662288,-1.195074726264512
1769159158184,125,-3,-1.5382151434621918,-1.8005791361702554,-1.4598051034460402
1769159158188,126,-2,-1.75457110342929,-1.5588793672342272,-1.7040578259869903
1769159158192,125,-3,-1.8789731713891415,-1.859272686719163,-1.8567002800079095
1769159158196,125,-3,-1.9492012678794115,-2.091980446788699,-1.9551314770742416
1769159158200,125,-3,-2.044396966239741,-1.923968970793724,-2.0779580556650563
1769159158204,125,-3,-2.186494561649299,-2.0269204922650523,-2.2470718058938544
1769159158208,125,-3,-2.302681452693131,-2.4260412072683057,-2.3899808414041113
1769159158212,124,-4,-2.29023883405978,-2.8765619202625077,-2.404275045430156
1769159158216,125,-3,-2.127068314921658,-2.1489008754177448,-2.268099198567421
1769159158220,125,-3,-1.9173074897761035,-1.735984229912395,-2.0854697360705567
1769159158224,125,-3,-1.8219545113893336,-2.30028674439476,-2.0165565008455233
1769159158228,125,-3,-1.9347842100892552,-2.105116461669758,-2.154373314038004
1769159158232,125,-3,-2.2051190619904726,-2.2141053615298367,-2.448712909325108
1769159158236,124,-4,-2.465297746677418,-2.7905454395888944,-2.73313800326439
1769159158240,124,-4,-2.5497334225992314,-3.0262126830680556,-2.842466780587142
1769159158244,124,-4,-2.425068256765806,-3.0575943155302507,-2.742741849329357
1769159158248,125,-3,-2.2220827864454935,-2.3038007411011026,-2.564361221645295
1769159158252,125,-3,-2.127359990250695,-2.0540830912859613,-2.4940518008129335
1769159158256,124,-4,-2.22598791904312,-2.8734427544634396,-2.6166191334238027
1769159158260,124,-4,-2.4425219978037895,-2.966053695386645,-2.8557744978545605
1769159158264,124,-4,-2.628390446716538,-3.0609376119605156,-3.062801873316891
1769159158268,124,-4,-2.69953133444827,-3.384412801285241,-3.1548985438326853
1769159158272,124,-4,-2.6950461590331565,-2.8713652780284527,-3.172694937643546
1769159158276,124,-4,-2.721162216303803,-3.100648291707063,-3.2224637301757895
1769159158280,123,-5,-2.8515799014731393,-3.648505823527048,-3.3761499971009976
1769159158284,124,-4,-3.0746467707224996,-3.4326451250046883,-3.620157069858082
1769159158288,123,-5,-3.313348081107423,-3.997638224490434,-3.8772935393110544
1769159158292,123,-5,-3.477724505806475,-4.251448164446584,-4.05952575643327
1769159158296,123,-5,-3.502126049712301,-3.6797517225694385,-4.103452095274779
1769159158300,123,-5,-3.359283839897367,-4.0304318370949215,-3.982011064644012
1769159158304,123,-5,-3.0723663788010285,-4.090031657171858,-3.716174167912629
1769159158308,124,-4,-2.7251545273519144,-3.3042523536452593,-3.387561068991887
1769159158312,124,-4,-2.435439394660773,-2.987150936916263,-3.114352463619461
1769159158316,124,-4,-2.2820879106039587,-2.844783501521038,-2.977796825056251
1769159158320,124,-4,-2.247274094817383,-2.8851887678757353,-2.9614688422372017
1769159158324,124,-4,-2.24662153743698,-3.217557140972062,-2.979674805667891
1769159158328,124,-4,-2.230728520240785,-3.208363165268347,-2.9806376742630047
1769159158332,124,-4,-2.2477380769558004,-3.0550541453765474,-3.0121850733562003
1769159158336,124,-4,-2.3811495479077993,-2.739591977857762,-3.1601062208624517
1769159158340,124,-4,-2.6187228688480517,-2.9470281789904003,-3.413963009524965
1769159158344,123,-5,-2.8117996584974905,-4.188357322301638,-3.623778044862481
1769159158348,123,-5,-2.7998631449021776,-4.239426352694558,-3.6264673805258103
1769159158352,124,-4,-2.5739473054612487,-3.025066615970024,-3.4131397338307092
1769159158356,124,-4,-2.289036656307114,-2.7013548761574877,-3.1414802409495732
1769159158360,124,-4,-2.111001941726561,-2.959398770994464,-2.9786210402316584
1769159158364,124,-4,-2.0756419332872915,-3.181599150884038,-2.958160514463199
1769159158368,124,-4,-2.102250860728818,-3.290972281253829,-2.9967550896942994
1769159158372,124,-4,-2.1103881814696552,-2.9573343191253803,-3.0145983432969525
1769159158376,124,-4,-2.0914573749584093,-2.7034350206623254,-3.00624002559077
1769159158380,124,-4,-2.0781340141738487,-2.9206529153149297,-3.0058668441816176
1769159158384,124,-4,-2.0846126848633855,-3.226949644648549,-3.0255590680771904
1769159158388,124,-4,-2.0963967947869713,-3.2940019207391384,-3.0478496467575074
1769159158392,124,-4,-2.0950448932956287,-2.9487052276792904,-3.0543090520623446
1769159158396,124,-4,-2.0600152411760404,-2.6293194810596674,-3.0272516665840064
1769159158400,124,-4,-1.9507830799915904,-2.971392304597173,-2.9281059432997725
1769159158404,124,-4,-1.7258781902258993,-3.1609337198257776,-2.714213085182333
1769159158408,125,-3,-1.401824666025462,-2.442900730232358,-2.399659913143537
1769159158412,125,-3,-1.0716020326322586,-1.7589798572366957,-2.0766651980958306
1769159158416,125,-3,-0.8297994277921177,-1.771559530291076,-1.8410040130065528
1769159158420,125,-3,-0.6691690211421704,-1.7636081252567817,-1.6867317985132286
1769159158424,126,-2,-0.4641635148818732,-1.3920390159626808,-1.488466181771844
1769159158428,126,-2,-0.0747806010989369,-1.2778390402093576,-1.1055660783750616
1769159158432,126,-2,0.5178414381646452,-0.889136315175918,-0.5188710188162692
1769159158436,127,-1,1.1725136567323702,0.408471861784711,0.1298703533941738
1769159158440,128,0,1.6909519359635037,1.1375072405464333,0.6420032368838255
1769159158444,128,0,1.970113193368562,0.662301828191466,0.9155571989849816
1769159158448,128,0,2.0627359982114775,0.6171531827651526,1.00479706788011
1769159158452,128,0,2.107800621218097,1.2301868418043596,1.0483264927906026
1769159158456,128,0,2.2200415712590806,1.343322466816268,1.1586197543305068
1769159158460,128,0,2.4302882113202613,1.2984756822420398,1.3651862668708552
1769159158464,129,1,2.6853988832629234,1.4508457862657331,1.616089414059081
1769159158468,129,1,2.8785989879906415,1.7861931749406923,1.806454432629522
1769159158472,129,1,2.8990753524246307,2.0583878034874914,1.8256471972268635
1769159158476,128,0,2.687615034519129,1.5850245931969655,1.613132498548422
1769159158480,128,0,2.2596731051103136,1.138943697950091,1.183650225725837
1769159158484,128,0,1.671255378202574,0.5677909232420935,0.5940952297949649
1769159158488,127,-1,0.9619128944524123,-0.3817118829768744,-0.1148049962492263
1769159158492,126,-2,0.1418742470779919,-0.7719399638129827,-0.9331679525230944
1769159158496,125,-3,-0.7557237173444431,-1.508866316464887,-1.8294695850492857
1769159158500,124,-4,-1.623119422707199,-2.6845642115380612,-2.6965827364867416
1769159158504,124,-4,-2.315301316821303,-3.657821297194432,-3.388053445561006
1769159158508,123,-5,-2.771038696668035,-4.193469439450702,-3.8412032799401743
1769159158512,123,-5,-3.0951099217360496,-3.986835373030731,-4.161977698864258
1769159158516,122,-6,-3.494576228506917,-4.174469828331782,-4.560169365180925
1769159158520,122,-6,-4.1180972904571505,-4.979244279799397,-5.184533905490208
1769159158524,121,-7,-4.961647838736328,-6.370442353151028,-6.02688082790453
1769159158528,120,-8,-5.9243302372106665,-7.5713622724126814,-6.982334888346676
1769159158532,119,-9,-6.916763429368879,-7.605239908052038,-7.9636404356091965
1769159158536,118,-10,-7.879207329943271,-8.442283297396562,-8.918681464598622
1769159158540,117,-11,-8.71979890175778,-9.673829415643183,-9.76070342099345
1769159158544,117,-11,-9.31662798959814,-10.645006920602608,-10.363491017602255
1769159158548,116,-12,-9.635736132220323,-11.453693066360303,-10.68196217567918
1769159158552,116,-12,-9.81270503193937,-10.658724370690926,-10.84433724267994
1769159158556,116,-12,-10.02947873051853,-10.318999812600431,-11.037463232037242
1769159158560,116,-12,-10.270287338569016,-10.727310364163458,-11.260654813991238
1769159158564,116,-12,-10.265675200372698,-11.558577706504211,-11.257811988831236
1769159158568,116,-12,-9.79698373100996,-11.74131224517518,-10.80900227955367
1769159158572,116,-12,-9.10555171439438,-10.281846122320468,-10.136472522143029
1769159158576,116,-12,-8.890634660970248,-10.594271222893354,-9.915079765569214
1769159158580,117,-11,-9.6475459511976,-9.511130186904127,-10.63275824112856
1769159158584,117,-11,-10.759199469140388,-10.419940985303285,-11.69429459245869
1769159158588,118,-10,-10.260632036680244,-10.63823371465137,-11.169444259650994
1769159158592,120,-8,-5.979665045631842,-4.544855935337573,-6.898804509868734
1769159158596,123,-5,2.3326443062398248,-6.120569475057583,1.388624442921107
1769159158600,128,0,11.589217348895808,4.9455836721986906,10.633256727242845
1769159158604,159,31,16.49993437191742,27.502161909343386,15.546151445974782
1769159158608,141,13,13.060436157889916,16.6700149855494,12.11061181218907
1769159158612,123,-5,1.6058781337387664,-5.987578815647594,0.6675625247896453
1769159158616,108,-20,-13.368896183054655,-16.80547267899633,-14.271469008842711
1769159158620,99,-29,-26.35432406754033,-28.01068175367851,-27.20416337855099
1769159158624,95,-33,-34.013008941263024,-33.02179911990236,-34.8269641003541
1769159158628,92,-36,-36.06266923213933,-34.870454008383405,-36.88068222040063
1769159158632,92,-36,-34.039154194355625,-35.330407084650915,-34.88742057308055
1769159158636,95,-33,-29.668649391613716,-30.689524821435658,-30.53866015041444
1769159158640,101,-27,-24.14063397445086,-25.89153412886065,-25.002202469252545
1769159158644,108,-20,-18.28934531003696,-19.68268884629947,-19.11846207205168
1769159158648,114,-14,-12.940890631843176,-13.184197552067683,-13.735189196037124
1769159158652,118,-10,-8.865696470153686,-9.104293381744498,-9.63907174196722
1769159158656,119,-9,-6.4085187796433685,-6.797771107574917,-7.175507630635809
1769159158660,121,-7,-5.264204854867177,-6.119719582223212,-6.028691396397969
1769159158664,121,-7,-4.712245058191644,-6.200876758659078,-5.467414999467002
1769159158668,122,-6,-4.143740951390361,-5.617531243445535,-4.880727444104443
1769159158672,123,-5,-3.411312369465989,-3.613347165765615,-4.128176001189118
1769159158676,124,-4,-2.712786076811369,-2.3067402969416864,-3.415624211267882
1769159158680,124,-4,-2.1989654053658,-2.8139703008832013,-2.8942859471183384
1769159158684,124,-4,-1.7560493055577568,-3.314875017114603,-2.443000351125682
1769159158688,125,-3,-1.163575302789397,-2.5134053863565673,-1.8351368618236037
1769159158692,126,-2,-0.3779739450039754,-0.5616182946155825,-1.0294089662744006
1769159158696,127,-1,0.4160692573950282,0.4960937675937873,-0.217867933566491
1769159158700,127,-1,1.0190407613741526,0.3471251403218008,0.3967930752317674
1769159158704,128,0,1.4135686474304343,0.5658416380204936,0.8015636780453237
1769159158708,128,0,1.7291873839465035,0.6896497188386022,1.1318018043542284
1769159158712,128,0,2.061369344780058,1.311669356211994,1.4829645376739184
1769159158716,129,1,2.377486762753338,2.525467777130114,1.8169594960854272
1769159158720,129,1,2.592097456831263,2.2975369604196314,2.044545111754134
1769159158724,129,1,2.67716221455117,1.6159617219290858,2.140242887882783
1769159158728,129,1,2.6668644791624683,1.7751430655816414,2.1436313974877397
1769159158732,129,1,2.5963233199972344,2.2266654682940312,2.0912521049671895
1769159158736,129,1,2.503953269193644,2.5840951506271463,2.0178006863944056
1769159158740,129,1,2.501785634830214,2.175929467781693,2.0317710163900955
1769159158744,129,1,2.7778700449037945,1.778460036115912,2.32195906652522
1769159158748,130,2,3.4636025087908973,2.7073519808607807,3.022594406499718
1769159158752,131,3,4.490256971715492,4.31654564179936,4.065410432896086
1769159158756,132,4,5.60394021413964,5.465307089467072,5.194343647781138
1769159158760,133,5,6.5384515392528035,6.233884961737007,6.142192370759398
1769159158764,134,6,7.177452584885723,6.773655710935568,6.794928321210846
1769159158768,134,6,7.569204985547401,6.762973528728251,7.203747110269112
1769159158772,134,6,7.829035006997179,7.313867326924093,7.483406490721064
1769159158776,135,7,8.062171967750208,8.413639373766014,7.735162248290045
1769159158780,135,7,8.360031698038224,8.260782590395657,8.04776985458356
1769159158784,135,7,8.797133755236942,7.780963700038926,8.497557652709586
1769159158788,136,8,9.373985198136008,8.818936187201194,9.088562164301646
1769159158792,137,9,9.97934358666414,10.295954655890112,9.71030573746432
1769159158796,137,9,10.462849658286045,10.387048644862654,10.210475089252522
1769159158800,137,9,10.766959688683206,10.265685952841952,10.530346722644412
1769159158804,138,10,10.976260917677834,10.810024918468828,10.7554453579191
1769159158808,138,10,11.234092130861224,10.829461421798994,11.0301113810703
1769159158812,138,10,11.619198599794885,11.344691797900516,11.432309608166037
1769159158816,139,11,12.098165574476596,12.280982496586804,11.926924051443292
1769159158820,139,11,12.57423052287462,12.380909783542554,12.416816235989067
1769159158824,140,12,12.961468589923015,12.690409021250762,12.817712551938836
1769159158828,140,12,13.216060062886822,13.027326195154984,13.087650116804264
1769159158832,140,12,13.327533535856606,13.158634060704737,13.216077559635396
1769159158836,140,12,13.313247323520343,13.44612018012088,13.218557050542293
1769159158840,140,12,13.226311933175616,13.210547008785358,13.14695281319012
1769159158844,140,12,13.144085704457115,12.85492591995977,13.079280900333396
1769159158848,140,12,13.122825301661097,12.955254251687348,13.073111957526656
1769159158852,140,12,13.15906465793893,13.21901540622738,13.124987454925474
1769159158856,140,12,13.20334734472652,13.394847413097088,13.184284358998068
1769159158860,140,12,13.209437194580444,13.230968295591095,13.204324713476977
1769159158864,140,12,13.15860001582754,12.855304184773368,13.167402049683394
1769159158868,140,12,13.03897976452682,13.01404942086493,13.06267913809984
1769159158872,140,12,12.825784420182217,13.171294451488349,12.864962871620284
1769159158876,139,11,12.502423581568957,12.440625878013066,12.556494298144612
1769159158880,139,11,12.09750466381806,12.158901815099805,12.165551371731915
1769159158884,139,11,11.68352217785408,11.953580265488588,11.76549507335292
1769159158888,138,10,11.32665544554282,10.963296400448694,11.423310859477358
1769159158892,138,10,11.034967147704432,11.233247135516688,11.146555476665643
1769159158896,138,10,10.75611658376798,11.40253610763302,10.881533405155183
1769159158900,137,9,10.419944388680785,10.128180574158336,10.55764509018194
1769159158904,137,9,9.974551945750829,10.065314817182356,10.12419214392132
1769159158908,137,9,9.388465506335878,9.834749566793796,9.551247893959356
1769159158912,135,7,8.645484749978724,8.434433783601701,8.82285997852831
1769159158916,135,7,7.762674342738864,8.153333211505242,7.954850346402797
1769159158920,134,6,6.816588667891289,7.403546370461949,7.022387154919102
1769159158924,133,5,5.930916161118552,5.76201323555436,6.149032120311351
1769159158928,132,4,5.206653083372567,5.229054240543108,5.436671077270172
1769159158932,132,4,4.647564663392016,5.022507911890872,4.889528498220327
1769159158936,131,3,4.161508266593152,4.585751090832406,4.415150194039972
1769159158940,131,3,3.6467298202264216,3.95469343913226,3.911871492238339
1769159158944,130,2,3.0816678185493966,3.2145378720767797,3.359054950739197
1769159158948,130,2,2.538979129506137,2.837837040521539,2.829804005307836
1769159158952,129,1,2.1246347144621343,2.4032937260933576,2.4289445668003484
1769159158956,129,1,1.90076054953386,2.2371174608079856,2.2167856909241013
1769159158960,129,1,1.8425720411422803,2.263700950157344,2.168053998192213
1769159158964,129,1,1.8443379920457712,1.9535519128089445,2.1785066617625413
1769159158968,129,1,1.769510867305076,2.1034467813041147,2.1135816251850073
1769159158972,129,1,1.529808558474417,2.182882801357583,1.8856362589027769
1769159158976,128,0,1.1543763203477502,1.4359819029952423,1.5228234350483791
1769159158980,128,0,0.7931626981586346,1.0674815275497278,1.1735991524918248
1769159158984,128,0,0.6315869946169936,1.164608005541555,1.0225708935596085
1769159158988,128,0,0.7644885168396502,0.9251790758793428,1.164775117389729
1769159158992,128,0,1.1206513111331446,1.3795784300738068,1.5296046633572469
1769159158996,129,1,1.5019655920669717,2.263404386459614,1.9192435168132675
1769159159000,129,1,1.716312945322529,2.1868832548826314,2.1417401623382535
1769159159004,129,1,1.7024652214159195,2.120501251325794,2.1366220175136563
1769159159008,129,1,1.5484447374887305,1.9261778478207432,1.9928902992683928
1769159159012,128,0,1.4029062187804051,1.4734080066793394,1.858835793142514
1769159159016,129,1,1.3737901933786612,2.1021132789585435,1.8402051114211055
1769159159020,129,1,1.4959617494731514,2.4095120821368594,1.969968486457549
1769159159024,129,1,1.7534102090844668,1.864648061386498,2.2329554284339395
1769159159028,129,1,2.0928047267969077,2.2414009639525805,2.578574022506233
1769159159032,130,2,2.422217377987259,3.166196442880171,2.9162446409164784
1769159159036,130,2,2.6435122107760773,3.392818844484519,3.1465573713494286
1769159159040,130,2,2.7187014973334747,3.1603390813370975,3.2297931051145916
1769159159044,130,2,2.698942548182937,3.0792511332908257,3.2169949721842817
1769159159048,130,2,2.6733285824401527,3.1036949178213677,3.198224780013029
1769159159052,130,2,2.687289562329947,3.262941341498145,3.219373039250068
1769159159056,130,2,2.7110134902909633,3.3570836971012312,3.250176859222753
1769159159060,130,2,2.678530920759834,3.1531958191115033,3.224004123890542
1769159159064,130,2,2.5496094668393705,3.1467920573503085,3.1004091205628477
1769159159068,130,2,2.336422715249478,3.0123438361159627,2.8920630075029377
1769159159072,129,1,2.0780751855972968,2.404226928706513,2.639068983890332
1769159159076,129,1,1.7969061149421943,2.192553531045863,2.3643835892209815
1769159159080,129,1,1.4896814540358552,2.352627308151535,2.064192193591581
1769159159084,129,1,1.167088680854425,1.943377190562432,1.7478781587604648
1769159159088,128,0,0.8880073557620043,1.2443123698362648,1.473598640714573
1769159159092,128,0,0.7278066952460964,1.187316752626322,1.3170549483759888
1769159159096,128,0,0.6969357932450704,1.399575323532132,1.2894999253641346
1769159159100,128,0,0.6945631017435199,1.1812866441248284,1.2907893619128612
1769159159104,128,0,0.5582716731392674,1.1011755270058237,1.1588021517101634
1769159159108,128,0,0.1837148527689462,1.1397541466266177,0.788995932240748
1769159159112,127,-1,-0.3805285146058574,0.2682493802814859,0.2295550119864375
1769159159116,126,-2,-0.9514981991108112,-0.6563287710485644,-0.3367869195541972
1769159159120,126,-2,-1.343239706890723,-0.7632598973663212,-0.7243649994391346
1769159159124,126,-2,-1.5055765895283804,-0.9315337320724716,-0.8836603646173204
1769159159128,126,-2,-1.5522119788358708,-0.8023994376030019,-0.9287569048199666
1769159159132,126,-2,-1.6615072416201908,-0.7759006111444449,-1.0371363327135394
1769159159136,125,-3,-1.943118455788949,-1.6192729705537143,-1.316710872415169
1769159159140,125,-3,-2.374237851631326,-1.7863965824869164,-1.7438757959225597
1769159159144,125,-3,-2.8321320183248675,-1.9034965163246664,-2.1970479364565008
1769159159148,124,-4,-3.1799923142589304,-2.7901139224369467,-2.541328372236275
1769159159152,124,-4,-3.349779099299285,-2.7914530748227135,-2.7095266202683024
1769159159156,124,-4,-3.380047955558847,-2.57241710846723,-2.739592551217134
1769159159160,124,-4,-3.387780218452141,-2.86927873816364,-2.7473340603346825
1769159159164,124,-4,-3.4901852784024436,-2.7617070419331893,-2.849059982570962
1769159159168,124,-4,-3.728676374663768,-2.940864191717486,-3.0858063793444592
1769159159172,123,-5,-4.047098998223835,-3.6088909847196127,-3.4015831005083346
1769159159176,123,-5,-4.335058054823422,-3.7562962921376895,-3.686788674693521
1769159159180,123,-5,-4.498895417902758,-3.695990336855748,-3.848946323172546
1769159159184,123,-5,-4.5109167916813595,-3.8873150349279504,-3.8610041082592095
1769159159188,123,-5,-4.417379960627246,-3.824317337692557,-3.7685671434385903
1769159159192,123,-5,-4.315287313351673,-3.6672240915718737,-3.667267120082093
1769159159196,123,-5,-4.309761263533047,-3.750744122323291,-3.661557806010275
1769159159200,123,-5,-4.461237577400434,-3.651079361896376,-3.812403656471461
1769159159204,123,-5,-4.747259158703607,-3.95100320360367,-4.0980495039699605
1769159159208,122,-6,-5.0727698535581265,-4.7082610927192805,-4.423318620007845
1769159159212,122,-6,-5.33086417852715,-4.781531098696782,-4.68088320747642
1769159159216,122,-6,-5.465330757129402,-4.639710704688768,-4.81492206671764
1769159159220,122,-6,-5.484002508413923,-4.7493295559906885,-4.834258788251489
1769159159224,122,-6,-5.428885566955621,-4.835534362899645,-4.7811663997855325
1769159159228,122,-6,-5.3498430408736235,-4.795548183536416,-4.704570144276539
1769159159232,122,-6,-5.301930858250055,-4.682031221771261,-4.658372518853508
1769159159236,122,-6,-5.339676161473263,-4.755440234656794,-4.69679220585596
1769159159240,122,-6,-5.483903865691091,-4.60712800602718,-4.8411148276633105
1769159159244,122,-6,-5.6833937353543105,-4.97445714625566,-5.040674288181101
1769159159248,121,-7,-5.818847437419804,-5.611993367232339,-5.176703540219336
1769159159252,122,-6,-5.761968907850041,-4.876517112761382,-5.121561466036285
1769159159256,122,-6,-5.4504519259244,-4.548337600277991,-4.813021280331127
1769159159260,122,-6,-4.930563216525908,-4.812488737561539,-4.296175141593152
1769159159264,123,-5,-4.341408429494235,-3.7411071169606354,-3.7088920185808862
1769159159268,124,-4,-3.836100728788056,-2.812653830942397,-3.2047676014375366
1769159159272,124,-4,-3.476725788055699,-2.7000966770794013,-2.847391363619473
1769159159276,124,-4,-3.191659884734505,-2.68668992707775,-2.5652668702541153
1769159159280,124,-4,-2.8523469775655195,-2.7040694924337574,-2.228359777603151
1769159159284,125,-3,-2.400696499158053,-1.8008857957422952,-1.7778910617136483
1769159159288,126,-2,-1.890300498690974,-0.7334984535279132,-1.2687511940048188
1769159159292,126,-2,-1.4032622170006457,-0.7827965136385513,-0.7844783420390995
1769159159296,126,-2,-0.952986584133863,-0.5719947470779196,-0.3380724081082937
1769159159300,127,-1,-0.4913111735659374,0.1400587368362285,0.1201667643946745
1769159159304,127,-1,-0.0050318037258142,0.4203522572709053,0.604050030500669
1769159159308,128,0,0.4155151346452534,1.0214420694805375,1.0223297037961518
1769159159312,128,0,0.6164699312287569,1.5357893521367327,1.2200654386283176
1769159159316,128,0,0.4933757361674028,1.0554688973302924,1.0929964992279124
1769159159320,127,-1,0.0712213314772394,0.5490461754231816,0.6673923417365741
1769159159324,127,-1,-0.5151086465454797,0.0078474357423874,0.0789188094916801
1769159159328,126,-2,-1.1099369707060251,-0.5476091879832294,-0.5174714298508103
1769159159332,126,-2,-1.6152667163455463,-0.8364364109452547,-1.0252249165369092
1769159159336,125,-3,-2.0113080276716726,-1.6190636334035329,-1.4252227781006943
1769159159340,125,-3,-2.3300175047946934,-1.7271715386111897,-1.7488024611820556
1769159159344,125,-3,-2.6175371322601,-1.7472002297515958,-2.040819206342906
1769159159348,124,-4,-2.912042554406385,-2.735370902507925,-2.338510291923344
1769159159352,124,-4,-3.240417993228344,-2.6476166601863285,-2.669033267239912
1769159159356,124,-4,-3.617361422691801,-2.7844571596017107,-3.0485075518752596
1769159159360,123,-5,-4.036785205964418,-3.592538185329449,-3.4719713052792844
1769159159364,123,-5,-4.471477095585422,-3.8365564682097606,-3.911642358560123
1769159159368,122,-6,-4.8947680416535855,-4.648547118000187,-4.339165682750676
1769159159372,122,-6,-5.299919039205042,-4.697948707200926,-4.74697100651001
1769159159376,122,-6,-5.683127222382356,-4.725057928003006,-5.13212316224623
1769159159380,121,-7,-6.005997003256672,-5.67838393884909,-5.457705306531086
1769159159384,121,-7,-6.195009259655772,-5.697701076118596,-5.651030308061468
1769159159388,121,-7,-6.197492626754736,-5.808024123985486,-5.6593724766522
1769159159392,121,-7,-6.038654724182614,-5.480221913864434,-5.506872882055782
1769159159396,122,-6,-5.8144344583020855,-4.962533860915766,-5.2870663048836395
1769159159400,121,-7,-5.622879635220344,-5.42271938049213,-5.095531727084615
1769159159404,122,-6,-5.495413559848038,-4.952078790742627,-4.964525730710266
1769159159408,122,-6,-5.382448060813978,-4.533258596722787,-4.850321130599476
1769159159412,122,-6,-5.206065202139252,-4.729969932963726,-4.682005897203905
1769159159416,122,-6,-4.9465150362965895,-4.716088410851316,-4.440712847999171
1769159159420,122,-6,-4.670216443619257,-4.6418294460289795,-4.184267001751767
1769159159424,123,-5,-4.38160056078425,-3.7598694936355663,-3.9040010199678825
1769159159428,124,-4,-3.697963956332369,-2.665130280815819,-3.209722457831739
1769159159432,126,-2,-1.5922683586737287,-0.6090764464945542,-1.079884959015983
1769159159436,131,3,3.4063252625674743,4.20517416515073,3.939682099229285
1769159159440,139,11,12.366103037469248,12.425355335181562,12.900392614437656
1769159159444,151,23,24.79101694349984,24.199459694879017,25.30152663999756
1769159159448,164,36,37.94444810654005,37.39987634877241,38.41766037683964
1769159159452,175,47,47.42133594508149,48.356738554924334,47.862657318020865
1769159159456,178,50,49.0139008454739,51.20366474653031,49.442848018390734
1769159159460,169,41,40.91885429740665,42.40471924293605,41.35718506373098
1769159159464,152,24,24.863706044821335,25.140413403692804,25.324930467378124
1769159159468,131,3,5.3209431412950705,4.503855386706781,5.805696710520812
1769159159472,113,-15,-12.715157103484565,-13.727786746626506,-12.217910102783613
1769159159476,101,-27,-25.923804734313563,-25.59239221692047,-25.431316616485
1769159159480,95,-33,-33.49454269207846,-31.75277887245081,-33.02216262250827
1769159159484,92,-36,-36.39442209038431,-34.68364612722858,-35.94760502677102
1769159159488,91,-37,-35.991876697477004,-35.674145217381025,-35.56315326306185
1769159159492,93,-35,-33.19527691406472,-33.5876230568073,-32.76963795433752
1769159159496,98,-30,-28.53295142354537,-28.69435755320511,-28.098662937096233
1769159159500,104,-24,-22.69550896392511,-22.641195167104968,-22.251911043403787
1769159159504,111,-17,-16.786065376887926,-15.764504769158842,-16.342124009748673
1769159159508,116,-12,-11.980394346181916,-10.598850362214527,-11.545814519778748
1769159159512,118,-10,-8.936868385452005,-8.701156257301228,-8.51372917118874
1769159159516,119,-9,-7.513028377550692,-7.567778037966603,-7.094927230550487
1769159159520,120,-8,-7.016263916974445,-6.752818648676193,-6.594930633647805
1769159159524,120,-8,-6.731801862644957,-6.620946593147506,-6.304626432687133
1769159159528,121,-7,-6.294901835062527,-5.705108518160492,-5.866836601329367
1769159159532,122,-6,-5.696851807294808,-4.615728154211757,-5.275674266333504
1769159159536,122,-6,-5.059513523883817,-4.630048093315935,-4.6489734618087715
1769159159540,122,-6,-4.456374280779215,-4.693060204554901,-4.053371646207459
1769159159544,123,-5,-3.9095140400097583,-3.642873617190915,-3.507755210158566
1769159159548,124,-4,-3.45978534285054,-2.673983515223384,-3.0558520311699744
1769159159552,124,-4,-3.1627237391874026,-2.6440755789081067,-2.7581548292619606
1769159159556,124,-4,-3.013262527469784,-2.5887033141216667,-2.6113359854969
1769159159560,124,-4,-2.91441844003155,-2.732108229132905,-2.5163451461230117
1769159159564,124,-4,-2.7428559692478935,-2.584875356964075,-2.3475782698725856
1769159159568,125,-3,-2.4415923542969713,-1.70395266265086,-2.04811424870697
1769159159572,125,-3,-2.0492344457742115,-1.622134787634827,-1.6578475037765772
1769159159576,125,-3,-1.6550554006184297,-1.5738496190595512,-1.2664341265217756
1769159159580,126,-2,-1.3324944553360971,-0.7730728306775965,-0.946567635316101
1769159159584,126,-2,-1.0973339178222077,-0.499682035781554,-0.7132362637091204
1769159159588,126,-2,-0.907323009575404,-0.797760217034484,-0.5240289725802214
1769159159592,126,-2,-0.6973583056230508,-0.4981924102407007,-0.31450599916423
1769159159596,127,-1,-0.4207533791230404,0.311770934927523,-0.0391731659669104
1769159159600,127,-1,-0.0657133384169661,0.3249523270769408,0.3132381061322001
1769159159604,127,-1,0.3504247185726079,0.4594038552659069,0.7264260257507548
1769159159608,128,0,0.7899232740381184,1.2085238562635876,1.1641878637411625
1769159159612,128,0,1.2106553725624316,1.5625268592091164,1.5845634898277323
1769159159616,129,1,1.599473378505595,2.2064304625217153,1.9731830796022365
1769159159620,129,1,1.9950213127729723,2.480611093822974,2.3678215450603717
1769159159624,129,1,2.4580463407868525,2.2955006019016406,2.8295060354750423
1769159159628,130,2,3.0042943420415433,3.3843498986966836,3.3743607145432497
1769159159632,131,3,3.5729120502788394,4.431007573148342,3.941385223240624
1769159159636,131,3,4.069263186060812,4.2912867449231795,4.436211162414282
1769159159640,131,3,4.435608453701165,4.479545410383212,4.80206030019729
1769159159644,132,4,4.684951367260787,5.2327805017954185,5.052102688607351
1769159159648,132,4,4.88613165169491,5.517675692232855,5.25387332706055
1769159159652,132,4,5.118796721752472,5.272371736542931,5.485839633113637
1769159159656,132,4,5.415252101291816,5.487940799925618,5.780646547439193
1769159159660,133,5,5.724977850650327,6.28374590158897,6.08891420238956
1769159159664,133,5,5.94747194738069,6.437351138714218,6.310809775319396
1769159159668,133,5,6.023858411389862,6.3256844466372755,6.387517203447802
1769159159672,133,5,6.008176712203216,6.486500328594829,6.372911825955067
1769159159676,133,5,6.047386325384758,6.271962820612337,6.41354315296878
1769159159680,133,5,6.279905749065497,6.522341544847343,6.6470574545315175
1769159159684,134,6,6.7323408443864645,7.197838656014106,7.099300897424569
1769159159688,134,6,7.293512761670917,7.589808989471115,7.659054095381785
1769159159692,135,7,7.782641568456649,8.239619217192288,8.146541951103355
1769159159696,135,7,8.059860077354202,8.51736746236092,8.42339234524168
1769159159700,135,7,8.104257392238694,8.30037218415406,8.469505377742912
1769159159704,135,7,8.016562283741766,8.39438447708197,8.38491986885686
1769159159708,135,7,7.9559998516793,8.46123050372412,8.327134750212199
1769159159712,135,7,8.051989629739158,8.322932097184387,8.424249842596055
1769159159716,135,7,8.333807947765523,8.519408293561542,8.705577548148103
1769159159720,136,8,8.712965729537853,9.229762573470634,9.0837110134503
1769159159724,136,8,9.03213669837872,9.537069273112069,9.402602974357055
1769159159728,136,8,9.15418098506192,9.290531119599956,9.525904639492577
1769159159732,136,8,9.035394951118564,9.530604762336218,9.409784202461204
1769159159736,136,8,8.738941866723316,9.32706086866723,9.116470455474976
1769159159740,135,7,8.382411462202983,8.392471835251948,8.762524739343823
1769159159744,135,7,8.052355529152718,8.436508443770032,8.433978016862508
1769159159748,135,7,7.743297777253202,8.353638585215535,8.125484751745539
1769159159752,134,6,7.364614009798898,7.539410959357861,7.747149563753796
1769159159756,134,6,6.806969342691668,7.281082280713687,7.190582858691057
1769159159760,133,5,6.019171639404611,6.482762999853488,6.405011801854213
1769159159764,132,4,5.047457807164571,5.310977010550273,5.436250944718257
1769159159768,131,3,4.016573672800096,4.54104295838895,4.408360470545403
1769159159772,130,2,3.065399424787957,3.3315584702115526,3.4599782882760826
1769159159776,129,1,2.2782387638317454,2.533383040901575,2.6754961703924813
1769159159780,129,1,1.6586238743695216,2.2100336646666383,2.058237775309036
1769159159784,128,0,1.1611969870069787,1.610557809031112,1.5624175944736718
1769159159788,128,0,0.7459614105240173,1.2447909183242087,1.1483388972202704
1769159159792,127,-1,0.3995908749650789,0.6619211602799671,0.8039736471356682
1769159159796,127,-1,0.1116999387935924,0.1960188465998054,0.5198528947467737
1769159159800,127,-1,-0.1467798499708985,0.5548301299737659,0.2660461939698941
1769159159804,127,-1,-0.4021709272239051,0.2907796384263565,0.0144038676838169
1769159159808,126,-2,-0.643100287098151,-0.4528687877027741,-0.2243049506743037
1769159159812,126,-2,-0.8335273221871307,-0.5622121477292419,-0.4128950790260022
1769159159816,126,-2,-0.970889687387582,-0.6512274524482979,-0.5476349908658047
1769159159820,126,-2,-1.1142133623035022,-0.5217262605974506,-0.6876195201187398
1769159159824,126,-2,-1.3354231205080482,-0.6748041448474489,-0.905273847697518
1769159159828,125,-3,-1.6411458126306768,-1.427914663201533,-1.2070785354152225
1769159159832,125,-3,-1.9477653787794504,-1.591490791328837,-1.5091792352397613
1769159159836,125,-3,-2.1326385529024465,-1.6188692748753637,-1.689602148931294
1769159159840,125,-3,-2.114635768355316,-1.5498975313063428,-1.6681673344715695
1769159159844,125,-3,-1.908770820407119,-1.614552729374804,-1.459705387934243
1769159159848,125,-3,-1.626271248967589,-1.4911922544523315,-1.1743186741877651
1769159159852,126,-2,-1.4131811345677008,-0.4755903779693902,-0.9574694680788204
1769159159856,126,-2,-1.354883452457857,-0.792481627072134,-0.8948767436954042
1769159159860,125,-3,-1.417813702278646,-1.3120845232808016,-0.9532678992365518
1769159159864,126,-2,-1.48537886029853,-0.8857012291669064,-1.0159453543945385
1769159159868,125,-3,-1.4582281344898664,-1.1585661726514789,-0.9837223494805588
1769159159872,126,-2,-1.326587296205203,-0.8242259557526161,-0.8474920284766225
1769159159876,126,-2,-1.1578401403825227,-0.4248123978627425,-0.6750609750918368
1769159159880,126,-2,-1.0280951762883834,-0.6727375555268638,-0.5420320568342272
1769159159884,126,-2,-0.9691568355494884,-0.5268838201150547,-0.4791494900124153
1769159159888,126,-2,-0.9698426726124896,-0.4680887718825808,-0.4747006812194823
1769159159892,126,-2,-1.0101713306804627,-0.5441536591076936,-0.5092888907884943
1769159159896,126,-2,-1.0830459368362049,-0.658477774312691,-0.576956657104811
1769159159900,126,-2,-1.1842444326021182,-0.4622231445181131,-0.6739555297120228
1769159159904,126,-2,-1.291701963648855,-0.7032220082004057,-0.7773500591340436
1769159159908,125,-3,-1.3659249326008671,-1.283364080539482,-0.8463376452119209
1769159159912,126,-2,-1.3720638051887768,-0.7166864901040384,-0.8461036932030246
1769159159916,126,-2,-1.2933345926114137,-0.4780831707630071,-0.761442706025308
1769159159920,126,-2,-1.1263087626614203,-0.6330376055192652,-0.5899615199814792
1769159159924,126,-2,-0.887466361729276,-0.5190653484205316,-0.3471826686660155
1769159159928,126,-2,-0.6392505351873853,-0.4426055550086942,-0.0940749230313278
1769159159932,127,-1,-0.487062764478636,0.4265714771022931,0.0638509662390611
1769159159936,127,-1,-0.5134233794484316,0.4224798660126592,0.0429753767981959
1769159159940,126,-2,-0.7043445385393148,-0.5616089715840964,-0.1427019307093804
1769159159944,126,-2,-0.9534095149282382,-0.5394373861116768,-0.3856743640918576
1769159159948,126,-2,-1.1425002659558006,-0.439212367649989,-0.567702746844934
1769159159952,126,-2,-1.2143101755539665,-0.560235881491125,-0.6328966610170597
1769159159956,126,-2,-1.1810282603871958,-0.5615776135747912,-0.5945557353414666
1769159159960,126,-2,-1.0946353101339823,-0.5866485554063985,-0.5040057692678668
1769159159964,126,-2,-1.023878397129987,-0.4787354160426247,-0.4284507616286184
1769159159968,126,-2,-1.0409187940776514,-0.5206208085453661,-0.4394645640561487
1769159159972,126,-2,-1.1949873674877347,-0.4475800551657001,-0.5870397223727715
1769159159976,126,-2,-1.4761966384123886,-0.6699554310282434,-0.8620115751945834
1769159159980,125,-3,-1.806962707623987,-1.4562338383497226,-1.1863945049507114
1769159159984,125,-3,-2.0833343321329085,-1.6064560452690315,-1.4555716906873486
1769159159988,125,-3,-2.2345410769725222,-1.389600369558852,-1.5993333861515786
1769159159992,125,-3,-2.2505972103362577,-1.5543703683185073,-1.6091569523996048
1769159159996,125,-3,-2.1720107479143618,-1.5624731551049864,-1.526030654495144
1769159160000,125,-3,-2.074098604065937,-1.5159287565351551,-1.423974068469907
1769159160004,125,-3,-2.055761451313318,-1.5909688155033972,-1.4002076082783856
1769159160008,125,-3,-2.2050796968394946,-1.353768937968208,-1.5424212091592433
1769159160012,125,-3,-2.533826781197827,-1.613995844354787,-1.86320437224407
1769159160016,124,-4,-2.932986473155261,-2.4584015855441748,-2.254327279390442
1769159160020,124,-4,-3.2127409183764857,-2.608641682304863,-2.5263082021480683
1769159160024,124,-4,-3.2188184577880774,-2.5195414664130804,-2.5253731704713744
1769159160028,124,-4,-2.9392646154594373,-2.3797631897832936,-2.2402968584306366
1769159160032,125,-3,-2.5193114076815344,-1.6168965252831904,-1.8162215218572104
1769159160036,125,-3,-2.1776152520580263,-1.377116937416106,-1.4702235317550747
1769159160040,125,-3,-2.0849194210371964,-1.731985891554,-1.3711496037674362
1769159160044,125,-3,-2.273799904108722,-1.3734520271029629,-1.55135638331975
1769159160048,125,-3,-2.617709422427982,-1.517315414030579,-1.8859528068348248
1769159160052,124,-4,-2.892916403597155,-2.5009683813037773,-2.1528425030141287
1769159160056,124,-4,-2.9066384242410215,-2.386262120850696,-2.159603554244482
1769159160060,125,-3,-2.618098150453997,-1.813822786385903,-1.865221012199038
1769159160064,125,-3,-2.158749491041165,-1.196516011121271,-1.4008982152416527
1769159160068,126,-2,-1.7359605327870828,-0.7656012033972128,-0.9731191230723008
1769159160072,125,-3,-1.5069588393123428,-1.1796176716802322,-0.7376627615373941
1769159160076,126,-2,-1.5149157698370377,-0.709761378757308,-0.7373095895521107
1769159160080,126,-2,-1.7006368411061743,-0.4964869749633378,-0.9142849317196668
1769159160084,125,-3,-1.9536377399728273,-1.4812300484883048,-1.15970285930829
1769159160088,125,-3,-2.1734401866745987,-1.5200859789203538,-1.3731277462573712
1769159160092,125,-3,-2.315197988176445,-1.3376206748017574,-1.508622950121402
1769159160096,125,-3,-2.38876272808306,-1.6014074726270973,-1.5752868972325609
1769159160100,125,-3,-2.412514452971828,-1.5434957226552528,-1.591613546769981
1769159160104,125,-3,-2.3710956134866352,-1.4636926588252197,-1.542747080735807
1769159160108,125,-3,-2.224891520732206,-1.527653652133338,-1.389453902884191
1769159160112,125,-3,-1.964207175240312,-1.285787571120656,-1.1221803350305182
1769159160116,126,-2,-1.6508486151801725,-0.6709924937165028,-0.8026021987581131
1769159160120,126,-2,-1.3972114430382598,-0.4340542520867323,-0.5425776032426006
1769159160124,126,-2,-1.2919641176136043,-0.5858584428827649,-0.4300752411405377
1769159160128,126,-2,-1.3305924618500695,-0.4118278737139782,-0.4605196896897914
1769159160132,126,-2,-1.404425503675332,-0.341989298833109,-0.5261156244599434
1769159160136,126,-2,-1.3608402073578538,-0.6619436648309776,-0.4751450317649393
1769159160140,126,-2,-1.1017344407172909,-0.3568675423786769,-0.2095046043350472
1769159160144,127,-1,-0.6529984166583018,0.273122823192099,0.2455154104369541
1769159160148,127,-1,-0.1443247377155215,0.7800957658191281,0.7605719253433367
1769159160152,128,0,0.2935117048996002,1.4757747503283072,1.204954817072076
1769159160156,128,0,0.6283684612051272,1.509537845952332,1.5468345719410148
1769159160160,128,0,0.9356791688460278,1.5374820487605194,1.8620214821431835
1769159160164,129,1,1.3160980962938655,2.2952119864835026,2.2507600360395923
1769159160168,129,1,1.806042122571868,2.8641200191731815,2.748303296700509
1769159160172,130,2,2.3564010843917975,3.3186858387686757,3.3049281712054737
1769159160176,130,2,2.8763020416750993,3.769544672190329,3.83052407166989
1769159160180,131,3,3.2883239314342605,4.2250518900652985,4.248941453592494
1769159160184,131,3,3.5558864545039692,4.619900656333876,4.523999127230246
1769159160188,131,3,3.6784983720726414,4.576677761520958,4.65447721869989
1769159160192,131,3,3.669087682956755,4.561863688737272,4.65231089593028
1769159160196,131,3,3.532637152706654,4.646240896151636,4.522177466845733
1769159160200,131,3,3.2615917263950265,4.235389621679049,4.257173767534169
1769159160204,130,2,2.8503708876541043,3.72156042086906,3.852647702320223
1769159160208,130,2,2.3195457045814303,3.3846893805966345,3.3292972378475887
1769159160212,129,1,1.734830648758339,2.8564154922585128,2.752034779362643
1769159160216,129,1,1.1997671624760278,2.316307731983492,2.223854420724793
1769159160220,128,0,0.806842755862414,1.606429076441208,1.837712317536075
1769159160224,128,0,0.5710332838707938,1.3244602717864922,1.6090320753326912
1769159160228,128,0,0.4088626695138371,1.803287415193116,1.4535672521867626
1769159160232,128,0,0.196134646512049,1.4631587387043463,1.246139842870086
1769159160236,127,-1,-0.1484338987197972,0.7189183591176582,0.9062904857427448
1769159160240,127,-1,-0.6358152744497211,0.2290139116780551,0.4252517941089726
1769159160244,126,-2,-1.2403342576845162,-0.3436767981541473,-0.1706374804368802
1769159160248,126,-2,-1.922859567117246,-0.4765888758521091,-0.8444494848953559
1769159160252,125,-3,-2.608866837693734,-1.2669301179374433,-1.524180216492621
1769159160256,124,-4,-3.178449108526017,-2.4860713347249876,-2.0895425377551815
1769159160260,124,-4,-3.5255125727425294,-2.608531747315612,-2.431583809830491
1769159160264,124,-4,-3.6412835257393903,-2.477547671422193,-2.539678416805254
1769159160268,124,-4,-3.621929236440859,-2.3729536021620983,-2.511352842264178
1769159160272,124,-4,-3.580285435921372,-2.2867819853887714,-2.462616331029606
1769159160276,124,-4,-3.556223089593704,-2.4869101264707374,-2.435085911736768
1769159160280,124,-4,-3.523090709187116,-2.584446575044137,-2.4003940989008425
1769159160284,124,-4,-3.475094642780671,-2.538462455292588,-2.3484275207909864
1769159160288,124,-4,-3.481540770614649,-2.2911296857514767,-2.345034746530268
1769159160292,124,-4,-3.620495399292145,-2.313818289541015,-2.469601587848039
1769159160296,124,-4,-3.836522538323859,-2.4645279613374167,-2.6736751470164206
1769159160300,124,-4,-3.87148431016214,-2.5788268421619858,-2.7070983422959376
1769159160304,124,-4,-3.373947808751044,-2.6088938890185647,-2.2192084615996057
1769159160308,125,-3,-2.114272682396639,-1.1629915538996856,-0.9696748378740514
1769159160312,127,-1,-0.074347451570194,0.5816064554562548,1.0749563151286077
1769159160316,130,2,2.7705574031951175,3.671975414232011,3.944776895338435
1769159160320,137,9,6.849892849776559,10.29212087815064,8.057021857192515
1769159160324,142,14,13.083664876855533,15.477797772036608,14.311825802360666
1769159160328,147,19,22.192850236042883,20.78878648549517,23.4201661436637
1769159160332,159,31,33.45934979135625,32.64604961562052,34.669654900696905
1769159160336,172,44,43.999623348148425,45.660758315204234,45.18950256383618
1769159160340,179,51,49.577071518597855,52.262862747152646,50.75378930763452
1769159160344,176,48,46.78221017313709,49.532686875234944,47.9598245657622
1769159160348,163,35,35.12600774194825,36.65030623281355,36.32125757807461
1769159160352,144,16,17.504397114871512,17.767350540697255,18.72973994783397
1769159160356,125,-3,-1.3004407377274845,-1.4441654156698167,-0.0445660362138493
1769159160360,110,-18,-16.992237977826868,-16.578050187115792,-15.719239748358518
1769159160364,101,-27,-27.42482604362001,-25.50362696493732,-26.154462554821784
1769159160368,96,-32,-32.694986401013786,-30.286550323875034,-31.441017733737382
1769159160372,94,-34,-34.03300478535341,-32.30728377231125,-32.79502826924259
1769159160376,95,-33,-32.596932843407274,-31.39902088318684,-31.362394376391695
1769159160380,98,-30,-29.03668592369229,-28.6261700662134,-27.791044161264203
1769159160384,103,-25,-23.846348447833204,-23.418299969030173,-22.58333927954886
1769159160388,110,-18,-17.85960649769108,-16.320031826904152,-16.584155658900688
1769159160392,116,-12,-12.271029850839868,-10.325795069871337,-10.993357961820651
1769159160396,120,-8,-8.137221298030298,-6.3633415524933294,-6.863475489712591
1769159160400,122,-6,-5.83381197318141,-4.719376545599726,-4.561234291051942
1769159160404,122,-6,-4.952943419124082,-4.257841851555055,-3.673464661700004
1769159160408,123,-5,-4.696017896362881,-3.479449802612218,-3.4043403486720965
1769159160412,123,-5,-4.41003842121107,-3.14301947797568,-3.1083975133329984
1769159160416,124,-4,-3.8770425053896886,-2.544534506489595,-2.5727818855142015
1769159160420,125,-3,-3.2376778061550606,-1.5486006161815091,-1.9367337721043916
1769159160424,125,-3,-2.718106492388059,-1.3644431606458516,-1.4203989574556375
1769159160428,125,-3,-2.4144114348157455,-1.411204523855397,-1.1146424834009596
1769159160432,125,-3,-2.2615121049363016,-1.139327240758352,-0.9542025404045268
1769159160436,126,-2,-2.129882960105409,-0.6311749259252106,-0.8140045339150488
1769159160440,126,-2,-1.92415509998298,-0.3804377863347585,-0.603206040422924
1769159160444,126,-2,-1.623758023437032,-0.5559549305377505,-0.3018056899191663
1769159160448,126,-2,-1.2801276320945076,-0.1700369864453221,0.0416324108813197
1769159160452,127,-1,-0.9854034486188958,0.6075395570922189,0.3376960639373683
1769159160456,127,-1,-0.8127083928243916,0.6079312595012141,0.5137275876191556
1769159160460,127,-1,-0.7575156334072524,0.4098456078487803,0.5732435711553237
1769159160464,127,-1,-0.7327104469189971,0.6659052975747843,0.6022998885410907
1769159160468,127,-1,-0.6303159272086875,0.6360844742877871,0.7081428763794451
1769159160472,127,-1,-0.4012187643686545,0.7879605249323394,0.9393666488685896
1769159160476,128,0,-0.0899303124185385,1.4370549451093442,1.251445303427842
1769159160480,128,0,0.1974648988319898,1.5833404289933148,1.5392479100990086
1769159160484,128,0,0.3618017503984834,1.5352761331019846,1.7051526645338186
1769159160488,128,0,0.3680683508971285,1.7575283926761918,1.7148479115325377
1769159160492,128,0,0.2649517127519943,1.689192915763873,1.6158853598937477
1769159160496,128,0,0.1635758174997325,1.4983945622173245,1.5173822627721214
1769159160500,128,0,0.1802807265734695,1.581745654293571,1.534917361420281
1769159160504,128,0,0.3635707265847784,1.5232124827448346,1.7182757542645024
1769159160508,128,0,0.6538792682248882,1.8165494931645607,2.0096385034121287
1769159160512,129,1,0.9248392386240508,2.602140839880807,2.282807428595651
1769159160516,129,1,1.0923829723469478,2.598604105924804,2.452375049331605
1769159160520,129,1,1.198474054301083,2.4903018061100552,2.559465902698532
1769159160524,129,1,1.3786476023178014,2.6446143052888935,2.740439344163397
1769159160528,129,1,1.7327269852862663,2.700330167862202,3.0962977735596056
1769159160532,130,2,2.226402144686898,3.713172979303333,3.5922899785730555
1769159160536,131,3,2.727689444867109,4.509937002273123,4.094656345515054
1769159160540,131,3,3.1378675205419935,4.564285821100777,4.504042747986888
1769159160544,131,3,3.471488036998924,4.640609898114008,4.836730322460877
1769159160548,131,3,3.8042730098364306,4.648500996538188,5.170431488254269
1769159160552,132,4,4.167117353700778,5.813869491112306,5.535660877024471
1769159160556,133,5,4.518069775551544,6.381409217181905,5.88834093461333
1769159160560,132,4,4.810673414067274,5.739770354641489,6.1809806370850335
1769159160564,133,5,5.058388069295178,6.4799344956554314,6.428014013855007
1769159160568,133,5,5.318604391941421,6.796466411873795,6.688032231709092
1769159160572,133,5,5.625046818622459,6.671051800728123,6.994715615995984
1769159160576,134,6,5.945076668240176,7.52675688951698,7.314694273463185
1769159160580,134,6,6.200564375835199,7.646142138139054,7.569705917863592
1769159160584,134,6,6.329044524740866,7.5557507517051805,7.697967857791156
1769159160588,134,6,6.331996953979207,7.754884386029048,7.701415295270239
1769159160592,134,6,6.274914893677197,7.6610877725068764,7.644916431745436
1769159160596,134,6,6.242379073859416,7.591470931258712,7.611967154990852
1769159160600,134,6,6.27754834920095,7.586955650229807,7.645566045998035
1769159160604,134,6,6.344756168870407,7.64727131193541,7.711098516787767
1769159160608,134,6,6.347932574508656,7.646318891783012,7.713505360260269
1769159160612,134,6,6.2050142791869956,7.768064869861977,7.570544495801361
1769159160616,134,6,5.926094364646657,7.497429103708897,7.291396379777867
1769159160620,133,5,5.619638999467825,6.710186836337259,6.984133952627457
1769159160624,133,5,5.404400481319309,6.54828905871082,6.7677993560209675
1769159160628,133,5,5.3013927896058455,6.714421624715242,6.6634902160587055
1769159160632,133,5,5.211848569322354,6.735424448865428,6.572152114875518
1769159160636,133,5,5.003120908544387,6.492855246586942,6.361357092536576
1769159160640,132,4,4.616502461855049,5.820151873606552,5.973285820871556
1769159160644,132,4,4.100146271395385,5.356398564942292,5.456404908436245
1769159160648,131,3,3.5543637862969746,4.988109295223973,4.909962763775542
1769159160652,131,3,3.0509747400878213,4.376787152912104,4.404535679652667
1769159160656,130,2,2.5889496827665317,3.9376797913395367,3.939441214053116
1769159160660,130,2,2.1071586396428508,3.3790183199907107,3.455237836371077
1769159160664,129,1,1.5421018540601268,2.7923396510542355,2.8892579464853787
1769159160668,129,1,0.8968685646404511,2.583092202995425,2.2433982642983494
1769159160672,128,0,0.2665333646011749,1.715769814798882,1.6111333160847003
1769159160676,127,-1,-0.2242428182594946,0.6972356480600501,1.1172428910230283
1769159160680,127,-1,-0.5392459191893546,0.5781227952699932,0.799298216083
1769159160684,127,-1,-0.7886413916722748,0.6617141069798946,0.5475510378111318
1769159160688,127,-1,-1.1423083024176477,0.6481133248348787,0.1912646340797152
1769159160692,126,-2,-1.664622873800607,-0.2922676773829327,-0.3341494165191243
1769159160696,125,-3,-2.236254187727795,-1.3311137884322592,-0.9081110243991112
1769159160700,125,-3,-2.644127332452463,-1.3113286044180092,-1.3167147383824356
1769159160704,125,-3,-2.747407862405563,-1.5068409737167858,-1.4205059203215504
1769159160708,125,-3,-2.5660029613300672,-1.1230478960486785,-1.2417796541649493
1769159160712,126,-2,-2.2390903796172372,-0.5649083778012716,-0.9201750660006488
1769159160716,125,-3,-1.927615306067075,-0.9955909567294456,-0.6143201762075625
1769159160720,126,-2,-1.750367743441006,-0.6695891630268962,-0.4404771587884979
1769159160724,126,-2,-1.765257968318391,-0.1208611609315084,-0.4566268648265241
1769159160728,126,-2,-1.9600955668998763,-0.5245150638829468,-0.6527183358146655
1769159160732,125,-3,-2.2520828975287097,-1.1507393883497663,-0.9473754463025548
1769159160736,125,-3,-2.525324965871097,-1.371802111676903,-1.2242645408947492
1769159160740,125,-3,-2.6945413423240407,-1.3201457668091408,-1.397160035553035
1769159160744,125,-3,-2.7388653670026195,-1.4174302001079877,-1.444977331089987
1769159160748,125,-3,-2.6790748044091384,-1.2770017908380766,-1.38867232145216
1769159160752,125,-3,-2.533841737085981,-1.3286271568902046,-1.246886760774621
1769159160756,125,-3,-2.302787081518005,-1.2331641373236517,-1.0192297527442251
1769159160760,126,-2,-1.9833753288922495,-0.4032919007670721,-0.703414065479528
1769159160764,126,-2,-1.5961325572021288,-0.3695641744588989,-0.3199837161541645
1769159160768,126,-2,-1.1956700794314326,-0.2874501438562622,0.076891810172881
1769159160772,127,-1,-0.8568258128230819,0.6730649241943523,0.4125157768267919
1769159160776,127,-1,-0.6364333501575056,0.7940770363332952,0.629441387311081
1769159160780,127,-1,-0.5372563808990627,0.5605943879460287,0.7243676356064852
1769159160784,127,-1,-0.5135891226414149,0.6886067433588967,0.7433758243148922
1769159160788,127,-1,-0.5185049966635652,0.647799571143677,0.7342587834169059
1769159160792,127,-1,-0.5409983657820836,0.7495234492387716,0.708401285499711
1769159160796,127,-1,-0.5899584856448721,0.7513533551879004,0.6564790901517231
1769159160800,127,-1,-0.644288554576324,0.5804839984428906,0.5988041527580555
1769159160804,127,-1,-0.631101841530563,0.7118832284541663,0.6078213438550922
1769159160808,127,-1,-0.4703084779726499,0.5923599755646313,0.7638562274097769
1769159160812,127,-1,-0.1557566018355144,0.8388232975621397,1.0736496845185806
1769159160816,128,0,0.2047938544216035,1.6758993409446377,1.4297571208052084
1769159160820,128,0,0.4426631732159822,1.6566302777503734,1.6633425858032267
1769159160824,128,0,0.4415582145311288,1.6556599937941363,1.6578718016229008
1769159160828,128,0,0.2176878292632423,1.6321395487544876,1.4296709043472426
1769159160832,127,-1,-0.1016188502020033,0.8201323558578489,1.106508542335766
1769159160836,127,-1,-0.3808043186836569,0.69912007447088,0.8240580217981451
1769159160840,127,-1,-0.5687487594743256,0.6666341117189367,0.6326459328647291
1769159160844,127,-1,-0.7024557047020856,0.6255681504396788,0.4941694961596878
1769159160848,127,-1,-0.8349287646926655,0.6989067817076774,0.3557313992373596
1769159160852,126,-2,-0.9757063634173072,-0.2734296805132272,0.2093682373383014
1769159160856,126,-2,-1.1016905760248517,-0.1698103642805146,0.0793440638454929
1769159160860,127,-1,-1.2011046886620262,0.5351911324322867,-0.0233114110991341
1769159160864,126,-2,-1.2845888543860406,-0.2313526023118388,-0.1107333433398485
1769159160868,126,-2,-1.3615619919271806,-0.4351047279707931,-0.192603575860162
1769159160872,126,-2,-1.4259254573290838,-0.1339619061263233,-0.2619600165422939
1769159160876,126,-2,-1.465436564197023,-0.3066326679800577,-0.3060351292753522
1769159160880,126,-2,-1.4742568057155825,-0.3112717046525168,-0.3192361680804971
1769159160884,126,-2,-1.4570289529802318,-0.3648900409837341,-0.3065498572082252
1769159160888,126,-2,-1.4282290659687034,-0.3154171294494741,-0.2825032140219117
1769159160892,126,-2,-1.406919865704765,-0.2194175226386987,-0.2660606219486552
1769159160896,126,-2,-1.40537624543619,-0.2523675972162496,-0.2693184502433106
1769159160900,126,-2,-1.4197147473123228,-0.3117357446920217,-0.2881093788481514
1769159160904,126,-2,-1.43301751372159,-0.384295433570482,-0.3054118507213559
1769159160908,126,-2,-1.4286361831730117,-0.2697221224311368,-0.3050270446393639
1769159160912,126,-2,-1.4014046491157903,-0.2674159172056689,-0.2825290138385923
1769159160916,126,-2,-1.3613397519328492,-0.2111694002563671,-0.2480868730943273
1769159160920,126,-2,-1.334393598102233,-0.298511435340985,-0.2268204168555516
1769159160924,126,-2,-1.3588841889193122,-0.4488405626750458,-0.2560484852276132
1769159160928,126,-2,-1.465538230542076,-0.119662587246933,-0.3664641083762416
1769159160932,126,-2,-1.642574327741818,-0.5042218204453994,-0.5472074741179653
1769159160936,125,-3,-1.818337166722616,-0.8790231802673556,-0.7273942678010492
1769159160940,126,-2,-1.8949069731182848,-0.6867200582463482,-0.8089560631048207
1769159160944,125,-3,-1.8187160478616613,-1.001940978591971,-0.7376690401035939
1769159160948,126,-2,-1.6276870097719984,-0.5840925389164942,-0.5512333917477621
1769159160952,126,-2,-1.4260944699464886,-0.0358579903062226,-0.3543644966271806
1769159160956,126,-2,-1.3049241718859763,-0.3106757667656898,-0.2383702401402576
1769159160960,126,-2,-1.280623245989693,-0.2945239436423768,-0.2192476050375882
1769159160964,126,-2,-1.3052856085951543,-0.3151713096043729,-0.2483496849838302
1769159160968,126,-2,-1.326166176974153,-0.3519441671791079,-0.2728651411157576
1769159160972,126,-2,-1.3283797214927209,-0.1749608843739341,-0.2786680475789369
1769159160976,126,-2,-1.3257440308348,-0.2294305033637274,-0.2803753716075092
1769159160980,126,-2,-1.3254930870973496,-0.3133201447899982,-0.2853240734543347
1769159160984,126,-2,-1.3142606883473231,-0.3198519159677535,-0.2795803318089207
1769159160988,126,-2,-1.2799000140889203,-0.3323576101396739,-0.2503017816920243
1769159160992,126,-2,-1.2396529438643322,-0.1940292974027797,-0.2143614672519125
1769159160996,126,-2,-1.2375701157953198,-0.1814394034245845,-0.2159454990056661
1769159161000,126,-2,-1.306482220956437,-0.3742668976950523,-0.2884940049112754
1769159161004,126,-2,-1.4278055700089842,-0.2182801200224018,-0.414097907130468
1769159161008,126,-2,-1.5321237438469235,-0.4769455843036558,-0.5233770814798697
1769159161012,125,-3,-1.5521960567735982,-0.9966188411717484,-0.5483875950679313
1769159161016,126,-2,-1.4847287901002706,-0.4024833353415382,-0.4853071569589837
1769159161020,126,-2,-1.3933373124061572,-0.1096867612637109,-0.3980700642105148
1769159161024,126,-2,-1.3381014139038545,-0.4931197471681057,-0.3472774831406808
1769159161028,126,-2,-1.2995520278477517,-0.2057001837361376,-0.3132302908069635
1769159161032,126,-2,-1.176773092586355,-0.2303594473305927,-0.1942537723656923
1769159161036,126,-2,-0.8642621442015661,-0.2201390541714161,0.1152780288740187
1769159161040,127,-1,-0.3353976056042336,0.8132718960692606,0.640909914110343
1769159161044,128,0,0.339849540689382,1.4928820252237638,1.311405849653935
1769159161048,128,0,1.0451740945657844,1.906977343617661,2.010638463957708
1769159161052,129,1,1.6780291688500926,2.5813500183945526,2.6378348189354304
1769159161056,129,1,2.1749706228771375,3.028927066338136,3.131129784969939
1769159161060,130,2,2.511830010558486,3.5504359083759756,3.466046739567986
1769159161064,130,2,2.704688684707317,3.770594795771374,3.656793585647757
1769159161068,130,2,2.80685161762573,3.651566480056671,3.755086009439842
1769159161072,130,2,2.8790168962669935,3.8037331014578504,3.821760717045782
1769159161076,130,2,2.937822231439265,3.860839853980342,3.8751158049417143
1769159161080,130,2,2.9267609752537025,3.680955714238581,3.860188822987515
1769159161084,130,2,2.7517271746985847,3.703175011847163,3.6826859242788186
1769159161088,130,2,2.3696905928950587,3.6840389896501784,3.2978895149677
1769159161092,129,1,1.853513844767855,2.7980676223720335,2.777605954970748
1769159161096,128,0,1.3533233702075909,1.8581399360076551,2.27290106575249
1769159161100,128,0,0.9712224141435396,1.699962461600447,1.8873710650783344
1769159161104,128,0,0.6732716829090692,1.7042154370246998,1.5868863872056278
1769159161108,128,0,0.3383747834756831,1.6783836257232931,1.24880810595487
1769159161112,127,-1,-0.1075837236968403,0.8341955106138329,0.798489080697772
1769159161116,126,-2,-0.6214155897547577,-0.2147688072853051,0.2803395215471831
1769159161120,126,-2,-1.1048890740585289,-0.1769191144242925,-0.2063008303443474
1769159161124,126,-2,-1.5156004606362343,-0.4544888142206993,-0.6194838165398908
1769159161128,125,-3,-1.904118399287241,-1.098827361843303,-1.0108760626755249
1769159161132,125,-3,-2.351646628573734,-1.4188720443742318,-1.4619641847554967
1769159161136,124,-4,-2.880075879187604,-1.933696311030288,-1.9940899062018835
1769159161140,124,-4,-3.4168500853373915,-2.480674043476295,-2.534081687631594
1769159161144,123,-5,-3.842870317429653,-3.1266142902401755,-2.9625686821394663
1769159161148,123,-5,-4.083190150986372,-3.402528232151069,-3.204918495631094
1769159161152,123,-5,-4.161015523852311,-3.127490657529128,-3.2853795862572226
1769159161156,123,-5,-4.164312674173049,-3.183301279265393,-3.292944235357144
1769159161160,123,-5,-4.15762073676996,-3.292400066872477,-3.291627716477686
1769159161164,123,-5,-4.126942507456903,-3.2295617178390086,-3.26482023137797
1769159161168,123,-5,-4.010058142271693,-3.3613529536084576,-3.147589978323675
1769159161172,123,-5,-3.77547972721953,-3.088763211651359,-2.9091018574909695
1769159161176,124,-4,-3.466910452509006,-2.2781142172172317,-2.598422264468148
1769159161180,124,-4,-3.174894880703542,-2.152324410966191,-2.3126017884781387
1769159161184,124,-4,-2.9743228202498355,-2.3839852096911276,-2.1276401943159797
1769159161188,124,-4,-2.8708545015729596,-2.1861004164206568,-2.041514482671932
1769159161192,124,-4,-2.7249791496054376,-2.2492312949826134,-1.9025339979064937
1769159161196,125,-3,-2.099396690976727,-1.1463794459109675,-1.2664718447768957
1769159161200,128,0,-0.1076480577737939,1.778388228944677,0.7477803390103657
1769159161204,132,4,4.470846174509162,5.64409877667681,5.345731073736597
1769159161208,139,11,12.569360048651356,12.859452445754762,13.446422866696608
1769159161212,150,22,23.85496683544118,23.67817265460792,24.71339206088316
1769159161216,162,34,36.047090846901746,35.93771401470294,36.87505386350512
1769159161220,173,45,45.281842473783946,46.72419523129072,46.08273151202327
1769159161224,176,48,47.67206516791205,49.655212253298,48.46157512309356
1769159161228,169,41,41.28805624553722,42.87165977607414,42.08507845223471
1769159161232,155,27,27.301612790724963,28.554625612787305,28.118776123402313
1769159161236,135,7,9.48126890861359,9.102214304689287,10.320076834496216
1769159161240,118,-10,-7.668449572118904,-8.464447993733671,-6.8166906027176015
1769159161244,106,-22,-20.903547175462048,-20.013110509815057,-20.052900786728905
1769159161248,99,-29,-29.14312384724651,-27.419976259296025,-28.306459126181817
1769159161252,95,-33,-32.96287901906676,-31.154237692985134,-32.145606617069966
1769159161256,94,-34,-33.41856572207854,-32.156610253237,-32.61590263105638
1769159161260,95,-33,-31.251094094410604,-31.3298746884749,-30.451569971553685
1769159161264,99,-29,-26.934212442661767,-27.005457324175183,-26.12787098542833
1769159161268,106,-22,-21.17572247902784,-20.507257906083343,-20.360974652761428
1769159161272,112,-16,-15.152767126677128,-13.969041432447494,-14.336226668014838
1769159161276,118,-10,-10.154660511037688,-8.41682094725915,-9.344158956346153
1769159161280,120,-8,-6.948409354970959,-6.084527629409938,-6.1455911089378095
1769159161284,121,-7,-5.443194350398564,-5.240818710110909,-4.642447417072225
1769159161288,122,-6,-4.9252391005434575,-4.273740313792619,-4.119521315364553
1769159161292,122,-6,-4.626575200270446,-4.140519140684274,-3.8141614454886033
1769159161296,123,-5,-4.163971832886411,-3.281885293163923,-3.3498696987824292
1769159161300,124,-4,-3.578347223716467,-2.179211471193521,-2.7696046510037773
1769159161304,124,-4,-3.072693574487734,-2.174237810427807,-2.272185870699421
1769159161308,124,-4,-2.749933317324439,-2.3068055821458384,-1.954242733293318
1769159161312,124,-4,-2.554654870110963,-2.086669564668978,-1.7578327792850068
1769159161316,125,-3,-2.3777988441808953,-1.3698998351935157,-1.5769926110689771
1769159161320,125,-3,-2.159061474993929,-1.0417227560723137,-1.3561098233568702
1769159161324,125,-3,-1.9014838272439285,-1.3531206889441023,-1.099542091259217
1769159161328,125,-3,-1.6345951013118625,-1.0653407481293824,-0.8346738977484973
1769159161332,126,-2,-1.3798271711542942,-0.3528137299544887,-0.5810755625298956
1769159161336,126,-2,-1.1319539164908057,-0.0942345831742597,-0.3338079794014381
1769159161340,126,-2,-0.8649436151709158,-0.3071437070375671,-0.0675728010780178
1769159161344,126,-2,-0.570222107958815,-0.0920745954642618,0.2265876917608824
1769159161348,127,-1,-0.2921232782374379,0.7066225828522616,0.504985801996149
1769159161352,127,-1,-0.1036364420845585,0.861277552231185,0.6943096312616922
1769159161356,127,-1,-0.0292764878041245,0.7072438336467861,0.7691416195232748
1769159161360,127,-1,0.0018721224203599,0.8900887292439783,0.8000254273409142
1769159161364,127,-1,0.1089880439785782,0.7201079334972423,0.9065606939437474
1769159161368,127,-1,0.3530254407744568,0.9016370056082944,1.1502715988212806
1769159161372,128,0,0.6734569107773258,1.6848296579127708,1.4707762108347873
1769159161376,128,0,0.9344466080512912,1.8735741754150863,1.732064414402049
1769159161380,128,0,1.04140970451918,1.751565945804256,1.8394101644652037
1769159161384,128,0,1.0219559959871294,1.8325160803127416,1.8203237285574496
1769159161388,128,0,1.001359617566911,1.8318319111254608,1.799986951612396
1769159161392,128,0,1.0976826430251485,1.7182054920034968,1.8965996365755895
1769159161396,128,0,1.3283453847963025,1.9053027747113709,2.127849898342186
1769159161400,129,1,1.6108958369871598,2.6659347706647103,2.41119060399326
1769159161404,129,1,1.858679623170746,2.986135918105889,2.6596035670869567
1769159161408,129,1,2.0769602759201855,2.624224815237284,2.8783872132431663
1769159161412,129,1,2.3571577475931833,2.978676943622147,3.1593409484988615
1769159161416,130,2,2.772086271467161,3.621949748499467,3.575198542542721
1769159161420,130,2,3.2804606169745436,3.967625306436825,4.084053590097032
1769159161424,131,3,3.737272453833397,4.700052068265517,4.540684300707563
1769159161428,131,3,4.001513341818232,4.905028925996691,4.804846744900388
1769159161432,131,3,4.047720900667665,4.708821976216729,4.852121973189622
1769159161436,131,3,3.992285551096625,4.889641871605886,4.799063946172648
1769159161440,131,3,4.01863325299872,4.707707241742607,4.8281138669629815
1769159161444,131,3,4.259343193336669,4.973118093103258,5.070599343951266
1769159161448,132,4,4.716220773822265,5.64687853949661,5.52784899648765
1769159161452,132,4,5.266187736963769,5.961686452481303,6.077311384021784
1769159161456,133,5,5.741405734049614,6.649548560333252,6.552125882155161
1769159161460,133,5,6.026225422007935,6.941832835341757,6.837463513598979
1769159161464,133,5,6.108759725270603,6.759092673953394,6.921840791021173
1769159161468,133,5,6.062412975443978,6.8552544357834755,6.8784966864572334
1769159161472,133,5,5.984845634166631,6.778247374219728,6.804216943549931
1769159161476,133,5,5.945212180102778,6.803382522645314,6.766883352623803
1769159161480,133,5,5.966701932968945,6.842409569412068,6.788930233125053
1769159161484,133,5,6.032366352206966,6.8149476167027085,6.853964220266607
1769159161488,133,5,6.092604236773778,6.8635500393049185,6.913972261833406
1769159161492,133,5,6.076267491500059,6.719350668852776,6.8990913886612715
1769159161496,133,5,5.924507942800967,6.905186777891807,6.750361714389855
1769159161500,133,5,5.6424231607065485,6.7268875270612805,6.471735476084316
1769159161504,132,4,5.3203600942497005,5.943571125961898,6.152591309391829
1769159161508,132,4,5.081088622967504,5.757364499539956,5.915327980538058
1769159161512,132,4,4.979785041636529,5.7943489619132675,5.814921714122352
1769159161516,132,4,4.942866549199449,5.877311653539145,5.7779067802388955
1769159161520,132,4,4.80287237030847,5.7194993916795145,5.6379433704784425
1769159161524,131,3,4.404136468961031,5.013254757144239,5.240976951706939
1769159161528,131,3,3.707045398598106,4.635911896510036,4.547701181230338
1769159161532,130,2,2.8291313304755357,3.9599605789914634,3.674055273347295
1769159161536,129,1,1.9921295765404856,2.679723464444898,2.840041742626674
1769159161540,128,0,1.389051482690649,1.9552654367927444,2.2385268132220597
1769159161544,128,0,1.0524856075589206,1.7883529508730738,1.9029805566042393
1769159161548,128,0,0.835476807742314,1.84501659888348,1.6869121863198022
1769159161552,128,0,0.5360734363549742,1.7815940329744715,1.3885366472845544
1769159161556,127,-1,0.0595961248613474,0.8310416097744071,0.9139929632470626
1769159161560,126,-2,-0.5260644099804601,-0.1619196135235385,0.3319778114014995
1769159161564,126,-2,-1.0731659182880773,-0.1020649158329998,-0.2106464262680094
1769159161568,126,-2,-1.475626312236129,-0.2617841146110236,-0.6099146259438606
1769159161572,125,-3,-1.728092790911253,-1.0920638395812532,-0.8612519894745914
1769159161576,125,-3,-1.9080798878172065,-1.3021171764738586,-1.0406830331709969
1769159161580,125,-3,-2.1148595576016347,-1.0045862973055852,-1.2457395746831397
1769159161584,125,-3,-2.397646139507103,-1.277938047573572,-1.525418853540939
1769159161588,124,-4,-2.715593978232716,-2.065453775636931,-1.8396625541648892
1769159161592,124,-4,-2.9697546368234624,-2.286624557647237,-2.090267565612798
1769159161596,124,-4,-3.087300375961157,-2.1044308345771654,-2.20500298084361
1769159161600,124,-4,-3.0811975704219186,-2.1820624653872973,-2.1971712091679825
1769159161604,124,-4,-3.0337590850853227,-2.1228041700893185,-2.1485658975976603
1769159161608,124,-4,-3.0266777977198194,-2.1706862088475467,-2.139612525000897
1769159161612,124,-4,-3.0770965745607364,-2.233583575346575,-2.1866369658584803
1769159161616,124,-4,-3.1208950834534983,-2.088551266926684,-2.2260386592683403
1769159161620,124,-4,-3.0499236003115615,-2.2596786721030777,-2.151003580100609
1769159161624,124,-4,-2.7825756998567313,-1.9763407875218209,-1.880838268471096
1769159161628,125,-3,-2.326721430025053,-1.356433394412226,-1.423265412161191
1769159161632,125,-3,-1.7911242667648803,-1.0123751870921367,-0.8861797749753098
1769159161636,126,-2,-1.330583633764345,-0.3204154607919485,-0.4235280586211789
1769159161640,126,-2,-1.0577323276020756,-0.0214398423888946,-0.1475761152177479
1769159161644,126,-2,-0.9829347992671428,-0.2017148576304275,-0.0688622251344659
1769159161648,126,-2,-1.0249352855181175,-0.1429156257950243,-0.1067357737893126
1769159161652,126,-2,-1.0794774167217196,-0.1951292708740926,-0.1577296855125249
1769159161656,126,-2,-1.0894125971171484,-0.1671407337537871,-0.1651214276148354
1769159161660,126,-2,-1.0664729502479189,-0.1230326133703874,-0.1402200426643742
1769159161664,126,-2,-1.0585319348695537,-0.1411174591979118,-0.1299028863470857
1769159161668,126,-2,-1.0943629827066688,-0.1517682533499516,-0.1623424579484389
1769159161672,126,-2,-1.147131843942286,-0.2275834345649383,-0.2111015663310724
1769159161676,126,-2,-1.142790984214868,-0.0933483325350112,-0.2030030515772158
1769159161680,126,-2,-1.011650538823771,-0.2136853491580963,-0.0687236160767248
1769159161684,126,-2,-0.7489559621485216,-0.0306931964872363,0.1967829387089419
1769159161688,127,-1,-0.4329149047209507,0.7416963367839883,0.515612846241229
1769159161692,127,-1,-0.1757421529862326,0.8745096502493496,0.7756051667826246
1769159161696,127,-1,-0.0456726797970716,0.81950680622376,0.908693771516659
1769159161700,127,-1,-0.0293329411429588,0.8748231406966773,0.9285769878592997
1769159161704,127,-1,-0.0629585411141591,0.8780378620358353,0.898999105169619
1769159161708,127,-1,-0.095299154990724,0.856770174092917,0.8706488214904436
1769159161712,127,-1,-0.124781402951958,0.7336520793678483,0.8444829284454617
1769159161716,127,-1,-0.1867644300603543,1.011065740134445,0.7851126017936508
1769159161720,127,-1,-0.3127048558534499,0.6413414407626109,0.6617513068844916
1769159161724,126,-2,-0.5011256242049918,0.157652748254369,0.4765935138389825
1769159161728,127,-1,-0.7188254327088655,0.5447232262951838,0.2628477080803679
1769159161732,126,-2,-0.9200815383506432,0.0757998894358762,0.0656621468699878
1769159161736,126,-2,-1.067039589274811,-0.3320616021805662,-0.0775089447501871
1769159161740,126,-2,-1.1446533353496435,-0.0139208474414724,-0.1516275938317552
1769159161744,126,-2,-1.164064357064165,-0.1633098182423193,-0.1678123017840516
1769159161748,126,-2,-1.1511982924182975,-0.1750192163748143,-0.15199530435795
1769159161752,126,-2,-1.1310767051429955,-0.1348482264197013,-0.128966895039517
1769159161756,126,-2,-1.120735149673394,-0.1857026125990009,-0.1153246171851924
1769159161760,126,-2,-1.1291155389864904,-0.0853412255619845,-0.1197468265584542
1769159161764,126,-2,-1.154634278648666,-0.1478734455208008,-0.1408358553568751
1769159161768,126,-2,-1.1808853346958443,-0.1511544087272798,-0.1627360909721542
1769159161772,126,-2,-1.1818549600849295,-0.163329223530672,-0.1599845470477598
1769159161776,126,-2,-1.143344396089311,-0.158163658318664,-0.1185278377284071
1769159161780,126,-2,-1.0892431143041768,-0.0850082748124037,-0.0618668836877003
1769159161784,126,-2,-1.0868795370564492,-0.1779846814885446,-0.0567190613445409
1769159161788,126,-2,-1.2127035846534229,-0.0845740043053304,-0.1791290285006679
1769159161792,126,-2,-1.491761394615886,-0.2538071280591212,-0.4540401520892432
1769159161796,125,-3,-1.8574636188478204,-1.033182162375837,-0.8150054031509295
1769159161800,125,-3,-2.1719949819752973,-1.2319310891859987,-1.124734796298413
1769159161804,125,-3,-2.299138145466165,-1.0068958386814857,-1.2477938152292922
1769159161808,125,-3,-2.180836307983,-1.2685593952984835,-1.1264361582850475
1769159161812,125,-3,-1.8713440506582952,-1.048018734609547,-0.8143856463993333
1769159161816,126,-2,-1.508753594495936,-0.2313899962285142,-0.4490196485360813
1769159161820,126,-2,-1.235872517760892,-0.0457730526435551,-0.1728765182990765
1769159161824,126,-2,-1.1200720337887833,-0.1727630891466403,-0.0532891327784637
1769159161828,126,-2,-1.1312105163908814,-0.1239369065047253,-0.060058613504957
1769159161832,126,-2,-1.188638945077945,-0.1588489425005288,-0.1127649144558873
1769159161836,126,-2,-1.227970468026253,-0.1400142150722569,-0.1476758751436269
1769159161840,126,-2,-1.2324951240124276,-0.1060514497056748,-0.1486319949050127
1769159161844,126,-2,-1.219082644240302,-0.1348406587271269,-0.1323777049442136
1769159161848,126,-2,-1.2079852972825462,-0.1376861976794279,-0.1184698059941098
1769159161852,126,-2,-1.2066337037179684,-0.1549729737225789,-0.1137077131687811
1769159161856,126,-2,-1.2127010162151692,-0.1288299867696776,-0.1156758099635468
1769159161860,126,-2,-1.2226382511688452,-0.1143859848095449,-0.121213402116058
1769159161864,126,-2,-1.2337765676546275,-0.1271354117161196,-0.1281245017676651
1769159161868,126,-2,-1.2414398126290696,-0.1361286899006959,-0.1320011685188737
1769159161872,126,-2,-1.2395132745242503,-0.1581874336854356,-0.1267497768528174
1769159161876,126,-2,-1.2273342685068065,-0.1149804848985815,-0.1115186710101656
1769159161880,126,-2,-1.2160186566699756,-0.1229491864302338,-0.0970449745294399
1769159161884,126,-2,-1.2244230579739084,-0.122506830959403,-0.1017687619427683
1769159161888,126,-2,-1.2620461178910602,-0.1246706313839143,-0.1350777978668562
1769159161892,126,-2,-1.3087037900324674,-0.183016430587271,-0.1771847929839718
1769159161896,126,-2,-1.3101190559291314,-0.0650337801521232,-0.174433837371263
1769159161900,126,-2,-1.2034552467147162,-0.1836045049083468,-0.0643260221162893
1769159161904,126,-2,-0.961944066014596,-0.0501639756101386,0.1800374527447115
1769159161908,127,-1,-0.6215736642404571,0.8055570750195808,0.523149032377362
1769159161912,127,-1,-0.2600306190433927,0.8860831759599392,0.8879848331356622
1769159161916,127,-1,0.0603344567987207,0.883748712426533,1.212587645087294
1769159161920,128,0,0.3426809496559686,1.8533379183983711,1.4996891974502895
1769159161924,128,0,0.6608674373136398,1.9388183325355897,1.8222114673484515
1769159161928,128,0,1.10739942261029,1.783482878036099,2.2722217353752674
1769159161932,129,1,1.7123109269472216,2.960436644145715,2.8801038716877563
1769159161936,130,2,2.398408068934497,3.7705751592995065,3.569206778188627
1769159161940,130,2,3.019853203017252,4.007656308103636,4.193984235014382
1769159161944,131,3,3.456607759261856,4.762152496525074,4.634387390894457
1769159161948,131,3,3.686279457378864,4.972535191094941,4.867818531685563
1769159161952,131,3,3.7764273686554017,4.7698658406283645,4.961759096756994
1769159161956,131,3,3.806307412150169,4.963538402351636,4.99567082858551
1769159161960,131,3,3.7858719717950273,4.838148063327591,4.979487839544529
1769159161964,131,3,3.6458900469986033,4.900548878362754,4.843262252437996
1769159161968,131,3,3.309488930423435,4.891109958560522,4.509382541941541
1769159161972,130,2,2.773457166834744,3.783840880725819,3.9751253458198943
1769159161976,129,1,2.1174184375947367,3.027974516378739,3.3217265032264645
1769159161980,129,1,1.4416831468824851,2.7082655304229233,2.6505055736859857
1769159161984,128,0,0.8133651343123667,2.090592697972296,2.027810321583137
1769159161988,128,0,0.2755219588327906,1.669396173959853,1.4950059251471082
1769159161992,127,-1,-0.1171333930198421,1.036131962637768,1.1058015284328162
1769159161996,127,-1,-0.3077314190821544,0.7624584616025059,0.9173202623604476
1769159162000,127,-1,-0.3028759515779397,0.9768313020037004,0.9239285426047468
1769159162004,127,-1,-0.2275632766662434,0.8354853621857378,1.0015572712963676
1769159162008,127,-1,-0.2945543111064647,0.9155772917948338,0.9377664887442834
1769159162012,127,-1,-0.6821142576780399,0.8215126614122495,0.5538994163550601
1769159162016,126,-2,-1.4015028615317595,-0.0584328993755338,-0.1617568565585061
1769159162020,125,-3,-2.266086647178484,-1.1749492783698496,-1.022347498725177
1769159162024,124,-4,-3.003359382624445,-2.0324939128885315,-1.7548716680211989
1769159162028,124,-4,-3.427059715639744,-2.1884263283532626,-2.173512745778131
1769159162032,124,-4,-3.531791492288058,-2.0746622780657136,-2.2744597499560912
1769159162036,124,-4,-3.4497913026459175,-2.1493448887533684,-2.191215200253676
1769159162040,124,-4,-3.334418360365222,-2.100052041438254,-2.076498327927041
1769159162044,124,-4,-3.276855500827217,-2.0913417754551893,-2.0188963131616515
1769159162048,124,-4,-3.2983469646689656,-2.1477035176851325,-2.0366985319885957
1769159162052,124,-4,-3.3798108002093152,-2.083279879318796,-2.109789174154602
1769159162056,124,-4,-3.4769144543487123,-2.149160721882372,-2.1963694376948695
1769159162060,124,-4,-3.5180169686710205,-2.1033433830325152,-2.230337493337015
1769159162064,124,-4,-3.426181154302568,-2.068400561733017,-2.13975529089537
1769159162068,124,-4,-3.1820337999322623,-2.205965993990578,-1.9050663861432136
1769159162072,124,-4,-2.8584474524069288,-1.964169893791542,-1.5921288394412507
1769159162076,125,-3,-2.506200171214917,-1.312933955351157,-1.2416608616183715
1769159162080,126,-2,-1.8661961580370985,0.0969103169410861,-0.5884775734976477
1769159162084,128,0,-0.1131052608849763,1.7210659025505726,1.189633903511103
1769159162088,131,3,4.017455426564395,4.995274041319755,5.3450925671485905
1769159162092,139,11,11.535000656845,12.881578477954996,12.873239285201144
1769159162096,149,21,22.199433743673765,22.816404135152297,23.527219808146576
1769159162100,160,32,33.88402324576531,34.00284753062347,35.18662151132899
1769159162104,171,43,42.931948570408395,44.817088371293,44.21036090124242
1769159162108,174,46,45.603091355833115,47.85371815860837,46.873018693063486
1769159162112,168,40,39.93076015925422,42.02306588456795,41.21259512718886
1769159162116,155,27,26.86328500421579,28.597965909791128,28.170651271096897
1769159162120,136,8,9.89897854864281,10.243453714409192,11.232924699765256
1769159162124,120,-8,-6.609722829986907,-6.433125372015176,-5.258906204307734
1769159162128,107,-21,-19.408362824485874,-18.800185591780856,-18.05488453471143
1769159162132,101,-27,-27.34710165426795,-25.300248915816173,-26.003107221927145
1769159162136,98,-30,-31.002684426358524,-28.024362746081557,-29.67327933101705
1769159162140,96,-32,-31.515002531842526,-30.161865871777746,-30.19602381868627
1769159162144,97,-31,-29.686282028248545,-29.065409820700253,-28.366918184581912
1769159162148,101,-27,-25.921536358465257,-25.14821434845337,-24.591700465705287
1769159162152,106,-22,-20.728618619384747,-19.976536304056584,-19.38597410023277
1769159162156,113,-15,-15.06562631419698,-13.283197543170877,-13.716220671796432
1769159162160,118,-10,-10.12051740385284,-7.930177744594779,-8.772558182952487
1769159162164,121,-7,-6.7288826437726925,-5.329552341676946,-5.385447366399518
1769159162168,122,-6,-4.9704129535439705,-3.903570223583974,-3.627479709255656
1769159162172,123,-5,-4.28182581323191,-3.220060827900101,-2.9326965193053267
1769159162176,123,-5,-3.949396488125783,-3.0168960685580872,-2.590874204398058
1769159162180,124,-4,-3.5566574651854985,-2.143853981346082,-2.1915862592831603
1769159162184,125,-3,-3.0752181568823813,-1.170961118614844,-1.7097787895005072
1769159162188,125,-3,-2.6370718794282704,-1.027421401215452,-1.275450108959849
1769159162192,125,-3,-2.28075780721451,-1.1442614623397294,-0.921738511434502
1769159162196,125,-3,-1.9107506075198568,-1.0293112041874743,-0.5493086137274124
1769159162200,126,-2,-1.4433281139479486,-0.1486598484768684,-0.0757232230683382
1769159162204,127,-1,-0.9293729973938236,0.8446163827618267,0.4434662048244278
1769159162208,127,-1,-0.5180145809506003,0.9412679665056,0.8562093318966136
1769159162212,127,-1,-0.3236550592411271,0.8840447970254287,1.0496659159004245
1769159162216,127,-1,-0.3413700858247853,0.9653111643192708,1.0323662001597385
1769159162220,127,-1,-0.4681852906091129,0.8545341875120377,0.9087800886987272
1769159162224,127,-1,-0.5766218754547578,0.8387484918326982,0.8047218401760463
1769159162228,127,-1,-0.5719303782081628,0.9541704057610628,0.8125867820833538
1769159162232,127,-1,-0.4165995587835752,0.8531085765170224,0.9693107535628214
1769159162236,127,-1,-0.1369717156813807,1.036613990137087,1.2495768374719405
1769159162240,128,0,0.1868240738933734,1.7585610019759972,1.5741479698260872
1769159162244,128,0,0.4567001939226887,1.95620406958706,1.845051611326903
1769159162248,128,0,0.6040828626952858,1.8172266820990148,1.9938415801076168
1769159162252,128,0,0.6165925668491502,1.9940206649800305,2.008617519889685
1769159162256,128,0,0.5336218287855028,1.9188093913369584,1.928789415999411
1769159162260,128,0,0.4295978091739347,1.845552395192339,1.8278136268727596
1769159162264,128,0,0.3970332662920849,1.9240411368427663,1.797063224340413
1769159162268,128,0,0.5189462599188233,1.7798179628299993,1.91949997924193
1769159162272,128,0,0.8265455876562555,2.1048447462843343,2.2274948262954037
1769159162276,129,1,1.2700797479986012,2.748201177283415,2.6724763823041657
1769159162280,129,1,1.7402437418283014,3.0781153375991863,3.145090764903554
1769159162284,130,2,2.1382770936535653,3.649849995054395,3.54536501534349
1769159162288,130,2,2.4398172969340317,4.076145443231548,3.8479669806961176
1769159162292,130,2,2.691105206908866,3.798585132119965,4.099604765686701
1769159162296,130,2,2.938089848693097,4.04829304602146,4.347549337090795
1769159162300,131,3,3.165968305534155,4.814288795647695,4.577500169598533
1769159162304,131,3,3.3249297460298775,4.874882829616641,4.738852711131612
1769159162308,131,3,3.419406883088605,4.894994387817546,4.835180170417325
1769159162312,131,3,3.5544656782981225,4.941684432009242,4.971589776442274
1769159162316,131,3,3.872122088132158,4.925844079958494,5.2904867389361145
1769159162320,132,4,4.4301052152931355,5.936365658455637,5.849498091948072
1769159162324,133,5,5.1380029437177965,6.758088494969091,6.557963754102566
1769159162328,133,5,5.808267139853422,7.021397718155245,7.228743967712906
1769159162332,134,6,6.276006594975989,7.805623388328762,7.697684274584408
1769159162336,134,6,6.494415107209519,8.058424455846017,7.917985346741358
1769159162340,134,6,6.541624882812992,7.806337302649824,7.9669881988261135
1769159162344,134,6,6.539748367386133,7.889141706458481,7.96625276057925
1769159162348,134,6,6.550054846952638,7.91527951692826,7.977338507209224
1769159162352,134,6,6.530829006616071,7.876910345627929,7.959093743528611
1769159162356,134,6,6.396355818210968,8.027470228923114,7.825848585526596
1769159162360,134,6,6.123934277318531,7.7908214837369085,7.5545364284772285
1769159162364,133,5,5.803262824321725,6.959971228330504,7.234768463657726
1769159162368,133,5,5.571504660866667,6.801649771331854,7.004006766452913
1769159162372,133,5,5.491344895498337,7.0275429165052765,6.9250686940931905
1769159162376,133,5,5.490188324482755,6.842214319281813,6.9250853366998335
1769159162380,133,5,5.418823678485356,7.009999597445744,6.854517069857943
1769159162384,133,5,5.173385489595038,6.730718854374638,6.609471350275249
1769159162388,132,4,4.770215321070589,6.03180848981488,6.206631178825248
1769159162392,132,4,4.311625456175099,5.793968849389126,5.7488605743187176
1769159162396,131,3,3.881021984635286,5.070368403858266,5.319873062564428
1769159162400,131,3,3.469418770628391,4.793720249962563,4.910204819001346
1769159162404,131,3,3.00360813953697,4.958949497862223,4.445576306988023
1769159162408,130,2,2.4427800117251484,3.799991832807603,3.884660527702801
1769159162412,129,1,1.836933488803208,3.009744013313336,3.278287428869013
1769159162416,129,1,1.2822504051873045,2.8700702106320075,2.7240539292968173
1769159162420,128,0,0.8235177170322427,1.9737938310739311,2.267171677421641
1769159162424,128,0,0.411616679739381,1.8194361553131255,1.857332170725075
1769159162428,128,0,-0.0363850471871534,1.925082593011364,1.4100075443492923
1769159162432,127,-1,-0.5398674951729676,0.8770058529574118,0.9058043071863529
1769159162436,126,-2,-1.0302914103466865,0.0031527928122712,0.4150736440682121
1769159162440,126,-2,-1.4273900768900791,-0.1656568832226572,0.0194073901179518
1769159162444,126,-2,-1.7220219279329254,-0.0214515028572419,-0.2730799304854865
1769159162448,126,-2,-1.9679951089122452,-0.2278597344611688,-0.5181615074279087
1769159162452,125,-3,-2.205283234001533,-0.9783860389148492,-0.7560011633062036
1769159162456,125,-3,-2.415630480676178,-1.1472211287100085,-0.966651325220419
1769159162460,125,-3,-2.5534978341057357,-1.0249780519598235,-1.103384901844453
1769159162464,125,-3,-2.60012729770094,-1.1412214022821623,-1.1481454107887674
1769159162468,125,-3,-2.5794991099771596,-1.1055228537133617,-1.1263968052668587
1769159162472,125,-3,-2.5344619493347964,-1.088677318620316,-1.0815367469154966
1769159162476,125,-3,-2.4993421693475706,-1.0733316277343534,-1.0471232102690178
1769159162480,125,-3,-2.4919241574742492,-1.078175220140141,-1.0397478858556688
1769159162484,125,-3,-2.51781036538387,-1.1034525424022654,-1.0644832358956178
1769159162488,125,-3,-2.5691363274217394,-1.0997404292726145,-1.114033687100538
1769159162492,125,-3,-2.6139088222430504,-1.1260578448447165,-1.1575322804831956
1769159162496,125,-3,-2.594518513188244,-1.0254062867981362,-1.1379147301424308
1769159162500,125,-3,-2.4563491039631056,-1.152854961191879,-0.999952807429262
1769159162504,125,-3,-2.1961932066232666,-0.998665022396512,-0.7394811098035645
1769159162508,126,-2,-1.8839689702500448,-0.2025845442002452,-0.4263755417149593
1769159162512,126,-2,-1.623540751899697,-0.016658992624192,-0.1653448711619585
1769159162516,126,-2,-1.481673445581857,-0.1557726014602007,-0.0236218252095001
1769159162520,126,-2,-1.4527517111082224,-0.0270914841602814,0.0050005878857268
1769159162524,126,-2,-1.4868969589687036,-0.1113897089416979,-0.0286576058126122
1769159162528,126,-2,-1.5407091601865073,-0.0920534436770934,-0.0809586780504831
1769159162532,126,-2,-1.5949421946559688,-0.0946954904632093,-0.1333988025879282
1769159162536,126,-2,-1.629908336824016,-0.1339399208475953,-0.1673844378153239
1769159162540,126,-2,-1.6001332356239453,-0.0049496132243558,-0.1378819573804093
1769159162544,126,-2,-1.4526893213948635,-0.1776604967429342,0.0087394963146016
1769159162548,126,-2,-1.183253708511859,0.029856465884021,0.2779687424664263
1769159162552,127,-1,-0.8691415604891338,0.7593365427357202,0.5929096085687084
1769159162556,127,-1,-0.6274352267947824,1.0061392189381744,0.8358608412600201
1769159162560,127,-1,-0.5240429978540458,0.8647378245682563,0.9401183355171924
1769159162564,127,-1,-0.5202614657405484,0.9189831758743352,0.9442284843334328
1769159162568,127,-1,-0.5124764821660104,0.9987623230010584,0.9522570034716232
1769159162572,127,-1,-0.4306513671675533,0.7239708066438537,1.0346634212865669
1769159162576,127,-1,-0.3037965869978437,1.1034179930055208,1.162245581951488
1769159162580,128,0,-0.2290051316349713,1.7040672497199112,1.237331292389685
1769159162584,127,-1,-0.2737521581726293,1.1265989467430146,1.19244398474887
1769159162588,127,-1,-0.4102942472450336,0.7765528674300788,1.05613865188017
1769159162592,127,-1,-0.5448415777383284,0.9469180233181076,0.9226815626475324
1769159162596,127,-1,-0.6018207034263673,0.8811959428275472,0.8669753050590758
1769159162600,127,-1,-0.5776894709261837,0.9076131886676094,0.8916424338050604
1769159162604,127,-1,-0.5276564285289106,0.9552925078449196,0.9415595943806528
1769159162608,127,-1,-0.5143379164090005,0.9334631338380508,0.954944951583107
1769159162612,127,-1,-0.5640266800575944,0.7964689120538216,0.9058452839717672
1769159162616,127,-1,-0.6557804959849874,1.0153540290805898,0.8147589171596631
1769159162620,127,-1,-0.7465967741266463,0.7752010809135468,0.7244191205459152
1769159162624,126,-2,-0.8165356369399009,0.0980363909894055,0.6550795590503509
1769159162628,127,-1,-0.8942328720956492,0.7975653059271579,0.5781630413468197
1769159162632,127,-1,-1.0277181329449423,0.9213125184513212,0.4451393556537684
1769159162636,126,-2,-1.2241341272548754,-0.1102656242681794,0.2488078914673943
1769159162640,126,-2,-1.4288438601224922,-0.1117830617975281,0.0445254603620659
1769159162644,126,-2,-1.570419049464021,0.0142575332929228,-0.0959505621654674
1769159162648,126,-2,-1.618611903873776,-0.1488048327679592,-0.1430557775686554
1769159162652,126,-2,-1.597613818285149,-0.0946783814257976,-0.1216812426287072
1769159162656,126,-2,-1.556298692675364,-0.13473338515476,-0.0804767763992293
1769159162660,126,-2,-1.5326472567552758,-0.0679408825349241,-0.0567007810965807
1769159162664,126,-2,-1.5369739705102945,-0.0329693100830734,-0.0603563085390586
1769159162668,126,-2,-1.5559842268587802,-0.1050403497873095,-0.0784063922634155
1769159162672,126,-2,-1.5695227980796775,-0.1235261733808481,-0.0910404522350158
1769159162676,126,-2,-1.5680863568291612,-0.1284799880554343,-0.0888797941859187
1769159162680,126,-2,-1.5585050553192898,-0.0644878679979366,-0.07875857292857
1769159162684,126,-2,-1.5538436138616565,-0.0397734341847837,-0.0737280788124146
1769159162688,126,-2,-1.5586028830608034,-0.0925802284016037,-0.0781622457690101
1769159162692,126,-2,-1.5653667210989062,-0.1343746518363708,-0.0843925210473868
1769159162696,126,-2,-1.5656645701257916,-0.1288397193931028,-0.0838328539221326
1769159162700,126,-2,-1.560792080452517,-0.063580359869692,-0.0780149157718432
1769159162704,126,-2,-1.5590890641894743,-0.0388421409966406,-0.0756443162116369
1769159162708,126,-2,-1.5641148178109048,-0.0879968348704867,-0.080315682962218
1769159162712,126,-2,-1.569897317152371,-0.1398344504543309,-0.0856769394937959
1769159162716,126,-2,-1.5694181403643666,-0.132835687306702,-0.0843879275875447
1769159162720,126,-2,-1.5643384688201345,-0.0618061722869134,-0.0782941358289996
1769159162724,126,-2,-1.5624728138479564,-0.0361976295669799,-0.0756994843369958
1769159162728,126,-2,-1.5667664749844763,-0.0857907814469254,-0.0796998411400669
1769159162732,126,-2,-1.5715478735369386,-0.1428014528343562,-0.0841799106559231
1769159162736,126,-2,-1.5714492632435904,-0.1408449391637476,-0.0832477991191424
1769159162740,126,-2,-1.5697711246079358,-0.056369548795393,-0.0802714514346867
1769159162744,126,-2,-1.5729991776863748,-0.0353445333667397,-0.0823711669694349
1769159162748,126,-2,-1.5784390084226794,-0.0836906723767407,-0.0873299714769846
1769159162752,126,-2,-1.5746301332739814,-0.1424825050928047,-0.0834552990100168
1769159162756,126,-2,-1.5589082276987989,-0.1575145970195324,-0.0674255346378847
1769159162760,126,-2,-1.5502320526334823,-0.0401725696432695,-0.0578825059020917
1769159162764,126,-2,-1.5736700750239692,-0.041765993151134,-0.0802342717210917
1769159162768,126,-2,-1.623868294552287,-0.0850078724168887,-0.1296093322743301
1769159162772,126,-2,-1.6449819414617022,-0.1158701366810504,-0.1500996371439686
1769159162776,126,-2,-1.555731939143976,-0.2399849105120592,-0.059908580345521
1769159162780,126,-2,-1.3032994987080433,0.0955224474431926,0.1938958735052314
1769159162784,127,-1,-0.8965110312771456,0.7641637581127525,0.6017843991997773
1769159162788,127,-1,-0.389530069586309,1.1865642537892902,1.1089156890426797
1769159162792,128,0,0.1590478345671351,1.546202348392907,1.6570975624920723
1769159162796,128,0,0.7072197369958171,2.1326103095094355,2.205492111092897
1769159162800,129,1,1.223053522754297,2.688419785640378,2.7226686864626837
1769159162804,129,1,1.6807109248515006,3.1769602326097757,3.182005463426213
1769159162808,130,2,2.0754454235070607,3.8164254973452127,3.5777744709054975
1769159162812,130,2,2.4327730538589503,3.8558999252815886,3.9356260979285738
1769159162816,130,2,2.783106488453402,3.8840271060946128,4.286830971252364
1769159162820,131,3,3.119736979430099,4.8390737422848,4.624734861274062
1769159162824,131,3,3.3883762012474827,5.128816997394706,4.894097319411965
1769159162828,131,3,3.51930354437279,4.786637644467655,5.024769328129198
1769159162832,131,3,3.462087415370344,4.965270170306246,4.967250898073809
1769159162836,131,3,3.193923983129905,4.689660040866398,4.699845404320046
1769159162840,130,2,2.7195675171005096,4.062497585832826,4.227146132566551
1769159162844,130,2,2.0861821529953595,3.9007555325736334,3.595243114246842
1769159162848,129,1,1.395256001032832,3.028195484569018,2.9052258877717905
1769159162852,128,0,0.7731818585733046,1.7370081445792145,2.284176861047284
1769159162856,128,0,0.3046680745061594,1.8681669713922264,1.817128077997705
1769159162860,128,0,-0.0124191263763185,1.913641147157119,1.5009933962924369
1769159162864,127,-1,-0.2500425493207351,1.0140910111194446,1.2629308969788675
1769159162868,127,-1,-0.5002379118818191,0.9884804939898972,1.0116783921298582
1769159162872,127,-1,-0.8419214099415125,0.7181466895688735,0.6700323690741872
1769159162876,126,-2,-1.3261745277274015,-0.104329364174013,0.1874654349274134
1769159162880,126,-2,-1.9524263072963517,-0.1433484082659251,-0.4367053319232419
1769159162884,125,-3,-2.6402227398527742,-0.9030278182913878,-1.123388159631983
1769159162888,124,-4,-3.2422866704756856,-2.078348550868202,-1.7249473402145763
1769159162892,124,-4,-3.622262776695464,-2.2260452902255907,-2.103594364440625
1769159162896,124,-4,-3.7444676956380745,-2.1804635725362473,-2.223570701829235
1769159162900,124,-4,-3.691099740747679,-2.086999996868649,-2.1691933455443206
1769159162904,124,-4,-3.5905504210638925,-1.9185051356281664,-2.0708415695922793
1769159162908,124,-4,-3.5309452674844977,-2.066822667515187,-2.0153992212536433
1769159162912,124,-4,-3.5361370979649727,-2.2379327159773497,-2.0220918566297157
1769159162916,124,-4,-3.5984043212274153,-2.208836915644077,-2.0791127261242637
1769159162920,124,-4,-3.697942522593459,-2.059519552426474,-2.16806029996539
1769159162924,124,-4,-3.775719514727254,-1.924840387982821,-2.237643031842623
1769159162928,124,-4,-3.720189447350488,-2.031394425010254,-2.1848659521631832
1769159162932,124,-4,-3.4444678224122627,-2.310690022436173,-1.9241235886178176
1769159162936,124,-4,-3.0020760610331516,-2.140369033818486,-1.4996780126015916
1769159162940,125,-3,-2.5437469546879585,-1.1700794411741564,-1.0480063320022897
1769159162944,126,-2,-1.98366826618327,0.2527242091821264,-0.4747426410690099
1769159162948,128,0,-0.5703835547123708,1.7843357930663564,0.9668367184265684
1769159162952,131,3,3.1432599049975964,4.874659495051013,4.70746278543467
1769159162956,138,10,10.560364047869047,11.63767168975948,12.13249635089708
1769159162960,148,20,21.76267021122677,22.034927568989406,23.317069620941044
1769159162964,161,33,34.56492697726822,35.12487578495917,36.08590141493114
1769159162968,173,45,44.83206137894626,46.8971842685086,46.32400046269142
1769159162972,177,49,48.25139446723186,50.784014598141766,49.73488878666112
1769159162976,172,44,42.65296392817078,45.56496864275754,44.15080716275884
1769159162980,158,30,29.359684062305213,32.1182727913739,30.88463234091791
1769159162984,138,10,12.530990058107545,11.982998160435471,14.08267839540099
1769159162988,121,-7,-3.151909009683859,-4.855330304164362,-1.5844774011373657
1769159162992,114,-14,-14.843378079062164,-12.428123613134044,-13.278593082565486
1769159162996,108,-20,-22.31248918555567,-18.209392282432496,-20.76883723130394
1769159163000,101,-27,-26.890730846707996,-25.078362106885564,-25.373987410951447
1769159163004,97,-31,-29.79204001241836,-28.85599304036427,-28.288475160232903
1769159163008,96,-32,-31.205873771939796,-30.01392635286365,-29.692628653139924
1769159163012,97,-31,-30.581877526077925,-29.346527582871165,-29.04635312517642
1769159163016,100,-28,-27.52181721868623,-26.200789232348463,-25.970586917663734
1769159163020,105,-23,-22.44584117740589,-21.13230949484297,-20.896009103427936
1769159163024,111,-17,-16.58080670416683,-14.72740531178935,-15.044892903233643
1769159163028,117,-11,-11.363997023589306,-9.249530921749264,-9.84212132858212
1769159163032,120,-8,-7.727155646078838,-6.103783583147962,-6.209866944793891
1769159163036,122,-6,-5.750603388903118,-4.468698594029927,-4.226928460089274
1769159163040,122,-6,-4.864444785937269,-3.828192485084208,-3.3289022965406985
1769159163044,123,-5,-4.365050915727309,-3.0375877851637405,-2.820358935118949
1769159163048,124,-4,-3.835699832497213,-1.9579146886386485,-2.2903868151002973
1769159163052,125,-3,-3.2285507699780305,-1.404404642042592,-1.690822391687054
1769159163056,125,-3,-2.682430606104787,-1.1595731305304495,-1.154232548138797
1769159163060,125,-3,-2.314502174692446,-1.1094318840591946,-0.7905012631114046
1769159163064,125,-3,-2.134449947293929,-0.7832714944335388,-0.6070574397941328
1769159163068,126,-2,-2.057730026035477,-0.2178623905448067,-0.5236188049086636
1769159163072,126,-2,-1.9433924950534944,-0.1767403349013723,-0.4054256961878275
1769159163076,126,-2,-1.6488720745264462,-0.3416228083958914,-0.1123196150474756
1769159163080,126,-2,-1.1215155849626732,0.0511610596913938,0.4107439170639666
1769159163084,127,-1,-0.4751054974751967,1.087032162811398,1.0535979363511538
1769159163088,128,0,0.04657986670121,1.8325538777991508,1.5740515811219842
1769159163092,128,0,0.2311248449174532,1.8339026817508957,1.7592189718700864
1769159163096,128,0,0.061305961515172,1.5909078883608585,1.5908721430755448
1769159163100,127,-1,-0.2621553262273264,1.193797531339103,1.2688711374800885
1769159163104,127,-1,-0.4627797662409125,0.8654383739080558,1.068823480695395
1769159163108,127,-1,-0.3811060675532569,1.0793286506410045,1.1494973879811026
1769159163112,128,0,-0.069694427216667,1.5724391736955732,1.4584865887115783
1769159163116,128,0,0.2715314639295567,1.861694307191086,1.7970579199221135
1769159163120,128,0,0.4567251185161751,1.9617285662751716,1.9807105592732652
1769159163124,128,0,0.4468811316288842,2.0188137075963706,1.9708036353193343
1769159163128,128,0,0.3633507973768938,1.966013479715757,1.8879827469027364
1769159163132,128,0,0.3834097676369404,1.6268352271971869,1.9085800264027668
1769159163136,128,0,0.6043017691914911,1.8775509515462991,2.129181132696867
1769159163140,129,1,0.9843851976493154,2.922583800058356,2.5078332652500577
1769159163144,129,1,1.4008989018131786,3.0470567972983114,2.9220960419464745
1769159163148,129,1,1.756777568827951,2.923521110914133,3.2758776132128316
1769159163152,130,2,2.0364575543830505,3.643768484791866,3.554333562039103
1769159163156,130,2,2.2806172205521658,3.9125200091653727,3.7979169423543646
1769159163160,130,2,2.526611772416005,3.846408711857725,4.04337648988596
1769159163164,130,2,2.773079479760588,4.1644143133892335,4.289079876501976
1769159163168,131,3,2.9952063729472767,4.722971866083649,4.510163938542309
1769159163172,131,3,3.192830879779342,4.89794267757724,4.706457875065269
1769159163176,131,3,3.4173014019174017,4.628786708337389,4.929501431912586
1769159163180,131,3,3.7371918680022462,5.165571164928851,5.248067174428136
1769159163184,132,4,4.169956400372399,5.819387865206445,5.679410918954011
1769159163188,132,4,4.648903077202032,6.032408412794686,6.156485998296871
1769159163192,133,5,5.060598698306104,6.621290318362944,6.565941060819329
1769159163196,133,5,5.322836537775102,6.876633008270769,6.82611939743024
1769159163200,133,5,5.442952846436383,6.967076223859525,6.944879333431856
1769159163204,133,5,5.514203607722935,6.953605632683592,7.015512022449074
1769159163208,133,5,5.654707745507846,6.916838520470898,7.155538698430085
1769159163212,134,6,5.935549780305503,7.702743176782072,7.435196238465762
1769159163216,134,6,6.345347937461505,7.847533494761289,7.842779553049442
1769159163220,134,6,6.801326866823113,7.966646103102135,8.295956551381982
1769159163224,135,7,7.188044064935934,8.962917266297488,8.679824703842513
1769159163228,135,7,7.403931355154402,8.864093481748196,8.892979309153631
1769159163232,135,7,7.3981244652471485,8.757167419045778,8.884779329057343
1769159163236,135,7,7.180870956513276,8.827249038702814,8.666041851220118
1769159163240,134,6,6.808594607081272,7.962214069577218,8.293323289626255
1769159163244,134,6,6.36534681240364,7.97083094311537,7.849593683932935
1769159163248,134,6,5.952130064137502,7.823815081330709,7.434403399947601
1769159163252,133,5,5.663529543327099,6.795375856387412,7.142301888996678
1769159163256,133,5,5.533226589561705,6.820414861792081,7.0085022363965255
1769159163260,133,5,5.485645460351417,6.961214841267365,6.958516825417048
1769159163264,133,5,5.363343891464735,6.94298981391988,6.83420331269275
1769159163268,133,5,5.0350584934742315,6.859143845383723,6.503126149533423
1769159163272,132,4,4.491135808758232,5.719937283138119,5.955963402474613
1769159163276,131,3,3.833968519658894,4.956274262067927,5.2965722611396675
1769159163280,131,3,3.182528980661683,4.772405039278474,4.6443214447266135
1769159163284,130,2,2.595620569800344,4.16187097118435,4.056521083708075
1769159163288,130,2,2.076399343757312,3.5831333863828805,3.5346429062654776
1769159163292,129,1,1.6180497136452174,3.041830442718167,3.071916734967207
1769159163296,129,1,1.2184902895179774,2.607500934980231,2.667899543036068
1769159163300,128,0,0.8529128697454194,2.131548622901961,2.29919474662874
1769159163304,128,0,0.4581268261344329,1.7954946688792917,1.9024226814086225
1769159163308,128,0,-0.0271513858496936,1.8944333995614473,1.4151093297758448
1769159163312,127,-1,-0.5959854773522484,0.818561864742382,0.84369886896279
1769159163316,126,-2,-1.1576454178594475,-0.2827412566884733,0.2794840856125693
1769159163320,126,-2,-1.6002364006943082,0.148517832762105,-0.1654281414911991
1769159163324,126,-2,-1.8723457650909625,-0.3674095835850783,-0.4404496481345985
1769159163328,125,-3,-2.012566116178283,-0.8528612042880899,-0.584796695056176
1769159163332,126,-2,-2.116599373578123,-0.4669605110959591,-0.6934725462255042
1769159163336,125,-3,-2.2762372291292894,-1.015239594760442,-0.8569174756539122
1769159163340,125,-3,-2.5250694214120015,-1.0649270733743892,-1.108134188367677
1769159163344,125,-3,-2.8158086831329885,-1.2708688275521165,-1.4004798952297697
1769159163348,124,-4,-3.0442639052172784,-1.8390361381662708,-1.63092588192173
1769159163352,125,-3,-3.113108054981394,-1.5892400933821604,-1.702891936570302
1769159163356,124,-4,-2.999102848453479,-1.7848455794732123,-1.5931443373093486
1769159163360,125,-3,-2.775603950142371,-1.3961213005234596,-1.3745094829027225
1769159163364,125,-3,-2.568482838474564,-0.8921175112768236,-1.1720218610210806
1769159163368,125,-3,-2.4748315038330095,-1.2532889594392185,-1.081888856634327
1769159163372,125,-3,-2.503944859247124,-1.1773497953263783,-1.113163007293445
1769159163376,125,-3,-2.578062202528559,-1.1573174211367494,-1.1890650511824803
