timestamp_ms,ecg_u8_raw,ecg_counts_raw_int,ecg_counts_filt_monitor,ecg_counts_filt_diagnostic,ecg_counts_filt_st
1769251877132,129,1,1.8159547789488948,1.9574074166207196,2.2181936091200525
1769251877136,130,2,2.0269416627939756,2.733239151279373,2.429434006773863
1769251877140,130,2,2.2891487317877433,2.9993067154190403,2.6898808042967888
1769251877144,130,2,2.5841900310780765,2.7123267963577917,2.981330840625563
1769251877148,130,2,2.8922455734802206,3.0130805761953647,3.2860018632374532
1769251877152,131,3,3.172256311845583,3.740548656084573,3.56412080242857
1769251877156,131,3,3.366154584773662,3.935092046515664,3.757010838403998
1769251877160,131,3,3.4480976865328095,3.748241799994743,3.837806621209423
1769251877164,131,3,3.465916853409986,3.925841570122816,3.854314967169441
1769251877168,131,3,3.5213349914070053,3.792246637040722,3.908639759044954
1769251877172,131,3,3.7029573745365303,3.897566177266905,4.088939299391734
1769251877176,132,4,4.031472774436887,4.784038471076231,4.414942327657786
1769251877180,132,4,4.453728011353633,4.8208909501218,4.833612296670509
1769251877184,132,4,4.873376942226967,4.861071406471234,5.250161259048519
1769251877188,133,5,5.193604251740359,5.791829452505917,5.568949014147784
1769251877192,133,5,5.364242905401613,5.89714425078442,5.739025799162597
1769251877196,133,5,5.417356016668873,5.713072106357273,5.790684774186342
1769251877200,133,5,5.453440471175422,5.901212359780931,5.823866577306104
1769251877204,133,5,5.567942339209342,5.703279681180848,5.935207672593812
1769251877208,133,5,5.776159862772828,5.955649291634893,6.141261340437984
1769251877212,134,6,6.016451226241213,6.682663282036771,6.3801215436215015
1769251877216,134,6,6.238693548333466,6.897490229577073,6.60048833428702
1769251877220,134,6,6.484281733373769,6.702942794521094,6.843432978392129
1769251877224,134,6,6.859728917620081,6.827377164556407,7.216238544166387
1769251877228,135,7,7.422498567862824,7.84755774944407,7.77680179785734
1769251877232,136,8,8.100242739091595,8.703181200156578,8.452232692264769
1769251877236,136,8,8.728184575186312,8.918973065083787,9.07720012734447
1769251877240,137,9,9.167611255369868,9.58142642396027,9.5132041628228
1769251877244,137,9,9.401908400165608,9.969902647720096,9.744269083131678
1769251877248,137,9,9.539845026680576,9.611217980167686,9.879681600769237
1769251877252,137,9,9.734763181860547,9.950803161087515,10.072957115763856
1769251877256,138,10,10.090303684991476,10.638639633512462,10.427367281500434
1769251877260,138,10,10.624664430391944,10.819015656130633,10.96013023512324
1769251877264,139,11,11.303477423003072,11.727369395135293,11.635828376083865
1769251877268,140,12,12.0846288836635,12.76638518674123,12.4123219180599
1769251877272,140,12,12.912990849424606,12.82437922077776,13.235986277910635
1769251877276,141,13,13.668762897439027,13.678033632263372,13.988754504540482
1769251877280,142,14,14.147217866337892,14.81994791802003,14.465814526755334
1769251877284,142,14,14.134323148494657,14.61291604921439,14.45118907803856
1769251877288,141,13,13.531861535081063,13.912306261481367,13.845165841253316
1769251877292,140,12,12.408758745625727,12.595656454731635,12.71733700104879
1769251877296,138,10,10.92364894108792,10.9055743629109,11.228223790348624
1769251877300,137,9,9.203562413180286,9.563399644057723,9.505784723606023
1769251877304,135,7,7.307971412785834,7.813169071470455,7.608648618162765
1769251877308,133,5,5.305204584953136,5.728171108603208,5.603680174329716
1769251877312,131,3,3.3571829129909023,3.689579253004959,3.65223060865068
1769251877316,129,1,1.6938035679518482,1.8480469292041923,1.984811750313856
1769251877320,128,0,0.4747791470349858,0.521183924070975,0.7619729237156214
1769251877324,127,-1,-0.3375741240014891,-0.1131084246044586,-0.0539284985223265
1769251877328,127,-1,-0.9650921254377192,-0.4103008463659061,-0.6853741132299049
1769251877332,126,-2,-1.655810920615489,-1.1888716073772945,-1.3805916194963368
1769251877336,125,-3,-2.513254564552361,-2.293171922465797,-2.242211053823409
1769251877340,124,-4,-3.453741296562418,-3.4193249038608444,-3.1855657959550197
1769251877344,123,-5,-4.3065585780192315,-4.145678134238377,-4.040309712020492
1769251877348,123,-5,-4.9476431979476745,-4.463301158112574,-4.6838760599542475
1769251877352,122,-6,-5.356568533283223,-5.1009468712435355,-5.096726126036606
1769251877356,122,-6,-5.581545459221321,-5.450158278018108,-5.326474251612292
1769251877360,122,-6,-5.672030170792289,-5.292046182564109,-5.421501992631922
1769251877364,122,-6,-5.640462856944512,-5.290852817292297,-5.393877809067985
1769251877368,122,-6,-5.4771245050419175,-5.383936766857781,-5.234146524250055
1769251877372,122,-6,-5.1990670401534445,-5.139710623104244,-4.95970716224421
1769251877376,123,-5,-4.881595424399488,-4.508129346185027,-4.646153067935667
1769251877380,123,-5,-4.630759415813044,-4.223721869817481,-4.399649304928666
1769251877384,123,-5,-4.514192648656645,-4.416991555119189,-4.287513415971617
1769251877388,123,-5,-4.5138066912400125,-4.293062537816468,-4.291108140484427
1769251877392,123,-5,-4.542696911025962,-4.2035184639227765,-4.323373507506999
1769251877396,123,-5,-4.508943245415444,-4.557271308816336,-4.292906887961863
1769251877400,123,-5,-4.373531359116636,-4.115684138439019,-4.161474298611703
1769251877404,124,-4,-4.162256604657087,-3.6482746078797983,-3.955143997296782
1769251877408,123,-5,-3.934360800502512,-4.009458330702513,-3.732523398938616
1769251877412,124,-4,-3.742785624549853,-3.5596169979155263,-3.5456037574501176
1769251877416,124,-4,-3.6131524139434026,-3.2129951732124757,-3.4197627294800705
1769251877420,124,-4,-3.5429117454442274,-3.497228834332263,-3.353090680232982
1769251877424,124,-4,-3.5132091145976423,-3.318828762128601,-3.327498854433782
1769251877428,124,-4,-3.506455098282733,-3.3162867229038033,-3.3256164632443093
1769251877432,124,-4,-3.51761880786995,-3.3404150863973765,-3.3420078970664395
1769251877436,124,-4,-3.54873377207375,-3.386748971172436,-3.3780303515862453
1769251877440,124,-4,-3.5896517584166276,-3.447870730547929,-3.4231199384717232
1769251877444,124,-4,-3.600692814255077,-3.3077039210769046,-3.437802947173152
1769251877448,124,-4,-3.515290113439779,-3.434437431911534,-3.35621256011497
1769251877452,124,-4,-3.2699463779077154,-3.1696272896531807,-3.115529167233105
1769251877456,125,-3,-2.8467841377433087,-2.651909532077645,-2.697983376009069
1769251877460,125,-3,-2.297764619762119,-2.1756666983970865,-2.1548663186615364
1769251877464,126,-2,-1.727278517111151,-1.6285401819145786,-1.5896047827368085
1769251877468,126,-2,-1.2362527819175626,-1.1403944414889655,-1.1028146661271698
1769251877472,127,-1,-0.8590663546769374,-0.4591412575820461,-0.7295352398747528
1769251877476,127,-1,-0.5404309814202786,-0.447694283965919,-0.4152708942453711
1769251877480,127,-1,-0.182283964986219,-0.3492916050465653,-0.0620321088320179
1769251877484,128,0,0.2671828685057247,0.4429844845497959,0.3823364245892127
1769251877488,128,0,0.7602104718680001,0.8429150675922203,0.8700964790700905
1769251877492,129,1,1.184632590685733,1.4640456077081487,1.2888994098185176
1769251877496,129,1,1.454104944206779,1.6631424792269418,1.5527351338223232
1769251877500,129,1,1.566531596466434,1.4442041386883149,1.6602987746602682
1769251877504,129,1,1.5813759480931044,1.6606526741466454,1.6712189674742937
1769251877508,129,1,1.549234511665261,1.5786172858022745,1.635022158068382
1769251877512,129,1,1.4636190668679638,1.7162454135411025,1.543967943846011
1769251877516,129,1,1.2665938519135191,1.3976038116899434,1.3402732066706968
1769251877520,128,0,0.8866367252767159,0.6388736999114863,0.9538788004042686
1769251877524,128,0,0.2794237130616286,0.4733989823856319,0.3414397164385052
1769251877528,127,-1,-0.5383665527997473,-0.3008505215733668,-0.4808403248228705
1769251877532,126,-2,-1.4759905147722876,-1.3814520015623253,-1.4230265839109224
1769251877536,125,-3,-2.4019391086536195,-2.5574470561185674,-2.353605185656263
1769251877540,124,-4,-3.2164050327100595,-3.4342612498756298,-3.172683665402369
1769251877544,124,-4,-3.902952371835122,-3.485043402370529,-3.864695189764829
1769251877548,123,-5,-4.5111764694996666,-4.375122695339704,-4.480081699717999
1769251877552,122,-6,-5.097657213144221,-5.296857507804388,-5.0744589870651104
1769251877556,122,-6,-5.6884875204693435,-5.698028839313431,-5.671551690318378
1769251877560,121,-7,-6.278287202442009,-6.312744510440732,-6.264791120576867
1769251877564,121,-7,-6.830935564129675,-6.663446731503969,-6.819693856813462
1769251877568,120,-8,-7.269112226229468,-7.195754844823752,-7.262088519649736
1769251877572,120,-8,-7.488447143689111,-7.488751320097053,-7.48923271925662
1769251877576,120,-8,-7.424106888654995,-7.552753148540241,-7.434571362392498
1769251877580,120,-8,-7.128943705468529,-7.470395955651564,-7.147126977150538
1769251877584,121,-7,-6.775023144803687,-6.585685929478278,-6.796438766830189
1769251877588,121,-7,-6.541383549451197,-6.230703518182102,-6.562930904591285
1769251877592,121,-7,-6.4722659387864425,-6.5156099730537695,-6.4956088357691675
1769251877596,121,-7,-6.450135881623721,-6.527528299568545,-6.481548866096959
1769251877600,121,-7,-6.333546545415302,-6.553288131784721,-6.379528000692253
1769251877604,121,-7,-6.13372857290643,-6.557241947045675,-6.1950763642379485
1769251877608,121,-7,-6.021429247123488,-6.214995139821727,-6.09088626807555
1769251877612,122,-6,-6.076026662647421,-5.602438701865014,-6.142742141661756
1769251877616,122,-6,-5.952721850921867,-5.4093198146338715,-6.010680560245429
1769251877620,123,-5,-4.832332896096187,-4.7759368959257475,-4.885438420313721
1769251877624,125,-3,-1.8968761003390384,-2.3445481609154983,-1.9560191806359173
1769251877628,129,1,2.8642074005794154,1.5885532235584297,2.7891071378229855
1769251877632,135,7,8.133993357741423,7.529403067764683,8.039489329569456
1769251877636,140,12,11.613631578751272,12.54542562662796,11.502101931314812
1769251877640,140,12,11.205860154485688,12.066327294049549,11.082286971524926
1769251877644,134,6,6.2802304164045815,6.892844926583499,6.151278559134931
1769251877648,125,-3,-1.9034286586629665,-2.8046449705808314,-2.0292065864852527
1769251877652,114,-14,-10.905914072651049,-13.032634429664714,-11.021739902349072
1769251877656,110,-18,-18.357478123005627,-17.895249452721327,-18.46508592873629
1769251877660,106,-22,-22.836208133340666,-21.53088270561682,-22.94717023289851
1769251877664,103,-25,-23.978108986725186,-24.435216079877694,-24.10540916048633
1769251877668,105,-23,-22.128135015102742,-22.59996317286236,-22.27614814137769
1769251877672,109,-19,-18.020157672661448,-18.17648870658749,-18.18353531235795
1769251877676,115,-13,-12.64163099021618,-12.900345514350626,-12.812295330298411
1769251877680,120,-8,-7.130647195271535,-7.42926804108152,-7.304054111599961
1769251877684,125,-3,-2.554824743250988,-2.629064193993819,-2.730778927450031
1769251877688,128,0,0.3981485202539172,0.5814219969870784,0.2179374012833386
1769251877692,129,1,1.641642891489571,1.5842356214300244,1.455898952926653
1769251877696,129,1,1.647897037830976,1.2624829775868145,1.4567091609696492
1769251877700,128,0,1.1321066582086017,0.4730937441389033,0.9362813319686488
1769251877704,128,0,0.6628572105841744,0.3991929936929663,0.4622368898033735
1769251877708,128,0,0.4593828377512166,0.5947058477168645,0.2518517565206122
1769251877712,128,0,0.4697628995114771,0.4617687115117945,0.2524934779823833
1769251877716,128,0,0.5867245378016879,0.4114161777049361,0.3588004584560802
1769251877720,128,0,0.7816282307255404,0.2619992610122841,0.5452140899058882
1769251877724,128,0,1.075350475551038,0.6522898416088818,0.8338527888048652
1769251877728,129,1,1.4461368711182758,1.2599814005626462,1.2010962897626325
1769251877732,129,1,1.810156419860681,1.7995023344008372,1.5600899957711087
1769251877736,130,2,2.0933561285765383,2.0104851148260394,1.8356161920725589
1769251877740,129,1,2.299446674044624,1.6691746162421748,2.032854648125936
1769251877744,130,2,2.4950175912647583,2.2348844102398404,2.2205265933556877
1769251877748,130,2,2.7367583750605915,2.6156389958905333,2.4560159726720423
1769251877752,130,2,3.0233387732730463,2.46256926564364,2.7370831195516363
1769251877756,131,3,3.3144829290791504,3.242599593468545,3.022141175802637
1769251877760,131,3,3.5857700393534913,3.526847376465744,3.286195830936101
1769251877764,131,3,3.8545644439226585,3.2471575619247206,3.547064926742857
1769251877768,131,3,4.146525733568892,3.678305642105886,3.8311949700689025
1769251877772,132,4,4.442308505311546,4.2779947748273415,4.119549210333207
1769251877776,132,4,4.671750975282772,4.451388010167099,4.341928299715551
1769251877780,132,4,4.7703793106639845,4.306274148017627,4.433968604824942
1769251877784,132,4,4.746342310443836,4.411827096363255,4.403752003198542
1769251877788,132,4,4.698657995046492,4.546021638935299,4.349582389445256
1769251877792,132,4,4.767876894909706,4.286670947911977,4.4113290056266345
1769251877796,132,4,5.045678919687361,4.513177439137946,4.681057916154492
1769251877800,133,5,5.504817631972612,5.1575047537727094,5.132622074751811
1769251877804,133,5,6.012187872183538,5.607250520599482,5.633267325173508
1769251877808,134,6,6.42894636134697,6.269636407030893,6.043232276298351
1769251877812,134,6,6.716901675723216,6.553802443919885,6.323425262717032
1769251877816,134,6,6.949059397900447,6.208646947517315,6.5473412887666935
1769251877820,134,6,7.209652516703485,6.454597906904681,6.800496674474097
1769251877824,135,7,7.489409691668003,7.300787252636366,7.073888702336928
1769251877828,135,7,7.695111001684004,7.530072020893828,7.273150396365406
1769251877832,135,7,7.766664869007297,7.284220263762124,7.337146268852708
1769251877836,135,7,7.772150695156292,7.421366920548845,7.334285964166389
1769251877840,135,7,7.874436036120215,7.272338163784934,7.428640760874463
1769251877844,135,7,8.199935451056358,7.39814521481618,7.747215713695769
1769251877848,136,8,8.740526844979723,8.496345792358124,8.28115858285729
1769251877852,137,9,9.383734718288215,9.186764836266564,8.916902537432671
1769251877856,137,9,10.03287412974082,9.60393676554499,9.557792325183016
1769251877860,138,10,10.689384195145657,9.972961658141209,10.206326916109957
1769251877864,138,10,11.421193031772228,10.744706787670314,10.930922602968682
1769251877868,140,12,12.265256214794569,12.08703015097519,11.767845400444225
1769251877872,140,12,13.163717760409014,12.572313765746118,12.658681511562042
1769251877876,141,13,13.979211721092184,13.23774465632643,13.466526539615767
1769251877880,142,14,14.565004127136117,14.251422311242491,14.045105162256734
1769251877884,142,14,14.836813527144336,14.519704959452769,14.309647810681708
1769251877888,142,14,14.791234714984638,14.199899748549685,14.256156788203684
1769251877892,141,13,14.44694350387114,13.515523874126028,13.90360960825766
1769251877896,141,13,13.760314008236676,13.216427350855252,13.208969785554114
1769251877900,140,12,12.61479869413208,12.285633242210771,12.055605276523783
1769251877904,138,10,10.92002159882948,10.44971579570634,10.35281162903841
1769251877908,136,8,8.734859842362107,8.242693355366965,8.159848094283419
1769251877912,133,5,6.292213299586956,5.456501816866339,5.710365014887632
1769251877916,131,3,3.896479887525105,3.247389802588529,3.308570630785291
1769251877920,129,1,1.7814060569183852,1.2336378819696607,1.1868208779814733
1769251877924,127,-1,0.0362176831954279,-0.4971090175343478,-0.5667827631770797
1769251877928,126,-2,-1.3696354644156847,-1.8570756426545532,-1.9822485991656436
1769251877932,124,-4,-2.512159250208051,-3.435865481175868,-3.1339346289469727
1769251877936,124,-4,-3.4489677833063928,-3.924185140376534,-4.0785000282564745
1769251877940,123,-5,-4.1922398720201,-4.583620466445255,-4.828547709455478
1769251877944,122,-6,-4.720647511462959,-5.714301586287033,-5.363615833448764
1769251877948,122,-6,-5.019482886226381,-5.659806290712726,-5.6694880071268585
1769251877952,122,-6,-5.117961838248257,-5.63706568926207,-5.775643117197948
1769251877956,122,-6,-5.090215040044298,-5.795884690252568,-5.756383368837299
1769251877960,122,-6,-5.021454753878582,-5.671466520376189,-5.696664439431353
1769251877964,122,-6,-4.9724527916132795,-5.698615524680698,-5.656465496908026
1769251877968,122,-6,-4.966591903589436,-5.6556948201136255,-5.658309519566342
1769251877972,122,-6,-4.9963013582209745,-5.691361386123101,-5.694357694921246
1769251877976,122,-6,-5.034772878235918,-5.764505048085914,-5.7385458589782266
1769251877980,122,-6,-5.0471673304788816,-5.708477004696927,-5.757591093600474
1769251877984,122,-6,-5.006485294510781,-5.691164289646755,-5.725768874834379
1769251877988,122,-6,-4.918742229977254,-5.673786815587009,-5.648697700226632
1769251877992,122,-6,-4.844892621524938,-5.703341457348751,-5.585123549895621
1769251877996,122,-6,-4.886044987792137,-5.785882817981665,-5.633992504704612
1769251878000,122,-6,-5.108172972956099,-5.685816352185417,-5.861315570053036
1769251878004,122,-6,-5.443530793345231,-5.754987945946105,-6.201467141734472
1769251878008,121,-7,-5.670059962064011,-6.5970244841892685,-6.434345581520916
1769251878012,121,-7,-5.5390751067902375,-6.847945625100282,-6.311566824973167
1769251878016,122,-6,-4.980698364747404,-5.626710075037357,-5.762548090970449
1769251878020,123,-5,-4.208296957641456,-4.892033807984732,-5.000006185560266
1769251878024,123,-5,-3.608517850379094,-4.534380834500333,-4.409996945837551
1769251878028,124,-4,-3.4878920920423298,-3.8455788626239618,-4.298170959200961
1769251878032,123,-5,-3.8688844817324313,-4.645239180375486,-4.686092595062108
1769251878036,122,-6,-4.485254162585637,-5.847931120091091,-5.307460071353279
1769251878040,122,-6,-4.9650194565685855,-5.705260787348429,-5.7916987209586
1769251878044,122,-6,-5.048869879413116,-5.692654287338697,-5.8816652553571505
1769251878048,122,-6,-4.692796053781686,-5.7372312064491515,-5.534451331916701
1769251878052,123,-5,-4.023774500655417,-4.736938735917409,-4.876040270701731
1769251878056,124,-4,-3.2253401733763662,-3.844380719694268,-4.087762842083106
1769251878060,124,-4,-2.4462850261230886,-3.678344415930461,-3.316843667409822
1769251878064,125,-3,-1.771476594780407,-2.7677238620738813,-2.6484030728787538
1769251878068,126,-2,-1.2318490682050576,-1.6415916904380703,-2.114872984134082
1769251878072,126,-2,-0.8179097416907399,-1.885087593870744,-1.7077312121387247
1769251878076,126,-2,-0.4913961529166327,-1.729239429500684,-1.3884541621756572
1769251878080,127,-1,-0.2012448219044779,-0.7872248319725368,-1.1056395384933402
1769251878084,127,-1,0.1044187839324487,-0.7168148865559387,-0.8078004896213704
1769251878088,127,-1,0.471223091207819,-0.6257708574473768,-0.4495136532517931
1769251878092,128,0,0.9209935467581608,-0.0198167206103692,-0.0081305195611043
1769251878096,128,0,1.4287120664769004,0.4644998383584893,0.4923629726697194
1769251878100,129,1,1.927340751326569,0.9081607129959496,0.9848163605919256
1769251878104,129,1,2.35235405542823,1.662140891805148,1.4034987606755422
1769251878108,130,2,2.6831307831062716,1.9317313907050917,1.7269375172652983
1769251878112,129,1,2.9247649574073527,1.4189966487363286,1.960564143128691
1769251878116,130,2,3.037845808207456,1.9845424787097548,2.065603756061352
1769251878120,130,2,2.8991803527522455,2.3536554911868564,1.9188563666689116
1769251878124,129,1,2.357648109806098,1.2389578483660113,1.369189468700399
1769251878128,128,0,1.3466068587570423,0.327422894336018,0.3507509356538847
1769251878132,127,-1,-0.0447841596867142,-0.9945140340737302,-1.046540281352673
1769251878136,125,-3,-1.595070492704571,-2.656148300621365,-2.6018263029714
1769251878140,124,-4,-3.046881746873628,-4.019641725999364,-4.0594398743768805
1769251878144,122,-6,-4.2163653035388045,-5.37179011453006,-5.23673695762868
1769251878148,122,-6,-5.056891185581937,-6.082184336798266,-6.086628957558693
1769251878152,121,-7,-5.644160882008872,-6.595568203027676,-6.682957228880247
1769251878156,121,-7,-6.095141931859196,-7.118570159496196,-7.1408759018440735
1769251878160,120,-8,-6.475257296623264,-7.565838427243602,-7.525703617835571
1769251878164,120,-8,-6.754849351488787,-7.815171725185658,-7.8098119015230765
1769251878168,120,-8,-6.843785306223224,-7.670123479396532,-7.905489842764105
1769251878172,120,-8,-6.685439930857613,-7.996175304153493,-7.756421548232302
1769251878176,120,-8,-6.344781266220844,-7.818219983472389,-7.4254105722818515
1769251878180,121,-7,-6.00364484278783,-6.816371450552845,-7.0919450286883094
1769251878184,121,-7,-5.830039776408389,-6.627404910772824,-6.923526425309836
1769251878188,121,-7,-5.814475290445962,-6.804117710497285,-6.9116596487811375
1769251878192,121,-7,-5.739858483420745,-6.940412780038336,-6.840517991155853
1769251878196,121,-7,-5.355126921729472,-6.89346625090189,-6.46041466891964
1769251878200,122,-6,-4.626644542944751,-5.76948458025894,-5.739372116299646
1769251878204,123,-5,-3.847169835424972,-4.6641115844557355,-4.97098838192193
1769251878208,123,-5,-3.488335567233739,-4.745860999288594,-4.6254139731525346
1769251878212,123,-5,-3.879528725932392,-5.07655106046858,-5.028579992587882
1769251878216,122,-6,-4.912593537320673,-5.75365389907519,-6.068882319509472
1769251878220,121,-7,-5.9555381000464465,-7.010335189161338,-7.112348205095367
1769251878224,120,-8,-6.05634273408282,-7.326655185356925,-7.207422397805881
1769251878228,122,-6,-4.369971670994147,-6.131620751375592,-5.513766430767041
1769251878232,126,-2,-0.6064065628771935,-1.6893162263596304,-1.7502197665358148
1769251878236,133,5,4.711416209657225,4.826390152122508,3.5533929555194077
1769251878240,136,8,10.2562672164732,8.347030914209356,9.07302018539344
1769251878244,139,11,14.15143070960576,11.381889345390746,12.944305804373048
1769251878248,142,14,14.4998840594519,14.07426104708642,13.280581448301785
1769251878252,138,10,10.183406417183033,10.114708269328029,8.963747885784802
1769251878256,129,1,1.6168862972241111,0.9068332652123872,0.402500089760629
1769251878260,117,-11,-9.11559034487242,-10.686220147274186,-10.323382003626485
1769251878264,106,-22,-19.034225787938617,-21.63741178929597,-20.235568768705495
1769251878268,101,-27,-25.546973529131257,-26.864579521874987,-26.745392192565504
1769251878272,100,-28,-27.4368167445273,-27.9318086030621,-28.641655488984675
1769251878276,102,-26,-25.034526875030892,-26.081019531973396,-26.257267405582553
1769251878280,107,-21,-19.70592530758034,-20.650003018164146,-20.951864087803948
1769251878284,113,-15,-13.156988330582417,-14.7577377782791,-14.42063621744739
1769251878288,119,-9,-6.930909885063828,-8.779791040064193,-8.200214682037503
1769251878292,125,-3,-2.135827283284729,-3.0050977732556037,-3.4012957769668932
1769251878296,128,0,0.7114560586905716,-0.1045332251949933,-0.5487919721760952
1769251878300,128,0,1.7410500266710267,0.4731085097058471,0.4813185653121419
1769251878304,128,0,1.5896486179165017,-0.0357009331522384,0.3253115324753106
1769251878308,127,-1,1.0538921698679933,-0.4305136124663598,-0.217403328843972
1769251878312,128,0,0.7141199999297583,-0.4387177297663456,-0.564418696477762
1769251878316,127,-1,0.754609957291293,-0.616764743532745,-0.531057051259765
1769251878320,128,0,1.054036484679714,-0.0031756796827715,-0.2386174702019654
1769251878324,128,0,1.421741577071208,0.3513849249308842,0.1227809403214093
1769251878328,128,0,1.7800111252768795,0.2274229161079572,0.476070864540818
1769251878332,129,1,2.177322101847916,0.7646817765785188,0.8696859869508464
1769251878336,129,1,2.6747091869891912,1.3275293323743624,1.3638196908090303
1769251878340,130,2,3.241951572829481,1.9219081206600808,1.9273409919954292
1769251878344,130,2,3.7626320493970073,2.508740133500146,2.4435215683566853
1769251878348,131,3,4.1316870356689455,2.9439476165763923,2.807525115798236
1769251878352,131,3,4.34548983638005,3.065945229581616,3.016149137588542
1769251878356,131,3,4.496207101807289,3.039332341162048,3.162060506640535
1769251878360,131,3,4.673404304733193,3.1749213051797547,3.3351257298313244
1769251878364,131,3,4.869590812548269,3.288915299900106,3.527414189826364
1769251878368,132,4,4.991710579492955,4.042568306326173,3.6449663039335953
1769251878372,132,4,4.975194903941913,4.037573475266707,3.623320218375398
1769251878376,131,3,4.881646079247932,2.9876133859314504,3.5257217568384376
1769251878380,131,3,4.874032488105112,3.308562358253928,3.516201889166867
1769251878384,132,4,5.0976079658978,4.051165618659505,3.738343900654235
1769251878388,132,4,5.582364590791948,4.2957747448220145,4.219206621306944
1769251878392,133,5,6.230262483775612,4.742916761184453,4.860149594728436
1769251878396,133,5,6.86408085555756,5.30423320468881,5.486586165349431
1769251878400,134,6,7.304923034966907,5.989975206906735,5.922697350849727
1769251878404,134,6,7.4659065663560975,6.301982178054299,6.082299284874615
1769251878408,134,6,7.424975883510009,6.068432187594022,6.0415527875724955
1769251878412,134,6,7.409982991404493,5.875442115772137,6.025804453557447
1769251878416,134,6,7.671036983848263,6.2874501301616155,6.28364125366936
1769251878420,135,7,8.308535885081461,6.879693936747999,6.915718864481646
1769251878424,135,7,9.17847139607452,7.501070200887959,7.77965150605854
1769251878428,137,9,9.958055928746164,8.733232230615275,8.55423281597552
1769251878432,137,9,10.346588642629564,9.28312376640554,8.939260402401725
1769251878436,137,9,10.2673339306492,8.823149145321775,8.857753358722418
1769251878440,136,8,9.917547815290598,8.363664749254308,8.506735671580811
1769251878444,136,8,9.627668040901511,7.975590335889615,8.21628332197702
1769251878448,136,8,9.647524468773632,8.21896196414556,8.235226404556098
1769251878452,137,9,10.025101841065885,8.81958727529394,8.610347610358053
1769251878456,137,9,10.640798078874557,9.272240731121652,9.22179415874593
1769251878460,138,10,11.3224184018798,9.920284566740676,9.898447671565862
1769251878464,138,10,11.927261020739277,10.372057061089446,10.49905414986307
1769251878468,139,11,12.35044254504588,10.784964862770076,10.919427981068347
1769251878472,139,11,12.505028105895422,11.255046841952948,11.072503901360356
1769251878476,139,11,12.331968070271,10.855865837686268,10.898839688199931
1769251878480,138,10,11.844019543213616,10.294737230348534,10.410612408078308
1769251878484,138,10,11.156532580054389,10.017209829966458,9.722209595024676
1769251878488,137,9,10.45338118649411,9.016250585173676,9.01681305068108
1769251878492,136,8,9.878478247733035,8.135779997342961,8.438881343871962
1769251878496,136,8,9.413644994026791,7.867210234385618,7.971500327289775
1769251878500,135,7,8.84987787866735,7.398097874509224,7.405911563943636
1769251878504,135,7,7.908981360301604,6.756592964345694,6.462795826088897
1769251878508,133,5,6.4374124123811765,5.344359554813158,4.988115957800447
1769251878512,131,3,4.508057292159214,2.726165473194877,3.0564052183526575
1769251878516,128,0,2.345609124842849,0.3291767612351837,0.8942956760929555
1769251878520,127,-1,0.1704430948988688,-1.0843955921663355,-1.2787743538073952
1769251878524,125,-3,-1.8741523531192976,-2.8133403267240107,-3.3229077175673787
1769251878528,123,-5,-3.676578828685809,-5.0653512643167105,-5.128142852538021
1769251878532,121,-7,-5.114555785429478,-6.920030422211328,-6.569857493238802
1769251878536,120,-8,-6.107162521574053,-7.967557867465022,-7.563940633360671
1769251878540,120,-8,-6.692970601873951,-7.858127178498959,-8.14904723137112
1769251878544,120,-8,-7.014598747656381,-8.013675186031763,-8.470556266734034
1769251878548,119,-9,-7.214634223058415,-8.927081029622743,-8.672442069388737
1769251878552,119,-9,-7.359976443331431,-9.031599910944555,-8.819974740107366
1769251878556,119,-9,-7.459908662906578,-8.887394912517223,-8.92028939549858
1769251878560,119,-9,-7.521493461304506,-8.949384078623686,-8.980481787832332
1769251878564,119,-9,-7.562408571447643,-8.933159696355412,-9.020135571060877
1769251878568,119,-9,-7.5796911720987,-9.034836054635308,-9.03782104173912
1769251878572,119,-9,-7.533372511178938,-8.92039507496725,-8.993213671525291
1769251878576,119,-9,-7.381599058345627,-9.01896185449202,-8.842701825566438
1769251878580,119,-9,-7.136199193599473,-8.834463303083274,-8.596859587928074
1769251878584,120,-8,-6.871503458236565,-8.052587345404248,-8.330663328739103
1769251878588,120,-8,-6.661865780918772,-7.944719593919277,-8.12021619319928
1769251878592,120,-8,-6.508961496270336,-7.999306895565396,-7.96786959118072
1769251878596,120,-8,-6.345197319005252,-7.978060139331204,-7.804830087603807
1769251878600,120,-8,-6.117182274671879,-7.868339406813329,-7.576252407856562
1769251878604,121,-7,-5.855096151149177,-7.06475276385381,-7.312460192159971
1769251878608,121,-7,-5.645166809503527,-6.897817378756665,-7.101109929081037
1769251878612,121,-7,-5.534869276757585,-7.101991914862638,-6.990513839419087
1769251878616,121,-7,-5.478111090876992,-6.842987143604735,-6.933876185436041
1769251878620,121,-7,-5.38045178885646,-7.068852867148034,-6.83553135587845
1769251878624,121,-7,-5.192183024440301,-6.856045639796451,-6.6456254865937
1769251878628,122,-6,-4.94599382168915,-6.105021996674018,-6.397935340922961
1769251878632,122,-6,-4.6995093531084695,-5.923401540107998,-6.1507681649404375
1769251878636,122,-6,-4.451210412902672,-6.000406598983537,-5.901640013609466
1769251878640,122,-6,-4.12590244968246,-5.97855387788219,-5.57402836424596
1769251878644,123,-5,-3.6402353970665704,-4.935708286541724,-5.085138998038695
1769251878648,124,-4,-2.9738561050632475,-4.03370427212669,-4.416730768077635
1769251878652,124,-4,-2.1895449354860532,-4.00372877398326,-3.632497557883409
1769251878656,125,-3,-1.4102052520953374,-2.9089210992556573,-2.8538154099161246
1769251878660,126,-2,-0.7723045097138814,-2.1353256218927408,-2.215030865422023
1769251878664,126,-2,-0.3577312177133739,-1.772701683332517,-1.7974241119924357
1769251878668,127,-1,-0.1298325147424561,-1.2112986149603513,-1.5652420989096614
1769251878672,126,-2,0.0669245337361079,-1.811027925169714,-1.364308454778156
1769251878676,127,-1,0.4183722170736992,-1.1314104471217674,-1.010042050779456
1769251878680,128,0,1.0189994937118558,0.0700825638255646,-0.4085126206043199
1769251878684,128,0,1.804302185015632,-0.008067638880203,0.3767951058808183
1769251878688,129,1,2.578797541765988,1.0376041586231857,1.1525089442941805
1769251878692,130,2,3.1224426750168823,1.9553143765639356,1.6995952602595956
1769251878696,130,2,3.317801961116688,2.0403465450080347,1.8994317657285107
1769251878700,130,2,3.2109541757595506,1.9195995502054088,1.7963386972204782
1769251878704,129,1,2.9427572258032235,1.0679324449847534,1.5307891054808225
1769251878708,129,1,2.59571980844178,1.0169267206855144,1.186021896029792
1769251878712,129,1,2.1007357076492728,0.9473713119266932,0.6933994601612705
1769251878716,128,0,1.3050731841075671,0.0454922180772561,-0.0997822885157808
1769251878720,127,-1,0.142648193711244,-1.117181043001918,-1.2592653586403988
1769251878724,125,-3,-1.2560586054319094,-2.9149512961160102,-2.654007516797619
1769251878728,124,-4,-2.615262465349785,-4.010673942897643,-4.008329762030977
1769251878732,123,-5,-3.679089989071418,-4.994612612198542,-5.067254449260174
1769251878736,122,-6,-4.357562007381835,-6.065846975341008,-5.741697175731708
1769251878740,122,-6,-4.7500231377060524,-5.968835521137482,-6.131385085786853
1769251878744,122,-6,-5.041289270093784,-6.152403258533896,-6.420904862488217
1769251878748,121,-7,-5.361317865153076,-6.709346812724353,-6.739114850136758
1769251878752,121,-7,-5.722020619710306,-7.3537717068855075,-7.096242192242975
1769251878756,120,-8,-6.063941891430872,-7.6809723398166465,-7.432075641388483
1769251878760,121,-7,-6.336565958685591,-7.392287689678353,-7.69745504355992
1769251878764,120,-8,-6.523644600737879,-7.762678010947711,-7.878596502648668
1769251878768,120,-8,-6.615297571639612,-8.04536447196839,-7.967019470336949
1769251878772,120,-8,-6.593566995861933,-8.101757076011769,-7.944147313912747
1769251878776,120,-8,-6.459588187475454,-7.844192161611279,-7.809009235912876
1769251878780,121,-7,-6.2610454432728035,-7.3723506415015985,-7.606543717402239
1769251878784,120,-8,-6.074705425272417,-7.67581349191749,-7.411555405161663
1769251878788,121,-7,-5.95077449985952,-7.236488355012276,-7.275567056967434
1769251878792,121,-7,-5.867673425463981,-6.829603517114517,-7.182709193390713
1769251878796,121,-7,-5.749077937568954,-7.193062990878296,-7.063168247448707
1769251878800,121,-7,-5.553373171658331,-7.019508873933096,-6.875868821759708
1769251878804,121,-7,-5.357977894205854,-7.036594780240588,-6.689594824098238
1769251878808,121,-7,-5.294996654325709,-6.900540019282448,-6.624024817769807
1769251878812,122,-6,-5.273759175079734,-6.127620557082416,-6.582972134131671
1769251878816,123,-5,-4.671310342950771,-4.952954310191271,-5.951032495199568
1769251878820,125,-3,-2.3853139971830473,-3.2417872762661197,-3.6415016959929414
1769251878824,128,0,2.480594915525165,0.1432583236857185,1.230034578595444
1769251878828,135,7,9.56715773919351,6.953170111102711,8.303887637711465
1769251878832,143,15,16.662367636474073,14.993972953534652,15.3777599650038
1769251878836,148,20,20.314290362202225,19.94729503693503,19.012858788316905
1769251878840,146,18,17.58359330067659,17.787180377685253,16.28033888996463
1769251878844,135,7,7.890101165573377,7.0970841589924305,6.604110470139769
1769251878848,120,-8,-6.334467437613009,-8.091821702815764,-7.588437079680602
1769251878852,105,-23,-20.70376369006112,-22.930774726334228,-21.922898946736517
1769251878856,95,-33,-30.980026628487703,-33.12221609004718,-32.175895049261065
1769251878860,92,-36,-34.901776485182964,-36.05204565876875,-36.0948700335944
1769251878864,95,-33,-32.73414851194636,-33.05459041030277,-33.94264075894496
1769251878868,101,-27,-26.499144952473053,-26.949454492188032,-27.72836291082332
1769251878872,108,-20,-18.65919693267708,-20.130633091681528,-19.898933487362843
1769251878876,115,-13,-11.13232317183129,-12.949335132005071,-12.364400170425697
1769251878880,122,-6,-4.995511487849468,-6.244524320665839,-6.2061597342851105
1769251878884,126,-2,-0.6568811470205147,-1.852448444070674,-1.8444330893399608
1769251878888,129,1,1.8942742695626815,0.810667704363901,0.721438972337199
1769251878892,130,2,2.9490552788559854,2.095539238212756,1.780917011796654
1769251878896,130,2,2.997152463678453,1.7879060965979223,1.829310161108629
1769251878900,129,1,2.591901022461784,1.0352091847118583,1.4267244166666126
1769251878904,129,1,2.1681893774713457,0.8846599149244581,1.0104343526768065
1769251878908,129,1,1.929913243125424,1.0517164351107875,0.7815888355102463
1769251878912,129,1,1.8880972428931244,0.8638056362800115,0.747338027580946
1769251878916,129,1,1.990499558094466,0.9514666413811146,0.8548344555461791
1769251878920,129,1,2.2090760584206537,0.9392724351304298,1.0789182130526571
1769251878924,129,1,2.528565001986172,0.8986168455896175,1.406808467487716
1769251878928,130,2,2.905187077516859,2.124412025304637,1.7935974466919655
1769251878932,131,3,3.281106052077951,2.6754702611058327,2.178230934328671
1769251878936,130,2,3.6362969800479688,2.2065767540596615,2.539579418088078
1769251878940,131,3,3.9914524344705944,2.6189982463734354,2.900549772825812
1769251878944,131,3,4.348412473396672,3.2530436558287734,3.2653477345221367
1769251878948,132,4,4.656346796357317,3.75151443780824,3.5827586246836174
1769251878952,132,4,4.86301589697222,4.016764542493593,3.7984153963410834
1769251878956,132,4,4.989954053894283,3.899764381241308,3.932897256990241
1769251878960,132,4,5.129164152299048,3.8452289940633815,4.0792683902073765
1769251878964,132,4,5.352637304956628,4.1075558940910275,4.310777332207488
1769251878968,133,5,5.633627563779258,4.801117450866849,4.600487945306625
1769251878972,133,5,5.868048615658384,5.038715795392513,4.8432574723065915
1769251878976,133,5,5.973207954298253,4.813209913346278,4.9560488689320445
1769251878980,133,5,5.963671459794643,4.940952879178388,4.954176230315257
1769251878984,133,5,5.938259368697074,5.012145020007374,4.937402466010456
1769251878988,133,5,6.000758217443112,4.848912774627644,5.009742666158585
1769251878992,133,5,6.187969216927191,5.050715540469733,5.207141814758031
1769251878996,134,6,6.46262497886407,5.725527717894848,5.490798413749792
1769251879000,134,6,6.765578270604338,6.077461848017869,5.800807841757931
1769251879004,134,6,7.062882673286446,5.819049242348055,6.104476222424787
1769251879008,134,6,7.337252584396817,6.057038894024225,6.386768529800661
1769251879012,135,7,7.555807537794363,6.83521541677983,6.61555780172141
1769251879016,135,7,7.685466363382998,6.920910037542812,6.756265501975649
1769251879020,135,7,7.756231582494633,6.894286545987053,6.837071734089797
1769251879024,135,7,7.886652267792866,6.972504345076237,6.976273536268765
1769251879028,135,7,8.212045510141568,6.905583456410144,7.310121678297627
1769251879032,136,8,8.769064873061005,7.967193034143257,7.875833610177871
1769251879036,137,9,9.44994032388326,8.806226645274391,8.565414556535254
1769251879040,137,9,10.075464909664836,8.979139445336351,9.199517386526216
1769251879044,138,10,10.524219081949871,9.9062067239637,9.657173534542943
1769251879048,138,10,10.812639322388224,9.925425285526533,9.955340106369595
1769251879052,138,10,11.071108330194216,9.953038001274894,10.22436042268193
1769251879056,139,11,11.444907643571742,10.820189512158231,10.60892372214416
1769251879060,139,11,11.998755436317872,10.957440828497706,11.173043784584332
1769251879064,140,12,12.689228279223553,11.926670193016337,11.872883942020437
1769251879068,141,13,13.408685995711528,12.888242247249329,12.600896646140065
1769251879072,141,13,14.049528098939348,12.971860225860466,13.25011305237638
1769251879076,142,14,14.5336675441208,13.806017129426612,13.74331324296314
1769251879080,142,14,14.798915065014445,13.973571000989656,14.018804692367071
1769251879084,142,14,14.780845411490253,13.878798980991146,14.01188121364745
1769251879088,142,14,14.425321722236191,13.957663722941406,13.66754004325922
1769251879092,141,13,13.721827397550154,12.85178797104679,12.974440811216114
1769251879096,140,12,12.715535806494556,11.955364985158926,11.977539338463634
1769251879100,139,11,11.474089166157146,10.808041694284952,10.744989316456962
1769251879104,137,9,10.035215274552176,9.029686937017942,9.315375915037022
1769251879108,136,8,8.390245632289103,7.812282580967769,7.680595171017657
1769251879112,134,6,6.531861278085816,5.970262938698971,5.833230181037271
1769251879116,132,4,4.529941811159527,3.847627405684438,3.84262252031484
1769251879120,130,2,2.5587472720258786,1.9086727453841628,1.8825095389859037
1769251879124,128,0,0.8322616647134806,-0.0822151612855739,0.1665807714512519
1769251879128,127,-1,-0.511834184489762,-1.0887099007376455,-1.1674963261867377
1769251879132,126,-2,-1.4877012356297024,-2.122792561342565,-2.133588837985745
1769251879136,125,-3,-2.2341385489300816,-3.07649691553783,-2.8701212833881824
1769251879140,125,-3,-2.902972515331249,-3.1481826961522836,-3.52877467556098
1769251879144,124,-4,-3.5484574737813217,-4.060005289034295,-4.163720177506579
1769251879148,123,-5,-4.1062865266260715,-5.115380077013608,-4.710357636449821
1769251879152,123,-5,-4.475969589904355,-5.10360550882385,-5.068153337876808
1769251879156,123,-5,-4.624776365663766,-5.096365463992021,-5.205135487012234
1769251879160,123,-5,-4.617081996053377,-5.129224042344625,-5.186651778837056
1769251879164,123,-5,-4.557678815616829,-5.079958810565234,-5.1175445890314775
1769251879168,123,-5,-4.519183366487769,-5.127141888593493,-5.069450188254207
1769251879172,123,-5,-4.518255965064465,-5.0874760047609735,-5.058011165982725
1769251879176,123,-5,-4.54204715907818,-5.121707125339679,-5.070168777404707
1769251879180,123,-5,-4.581296887164725,-5.102670310167427,-5.097266903744723
1769251879184,123,-5,-4.633667633379534,-5.1007456231881285,-5.1378408290363655
1769251879188,123,-5,-4.680544049522133,-5.146522176693144,-5.173756551713433
1769251879192,123,-5,-4.67268880257584,-5.048294579161574,-5.155405845757573
1769251879196,123,-5,-4.554690768642779,-5.192134535536118,-5.026405079136808
1769251879200,123,-5,-4.315681401270057,-5.00229034758934,-4.775419306295442
1769251879204,124,-4,-4.015354367983038,-4.227253263258745,-4.462988763010866
1769251879208,124,-4,-3.7512529967825783,-4.025140769411635,-4.187969941678142
1769251879212,124,-4,-3.596801642901454,-4.179213782014845,-4.023848308023593
1769251879216,124,-4,-3.570128578550472,-4.073572602128144,-3.987250497522867
1769251879220,124,-4,-3.648125507670229,-4.101869545939478,-4.053605668309791
1769251879224,124,-4,-3.783036434270999,-4.163992135728879,-4.1752546616915955
1769251879228,124,-4,-3.890000470896682,-4.063748621307879,-4.268725515186741
1769251879232,124,-4,-3.8347469498832414,-4.180863790215518,-4.200953280448059
1769251879236,124,-4,-3.474707470873212,-4.049867078428544,-3.829507829775218
1769251879240,125,-3,-2.753865167928687,-3.1388733771036397,-3.09789190001347
1769251879244,126,-2,-1.7782117063163023,-2.1339586601483465,-2.11179622210397
1769251879248,127,-1,-0.7928639894793608,-1.0904595157311872,-1.1162220980888051
1769251879252,128,0,-0.0588686240279913,-0.1758411445607572,-0.3717113667332903
1769251879256,128,0,0.2870395308529742,-0.0485415584042145,-0.0140545806467269
1769251879260,128,0,0.2933281615696453,-0.1571713366045317,0.0056898938859157
1769251879264,128,0,0.1446644088345233,-0.1218297598234725,-0.1286713373206907
1769251879268,128,0,0.0503739856847604,-0.0995478149529103,-0.2095045308778678
1769251879272,128,0,0.1416143352245968,-0.1858395548540485,-0.1066564512523053
1769251879276,128,0,0.4222892733439956,-0.0112304819772832,0.1842147015523521
1769251879280,129,1,0.7861635490791131,0.7609765247600171,0.5581072968533898
1769251879284,129,1,1.0852552820222416,0.993939455870466,0.8681538433677143
1769251879288,129,1,1.2067834665312174,0.7355982274098849,1.0021114019278858
1769251879292,129,1,1.1119361763502469,1.0129281178133422,0.9208416020923664
1769251879296,129,1,0.8232133128873745,0.7582921190916827,0.645705522380966
1769251879300,128,0,0.3821834103593977,-0.0038275691200526,0.2171368886042346
1769251879304,128,0,-0.1927117201296424,-0.247367518669658,-0.3465793878966479
1769251879308,127,-1,-0.9253025912432332,-1.0308858862317123,-1.068364266862183
1769251879312,126,-2,-1.8642898193278032,-2.224374217505405,-1.995872000469076
1769251879316,125,-3,-3.0332391057850203,-3.0007382829871503,-3.152456529357223
1769251879320,124,-4,-4.376675966104817,-4.266518944866268,-4.483140787703375
1769251879324,122,-6,-5.747953041866264,-5.9745654182626255,-5.841544622272321
1769251879328,121,-7,-6.96473713864734,-7.319496296968032,-7.045220341490474
1769251879332,120,-8,-7.897269154965774,-7.933999272761394,-7.964778313545532
1769251879336,120,-8,-8.516573914707235,-8.289057332532357,-8.57214129732545
1769251879340,119,-9,-8.87249643364233,-8.99383826274362,-8.917231257243937
1769251879344,119,-9,-9.043371227133846,-9.231447836046527,-9.07702068273978
1769251879348,119,-9,-9.106624893256305,-9.0972862234465,-9.12761103799482
1769251879352,119,-9,-9.12965378617339,-9.136406312734032,-9.136897576483216
1769251879356,119,-9,-9.155670693355844,-9.11396524430174,-9.150120378776764
1769251879360,119,-9,-9.184884511195238,-9.146818422976446,-9.168740644852976
1769251879364,119,-9,-9.176665867839818,-9.103586795194374,-9.150629804497024
1769251879368,119,-9,-9.08403005907502,-9.220945293923938,-9.045304872539566
1769251879372,119,-9,-8.89383515826982,-9.028809447810184,-8.837717330789125
1769251879376,120,-8,-8.63297449422846,-8.214135539265236,-8.557657628698585
1769251879380,120,-8,-8.342118675704526,-8.048552201270784,-8.252374742372563
1769251879384,120,-8,-8.069810110958315,-8.20675584407617,-7.975160892844454
1769251879388,120,-8,-7.910953997954245,-8.130020394209081,-7.818575985919807
1769251879392,120,-8,-8.006953912669628,-8.129707408435301,-7.914481205987928
1769251879396,120,-8,-8.384854379774076,-8.115461367096017,-8.279223273230166
1769251879400,120,-8,-8.658070737598825,-8.132572597507602,-8.522819052101324
1769251879404,121,-7,-7.85044510764831,-7.1376382728245185,-7.677398091008157
1769251879408,124,-4,-4.6887169435968366,-4.195090649465175,-4.485335640355402
1769251879412,129,1,1.5452774965275538,0.9148336346257908,1.759237266478194
1769251879416,137,9,10.016881391038762,8.868912981375129,10.221133841501969
1769251879420,146,18,17.984345260862188,17.87385475851726,18.169587152137723
1769251879424,151,23,21.679676599336553,22.879795263613666,21.85209651523828
1769251879428,148,20,18.198291601736265,19.69877332759564,18.37643153453821
1769251879432,136,8,7.3060335017654126,8.035697998297934,7.51251375319649
1769251879436,120,-8,-8.06559011864298,-8.37711432579387,-7.814693998789259
1769251879440,104,-24,-23.05951946722879,-23.77409578893987,-22.763527855635104
1769251879444,95,-33,-33.145382816923345,-33.51791883359191,-32.82056543465896
1769251879448,92,-36,-36.05002916827791,-35.74924615170658,-35.72126016210753
1769251879452,97,-31,-32.35450711746512,-31.551620470932,-32.041313557457656
1769251879456,104,-24,-24.66462391269532,-23.766227660488383,-24.370539820137147
1769251879460,113,-15,-16.079602126998342,-15.428331409110562,-15.791507992181929
1769251879464,119,-9,-8.897446730834531,-8.924445030501133,-8.594670400732111
1769251879468,124,-4,-4.10241661715629,-4.295281488998515,-3.7693100291908426
1769251879472,127,-1,-1.5796824918119468,-1.102530992978232,-1.2136828080328883
1769251879476,128,0,-0.644887131762232,-0.1227463132685151,-0.2554169946286588
1769251879480,128,0,-0.5142674937883251,-0.196199396283716,-0.1143862629592162
1769251879484,128,0,-0.578007202829061,-0.0386781064174277,-0.1756675615193403
1769251879488,128,0,-0.5074956147728615,-0.2687539371830527,-0.1024221379226233
1769251879492,128,0,-0.2488374762715639,-0.0522593598021658,0.1642578158114798
1769251879496,129,1,0.0752791779946222,0.7840738745246374,0.5012169722974829
1769251879500,129,1,0.3199925981042484,0.8941876516968355,0.7601844251792746
1769251879504,129,1,0.444912595698633,0.8790252120971263,0.8983936099398735
1769251879508,129,1,0.5299780897388828,0.7957296364246778,0.9958036089951512
1769251879512,129,1,0.6863698786031884,0.8987091476925315,1.1642928372546144
1769251879516,130,2,0.9602921114926636,1.8155245905662605,1.449801264296403
1769251879520,130,2,1.315690851393052,1.8696475185805304,1.8156821837488768
1769251879524,130,2,1.6870605945132944,1.8888104799383283,2.196886461692913
1769251879528,131,3,2.033626301168005,2.805572539782972,2.5539700394107605
1769251879532,131,3,2.351941146088743,2.8554443124910276,2.884272711013536
1769251879536,131,3,2.6557624722573716,2.8856592230170546,3.2008903460661724
1769251879540,132,4,2.952598285172787,3.762650578953788,3.5097302335356497
1769251879544,132,4,3.2337021550178644,4.035142391527193,3.8010632556270214
1769251879548,132,4,3.471258576140885,3.6157099466891305,4.047752874642649
1769251879552,132,4,3.616744101829431,4.078138958728312,4.202767484373618
1769251879556,133,5,3.619597722274191,4.63162236943076,4.216258949708356
1769251879560,132,4,3.478296803037311,4.018239075618678,4.086469558446906
1769251879564,132,4,3.283617340453341,3.803799860239274,3.9038098540598622
1769251879568,132,4,3.1976160312309556,3.804670228456171,3.8298495150561065
1769251879572,132,4,3.3698576544405716,3.9309083116769026,4.0131650884274634
1769251879576,133,5,3.849943971809803,4.7231309879599275,4.502586748728955
1769251879580,133,5,4.551055756858542,4.983367329650808,5.21184996802495
1769251879584,134,6,5.282819393856995,5.791490353342669,5.9520871930049815
1769251879588,135,7,5.843395129143002,6.857161862415445,6.522377985140473
1769251879592,135,7,6.1307804272929065,6.826142119114032,6.820458969559731
1769251879596,135,7,6.202970235091351,6.8563572407521365,6.903700397540097
1769251879600,135,7,6.234765639641994,6.8284559899869155,6.946545365607568
1769251879604,135,7,6.398880176796739,6.968987833340246,7.121304699771381
1769251879608,136,8,6.7644042398366535,7.65249214683886,7.496399392451359
1769251879612,136,8,7.283599671332483,8.062749752544876,8.023766050411131
1769251879616,137,9,7.855407601074393,8.567991912832207,8.60301467914569
1769251879620,137,9,8.398986182350926,9.176455407266188,9.154622112529667
1769251879624,138,10,8.88613614302874,9.559294561855191,9.651248111101788
1769251879628,138,10,9.331949527831105,10.104043048077264,10.107619653618316
1769251879632,139,11,9.772441059835009,10.584500454827706,10.558449039382046
1769251879636,139,11,10.24887183664386,11.043894396995812,11.043866195979376
1769251879640,140,12,10.794302378496733,11.724340801386177,11.596955997644187
1769251879644,140,12,11.41191685987057,11.97523664466594,12.221942819562557
1769251879648,141,13,12.055932228500168,12.719624380359406,12.873927237962093
1769251879652,142,14,12.642496828780947,13.933633353012262,13.469003995958037
1769251879656,142,14,13.093367390433794,13.726870668439688,13.928419644560757
1769251879660,142,14,13.372905771069568,14.003675460829395,14.21632416282026
1769251879664,143,15,13.480281779628893,14.742359433129703,14.331941094051526
1769251879668,142,14,13.405241427469576,13.883381257063736,14.264895630923466
1769251879672,142,14,13.09087672634915,13.835413521811745,13.957853320097035
1769251879676,142,14,12.440866625287912,13.76790222552456,13.314177914598536
1769251879680,140,12,11.37112776249185,12.013153331529644,12.250298517930196
1769251879684,139,11,9.866218442701133,10.683681771288333,10.7520883395927
1769251879688,137,9,8.000889734861335,8.978709084594536,8.895082412746255
1769251879692,135,7,5.924724022866669,6.693312734514575,6.827930637593786
1769251879696,133,5,3.828528071585355,4.954655489286118,4.739519530465499
1769251879700,131,3,1.8974673854128508,2.8100684238896494,2.8141370540440613
1769251879704,129,1,0.2511068235197546,0.8793883163008613,1.1724205485738008
1769251879708,128,0,-1.10094218572053,-0.1943515725057873,-0.1743368886188014
1769251879712,127,-1,-2.23942161234955,-1.1820556640736686,-1.3064342439569496
1769251879716,126,-2,-3.246374267059955,-2.110672594469899,-2.306766712692954
1769251879720,125,-3,-4.118725670589365,-3.1675663719589284,-3.1729720056535964
1769251879724,124,-4,-4.7710176023764115,-4.114347150789147,-3.819451356030563
1769251879728,124,-4,-5.12837457155798,-4.237385701661887,-4.171079853291456
1769251879732,124,-4,-5.216531894446925,-4.122567745825569,-4.253885392654881
1769251879736,124,-4,-5.161428995504351,-4.167067140450553,-4.194129566628426
1769251879740,124,-4,-5.104603400844799,-4.103460252497795,-4.1330515068203075
1769251879744,124,-4,-5.114283087711701,-4.180696858044596,-4.138310979941023
1769251879748,124,-4,-5.1606377395159235,-4.209682463713837,-4.179926853859502
1769251879752,124,-4,-5.161508897162779,-4.114943153205823,-4.175902172068552
1769251879756,124,-4,-5.055120745963094,-4.206072060413431,-4.064474773300983
1769251879760,124,-4,-4.844030236881381,-4.003587175310868,-3.848346290273111
1769251879764,125,-3,-4.578326095339718,-3.340888600428394,-3.5783723707364192
1769251879768,125,-3,-4.299006493911678,-3.023970284242005,-3.2962426634364776
1769251879772,125,-3,-4.007285306085747,-3.3246784125398636,-3.002556609737576
1769251879776,125,-3,-3.700005533491768,-2.983321758819434,-2.6926232409157587
1769251879780,126,-2,-3.42426544661975,-2.1929734257141766,-2.412923048091079
1769251879784,126,-2,-3.2672358126631407,-2.2123960628214756,-2.251603423763109
1769251879788,126,-2,-3.274247749418924,-2.095259611042823,-2.255175787282928
1769251879792,126,-2,-3.385534843882066,-2.324698648134264,-2.3639011688563776
1769251879796,125,-3,-3.4717257807903774,-2.912364918752356,-2.447750878739443
1769251879800,126,-2,-3.440390517978022,-2.309218370254356,-2.4142119460437756
1769251879804,126,-2,-3.3089040981195996,-2.0620700740534637,-2.2811107540594735
1769251879808,126,-2,-3.1778494614401267,-2.280099897194902,-2.148859676734432
1769251879812,126,-2,-3.1382878685282227,-2.116650328308529,-2.1076254814367443
1769251879816,126,-2,-3.1937515653693884,-2.1341495093632616,-2.1606647888006534
1769251879820,126,-2,-3.249951927785318,-2.0771132525899096,-2.2146226903017294
1769251879824,126,-2,-3.1757490650177647,-2.2979596746311333,-2.1392903419517815
1769251879828,126,-2,-2.896900821417356,-2.0528162800017697,-1.8601568746574335
1769251879832,127,-1,-2.4542499508104614,-1.3291732263339031,-1.4170895519479902
1769251879836,127,-1,-1.971568869373867,-0.9384146106960656,-0.9334825908883748
1769251879840,128,0,-1.5518872759519309,-0.2420206346361686,-0.5128986040366943
1769251879844,128,0,-1.195415044687616,-0.1720381824919128,-0.1561462074474655
1769251879848,128,0,-0.8209635998271272,-0.1421451735503476,0.2179528696836319
1769251879852,129,1,-0.3715571533267159,0.7053672250047178,0.6666685407779485
1769251879856,129,1,0.1053857210645883,1.0981859684006925,1.1427323245281094
1769251879860,130,2,0.491236133081976,1.6540729171437656,1.5276982208163008
1769251879864,130,2,0.7154082937261311,2.009496007592539,1.751457611242747
1769251879868,130,2,0.8452094320684753,1.5949688707170653,1.8815719714087855
1769251879872,130,2,1.057258068815012,2.013238046624102,2.093929667431031
1769251879876,131,3,1.507824711942612,2.775913195550651,2.5435149444045484
1769251879880,131,3,2.2000538204562776,2.9782863758966385,3.233070634464688
1769251879884,132,4,2.9447852473451,3.72472724337724,3.974322139033232
1769251879888,133,5,3.451710739451314,4.8171731448479935,4.4779685252214705
1769251879892,133,5,3.501308514443298,4.843210303103664,4.524890707771403
1769251879896,132,4,3.074654798468119,3.880000602100252,4.096418841966427
1769251879900,131,3,2.3371065952033145,2.9607390982514814,3.357971293331815
1769251879904,131,3,1.4995524705324297,2.6555880383156594,2.519530345114517
1769251879908,130,2,0.686779433888617,1.9724588282300128,1.704412631426797
1769251879912,129,1,-0.0915369855517549,0.5986254331292797,0.9218305748901614
1769251879916,128,0,-0.8825854092517031,0.2091142895487709,0.1256160473152758
1769251879920,128,0,-1.717539042918372,-0.4144649330377992,-0.7140296429214068
1769251879924,126,-2,-2.578673895302019,-1.9568254193003192,-1.5787594908177711
1769251879928,126,-2,-3.4168828941257283,-2.4019582526201706,-2.4198590843918817
1769251879932,125,-3,-4.189134702579615,-3.0723676188166067,-3.195374831297908
1769251879936,124,-4,-4.8738777258961585,-4.047460088976575,-3.8846706093150103
1769251879940,124,-4,-5.454589376990807,-4.229719194925795,-4.471042068479326
1769251879944,123,-5,-5.900035703534017,-5.055160207180311,-4.921978899901437
1769251879948,123,-5,-6.168504708309279,-5.407678214632948,-5.194643223024662
1769251879952,123,-5,-6.231320258244164,-4.9697141071864515,-5.260718489146633
1769251879956,123,-5,-6.093019776799743,-5.2236446837489865,-5.1265740083143685
1769251879960,123,-5,-5.79824276190077,-4.9928009749688576,-4.8386626708911855
1769251879964,124,-4,-5.42987525968658,-4.309704299029031,-4.4797798149359265
1769251879968,124,-4,-5.098956994046812,-4.186088021658535,-4.158109408236252
1769251879972,124,-4,-4.919777081991807,-4.140281981822973,-3.9839498401809905
1769251879976,124,-4,-4.966054266030197,-4.109692240164161,-4.029963574512672
1769251879980,124,-4,-5.218143084990558,-4.034580614992816,-4.2813068421036435
1769251879984,124,-4,-5.541524592580285,-4.329475792664322,-4.611411736818505
1769251879988,123,-5,-5.749844072439862,-5.125086374172138,-4.837447355412675
1769251879992,123,-5,-5.736479218571811,-5.238851200818353,-4.8465552709021855
1769251879996,123,-5,-5.53410975319963,-4.972931839970936,-4.658820114098898
1769251880000,124,-4,-5.146271494828309,-4.1840788163885705,-4.269281642604801
1769251880004,126,-2,-4.208844992131954,-2.163115827685051,-3.3175986191998947
1769251880008,128,0,-1.8423095621145953,-0.2987123562974951,-0.9382177922907422
1769251880012,131,3,2.9089456297086107,2.9275589767481227,3.810795643356731
1769251880016,138,10,10.098406084945603,9.872824960612352,10.97884741072049
1769251880020,146,18,18.047813471646776,17.98907170786934,18.894411432337684
1769251880024,153,25,23.54131708239651,24.645388037024514,24.35386090078982
1769251880028,154,26,23.293368172290915,25.937861060057912,24.083276664509633
1769251880032,146,18,15.906878170484744,17.580133004928218,16.692627065243627
1769251880036,131,3,2.9884461176883512,3.2427735162533295,3.788034221099384
1769251880040,117,-11,-11.424121010591964,-11.451958767338558,-10.602484866771183
1769251880044,105,-23,-22.79503434074048,-22.843614808263418,-21.959212642716302
1769251880048,101,-27,-28.16039507615953,-27.49524763117483,-27.331577786422944
1769251880052,102,-26,-27.150520635486014,-25.947631439845846,-26.35135701480724
1769251880056,108,-20,-21.59624620597004,-20.197926879688115,-20.837511545307866
1769251880060,115,-13,-14.24323659104392,-13.0984489282139,-13.518235094100763
1769251880064,121,-7,-7.463879347072723,-7.172343424634575,-6.75409650293679
1769251880068,126,-2,-2.583340706633246,-2.221562879493046,-1.8710191557432403
1769251880072,129,1,0.1208293590705467,0.8462645377165419,0.8420960513180873
1769251880076,130,2,1.0607319248299327,1.9378695971286244,1.7844750237584757
1769251880080,130,2,0.9426975053829136,1.7936795847497016,1.6569085964056418
1769251880084,129,1,0.4671119098323011,0.8943428662662583,1.1634039782686183
1769251880088,129,1,0.1306161074896703,0.7687494689244123,0.8080065885516796
1769251880092,129,1,0.1357940540083916,0.8609331263631461,0.7978626308912702
1769251880096,129,1,0.4274040689938128,0.944470044593778,1.077213526421789
1769251880100,130,2,0.8292887710648382,1.7423393870295072,1.4670472784889248
1769251880104,130,2,1.1928862785546923,1.97295038677524,1.81764664473604
1769251880108,130,2,1.4651947953063569,1.6608122833001175,2.077607443876229
1769251880112,130,2,1.6629671012086067,2.0350307649243997,2.2651706642689455
1769251880116,131,3,1.8273902228009344,2.72965801248931,2.420006898727765
1769251880120,131,3,2.0221087975590053,2.961250666412842,2.6025922060536724
1769251880124,131,3,2.3379306706151923,2.754943049256011,2.9029872457682036
1769251880128,131,3,2.832160098961257,2.8678061934566776,3.381259973452734
1769251880132,132,4,3.433947404892413,3.885783807631084,3.9692982090796622
1769251880136,133,5,3.9432881212513142,4.824066385262801,4.466535420026657
1769251880140,133,5,4.174210587680452,4.916268590921532,4.684461844300767
1769251880144,133,5,4.115749962675235,4.736981074248703,4.611330723041817
1769251880148,132,4,3.938270425034641,3.9531034069159863,4.419319540816044
1769251880152,132,4,3.834572133828251,3.750815607425864,4.302630937951891
1769251880156,133,5,3.86696202032416,5.007812062985428,4.322329716040231
1769251880160,133,5,3.971445874523653,4.7122304699314785,4.412400951779208
1769251880164,132,4,4.080113050609926,3.9359855335670617,4.50506083507697
1769251880168,133,5,4.207415657638045,4.795220072146667,4.616606172353771
1769251880172,133,5,4.424863077864893,4.847061983265759,4.819505219794609
1769251880176,133,5,4.7797986633573855,4.9753676730111245,5.160407062365311
1769251880180,134,6,5.245170968576955,5.7101014512579455,5.611281812633726
1769251880184,134,6,5.736999119513671,5.966139005396551,6.087888320965646
1769251880188,135,7,6.179162405843384,6.757085601315817,6.514393523854725
1769251880192,135,7,6.560121434967159,6.877166364257503,6.879688806551704
1769251880196,135,7,6.930944297702108,6.957304816298124,7.235145567789079
1769251880200,136,8,7.346696365043564,7.727537991401108,7.635702263373526
1769251880204,136,8,7.809559866604885,7.9667219479634,8.083035722708072
1769251880208,137,9,8.268389229053051,8.73638247627601,8.525783443038687
1769251880212,137,9,8.668580030995711,8.927753698553587,8.909819105072327
1769251880216,137,9,8.999714188657485,8.870383701952088,9.225214797972397
1769251880220,138,10,9.302364052999035,9.85940095171053,9.512199195263776
1769251880224,138,10,9.637036471602247,9.809306959909236,9.830572122931365
1769251880228,138,10,10.039614514542215,9.911740234573903,10.216298098361316
1769251880232,139,11,10.492357374481008,10.754583492078371,10.652420750435992
1769251880236,139,11,10.93916954587792,11.033493885581944,11.083146889251989
1769251880240,140,12,11.34429838880429,11.714578448173464,11.472226344776088
1769251880244,140,12,11.74061891932836,11.952660019458271,11.852143509516994
1769251880248,140,12,12.206701044401257,11.775951010251092,12.301595151842529
1769251880252,141,13,12.783781388883884,12.875436708791971,12.861831736939056
1769251880256,142,14,13.414546761978771,13.94314877528713,13.475364533652964
1769251880260,142,14,13.960914406530788,13.769400929779012,14.004544949298838
1769251880264,142,14,14.274179297360703,13.965502470885768,14.301403292660307
1769251880268,143,15,14.257661751700743,14.69517756279945,14.268830666755695
1769251880272,142,14,13.888169484011994,14.009932150832476,13.882197006337174
1769251880276,141,13,13.185826684613296,12.759539222796858,13.161270565031945
1769251880280,140,12,12.149481032193728,12.01154614637214,12.10637794408268
1769251880284,139,11,10.723574417682196,10.694802797011292,10.6634450405201
1769251880288,137,9,8.85824379799866,8.981673632787142,8.782374317411369
1769251880292,135,7,6.625986991257048,6.72387036490643,6.53424562858388
1769251880296,132,4,4.26987478747992,4.028212464428757,4.161213665053287
1769251880300,130,2,2.101625765540705,1.7899664259119843,1.9752343891587616
1769251880304,128,0,0.3146985499080976,-0.1232105062538146,0.170343468099158
1769251880308,127,-1,-1.1240626358760857,-1.1500276064240105,-1.2865246697000967
1769251880312,126,-2,-2.401563212199183,-2.179940844950062,-2.5823393809278876
1769251880316,124,-4,-3.669065068733431,-4.031006480107452,-3.8678723002537874
1769251880320,123,-5,-4.905701760251603,-5.173430021132582,-5.12155452469222
1769251880324,122,-6,-5.944571461381567,-6.142220482025721,-6.176589312828264
1769251880328,121,-7,-6.620827377047552,-7.144499618613491,-6.86917019069497
1769251880332,121,-7,-6.9075786795638585,-7.163578737094631,-7.173394072791829
1769251880336,121,-7,-6.932688071547965,-7.0417966860098105,-7.217160274195218
1769251880340,121,-7,-6.875623857553637,-7.160354627563515,-7.179033118158776
1769251880344,121,-7,-6.83914827373453,-7.15896014617175,-7.160674971926678
1769251880348,121,-7,-6.801224189178627,-7.124936393810538,-7.139574313661406
1769251880352,121,-7,-6.675903062405068,-7.1909335129573515,-7.0302778575975315
1769251880356,121,-7,-6.419202156867787,-6.977156764389938,-6.789997813817725
1769251880360,122,-6,-6.084655024501319,-6.250971409629571,-6.473328962425503
1769251880364,122,-6,-5.786670568509257,-6.038417043067986,-6.1945488753870155
1769251880368,122,-6,-5.616540911648038,-6.268500017202938,-6.043432038885943
1769251880372,122,-6,-5.588465169490162,-6.040675649834971,-6.032664535659469
1769251880376,122,-6,-5.645997038535038,-6.093957707806507,-6.105936472135034
1769251880380,122,-6,-5.702129333872391,-6.183457702743395,-6.1778674292894955
1769251880384,122,-6,-5.6806568489792895,-6.022086004853746,-6.173574932205756
1769251880388,122,-6,-5.54889194041742,-6.375316762691321,-6.060183808423444
1769251880392,122,-6,-5.33452485775323,-5.848551868556747,-5.864262800307553
1769251880396,123,-5,-5.110774713898567,-5.332320016692404,-5.658222096710158
1769251880400,122,-6,-4.949733314522904,-5.918889839686929,-5.51416116411254
1769251880404,123,-5,-4.874665109347131,-5.26937725913723,-5.455825017028316
1769251880408,123,-5,-4.848090364523808,-5.1681060897121816,-5.4460526527988655
1769251880412,122,-6,-4.806259085545931,-6.002041248325325,-5.42097844626109
1769251880416,123,-5,-4.713096790134141,-5.2291321462800715,-5.344452524421175
1769251880420,123,-5,-4.585573967561453,-4.945578624754119,-5.233823849231912
1769251880424,123,-5,-4.4687118030233295,-5.309699215367683,-5.1343835169876115
1769251880428,123,-5,-4.393307959685584,-5.063379482289409,-5.07646420990852
1769251880432,123,-5,-4.361579034804412,-5.149629235278905,-5.061605974007597
1769251880436,123,-5,-4.362241272645944,-5.067361756001641,-5.078547072673384
1769251880440,123,-5,-4.383819482034495,-5.065454103770102,-5.116458949527926
1769251880444,123,-5,-4.4091803003100765,-5.245299962339015,-5.15860042084573
1769251880448,123,-5,-4.402863335890274,-5.0513836834124115,-5.16914416712614
1769251880452,123,-5,-4.3099404223254805,-5.233856976956842,-5.092457707601753
1769251880456,123,-5,-4.071229543978477,-4.927271641341292,-4.86913338451051
1769251880460,124,-4,-3.6457433320002504,-4.211780958597689,-4.4587443374004
1769251880464,124,-4,-3.031343852928334,-4.102279469327074,-3.860046577201929
1769251880468,125,-3,-2.279828722985388,-3.162058579488214,-3.1253957921006226
1769251880472,126,-2,-1.4985913934475843,-2.1676980810825963,-2.361963033554031
1769251880476,126,-2,-0.8268140860591915,-1.9434004785806591,-1.7078304696897042
1769251880480,127,-1,-0.3849952674483524,-1.2283164977990697,-1.282086966463706
1769251880484,127,-1,-0.2146341536803511,-1.0354601245407131,-1.1256960889499124
1769251880488,127,-1,-0.2382002076386628,-1.273231920722489,-1.1621763169859216
1769251880492,127,-1,-0.2739424372038694,-1.0215700794669595,-1.2116291944262427
1769251880496,127,-1,-0.1227316665105363,-1.104636235142801,-1.075916055618292
1769251880500,127,-1,0.3046466632551641,-1.049073655620416,-0.6652744308347451
1769251880504,128,0,0.9057257664035758,-0.1907194162968801,-0.0810988454977503
1769251880508,129,1,1.4326640729993625,0.8540201382363204,0.4293943523215706
1769251880512,129,1,1.6518775989766687,0.882327832968957,0.6332207261175082
1769251880516,128,0,1.490559759509554,-0.0298085260471461,0.4583647145727609
1769251880520,128,0,1.052777730690014,-0.105725054046756,0.0085565049111702
1769251880524,128,0,0.5137739798894756,-0.1231237348307607,-0.5430003757225856
1769251880528,127,-1,-0.0091889847672215,-1.234284249503593,-1.0807105065930585
1769251880532,126,-2,-0.5298855418419237,-1.9805289360969984,-1.6176757053192097
1769251880536,126,-2,-1.17810534646291,-2.205813757238685,-2.2818109914114357
1769251880540,125,-3,-2.09620734790303,-2.888381529565412,-3.2146271839195357
1769251880544,124,-4,-3.303831255383532,-4.360644862442868,-4.435942584133078
1769251880548,122,-6,-4.640200552087659,-5.986836114593125,-5.784881036030168
1769251880552,121,-7,-5.845457602123175,-7.202458590472252,-7.001449504768585
1769251880556,120,-8,-6.713002466871595,-8.026379150954604,-7.880226533649681
1769251880560,120,-8,-7.181658093255576,-7.992316953793741,-8.362084044299678
1769251880564,120,-8,-7.314902286442766,-8.319642681795422,-8.510929917049427
1769251880568,119,-9,-7.230650434171115,-8.947810022250756,-8.442411716273169
1769251880572,120,-8,-7.057055607000938,-8.305674446249524,-8.282110616449554
1769251880576,120,-8,-6.910578249561769,-7.882819698721173,-8.14657952789157
1769251880580,120,-8,-6.857770360609853,-8.146950603366985,-8.104803203879554
1769251880584,120,-8,-6.8754370271908325,-8.150828457820488,-8.135282077911375
1769251880588,120,-8,-6.864043588215152,-8.09042143496647,-8.137322191915434
1769251880592,120,-8,-6.726406651505265,-8.205958040366696,-8.010860227277258
1769251880596,120,-8,-6.451832583876144,-7.939082556334879,-7.744068949281069
1769251880600,121,-7,-6.130125334879019,-7.115754949266086,-7.429878422481239
1769251880604,121,-7,-5.882185012981423,-7.13083358078862,-7.194838934146298
1769251880608,121,-7,-5.774955393751489,-7.135618666008094,-7.108368769090337
1769251880612,121,-7,-5.793922745079317,-7.144356531733961,-7.150733538767726
1769251880616,120,-8,-5.853756383953828,-8.029166851575257,-7.226127518180478
1769251880620,121,-7,-5.7468417890370995,-6.9893829654344115,-7.120168833252994
1769251880624,123,-5,-5.0054047802637545,-5.246160880487812,-6.369308908617765
1769251880628,124,-4,-2.8680214766650174,-4.0033391829907385,-4.225112551396727
1769251880632,128,0,1.3663941986511272,-0.286678887737954,0.0017495598792049
1769251880636,133,5,7.597728653362747,5.1207396693907805,6.209040112678817
1769251880640,140,12,14.303251544591127,11.850056918177204,12.881784117611112
1769251880644,146,18,18.73467955974059,17.96866190826853,17.283232501345452
1769251880648,146,18,18.15557885523401,17.769217226338252,16.685959795674005
1769251880652,139,11,11.48318856166479,10.897894574298304,10.010759295719424
1769251880656,127,-1,0.2099147174033317,-1.0777609264357588,-1.252283399940946
1769251880660,113,-15,-12.130713244277002,-15.016194592559348,-13.577468361299536
1769251880664,104,-24,-21.673420147543624,-24.057090009372168,-23.110970608170557
1769251880668,101,-27,-26.00660126077447,-27.16009621247735,-27.45108405955783
1769251880672,102,-26,-24.968431260306502,-26.117046759883756,-26.43758212654476
1769251880676,107,-21,-20.18079888205007,-21.055874033259208,-21.683125718062264
1769251880680,113,-15,-13.888726463959744,-15.099514231388763,-15.41808536440594
1769251880684,118,-10,-7.93435087406983,-9.960041287660738,-9.474400768166849
1769251880688,123,-5,-3.336166829626852,-5.263851515743504,-4.8715763105353265
1769251880692,126,-2,-0.3979247570492736,-1.9852593320473748,-1.9240947660480712
1769251880696,128,0,1.0086026169237448,-0.2126489488898355,-0.5155722798981126
1769251880700,128,0,1.2386234633741249,0.044799642070926,-0.2947699618782209
1769251880704,127,-1,0.75300253815064,-1.0953681197658596,-0.7951405668740357
1769251880708,126,-2,-0.0031679008081955,-2.114349187199971,-1.563099700457442
1769251880712,126,-2,-0.7092393101387211,-2.0839448200278774,-2.2749932191036635
1769251880716,126,-2,-1.1841484057747145,-2.144878854755752,-2.753412799770721
1769251880720,125,-3,-1.3188545437356325,-2.9990529646021,-2.8937049011142024
1769251880724,125,-3,-1.0446824241872317,-3.0718903083682525,-2.6274157118366697
1769251880728,126,-2,-0.3950771335635208,-2.1067155598924647,-1.9854004089853816
1769251880732,127,-1,0.436630972567773,-1.0765863220321252,-1.1596451442607527
1769251880736,128,0,1.1646830127033083,-0.1577190909681853,-0.4368735600143496
1769251880740,128,0,1.5803245041997154,0.030733026342173,-0.026956756508671
1769251880744,128,0,1.675935644721724,-0.1367706061498876,0.0628885474776277
1769251880748,128,0,1.617766105927168,-0.0014127095902787,0.0001259838753506
1769251880752,128,0,1.6059938927805084,-0.1906935588343097,-0.0147554314671729
1769251880756,128,0,1.751897370718916,-0.0166979309702426,0.1282798881139819
1769251880760,129,1,2.062434113625789,0.891492480639831,0.434549506224051
1769251880764,129,1,2.505190050583317,0.9923665543418738,0.8714521272969447
1769251880768,129,1,3.0531563061977636,0.8872475308738825,1.4134944027509313
1769251880772,130,2,3.659067914790903,1.923431255549032,2.0146904917968915
1769251880776,131,3,4.218205409966166,2.887272785274127,2.569964796344502
1769251880780,131,3,4.598527444401669,2.9832633784631697,2.9465245735658527
1769251880784,131,3,4.7257643758227985,2.9133997934705977,3.0705878251593575
1769251880788,131,3,4.643122691755185,2.9542761585496837,2.986225051838334
1769251880792,131,3,4.497818678884262,2.8807671006806284,2.8399761862971165
1769251880796,131,3,4.468675652216932,2.922794544255583,2.808785197804883
1769251880800,131,3,4.6708770894213325,2.9803018968302175,3.007014561493588
1769251880804,131,3,5.08056821835209,2.9018442628693535,3.411895521498159
1769251880808,132,4,5.537234418694904,3.977289455539383,3.864429372541293
1769251880812,133,5,5.854230838279156,4.86696809979235,4.178740362627475
1769251880816,132,4,5.970920666302304,3.9360085437339407,4.294562449202733
1769251880820,132,4,6.0157467028927645,3.9940809018611985,4.3402311327943615
1769251880824,133,5,6.221827783863358,4.871401582013919,4.547360747648383
1769251880828,133,5,6.76818119994679,5.012487246847681,5.092757305335608
1769251880832,134,6,7.6611863866588115,5.853427508752882,5.982276307047183
1769251880836,135,7,8.719405777751946,6.960910521349819,7.036397700191871
1769251880840,136,8,9.667416346503678,7.979829256966723,7.981949759419475
1769251880844,137,9,10.296369253623215,8.87562371353758,8.610586826264058
1769251880848,137,9,10.596132493087346,9.007805512785602,8.911294354097848
1769251880852,137,9,10.756620799299156,8.872590792069161,9.073224185354531
1769251880856,137,9,11.025155476485049,8.956549186085057,9.343281932556314
1769251880860,138,10,11.531841434771035,9.993488887349455,9.8507539430308
1769251880864,139,11,12.22217513106838,10.858785033389813,10.540264872320543
1769251880868,139,11,12.92698497417608,11.037089785673055,11.243085792053211
1769251880872,140,12,13.477730148799562,11.845319414096592,11.792520258770958
1769251880876,140,12,13.768515997630947,12.009702469107786,12.084121720425983
1769251880880,140,12,13.75004497278748,11.914271248771133,12.068145001826954
1769251880884,140,12,13.40205453132832,11.97476691048345,11.72257746819006
1769251880888,139,11,12.721456909208143,10.896067434684056,11.043151839644851
1769251880892,138,10,11.72502882528288,10.021298486446035,10.047068135115214
1769251880896,137,9,10.450744246033,8.839053586690962,8.773588162587743
1769251880900,135,7,8.954981721808299,7.066676092379835,7.279794073609304
1769251880904,134,6,7.312185183481453,5.867231270636131,5.639705010893875
1769251880908,132,4,5.612943270676299,3.9608534606341745,3.943080194664121
1769251880912,130,2,3.945837828403323,2.030516127245134,2.2781546298454964
1769251880916,129,1,2.3629376156732658,0.7725867612542459,0.6971749048333171
1769251880920,127,-1,0.8562886413642472,-0.7966643806685414,-0.8075637128100595
1769251880924,126,-2,-0.6267420033462203,-2.332845612603019,-2.2885189949633467
1769251880928,124,-4,-2.134586563044567,-3.7637452360403465,-3.793908738398657
1769251880932,123,-5,-3.663232048615424,-5.282927730784055,-5.319520563878832
1769251880936,121,-7,-5.1405821962314775,-6.8848418938922435,-6.793252732573926
1769251880940,120,-8,-6.450959179846073,-8.129701877120613,-8.099644057796834
1769251880944,119,-9,-7.482077248594132,-9.03227810021771,-9.126691418302634
1769251880948,118,-10,-8.167006319798034,-9.983949779150862,-9.807692228198484
1769251880952,118,-10,-8.501706435996795,-10.136196201983047,-10.138783945142832
1769251880956,118,-10,-8.536166086758216,-9.930908771502544,-10.169972724732604
1769251880960,118,-10,-8.35390369793872,-10.174548956535968,-9.98446853911932
1769251880964,118,-10,-8.05534817480848,-9.903347694483546,-9.682336189177963
1769251880968,119,-9,-7.740836207348091,-9.159134594149306,-9.363885628589264
1769251880972,119,-9,-7.481036669549392,-8.917256512554378,-9.09973898754146
1769251880976,119,-9,-7.287810917139392,-9.154730158838442,-8.901250568026535
1769251880980,119,-9,-7.113395478132583,-8.953464056649446,-8.720493603662677
1769251880984,120,-8,-6.878568402994546,-8.108146786892577,-8.47935447549462
1769251880988,120,-8,-6.510021343990194,-7.958120524890778,-8.105894998268566
1769251880992,120,-8,-5.983122686806708,-8.084082583272298,-7.575357842413889
1769251880996,121,-7,-5.362828561867712,-7.001412362776173,-6.951325865649594
1769251881000,122,-6,-4.798967071263504,-6.081893979309537,-6.382692166203618
1769251881004,122,-6,-4.445433934745856,-6.012253563784233,-6.023379458947885
1769251881008,122,-6,-4.353759372687579,-5.993931085398953,-5.925215366702541
1769251881012,122,-6,-4.432892462720044,-6.082636870429969,-5.9974681617483
1769251881016,122,-6,-4.509525999389361,-5.963654675376264,-6.0673423407294615
1769251881020,122,-6,-4.439267027125049,-6.136779443541737,-5.990844641032027
1769251881024,122,-6,-4.18833879098969,-5.954365200649099,-5.734101633597047
1769251881028,123,-5,-3.8335166326836823,-5.000777357311709,-5.373502002727667
1769251881032,123,-5,-3.4882552888023257,-5.115222511777635,-5.022228788775021
1769251881036,123,-5,-3.218907308047615,-4.87233749899908,-4.746564849184896
1769251881040,124,-4,-3.018495467395395,-4.285325353531302,-4.539530019475245
1769251881044,123,-5,-2.84889862007726,-4.751028452531642,-4.36296773547108
1769251881048,124,-4,-2.6996883389474977,-4.227729162496205,-4.206471627082627
1769251881052,124,-4,-2.6002594177626217,-3.833884362522757,-4.099637173449758
1769251881056,124,-4,-2.571789311824106,-4.189491714524912,-4.063839142360432
1769251881060,124,-4,-2.5717553256844496,-3.9389304242951866,-4.056476812405808
1769251881064,124,-4,-2.4965454007603225,-4.107291307183111,-3.9737137673961263
1769251881068,124,-4,-2.2503468859313855,-3.859451630128539,-3.7197225083187817
1769251881072,125,-3,-1.822636907383406,-3.1618507327097944,-3.2842207353944155
1769251881076,125,-3,-1.3077567845763012,-2.8916406058413995,-2.7617757085683947
1769251881080,126,-2,-0.8502317569042284,-2.2000210874926767,-2.2969286523651853
1769251881084,126,-2,-0.5593454042405537,-1.875131720982013,-1.9987540232798329
1769251881088,126,-2,-0.4571604501837648,-2.052094761817171,-1.8889362626930684
1769251881092,126,-2,-0.4915249620646108,-1.97912224865429,-1.9149912815777184
1769251881096,126,-2,-0.5875612981002738,-2.0415391039388444,-2.0020867672697036
1769251881100,126,-2,-0.6820665600109145,-2.082792590220811,-2.087436184266159
1769251881104,126,-2,-0.7157159269973883,-1.946561832119266,-2.112016284752187
1769251881108,126,-2,-0.6135329986149911,-2.002549955828594,-2.000770482787311
1769251881112,126,-2,-0.2989550181585324,-1.9855751274951532,-1.677192694354834
1769251881116,127,-1,0.2570689662338912,-1.048464797019397,-1.1128871710654231
1769251881120,128,0,0.997004198700092,-0.0699407188606469,-0.3658208649857626
1769251881124,128,0,1.7858964041150194,0.059965400024982,0.4300528839936013
1769251881128,129,1,2.468525702729826,0.9812077110558348,1.1213602294301268
1769251881132,130,2,2.951292446584892,2.0767421575377822,1.6151356393936611
1769251881136,130,2,3.268917216119548,1.8462272960662929,1.9447016967070487
1769251881140,130,2,3.5783231940904843,2.0809220670543236,2.2649073014148664
1769251881144,131,3,4.0521983418683405,2.8899029918442536,2.747516947439493
1769251881148,131,3,4.730562084887686,3.175043872549412,3.4333627600812786
1769251881152,132,4,5.447627869183165,3.90751572526168,4.158208116635254
1769251881156,133,5,5.913237393722704,4.9907477906920565,4.632718287203213
1769251881160,133,5,5.908166563556934,4.985071610932522,4.637534474927746
1769251881164,132,4,5.441534881479573,3.930186464701076,4.181598486160654
1769251881168,131,3,4.7326104649480065,3.213855304327122,3.4841714837437148
1769251881172,131,3,4.032747574141223,2.806927887318542,2.795972076684415
1769251881176,130,2,3.446076661185555,2.164397115975209,2.219818197160925
1769251881180,130,2,2.8923215928824475,1.7794839026263505,1.674720086606566
1769251881184,129,1,2.2152348470484373,1.1658979222552088,1.0052992394233289
1769251881188,128,0,1.325019610996297,-0.0096632905697016,0.1236102608158216
1769251881192,127,-1,0.2631817632496462,-1.002588380434645,-0.9275610686405352
1769251881196,126,-2,-0.835967048776773,-1.9575161366842424,-2.014182357565574
1769251881200,125,-3,-1.8312573103569056,-3.1608753468071153,-2.996648219394464
1769251881204,124,-4,-2.635694744650602,-3.8009693887104623,-3.789726568512778
1769251881208,124,-4,-3.2224406700640458,-4.10454747061885,-4.3672940825180495
1769251881212,123,-5,-3.600002699987068,-4.853577217539276,-4.7367623143948965
1769251881216,123,-5,-3.798731809840073,-5.128453573419141,-4.926206745760418
1769251881220,123,-5,-3.875966295058886,-4.966929762366152,-4.991578533875787
1769251881224,123,-5,-3.9063402004790384,-4.98099111650104,-5.008659667979272
1769251881228,123,-5,-3.938591151692929,-4.927849814256325,-5.029071876946422
1769251881232,123,-5,-3.956051465861772,-5.008225804634613,-5.037806118138781
1769251881236,123,-5,-3.896807895937892,-4.991441594256474,-4.9709948871099305
1769251881240,123,-5,-3.7337893189379567,-5.067139712934674,-4.797180514416532
1769251881244,123,-5,-3.536502562356552,-4.897726275432024,-4.5837692009316
1769251881248,124,-4,-3.429360152806127,-3.9676883278869424,-4.459034416106805
1769251881252,124,-4,-3.466843597347491,-3.996836032346539,-4.484827289852007
1769251881256,123,-5,-3.5646061887660023,-4.9598759553322935,-4.580289194603463
1769251881260,123,-5,-3.5866036993400767,-5.13607435441784,-4.604159490122477
1769251881264,123,-5,-3.483171202820348,-4.7728415791690715,-4.496139906128871
1769251881268,124,-4,-3.24982724668892,-4.128217212064175,-4.244523361122093
1769251881272,125,-3,-2.6520143967013508,-2.7732642549075464,-3.617404859538025
1769251881276,127,-1,-1.010290437640275,-1.2021144404069195,-1.9463044770183624
1769251881280,129,1,2.534180022131744,1.11044900366044,1.6163350254788451
1769251881284,134,6,8.207828191079686,6.008930889382015,7.292676204282321
1769251881288,141,13,14.789031852767051,13.05827216976558,13.865287274001483
1769251881292,147,19,19.599118051395244,19.1310780775051,18.66481610098775
1769251881296,148,20,19.64207772140696,19.83209140592334,18.705359240534744
1769251881300,141,13,13.324060123696825,13.114202488136574,12.40007181175437
1769251881304,129,1,1.6136342181345849,0.9018410614696544,0.7181020522368295
1769251881308,114,-14,-12.1974144427496,-13.803034643630625,-13.05585433832774
1769251881312,102,-26,-24.02392427671572,-25.99702128728081,-24.84878112339383
1769251881316,96,-32,-30.841912179620454,-31.93131081244192,-31.64798191000617
1769251881320,96,-32,-31.770638939497346,-32.08417828107416,-32.57670239437303
1769251881324,100,-28,-27.921673331864863,-27.886664455800073,-28.73991415040892
1769251881328,106,-22,-21.40610704241622,-22.030622757411574,-22.23463724132722
1769251881332,112,-16,-14.289370213557758,-15.794341745051716,-15.113884781725693
1769251881336,119,-9,-8.024649965748536,-9.103437240562634,-8.82892896740902
1769251881340,124,-4,-3.3685943766841926,-3.9268575624924456,-4.145571884444093
1769251881344,127,-1,-0.5042308583235986,-1.029295010057102,-1.2584629983174347
1769251881348,128,0,0.813375991840374,0.0822019305995467,0.0726139481015497
1769251881352,128,0,1.0914509878446612,0.1073171450867667,0.3585363739013598
1769251881356,128,0,0.8913280595089614,0.0087294809003175,0.1665905459658903
1769251881360,128,0,0.642271471155615,-0.0068076881194476,-0.0716796543646389
1769251881364,128,0,0.5658369036301039,0.0711874004782906,-0.1363966573592601
1769251881368,128,0,0.7156446387251405,-0.0331709843033363,0.0241859898034477
1769251881372,128,0,1.055368399487033,0.2422368362329237,0.374240671056455
1769251881376,129,1,1.5083331730100933,0.8639278301861855,0.8389085701460566
1769251881380,129,1,1.9790109983589528,1.1847624174157296,1.323184653927148
1769251881384,130,2,2.3785722589802134,1.8714542676342845,1.73654824664276
1769251881388,130,2,2.657566528349403,2.181758434688352,2.027376662934819
1769251881392,130,2,2.8127441072565356,2.0096542118020366,2.1922059930672413
1769251881396,130,2,2.8508513434428275,2.115232677092047,2.2398950397854955
1769251881400,130,2,2.7511459758204277,1.9598162333151263,2.151907345537756
1769251881404,130,2,2.4919441201761856,2.0936920356328264,1.906585928435911
1769251881408,130,2,2.1386542945221754,1.9943315418879897,1.5675080662312435
1769251881412,129,1,1.8925620514731016,1.146038773295931,1.3344454766128964
1769251881416,129,1,2.0030281555208784,1.049001026772967,1.4566075105023408
1769251881420,130,2,2.581882301098537,1.978304340128247,2.0461460485181355
1769251881424,131,3,3.4827017210493256,3.1677019839432408,2.9567825965192647
1769251881428,132,4,4.366918639115934,3.8525025796652623,3.850558910205997
1769251881432,132,4,4.914483224540946,4.358209898261479,4.408779314098046
1769251881436,133,5,5.020930478932645,4.7734134365798475,4.528016905796233
1769251881440,132,4,4.843974963780276,4.3123158049728,4.365638410377868
1769251881444,132,4,4.676695813154059,3.826986048719749,4.213029281735869
1769251881448,132,4,4.746036296072135,4.207625732606568,4.295051603563401
1769251881452,133,5,5.083144380862398,5.025915040623795,4.6419475602068125
1769251881456,133,5,5.542483236889999,5.080104055191204,5.109628688310422
1769251881460,133,5,5.925573667394863,5.055199918854898,5.502386361022973
1769251881464,134,6,6.111731588879479,6.067731698250284,5.70088504021726
1769251881468,134,6,6.126566151549352,5.987086995191919,5.7295513139177245
1769251881472,133,5,6.118472387087319,5.253967208166714,5.734793085875137
1769251881476,134,6,6.2541657190695075,5.836420085551369,5.882414509856222
1769251881480,134,6,6.604586996031693,6.358204005373042,6.243654228176382
1769251881484,135,7,7.111680611577458,6.7168930239225775,6.7612976612413505
1769251881488,135,7,7.656513915182147,7.417642502861568,7.317217889401842
1769251881492,136,8,8.160669180475972,7.772023051045785,7.833155600009537
1769251881496,136,8,8.636007329729335,8.342818726151636,8.320307558353985
1769251881500,137,9,9.15090244628193,8.885874314122855,8.84638544834186
1769251881504,137,9,9.748739562929282,9.13593267635867,9.455030633999066
1769251881508,138,10,10.393407260755442,10.117336129272854,10.110986738046297
1769251881512,139,11,10.998798720324348,10.95355945451663,10.728456221683762
1769251881516,139,11,11.523274473010389,11.287023901386268,11.26518799931555
1769251881520,140,12,12.034930611458895,11.847314971974816,11.788539537979943
1769251881524,140,12,12.66490462040306,12.26524577160716,12.42957518138328
1769251881528,141,13,13.47096179701616,12.95536749222243,13.246487577734598
1769251881532,142,14,14.33220280390852,14.1325449677359,14.118633946824586
1769251881536,143,15,14.981022069276031,15.136990998895534,14.778361184789144
1769251881540,143,15,15.15439709013454,14.964113876213249,14.962660080792045
1769251881544,142,14,14.737308702719403,14.215699828423508,14.556552045576202
1769251881548,142,14,13.787675039544746,13.94572861534959,13.617802291840375
1769251881552,140,12,12.443440250857682,12.207594842836404,12.284435017530626
1769251881556,138,10,10.80428534604594,10.020614002403711,10.656693080084562
1769251881560,137,9,8.89278829825886,9.140255711639362,8.75726754237474
1769251881564,135,7,6.73073371754704,7.026705134478627,6.607001463966802
1769251881568,132,4,4.449186796959358,4.1419060161201235,4.336100743168079
1769251881572,130,2,2.295775783508146,2.036357541595468,2.192605691606105
1769251881576,128,0,0.5009537434660292,0.1699365348317081,0.4080517247367843
1769251881580,127,-1,-0.8760376146951119,-0.9636383356203996,-0.957892296986532
1769251881584,126,-2,-1.9678693596024688,-1.867134594577573,-2.0384033592806565
1769251881588,125,-3,-2.962831945500779,-2.9530410146899966,-3.022504215095138
1769251881592,124,-4,-3.937738158971307,-3.857501524574686,-3.987253978294913
1769251881596,123,-5,-4.810868285270845,-4.952914250358052,-4.850460786617422
1769251881600,122,-6,-5.450902066157718,-5.811484223240349,-5.4800168798969615
1769251881604,122,-6,-5.830423745655724,-6.01118182404574,-5.84827807866604
1769251881608,122,-6,-6.068836464360658,-5.789051192909491,-6.075366205879335
1769251881612,122,-6,-6.319601890191489,-6.013471862802094,-6.315584813164945
1769251881616,121,-7,-6.618128192713366,-6.80958024409832,-6.604258977578135
1769251881620,121,-7,-6.8484405892497735,-6.926587320085353,-6.824603874918308
1769251881624,121,-7,-6.86256793366966,-6.909426341283676,-6.828202543253693
1769251881628,121,-7,-6.633352912190401,-6.839792370818265,-6.588287998765007
1769251881632,122,-6,-6.294484633967444,-5.989791952787922,-6.239200387681706
1769251881636,122,-6,-6.033238752476283,-5.785080522890507,-5.968341215609784
1769251881640,122,-6,-5.937367957570891,-5.996741958140957,-5.862902456098438
1769251881644,122,-6,-5.934569372180082,-5.780957149503436,-5.849901735077097
1769251881648,122,-6,-5.873130454406371,-5.994065992621367,-5.777548278216453
1769251881652,122,-6,-5.664039440325961,-5.800416316909493,-5.557548075815545
1769251881656,123,-5,-5.35563609251709,-4.967254830011929,-5.239162686514305
1769251881660,123,-5,-5.081856480009126,-4.821353281897378,-4.956466663638666
1769251881664,123,-5,-4.944674388532932,-4.923856784267664,-4.810481133163338
1769251881668,123,-5,-4.942865121974992,-4.864623598285629,-4.798954972861629
1769251881672,123,-5,-4.998314088954781,-4.90240901686594,-4.843895524333942
1769251881676,123,-5,-5.035688487064011,-4.872572936413695,-4.87101665782203
1769251881680,123,-5,-5.038456977031474,-4.887391239696704,-4.864383308790336
1769251881684,123,-5,-5.042438536392379,-4.864963560269225,-4.859310388118337
1769251881688,123,-5,-5.0827881783300155,-4.88881594980296,-4.890185290441263
1769251881692,123,-5,-5.141288865116463,-4.904681439541262,-4.938772500587684
1769251881696,123,-5,-5.140217137270717,-4.821944969292014,-4.927878916324754
1769251881700,123,-5,-4.998721520745046,-4.969523881748726,-4.776859682665787
1769251881704,123,-5,-4.715548987176506,-4.7267228490679045,-4.484322078749685
1769251881708,124,-4,-4.40378476985129,-4.05451608110856,-4.1635851429544
1769251881712,124,-4,-4.231400957555904,-3.706522341066975,-3.9830554803431353
1769251881716,124,-4,-4.3107036207493366,-4.018499106869413,-4.054562492824131
1769251881720,123,-5,-4.634342001395121,-4.775820547424883,-4.369423248107164
1769251881724,123,-5,-5.1012756761958915,-4.880850791141075,-4.826129145001662
1769251881728,123,-5,-5.58106841293665,-4.94257544086549,-5.29544533665746
1769251881732,122,-6,-5.9520415446543,-5.737844829908294,-5.657033659395332
1769251881736,122,-6,-6.112508112940258,-6.049276735665145,-5.809159200930621
1769251881740,122,-6,-5.995052145600866,-5.654680342173894,-5.683551443438388
1769251881744,123,-5,-5.584467923995542,-5.077339993907904,-5.264587369790802
1769251881748,123,-5,-4.922733721498796,-4.665741660925276,-4.5942991793903625
1769251881752,124,-4,-4.1008599204688965,-4.047911703030863,-3.7638054964334655
1769251881756,125,-3,-3.2415930882961588,-2.704520668463016,-2.896177046345006
1769251881760,126,-2,-2.4672774591233564,-1.9908819240122604,-2.114220609780199
1769251881764,126,-2,-1.859609795930402,-1.766323678184056,-1.499422917759613
1769251881768,127,-1,-1.4365625493464755,-0.9182513913176024,-1.0685799932282087
1769251881772,127,-1,-1.158510451526966,-0.8353128652864346,-0.7810441971755095
1769251881776,127,-1,-0.947763693623786,-0.8557335887990458,-0.5597259393297638
1769251881780,128,0,-0.7046178861204329,0.123580194189218,-0.3070306425844638
1769251881784,128,0,-0.330324377464759,0.1700031510051429,0.0742766266690051
1769251881788,128,0,0.2195047438726141,0.1087234862066464,0.6294415135210913
1769251881792,129,1,0.8692860555787787,1.2104438067267005,1.2851460252501186
1769251881796,130,2,1.421331327415906,2.0412227998675623,1.8449116859057832
1769251881800,130,2,1.6638318759942894,2.3009268882678966,2.096297839788293
1769251881804,130,2,1.5177134576042457,1.9455371406604016,1.9590246416526984
1769251881808,129,1,1.0867541537990997,1.3801009020162056,1.5362042500660706
1769251881812,129,1,0.5572518820193573,0.925391693855518,1.0139999072996608
1769251881816,128,0,0.0351441112347559,0.3390570865835514,0.4985142310775727
1769251881820,128,0,-0.5364894198800747,0.0345098746436605,-0.0666967102846929
1769251881824,127,-1,-1.310700907437445,-0.7997705780038222,-0.8341451320967788
1769251881828,126,-2,-2.379386542203968,-1.8382529921455957,-1.8956163253220364
1769251881832,125,-3,-3.6598340612309825,-2.8822714346332883,-3.168692053512796
1769251881836,123,-5,-4.926143965049953,-4.822804414208524,-4.427656738303648
1769251881840,122,-6,-5.964238579059429,-5.801629624696842,-5.458492094399604
1769251881844,122,-6,-6.713772488773006,-5.943170239517447,-6.201255410132014
1769251881848,121,-7,-7.267026151736008,-6.671825764874803,-6.748686073981797
1769251881852,121,-7,-7.733791616237308,-7.071541976672375,-7.210086545349147
1769251881856,120,-8,-8.111776716384355,-7.580781292524583,-7.581732831152159
1769251881860,120,-8,-8.286187746923106,-8.093571166947523,-7.748081390581405
1769251881864,120,-8,-8.147473629962601,-7.582944621777876,-7.600907601709554
1769251881868,121,-7,-7.709653707118179,-7.052624072148812,-7.156762662183169
1769251881872,121,-7,-7.12838231620447,-6.671604329129851,-6.572399747337022
1769251881876,122,-6,-6.616339239774897,-5.952686861180285,-6.058441503685166
1769251881880,122,-6,-6.3286367688518235,-5.760956501395059,-5.765977657993469
1769251881884,122,-6,-6.29246611434361,-5.856194149247918,-5.719741840574392
1769251881888,122,-6,-6.409901661172312,-5.812504074509854,-5.824051338412512
1769251881892,122,-6,-6.519035235176126,-5.861612247980175,-5.923473297775901
1769251881896,122,-6,-6.481554023736804,-5.779865294519678,-5.88539360733961
1769251881900,122,-6,-6.259478668133296,-5.906761846568942,-5.670752866361261
1769251881904,122,-6,-5.922495586974285,-5.719525734479223,-5.340347129849464
1769251881908,123,-5,-5.517741925801781,-4.911140658030554,-4.930881074163782
1769251881912,124,-4,-4.817115704350037,-3.7831724040321952,-4.211066761358575
1769251881916,126,-2,-3.137819467205135,-1.803904358868201,-2.5056216203937214
1769251881920,129,1,0.4620360270894457,1.0786392383354195,1.1141911851665487
1769251881924,134,6,6.496460934640359,6.352882073164871,7.152682916699536
1769251881928,142,14,14.20884056400919,13.993154656015813,14.85275724911325
1769251881932,149,21,21.25867916725583,21.359456645095637,21.881873771168955
1769251881936,154,26,24.451893600327494,26.046321134705902,25.057637036578193
1769251881940,151,23,21.32087108119856,23.221066506371397,21.9230413913946
1769251881944,140,12,11.636527178707972,12.181304328994386,12.25434541720626
1769251881948,126,-2,-2.161070285605108,-1.874461319159622,-1.5120224101363309
1769251881952,112,-16,-15.951553171462312,-15.731902452187622,-15.268633032482883
1769251881956,102,-26,-25.763818005551705,-25.833132876721887,-25.060427743048116
1769251881960,99,-29,-29.40067809449121,-28.78933403055617,-28.699401236877073
1769251881964,102,-26,-27.052287392966,-25.791698683315225,-26.371672330834286
1769251881968,108,-20,-20.766477179694256,-19.899627162497435,-20.110274965353625
1769251881972,115,-13,-13.261184138549387,-12.71654545168624,-12.61749000965684
1769251881976,122,-6,-6.77114147713602,-5.870831628076346,-6.121658747297052
1769251881980,126,-2,-2.4144850924553167,-1.7275013014310818,-1.7464585701788342
1769251881984,128,0,-0.1943245564755651,0.1344545308150744,0.4934654192691288
1769251881988,129,1,0.5553379540066028,1.1629958512224112,1.2550988406931918
1769251881992,129,1,0.6138268457454141,1.2333190494697333,1.315824453134387
1769251881996,129,1,0.5032103571531366,1.178785426522002,1.201674733612565
1769251882000,129,1,0.4191048303252414,1.2984215192706474,1.1137576586112334
1769251882004,129,1,0.3789583622988672,1.089792357646972,1.0726992962838793
1769251882008,129,1,0.401616126991267,1.219011491804892,1.097350753040294
1769251882012,129,1,0.569153183571032,1.1754683644983186,1.2683353326537676
1769251882016,129,1,0.953885939371089,1.2209317676487226,1.6568329486696065
1769251882020,130,2,1.5191254192488302,2.35203244751561,2.225502746641671
1769251882024,131,3,2.1190129995899896,2.979041219599113,2.8277792041282144
1769251882028,131,3,2.6124569522288885,3.391614450900305,3.3221293772941767
1769251882032,132,4,2.977490997450283,3.937999705782308,3.687270410614936
1769251882036,131,3,3.3049230351257437,3.508113506800046,4.015529726870582
1769251882040,132,4,3.67843050096545,4.0810933147263055,4.391240224499147
1769251882044,133,5,4.073298297066708,5.264153015153941,4.788513500787973
1769251882048,133,5,4.383041609692102,5.13068149532133,5.099270771819544
1769251882052,133,5,4.537331247074641,5.143267021767845,5.253231781202722
1769251882056,133,5,4.580004144911536,5.386203990204027,5.295869158557424
1769251882060,133,5,4.632695540072394,5.1389247124705015,5.350007317647894
1769251882064,133,5,4.792378800942266,5.3161608355862295,5.511868548171133
1769251882068,134,6,5.065311088484863,6.004432242611859,5.785761214180559
1769251882072,134,6,5.387505925043738,6.3250387560954815,6.106828095781175
1769251882076,134,6,5.690520147779871,6.177965180409165,6.408046062079146
1769251882080,134,6,5.942056791392871,6.388201299504287,6.659216598656394
1769251882084,135,7,6.145864787518714,7.0716890557409595,6.864310411717163
1769251882088,135,7,6.334171158142709,7.261428270708565,7.053822778869423
1769251882092,135,7,6.5625302662444245,7.058490878562215,7.281951856695026
1769251882096,135,7,6.8833247550625165,7.471269285790865,7.601488795474789
1769251882100,136,8,7.30123646644827,8.093893975634428,8.01824768701649
1769251882104,136,8,7.756358728146416,8.399150713032254,8.472637309823625
1769251882108,137,9,8.16299659502997,8.9309607431469,8.878372904584
1769251882112,137,9,8.472788931232994,9.390298727642229,9.186659058575204
1769251882116,137,9,8.703501902530018,9.163674952168476,9.41564604104691
1769251882120,137,9,8.911416814605058,9.379642282738615,9.622278801501292
1769251882124,138,10,9.145061051866096,10.185356686347092,9.85517318056139
1769251882128,138,10,9.430573688838743,10.088295430449126,10.14001677956434
1769251882132,138,10,9.790811339394162,10.304430296121357,10.499226152877169
1769251882136,139,11,10.258541472497814,11.20279514783338,10.965238030465596
1769251882140,139,11,10.857440946482482,11.387425313059389,11.561457598319109
1769251882144,140,12,11.563995869462364,12.178838301536306,12.264550881738248
1769251882148,141,13,12.286454234084584,13.1055128582472,12.983626655538352
1769251882152,141,13,12.892561959974389,13.309290742998405,13.58729947781275
1769251882156,142,14,13.286242485209684,14.167132747704107,13.979446294316087
1769251882160,142,14,13.486004496169182,14.490398493219296,14.177755882046446
1769251882164,142,14,13.632115904724776,14.01804551025639,14.321949677179
1769251882168,142,14,13.890393841159904,14.360045544046017,14.577868930151205
1769251882172,143,15,14.31604549889788,14.980859984573708,15.000529730061308
1769251882176,143,15,14.793613177885902,15.5714189353497,15.473963642128677
1769251882180,144,16,15.102992041726845,16.048989905494825,15.778413588340504
1769251882184,143,15,15.043833105797695,15.517714953700583,15.715069952963512
1769251882188,143,15,14.515947780001946,14.827985718223728,15.184646085906024
1769251882192,142,14,13.523369856975506,14.541380221025667,14.189907018371809
1769251882196,141,13,12.1365885655276,13.002143927845724,12.799437268569363
1769251882200,138,10,10.444259282597091,10.639152272446209,11.102012775571309
1769251882204,137,9,8.511835906056282,8.969004120692002,9.16494160508296
1769251882208,135,7,6.382710140111671,7.332752164858565,7.032500410377426
1769251882212,133,5,4.138184009813667,5.099638747931959,4.785014791533094
1769251882216,130,2,1.9509666228972369,2.3913376777101156,2.5940947543871333
1769251882220,128,0,0.0415835731673857,0.3360218230084368,0.6801736032892254
1769251882224,127,-1,-1.4501395491763285,-0.7721551120858288,-0.8167631870039456
1769251882228,126,-2,-2.557078963839415,-1.877508386398124,-1.9296604687539132
1769251882232,125,-3,-3.446167348771118,-2.715849017860759,-2.824991559403487
1769251882236,124,-4,-4.280559887505329,-3.748456774246164,-3.6647469272912607
1769251882240,123,-5,-5.094185561446708,-4.5411424904907225,-4.482245003355236
1769251882244,123,-5,-5.767270390994705,-4.855428783923383,-5.158519767087168
1769251882248,122,-6,-6.116245293739509,-5.8283037857489655,-5.511390397112251
1769251882252,122,-6,-6.038331338722204,-5.714366902816347,-5.4388276897173915
1769251882256,123,-5,-5.607955065903228,-4.766182748358942,-5.015194474203243
1769251882260,123,-5,-5.046773459373121,-4.481227290765743,-4.461598724020863
1769251882264,124,-4,-4.586785065820053,-3.9288991246046305,-4.009070106764058
1769251882268,124,-4,-4.3345490950898995,-3.7399098115535474,-3.762996071771876
1769251882272,124,-4,-4.23630398541394,-3.803673876881741,-3.669009097726352
1769251882276,124,-4,-4.153630498397241,-3.667852919346763,-3.589456681492255
1769251882280,124,-4,-3.975676832518824,-3.540174657373929,-3.415542729070746
1769251882284,125,-3,-3.684176103872136,-2.894946869189198,-3.1308702184510357
1769251882288,125,-3,-3.347558245210476,-2.7213990470012694,-2.803610155559069
1769251882292,125,-3,-3.081566691265047,-2.864349735675704,-2.5469408893048557
1769251882296,125,-3,-3.0106112834198875,-2.5622114212561784,-2.482872993150882
1769251882300,125,-3,-3.22011858184176,-2.636306273857393,-2.6971271805856545
1769251882304,125,-3,-3.6918730432800126,-2.8194188544826715,-3.173799427811016
1769251882308,124,-4,-4.273290456255563,-3.7193881787779017,-3.761636698941654
1769251882312,123,-5,-4.744334339697596,-4.9589338387741435,-4.239792894952232
1769251882316,123,-5,-4.9525970138968685,-4.35452828893304,-4.454840920408808
1769251882320,124,-4,-4.89704634550865,-3.912653510781815,-4.4061252234850485
1769251882324,123,-5,-4.688918882420353,-4.471817277787239,-4.205692169991248
1769251882328,124,-4,-4.447931648916066,-4.065346983154292,-3.973160112502051
1769251882332,124,-4,-4.236316385728637,-3.648375698941728,-3.7700281628616614
1769251882336,124,-4,-4.065431146049675,-3.602062091072564,-3.606985080327703
1769251882340,124,-4,-3.938701710268092,-3.723448085193215,-3.487009167216243
1769251882344,124,-4,-3.877445327615259,-3.5538900003706724,-3.431614640342844
1769251882348,125,-3,-3.899041989984107,-3.056015618516775,-3.459442796416867
1769251882352,124,-4,-3.969673846088768,-3.589503675858957,-3.5380619694702093
1769251882356,124,-4,-3.9985432584505376,-3.7148337918540273,-3.5765212512216986
1769251882360,124,-4,-3.9090293601618984,-3.549189882448804,-3.496422031549807
1769251882364,124,-4,-3.7267351043312615,-3.7328274661813294,-3.3219360435354153
1769251882368,125,-3,-3.5788219773053855,-2.8585257341400414,-3.180812657320654
1769251882372,125,-3,-3.5790065910469515,-2.775639439940769,-3.1885161532548545
1769251882376,124,-4,-3.705194460937418,-3.550449876920321,-3.3235124246096737
1769251882380,124,-4,-3.805073537019208,-3.670947523646703,-3.4322462729746435
1769251882384,124,-4,-3.734957160592199,-3.6147688258098674,-3.369922736053306
1769251882388,125,-3,-3.4904013197399544,-2.962578061311828,-3.132763132913016
1769251882392,125,-3,-3.197961720026161,-2.640237476309182,-2.8488163895324137
1769251882396,125,-3,-2.9892152753457606,-2.719515426101275,-2.649883059228092
1769251882400,125,-3,-2.8930026856603375,-2.445772409594322,-2.5633430903751164
1769251882404,125,-3,-2.8443142357922424,-2.8722564432509596,-2.5228281451945485
1769251882408,125,-3,-2.778552243127324,-2.6698948313963924,-2.4642642070881675
1769251882412,126,-2,-2.7018064148595515,-1.9215299286135297,-2.3956009035477304
1769251882416,125,-3,-2.6741818288969332,-2.4427110539401196,-2.3777537777635707
1769251882420,125,-3,-2.74543016388013,-2.688111256173136,-2.4591655013399256
1769251882424,125,-3,-2.9152153306829773,-2.651494403286053,-2.637895907486558
1769251882428,125,-3,-3.136600965923521,-2.8555045335934555,-2.8671790774337813
1769251882432,125,-3,-3.3386251344092943,-2.7553864688865413,-3.0773860772586135
1769251882436,124,-4,-3.457445432292866,-3.5408763775577663,-3.2052570526355293
1769251882440,124,-4,-3.472516488204215,-3.656140818031852,-3.229924005295062
1769251882444,125,-3,-3.4164076371177368,-2.586486534982067,-3.1838025015409666
1769251882448,125,-3,-3.3336196181474005,-3.012326397969797,-3.1111907936606884
1769251882452,124,-4,-3.2263029747385925,-3.4899962205515407,-3.0132236038828895
1769251882456,125,-3,-3.046027165177862,-2.8559991175905832,-2.8407176803927667
1769251882460,125,-3,-2.729481597466897,-2.309035384795318,-2.531458144967633
1769251882464,126,-2,-2.2339921032154315,-1.924507847050686,-2.044793245598825
1769251882468,126,-2,-1.5613263303495435,-1.6920412525270572,-1.3830285181271305
1769251882472,127,-1,-0.780898519320379,-0.7367044504526047,-0.614151936943798
1769251882476,128,0,-0.0298689197983436,0.3270466996311982,0.1263208288120041
1769251882480,128,0,0.5450124584178393,0.5923291482756183,0.6920699350052957
1769251882484,129,1,0.8832675726184538,1.0984797040514171,1.022008913201613
1769251882488,129,1,1.0667597557139294,1.3724624902467395,1.197305554832486
1769251882492,129,1,1.2745268192128396,1.1559392674768976,1.3966900286810482
1769251882496,129,1,1.6564182649640515,1.474644147100133,1.769654548047218
1769251882500,130,2,2.222068453679358,2.4505277249016646,2.325066026363592
1769251882504,131,3,2.834777453250651,3.227238931944954,2.9260161444434893
1769251882508,131,3,3.304020542051448,3.298347541490737,3.3835158912418057
1769251882512,131,3,3.489173235485868,3.200727015685061,3.559080942026338
1769251882516,131,3,3.349078603025459,3.461232765563734,3.4115581393024756
1769251882520,131,3,2.940048014730574,3.453783203607746,2.994820528158301
1769251882524,130,2,2.377184465265601,2.2395384920636596,2.422150063367419
1769251882528,129,1,1.75810120085413,1.3097540561004053,1.7920389518358932
1769251882532,129,1,1.0866682032949946,1.200635281013069,1.1101523373602715
1769251882536,128,0,0.2785100279334658,0.444978272527091,0.2922575429841147
1769251882540,127,-1,-0.7312740863285527,-0.4838899418170284,-0.7275490143692824
1769251882544,126,-2,-1.8802536786002988,-1.859028917809736,-1.886713985382574
1769251882548,124,-4,-2.991110168300338,-3.5128372506864443,-3.006602106142215
1769251882552,124,-4,-3.895842661281317,-4.043737082222101,-3.919135680401935
1769251882556,123,-5,-4.540507823021509,-4.239941919986653,-4.572524080834591
1769251882560,123,-5,-4.974453418181706,-4.82925927999466,-5.017862259828609
1769251882564,122,-6,-5.269044208239521,-5.475977716114144,-5.325019294743819
1769251882568,122,-6,-5.4715524097129515,-5.864818682377223,-5.537918912797888
1769251882572,122,-6,-5.617164058268606,-5.763037252331661,-5.690836719514041
1769251882576,122,-6,-5.73534231721734,-5.413748769813554,-5.816209109471685
1769251882580,122,-6,-5.822099435516022,-5.75207338943938,-5.913320117552579
1769251882584,121,-7,-5.834441553591073,-6.413437703214802,-5.938666654876525
1769251882588,122,-6,-5.747737748803484,-6.023736920157732,-5.863802557695443
1769251882592,122,-6,-5.614325741918577,-5.545852838864669,-5.73812255305673
1769251882596,122,-6,-5.5327409195429755,-5.646696712490662,-5.661249425564429
1769251882600,122,-6,-5.5405503558672935,-5.50568993125504,-5.6752404134955965
1769251882604,122,-6,-5.548570292289183,-5.589237703088445,-5.695177673844021
1769251882608,122,-6,-5.4038608438150355,-5.929070734027904,-5.568242139647413
1769251882612,122,-6,-5.024083337533527,-5.563777200838702,-5.207011250723761
1769251882616,123,-5,-4.433896800226513,-4.687663856904537,-4.629095511758035
1769251882620,124,-4,-3.597323421267196,-3.3847569641339503,-3.794824628904511
1769251882624,126,-2,-2.1709360317135413,-1.701061713960652,-2.363577883095345
1769251882628,128,0,0.5082890954564627,0.1618337187556466,0.3197755849156394
1769251882632,132,4,4.984376075736952,4.367836201212867,4.791075817522858
1769251882636,138,10,10.963310656773524,10.353942361702588,10.752696919029429
1769251882640,143,15,16.850434178568534,15.655463839357155,16.612731131370676
1769251882644,148,20,20.068220345522867,20.239958837940733,19.800891545133915
1769251882648,147,19,18.200847242406763,19.247296017704,17.909974925612964
1769251882652,138,10,10.374003110763582,10.1917841689022,10.073147369430968
1769251882656,125,-3,-2.005742393216292,-2.46012610302873,-2.299813517493763
1769251882660,111,-17,-15.665029490641412,-16.497245396191317,-15.94052161322034
1769251882664,100,-28,-26.798926764504344,-27.61772987971199,-27.05773418145604
1769251882668,95,-33,-32.56557817505397,-32.71564581449456,-32.82523043996981
1769251882672,96,-32,-32.017909800800396,-31.998925685588222,-32.302192648582775
1769251882676,101,-27,-26.198104135907307,-26.038330234789026,-26.52119458470867
1769251882680,109,-19,-17.550071284182366,-19.121666819054298,-17.907083500772476
1769251882684,117,-11,-8.95353378773024,-9.808625964595509,-9.326426758636108
1769251882688,128,0,-2.6732469007671624,-0.6694367629353,-3.045709995897933
1769251882692,127,-1,0.4125814947357638,0.0143736262718255,0.0463582938728118
1769251882696,127,-1,0.9040564496459916,-1.094267810812685,0.5418032579277166
1769251882700,127,-1,0.214350055124127,-0.071780437980721,-0.1490051406899162
1769251882704,127,-1,-0.3845335103664977,-0.7990068191599138,-0.7552316364126354
1769251882708,127,-1,-0.3532122890223195,-0.7198779489207295,-0.7380202102522828
1769251882712,128,0,0.1580579982816825,0.2317372519957949,-0.2452609529094527
1769251882716,128,0,0.7461089328765198,0.5243765950335587,0.3252485594034576
1769251882720,128,0,1.1529140163772449,0.4543952223662779,0.7204429392528848
1769251882724,128,0,1.37061095944152,0.5240597721938243,0.9332913544299356
1769251882728,129,1,1.5082247641980209,1.1116566680229072,1.0689245980022262
1769251882732,129,1,1.640928441019189,1.3460718261737796,1.1971720257586775
1769251882736,129,1,1.7846739246576235,1.4792727341942284,1.3315730862611672
1769251882740,129,1,1.9577552446688304,1.4278792992798333,1.492431167507828
1769251882744,129,1,2.212842919624222,1.5861418629863482,1.7363234886012946
1769251882748,130,2,2.5947709824536496,2.0557378138621054,2.1101169484582396
1769251882752,130,2,3.081934819673246,2.4496703879518096,2.5908844667383693
1769251882756,131,3,3.5849676426772543,3.390266791742775,3.0863974496178965
1769251882760,131,3,4.005710797611857,3.472234150532378,3.497198198608115
1769251882764,131,3,4.293919023902502,3.5703740840378373,3.7746496829103537
1769251882768,132,4,4.4524029717835045,4.059209794531954,3.924333502883354
1769251882772,131,3,4.509637496358916,3.524220283312104,3.975571952423598
1769251882776,132,4,4.512796146755622,4.282538373658253,3.973400178600499
1769251882780,132,4,4.5473682587463715,4.602496133331851,4.000560510801072
1769251882784,131,3,4.7236071135893765,3.405953370995502,4.166982130754794
1769251882788,132,4,5.093318278946995,4.257885675214042,4.526433216767965
1769251882792,133,5,5.569155955742424,5.3819649936770215,4.9931901166245725
1769251882796,133,5,5.958068859292897,5.38354722610739,5.374270781524342
1769251882800,133,5,6.107628006042959,5.557799426208243,5.516748464251631
1769251882804,133,5,6.036292025803972,5.380193519029553,5.438722987344208
1769251882808,133,5,5.931210694516326,5.337358240528029,5.326844165677685
1769251882812,133,5,6.016905260388774,5.3321598358800335,5.405073766365225
1769251882816,133,5,6.399441947247714,5.422876487564915,5.7793993456558885
1769251882820,134,6,7.006003242493367,6.561339101579597,6.3774445270300335
1769251882824,135,7,7.66573190354562,7.313272691502552,7.028936945312052
1769251882828,135,7,8.260427326734444,7.474937272086302,7.616168659150371
1769251882832,136,8,8.81167886144137,8.174241397597005,8.160847200477372
1769251882836,136,8,9.432135231133175,8.637097381193994,8.775011786228946
1769251882840,137,9,10.19547456041671,9.298436161544858,9.531289465053035
1769251882844,138,10,11.04735000864624,10.608383475579194,10.374908136854655
1769251882848,139,11,11.83326865362988,11.179144385964484,11.152246890746191
1769251882852,139,11,12.415820582246791,11.499316125255458,11.727238229068348
1769251882856,140,12,12.787114145297592,12.34314290359063,12.09233304933298
1769251882860,140,12,13.09115538390121,12.535940044985011,12.390761954131069
1769251882864,140,12,13.530775146918748,12.43046725374351,12.824669251512065
1769251882868,141,13,14.214328966137131,13.307591395778392,13.502225738604205
1769251882872,142,14,15.057247582479928,14.48298041919432,14.3384074317893
1769251882876,143,15,15.82265247246841,15.283317128117751,15.095677741037246
1769251882880,143,15,16.262301803419028,15.67342319507727,15.52629794192565
1769251882884,143,15,16.229511895831095,15.208325874118618,15.485542859456045
1769251882888,142,14,15.686002799441573,14.603989951997615,14.93655114033007
1769251882892,142,14,14.64909578695228,14.177718103420798,13.895696903135002
1769251882896,140,12,13.167812164859583,12.613332532668313,12.409730410192708
1769251882900,138,10,11.339816413707414,10.35676896333565,10.57531516927399
1769251882904,136,8,9.310085070739898,8.479894331936377,8.538395311057688
1769251882908,134,6,7.222655537000235,6.403411399634951,6.444263142115108
1769251882912,132,4,5.167933967664215,4.3324485719298,4.383468942605872
1769251882916,130,2,3.1769676587066957,2.560967447825075,2.3865246265884767
1769251882920,128,0,1.2617065135839436,0.334059736055468,0.4652002357187839
1769251882924,126,-2,-0.5406777907797822,-1.4525296838960853,-1.343021563703112
1769251882928,125,-3,-2.154909034167807,-2.6816304962137254,-2.9625970849300085
1769251882932,123,-5,-3.4918724842023066,-4.555572189853748,-4.304499189093781
1769251882936,122,-6,-4.491119735038979,-5.507178774022546,-5.308714900560347
1769251882940,122,-6,-5.150583146572426,-5.62968611691655,-5.973722726166595
1769251882944,121,-7,-5.5229287152348645,-6.4643775115907625,-6.352258980848606
1769251882948,121,-7,-5.6888503885384605,-6.694628373093309,-6.524308793745627
1769251882952,121,-7,-5.731781114075117,-6.482898813947983,-6.572514257370452
1769251882956,121,-7,-5.721275950764678,-6.589876386014529,-6.566464058801684
1769251882960,121,-7,-5.7004649043067674,-6.529047144231134,-6.550038685563863
1769251882964,121,-7,-5.682784868658517,-6.578028478656022,-6.537274004199173
1769251882968,121,-7,-5.66566439032199,-6.585148275609308,-6.525523306834702
1769251882972,121,-7,-5.651742199091482,-6.539649374253624,-6.5168991911695064
1769251882976,121,-7,-5.655878382141315,-6.548391791911584,-6.525834108423665
1769251882980,121,-7,-5.687763962317809,-6.5326947301916505,-6.562025839488139
1769251882984,121,-7,-5.725506956990462,-6.616555311781426,-6.603886854009088
1769251882988,121,-7,-5.710425274028177,-6.512337375517956,-6.592916450014573
1769251882992,121,-7,-5.580151481202147,-6.603828645890453,-6.466691126490897
1769251882996,121,-7,-5.320869969521747,-6.455133109165562,-6.211541359850732
1769251883000,122,-6,-4.992202426261339,-5.629032134181978,-5.88762412055898
1769251883004,122,-6,-4.697091488512052,-5.521281075170843,-5.5979934329033645
1769251883008,122,-6,-4.522675908996309,-5.614121467567224,-5.428720026516568
1769251883012,122,-6,-4.501763483185754,-5.4528751515305185,-5.41128557188461
1769251883016,122,-6,-4.609803492653291,-5.624916337413421,-5.521337510192167
1769251883020,122,-6,-4.776866955441002,-5.4209180797943795,-5.690719888718533
1769251883024,122,-6,-4.90812806620843,-5.762986236125709,-5.82590720208435
1769251883028,121,-7,-4.927907544191195,-6.345162042220198,-5.8506484622509385
1769251883032,122,-6,-4.833148694706812,-5.7028313127850305,-5.760471753239425
1769251883036,122,-6,-4.700520192374307,-5.369528268334797,-5.631463878938804
1769251883040,122,-6,-4.620535581740033,-5.649612606925861,-5.5544917950776185
1769251883044,122,-6,-4.613178568176804,-5.570648525560567,-5.549919019888124
1769251883048,122,-6,-4.6066186670790765,-5.48584616275718,-5.545984885377987
1769251883052,122,-6,-4.4998797297055715,-5.602423284542398,-5.441801590880835
1769251883056,122,-6,-4.253261015524133,-5.38811350446157,-5.198032986336917
1769251883060,123,-5,-3.9280520391445224,-4.683744548148221,-4.8763833125953475
1769251883064,123,-5,-3.643077267379556,-4.486698923505245,-4.595509053584116
1769251883068,123,-5,-3.4894559665384675,-4.601073314013691,-4.445527599017855
1769251883072,123,-5,-3.4763851589004773,-4.454405426917532,-4.4346610039281655
1769251883076,123,-5,-3.5413330372719583,-4.521654735825377,-4.50061004129928
1769251883080,123,-5,-3.600477462622861,-4.559178739180209,-4.560930955508552
1769251883084,123,-5,-3.5986219742575094,-4.576325918864019,-4.5615719394863286
1769251883088,123,-5,-3.536207547585244,-4.548310273299073,-4.5027472102339505
1769251883092,123,-5,-3.468079199800809,-4.443879814072831,-4.438028225667383
1769251883096,123,-5,-3.474317739146474,-4.5663951086677725,-4.446541490155325
1769251883100,123,-5,-3.611678882707549,-4.465425701054717,-4.585293471884977
1769251883104,123,-5,-3.8716870845013593,-4.697413250445084,-4.8467364146519065
1769251883108,122,-6,-4.179763888837252,-5.40863132145949,-5.156770531069068
1769251883112,122,-6,-4.44242373095668,-5.565747221830762,-5.421654984158095
1769251883116,122,-6,-4.601133437254443,-5.451955324707638,-5.582397275182571
1769251883120,122,-6,-4.641813306633956,-5.532086235520183,-5.624559341897807
1769251883124,122,-6,-4.5588986761711805,-5.676356302342259,-5.542402547592329
1769251883128,122,-6,-4.321025525728496,-5.3652178383550275,-5.30497045111351
1769251883132,123,-5,-3.8780537490307343,-4.660513879699959,-4.863128954387658
1769251883136,123,-5,-3.2092297403337287,-4.2895555833289025,-4.196695609283855
1769251883140,124,-4,-2.3784090883124365,-3.71921227808952,-3.3688405321897648
1769251883144,125,-3,-1.5428467791530314,-2.473217848034789,-2.5355572525939154
1769251883148,126,-2,-0.878786757433754,-1.5466807733671593,-1.8724257948965193
1769251883152,126,-2,-0.4592143336297576,-1.517576365900956,-1.4525993821111929
1769251883156,126,-2,-0.1853343681024919,-1.349265130517928,-1.1779421460026258
1769251883160,127,-1,0.1558087512754771,-0.7320998478228786,-0.8364070324629618
1769251883164,127,-1,0.7409600830143583,-0.3794218081165978,-0.2519688623310485
1769251883168,128,0,1.577714010420118,0.3087711948018157,0.582971286811591
1769251883172,129,1,2.4869444058316423,1.6753951524091368,1.4899841946423784
1769251883176,130,2,3.2144398854966703,2.469925560627153,2.21578040414154
1769251883180,130,2,3.58653780175837,2.421055450891403,2.58741501391398
1769251883184,130,2,3.5901705394358108,2.524440165673772,2.591868403608111
1769251883188,130,2,3.3269381486603864,2.338749394910753,2.3298632921056384
1769251883192,129,1,2.8976882373401596,1.7260864911902971,1.9010440004284788
1769251883196,129,1,2.318455058908043,1.388300821542809,1.3209871884247657
1769251883200,128,0,1.5278950733579664,0.5359075674994076,0.528967012368089
1769251883204,127,-1,0.4707376644539127,-0.5855189755299288,-0.5292752188003522
1769251883208,126,-2,-0.8130864858035824,-1.584811907959892,-1.8131288914186696
1769251883212,124,-4,-2.167287308341992,-3.272137018139504,-3.166113900804744
1769251883216,123,-5,-3.3881254448987668,-4.685115675617789,-4.384896542055804
1769251883220,122,-6,-4.330783646866308,-5.277335535653928,-5.325922732116325
1769251883224,122,-6,-4.967611365025347,-5.870456218447531,-5.96304528274816
1769251883228,121,-7,-5.362552548153876,-6.212791120720427,-6.360198826154821
1769251883232,121,-7,-5.607147427453496,-6.679138097384285,-6.606662075855974
1769251883236,120,-8,-5.778914463461523,-7.253467962686969,-6.777531542135559
1769251883240,121,-7,-5.925523051743199,-6.684558696639097,-6.920737540405644
1769251883244,121,-7,-6.04687236773062,-6.5013728789438385,-7.038914738493781
1769251883248,120,-8,-6.090565955356041,-7.522794229593115,-7.081856501626322
1769251883252,120,-8,-6.001637414574076,-7.406839284125868,-6.994447927633888
1769251883256,121,-7,-5.799533806275375,-6.470721288928743,-6.794488158285735
1769251883260,121,-7,-5.591995730626371,-6.499033644699562,-6.58762654765671
1769251883264,121,-7,-5.4917691468135885,-6.654468311944954,-6.484634308310934
1769251883268,121,-7,-5.509139319412654,-6.3691820085695,-6.4956846883258965
1769251883272,121,-7,-5.516892093233868,-6.553930954556155,-6.497220553082271
1769251883276,121,-7,-5.3209162872031985,-6.320754476321079,-6.300857762653891
1769251883280,122,-6,-4.795303491455472,-5.622574502999176,-5.782855107881796
1769251883284,122,-6,-3.988363747954605,-5.549629736350337,-4.986152525957257
1769251883288,123,-5,-3.085777010024388,-4.422809927392887,-4.086731205407189
1769251883292,125,-3,-2.180376367309115,-2.5356343598916866,-3.1717968713345224
1769251883296,126,-2,-0.9818883129015744,-1.3047918201380648,-1.9548973385047064
1769251883300,128,0,1.2171299154455442,0.3647942127215282,0.2608251678823858
1769251883304,131,3,5.077774467035521,3.458124351654262,4.126696376800943
1769251883308,136,8,10.42412658590736,8.61711295093663,9.4638564825305
1769251883312,142,14,15.72424889829372,14.375221708060185,14.745420631680991
1769251883316,145,17,18.427795676647055,17.87145764003085,17.43104253994985
1769251883320,144,16,16.183802333865653,16.115370584437606,15.179578343053867
1769251883324,135,7,8.261261924665543,7.745626227869593,7.264783392418336
1769251883328,123,-5,-3.765058330708783,-4.741386288694108,-4.7412294059583715
1769251883332,109,-19,-16.572820552497905,-18.25512257924958,-17.5247800329908
1769251883336,99,-29,-26.58730359107683,-28.437903316695948,-27.521545538832942
