timestamp_ms,ecg_u8_raw,ecg_counts_raw_int,ecg_counts_filt_monitor,ecg_counts_filt_diagnostic,ecg_counts_filt_st
1770450964639,123,-5,-3.6813805218388738,-3.012643731866578,-3.3821441054708594
1770450964643,124,-4,-3.213349740226136,-2.6389782074566273,-2.921729878917525
1770450964648,124,-4,-2.9564969920394675,-2.60908667705048,-2.6724998856486226
1770450964652,124,-4,-2.8994709569527752,-2.71401492671864,-2.619904254534895
1770450964656,124,-4,-2.947473429490183,-2.375547507812407,-2.6697879828853814
1770450964659,124,-4,-2.9792619002444476,-2.1705175097707032,-2.7041947935104984
1770450964664,124,-4,-2.890183096776785,-2.5647111552321635,-2.6203550839477203
1770450964668,124,-4,-2.638168491167993,-2.574132427495985,-2.375011929104673
1770450964672,125,-3,-2.2823055790159565,-1.773686488767706,-2.025286328509883
1770450964676,125,-3,-1.9606328689791777,-1.2591325254274914,-1.708923820683115
1770450964679,125,-3,-1.7959949069586332,-1.3230868635296429,-1.5495650248672166
1770450964684,125,-3,-1.8068506493590368,-1.4210041972958032,-1.5656411528561895
1770450964688,125,-3,-1.9062887348045583,-1.6667996605628437,-1.6693422110939795
1770450964692,125,-3,-1.97980700330257,-1.6877522507595544,-1.7460895839394526
1770450964696,125,-3,-1.957163434986745,-1.2782923883595751,-1.7270945251274066
1770450964699,125,-3,-1.8211548897671188,-1.3603518874574283,-1.5966485053975197
1770450964704,125,-3,-1.577712623621048,-1.3539270412112527,-1.3603561903705208
1770450964708,126,-2,-1.2426393587978832,-0.7230971755159341,-1.0319367562181474
1770450964712,126,-2,-0.8559504078038144,-0.6090255741981796,-0.6496382852311506
1770450964716,126,-2,-0.4846293639859463,-0.3126570976825304,-0.28104082610907
1770450964719,127,-1,-0.1833259978737659,0.6261291360001671,0.0165832937441279
1770450964724,127,-1,0.0566119033579259,0.7026611103674572,0.2502109934583072
1770450964728,127,-1,0.2991219643663767,0.1936017230973217,0.4853548940579955
1770450964732,127,-1,0.5812901791134361,0.5476629896484275,0.762122437710214
1770450964735,128,0,0.8512536613314289,1.515151643977337,1.0291661194617574
1770450964739,128,0,1.0250506106595156,1.8060312241026248,1.1999060834860982
1770450964744,128,0,1.1140728673662963,1.5341957462579798,1.2836072806875882
1770450964748,128,0,1.2608042328439,1.354048275500512,1.4238135930509364
1770450964752,128,0,1.613732120950885,1.4497197173053038,1.7713808009812002
1770450964755,129,1,2.171110425937743,2.578023417182985,2.3248162311027656
1770450964760,130,2,2.7729279629270676,3.7972488611372537,2.922274104951509
1770450964764,130,2,3.251897184057672,3.5111154474382267,3.3955964141976915
1770450964768,130,2,3.5781577083337157,3.4188459205448947,3.7162126068916215
1770450964772,131,3,3.8592876276155232,4.384868657199204,3.992983542244654
1770450964775,131,3,4.224246439702705,4.650783139039911,4.354402476830103
1770450964780,131,3,4.714162362156917,4.740713682075184,4.840369123685508
1770450964784,132,4,5.261597433276511,5.590175099232489,5.382923113078889
1770450964788,133,5,5.757006346433192,6.332389389136602,5.872770299254563
1770450964792,133,5,6.141281378412862,6.512255945755063,6.251454695687403
1770450964795,133,5,6.444152969839921,6.488703505911665,6.54957848716555
1770450964800,133,5,6.735914767274082,6.96139425680755,6.837847866972123
1770450964804,134,6,7.047338981697108,7.3417296322934575,7.146187740285828
1770450964808,134,6,7.343618945189572,7.626125902197383,7.438212861580754
1770450964812,135,7,7.5725530082853405,8.216788196691816,7.661225276183362
1770450964815,134,6,7.723889764544812,7.788418456151502,7.8065033266870945
1770450964820,134,6,7.834461547369758,7.689373678918274,7.912916151652362
1770450964824,135,7,7.948098069406187,8.59140000115502,8.024436633203443
1770450964828,135,7,8.087317933964304,8.4430943427454,8.161613135503824
1770450964831,135,7,8.25504194051748,8.350359768880018,8.325454456470283
1770450964835,135,7,8.430981189901704,8.741946077735612,8.495588933526774
1770450964840,135,7,8.544950923789386,8.657903483493696,8.603279426449824
1770450964844,135,7,8.464447044023093,8.703498483332556,8.517576338513976
1770450964848,135,7,8.04152195233678,8.303938279056219,8.091088637084548
1770450964851,134,6,7.210087162181454,7.521868966670294,7.257172793283228
1770450964856,133,5,6.062688493769131,6.587382656087265,6.1075171528671675
1770450964860,131,3,4.827461747708126,4.785250358654842,4.869850287459238
1770450964864,130,2,3.737549345542515,3.6236628674711895,3.777063691666166
1770450964868,130,2,2.8862003976832633,3.370872716722392,2.9217208689670207
1770450964871,129,1,2.184754118017461,2.5064260575840756,2.2147032110565963
1770450964876,128,0,1.4499476467263364,1.5883386718368984,1.4738111393972515
1770450964880,127,-1,0.5393961876711986,0.8040295241414515,0.5588902090600152
1770450964884,126,-2,-0.5620925070549254,-0.4053249030871866,-0.544071371285034
1770450964888,125,-3,-1.741443415287685,-1.5806889939658988,-1.7234146056215804
1770450964891,124,-4,-2.8206959415701025,-2.506886576804834,-2.8040393181001138
1770450964896,123,-5,-3.6474150649520105,-3.4089274505864413,-3.634934274509682
1770450964900,122,-6,-4.176047372160625,-4.164024792412365,-4.169031974867041
1770450964904,122,-6,-4.498620951434271,-4.4673765733345965,-4.495684121891929
1770450964908,122,-6,-4.787409460832443,-4.4711608360028325,-4.7864297582156645
1770450964911,122,-6,-5.165758782505973,-4.614665668607617,-5.166366834996819
1770450964916,121,-7,-5.606417056202053,-5.279789859427721,-5.609799006557575
1770450964920,120,-8,-5.965404656594736,-6.289313256548189,-5.972049015793871
1770450964924,120,-8,-6.134620449963686,-6.363151882588121,-6.143551196981636
1770450964928,121,-7,-6.1555612090085505,-5.52263090892285,-6.166038260854515
1770450964931,121,-7,-6.166237462731623,-5.576156003396496,-6.178893243083836
1770450964936,120,-8,-6.243688392989956,-6.251136039187373,-6.259201121678887
1770450964940,120,-8,-6.322592215561027,-6.375921727127201,-6.340289119880493
1770450964944,120,-8,-6.271248352629204,-6.2350875390238825,-6.2901308788072745
1770450964947,121,-7,-6.029585022272439,-5.6870797176015975,-6.050075499411192
1770450964952,121,-7,-5.6718552954221355,-5.313838907238613,-5.695246524473662
1770450964956,121,-7,-5.356011911265414,-5.546332707519172,-5.382367679454927
1770450964960,121,-7,-5.215279780860388,-5.046125723466782,-5.243091503564257
1770450964964,122,-6,-5.264463548938008,-4.612733366835659,-5.29250881436777
1770450964967,121,-7,-5.380325258563547,-5.279710427727185,-5.4088068595157095
1770450964972,121,-7,-5.387262126840398,-5.671399333766282,-5.4169336736087
1770450964976,121,-7,-5.199875760347293,-5.185553068677126,-5.231117504115143
1770450964980,122,-6,-4.896574456242501,-4.394348337954824,-4.929645056771975
1770450964984,122,-6,-4.6445863500850795,-4.300468755523168,-4.679741823170147
1770450964987,122,-6,-4.545637635353149,-4.549044279293786,-4.5823958636117395
1770450964992,122,-6,-4.54905277596363,-4.3801978713003615,-4.585998581344855
1770450964996,122,-6,-4.500602269978017,-4.453624939031258,-4.536570193510995
1770450965000,122,-6,-4.267380190510396,-4.143670978737491,-4.3026341484041355
1770450965004,123,-5,-3.8325692509558222,-3.548536863080499,-3.8684514774294865
1770450965007,123,-5,-3.3010016847596786,-3.2842226204913763,-3.338541369693757
1770450965012,124,-4,-2.828284684800931,-2.598447877896157,-2.867419833044283
1770450965016,124,-4,-2.529079034398708,-2.237215424263729,-2.569058063319228
1770450965020,124,-4,-2.4233839973725946,-2.3599753562566237,-2.4634235235464503
1770450965024,124,-4,-2.4498407232818,-2.353936643255482,-2.489268963948059
1770450965027,124,-4,-2.5250521417011305,-2.4349293512886483,-2.5632829835989255
1770450965032,124,-4,-2.5929318720451016,-2.432661648916443,-2.6297991430664016
1770450965036,124,-4,-2.625095408157396,-2.3670544083977387,-2.6611985444588813
1770450965040,124,-4,-2.590372078283308,-2.260695185460154,-2.626669185501669
1770450965043,124,-4,-2.447667920957296,-2.4437344703397654,-2.4844855174465748
1770450965047,124,-4,-2.1854700355486956,-2.3335835741789266,-2.2221500847691726
1770450965052,125,-3,-1.8635155473833016,-1.4917056380000049,-1.8992271248861357
1770450965056,125,-3,-1.5940917888589317,-1.2938054593603487,-1.628653017907009
1770450965060,125,-3,-1.4650786247598273,-1.3514884042018436,-1.4986806118609717
1770450965063,125,-3,-1.4755849787776862,-1.340902763557239,-1.5080568616218295
1770450965068,125,-3,-1.5423136191073548,-1.4509142670169677,-1.5731172010287682
1770450965072,125,-3,-1.564240646126111,-1.2983964109263888,-1.5930939655399567
1770450965076,125,-3,-1.4877106370290305,-1.5127202287666373,-1.5149113010260404
1770450965080,125,-3,-1.3255939558105312,-1.0972682738229904,-1.3516587606171575
1770450965083,126,-2,-1.127285726434863,-0.6347349691102993,-1.1522728439717096
1770450965088,125,-3,-0.9349197957388932,-1.1195236100927546,-0.958166217459994
1770450965092,126,-2,-0.7644219410595416,-0.6082440989445301,-0.7852173660570263
1770450965096,126,-2,-0.6166033883485555,-0.1799392875859371,-0.6351213431514062
1770450965100,126,-2,-0.4971339524002238,-0.4386042865851807,-0.5141797109076947
1770450965103,126,-2,-0.430569768097758,-0.3022415911070617,-0.4462355062336347
1770450965108,126,-2,-0.4609168338629255,-0.4229554357758889,-0.4740854066949493
1770450965112,126,-2,-0.6258036064726613,-0.2989409415806492,-0.6353871808049494
1770450965116,126,-2,-0.9099299610107968,-0.4346324952114611,-0.9161676990098832
1770450965120,125,-3,-1.2245326511092485,-1.233064528067254,-1.228570989928932
1770450965123,125,-3,-1.4557496251844706,-1.465684274635917,-1.4581331341421522
1770450965128,125,-3,-1.552662150828191,-1.2958339364013602,-1.5526429950718947
1770450965132,125,-3,-1.5681353483434377,-1.339497716666232,-1.5644693479108132
1770450965136,125,-3,-1.6032195725650733,-1.4298855148583216,-1.5954715842519438
1770450965139,125,-3,-1.7036443084236756,-1.181208481305923,-1.692609055280328
1770450965143,125,-3,-1.8115741161567944,-1.5852726666481065,-1.7982483056013685
1770450965148,124,-4,-1.829416433653711,-2.1227686035265094,-1.8136013208585104
1770450965152,125,-3,-1.738869444623924,-1.5000643324562266,-1.7192372699003031
1770450965156,125,-3,-1.647198393481874,-1.2502664774825814,-1.6229328157558955
1770450965159,125,-3,-1.69670507886184,-1.3332128577366371,-1.668595621581356
1770450965164,125,-3,-1.9210781527429832,-1.486217284107456,-1.8904608113766672
1770450965168,124,-4,-2.199048402667933,-2.1660530172811328,-2.165745946292073
1770450965172,124,-4,-2.358684265034466,-2.477534210503709,-2.3206459080662176
1770450965176,124,-4,-2.3259877162583664,-2.21091803754195,-2.2815097209517816
1770450965179,125,-3,-2.165396367911855,-1.3833604449499464,-2.1153672768171816
1770450965184,125,-3,-1.9851628227827576,-1.4456799054393503,-1.9322609683133505
1770450965188,124,-4,-1.8331951579053585,-2.173204740241414,-1.7788167996005446
1770450965192,125,-3,-1.7006568853273094,-1.4990016389366183,-1.643406236667101
1770450965196,125,-3,-1.600048667830277,-1.1116260041329131,-1.53739525054437
1770450965199,125,-3,-1.595726624508072,-1.530079191055778,-1.526489475872682
1770450965204,125,-3,-1.7388974722961863,-1.2523107680310246,-1.663891280170963
1770450965208,125,-3,-1.9826231346030077,-1.3804085439357698,-1.903266375767816
1770450965212,124,-4,-2.182468880220741,-2.2930716380037106,-2.099092258567131
1770450965216,124,-4,-2.2020010877684357,-2.257148754547246,-2.11374384706575
1770450965219,125,-3,-2.026964874012994,-1.4271294945803537,-1.9332537992609136
1770450965224,125,-3,-1.7737855635440178,-1.2916289505365064,-1.6752353487877232
1770450965228,125,-3,-1.5877152071225078,-1.3823312598470534,-1.4851275508264803
1770450965232,125,-3,-1.5353571496159608,-1.2452835615018727,-1.4283553713528578
1770450965235,125,-3,-1.582028514749859,-1.314626620129459,-1.469288538221986
1770450965239,125,-3,-1.6480981465111515,-1.3539422485727577,-1.5287531454432932
1770450965244,125,-3,-1.677786317293508,-1.3457074686109525,-1.5522019649930667
1770450965248,125,-3,-1.6675013783801378,-1.3344395530941184,-1.5367142568799173
1770450965252,125,-3,-1.647389952656496,-1.2624236982299832,-1.5120206132647531
1770450965255,125,-3,-1.6444551890010686,-1.3046113895558444,-1.5041665798777355
1770450965260,125,-3,-1.6604403370261,-1.3439920418933324,-1.5143075782790931
1770450965264,125,-3,-1.677434314819303,-1.347487423323588,-1.5248166097390816
1770450965268,125,-3,-1.6790137424780385,-1.326463514538827,-1.5201408490000148
1770450965272,125,-3,-1.6658586774467614,-1.2525781708439634,-1.5015576395928436
1770450965275,125,-3,-1.6553741186502184,-1.3083031124778297,-1.486140476554425
1770450965280,125,-3,-1.6688019951786202,-1.3326809774014312,-1.4941595667824925
1770450965284,125,-3,-1.7130289069549074,-1.33836990420003,-1.5319234120462584
1770450965288,125,-3,-1.7636340589386783,-1.3451466142067232,-1.5754456175622795
1770450965292,125,-3,-1.7619822540352077,-1.197666284338901,-1.56697159783049
1770450965295,125,-3,-1.642775533889732,-1.3764403381604235,-1.4415649231055825
1770450965300,125,-3,-1.386817854771002,-1.2361117379861544,-1.1798298989224263
1770450965304,126,-2,-1.0566573227174063,-0.436441647111653,-0.8442146843782938
1770450965308,126,-2,-0.7715924192849752,-0.23280978597194,-0.5540153390124334
1770450965312,126,-2,-0.6328028611047363,-0.2976934775547009,-0.4098616723757697
1770450965315,126,-2,-0.6585302840825653,-0.2650768954456555,-0.4290564345043879
1770450965320,126,-2,-0.7742321186747021,-0.3501511670020341,-0.5368433786714863
1770450965324,126,-2,-0.8525161785206239,-0.2995719838554209,-0.6068307778792996
1770450965328,126,-2,-0.7734803608905823,-0.3764405466612763,-0.5204616423425572
1770450965331,126,-2,-0.4811309462657029,-0.1104324786507233,-0.2223169495360637
1770450965335,127,-1,-0.0148132004422312,0.5251307693083946,0.2486937032195106
1770450965340,127,-1,0.5047905267915356,0.8971592658943175,0.7728625012902302
1770450965344,128,0,0.9375550798459572,1.433670146035108,1.2110787191158958
1770450965348,128,0,1.2038659030226622,1.9172661414799137,1.484432466124198
1770450965351,128,0,1.3338654353931887,1.617286357111397,1.622988907180286
1770450965356,128,0,1.4538147707368951,1.7677136610325044,1.7517772364929964
1770450965360,129,1,1.7177595056717578,2.7225991607754625,2.0231625061164635
1770450965364,129,1,2.218757656039389,2.542549241090555,2.5297369654688757
1770450965368,129,1,2.917929204086719,2.898461764530627,3.2338502673136365
1770450965371,131,3,3.635623503073803,4.595624139190748,3.957164052403046
1770450965376,131,3,4.134823622731278,4.821237919965768,4.462680829674696
1770450965380,131,3,4.256328884981146,4.670840377586531,4.59056463265132
1770450965384,131,3,4.00318717198856,4.589339852090255,4.34377567730411
1770450965388,130,2,3.511448395982128,3.886495073575998,3.8589097564006174
1770450965391,130,2,2.9475884634247396,3.5869530286372706,3.302915702809607
1770450965396,129,1,2.424753010269357,2.877858615061913,2.788656893210015
1770450965400,129,1,1.9919310564980557,2.5913708472564796,2.3638890823312586
1770450965404,129,1,1.6727043715067915,2.699564764226796,2.0508402667974894
1770450965408,128,0,1.482504015744039,1.791032157278737,1.864943481820824
1770450965411,128,0,1.383964789137597,1.651206243031915,1.7704976853635914
1770450965416,128,0,1.2323567278439556,1.9006180897862088,1.6244802658254196
1770450965420,128,0,0.8120539265611753,1.4722380065552323,1.21140257740569
1770450965424,127,-1,-0.0143894691020821,0.9455996528758231,0.3927308930578126
1770450965428,126,-2,-1.159796910823551,-0.5486695785002809,-0.7451240400386707
1770450965431,124,-4,-2.3166064139589553,-1.9327310947080696,-1.8943974652729332
1770450965436,124,-4,-3.1362632485491897,-2.544268922718071,-2.70623694568086
1770450965440,123,-5,-3.4485043017732404,-3.0646133414249865,-3.0110755484156897
1770450965444,124,-4,-3.3466811289207095,-2.480048186052521,-2.903730438723932
1770450965447,124,-4,-3.0827030121091212,-2.1289912074697166,-2.6366592978025967
1770450965452,124,-4,-2.8762037612257947,-2.3395102931044596,-2.4275944461440506
1770450965456,124,-4,-2.7980667700858697,-2.1399777542987937,-2.34383331232178
1770450965460,124,-4,-2.7943609934013054,-2.4694847616834616,-2.3294473783637013
1770450965464,124,-4,-2.779376145739211,-2.048634194444424,-2.301232402084542
1770450965467,125,-3,-2.69015825944267,-1.5398273745564597,-2.2022664667954355
1770450965472,124,-4,-2.479891685049168,-1.9367319912410033,-1.9902884572928796
1770450965476,125,-3,-2.1081495453187182,-1.516032368588238,-1.6231760579713268
1770450965480,125,-3,-1.5516935373831748,-1.1298551969563642,-1.069968402331544
1770450965484,126,-2,-0.7667537023587857,-0.3185905925645049,-0.2788892335242836
1770450965487,128,0,0.4577150391451694,1.687286761302306,0.96270420530367
1770450965492,130,2,2.656246617093964,3.9293227091039,3.1828025632606742
1770450965496,134,6,6.601533764668188,7.522148658478738,7.144331071115499
1770450965500,139,11,12.816751181910073,12.93756025133516,13.36447722683437
1770450965504,147,19,20.890323751026862,20.53937234433699,21.432500980156757
1770450965507,156,28,29.13696635747856,29.92223674229576,29.66879584426792
1770450965512,163,35,35.05913309745075,36.679871709708024,35.58299856659259
1770450965516,164,36,36.49709730703594,37.741161324480906,37.02168425204152
1770450965520,160,32,32.771724532302485,33.738396226333165,33.3087086487058
1770450965524,152,24,25.059346006328138,25.645318248272595,25.617695272730916
1770450965527,142,14,15.76098290239042,15.90827965463112,16.341705363945746
1770450965532,134,6,7.301433193317986,7.676145969773165,7.896676654576471
1770450965536,128,0,1.1142392377595831,1.8424031622534236,1.7116802167609948
1770450965540,125,-3,-2.6466477371847894,-1.3795419964281974,-2.0568589259745194
1770450965543,123,-5,-4.671593751366944,-3.2189001895682576,-4.091334885924223
1770450965547,121,-7,-5.794174902074402,-5.225717136468777,-5.216563878960343
1770450965552,120,-8,-6.528460061586457,-6.198293843373001,-5.942797737081057
1770450965556,120,-8,-7.023273665219157,-6.233686055652346,-6.422705127804933
1770450965560,120,-8,-7.259313330831619,-6.353340494058254,-6.6451312519175625
1770450965563,120,-8,-7.230770878025079,-6.186907471907056,-6.609735668772991
1770450965568,120,-8,-7.003459508883018,-6.292742672306292,-6.381249818012478
1770450965572,120,-8,-6.689259762686555,-6.094648002185344,-6.06664998656553
1770450965576,121,-7,-6.3976848101590225,-5.330005363366974,-5.772169887353305
1770450965580,121,-7,-6.19006471453653,-5.266846506375849,-5.559521945390269
1770450965583,121,-7,-6.0565880273820865,-5.241834541937886,-5.420601046970335
1770450965588,121,-7,-5.938096410945059,-5.250972204706536,-5.296774905295897
1770450965592,121,-7,-5.776912383950358,-5.1141848949151,-5.130013252048061
1770450965596,122,-6,-5.544655863653221,-4.301695682172334,-4.892194841636264
1770450965600,122,-6,-5.225566336503399,-4.293951903976495,-4.568438960668135
1770450965603,122,-6,-4.799271214405449,-4.185978095836105,-4.138705046443841
1770450965608,123,-5,-4.270510767813156,-3.328369491479969,-3.607146391372902
1770450965612,123,-5,-3.721873928733561,-2.9925260402248584,-3.0556009783639344
1770450965616,124,-4,-3.3147463679128504,-2.4631966822993903,-2.6451716408039214
1770450965620,124,-4,-3.202765807885264,-2.058689817743643,-2.5294823674257967
1770450965623,124,-4,-3.411545299482941,-2.4757424446623735,-2.733888183915496
1770450965628,123,-5,-3.786203479076518,-2.983573332968897,-3.1031480568365812
1770450965632,123,-5,-4.061698815130464,-3.3652368088134765,-3.372666683171546
1770450965636,123,-5,-4.009568553664641,-3.0725162448526424,-3.3155384060119464
1770450965639,124,-4,-3.5582717651531124,-2.4094736058470656,-2.8615403627641913
1770450965643,124,-4,-2.820041525342422,-2.1508628956823577,-2.122401529559132
1770450965648,125,-3,-2.0269943425591372,-1.2548257907039828,-1.32833304628407
1770450965652,126,-2,-1.415850328144508,-0.1519770837882406,-0.7146761956491035
1770450965656,126,-2,-1.1127217506862843,-0.2184668406573473,-0.407606182103434
1770450965659,126,-2,-1.0779853467949592,-0.312477270196799,-0.3682592348798796
1770450965664,126,-2,-1.1465000549256112,-0.1605878865497927,-0.4321232815621003
1770450965668,126,-2,-1.1326783324114151,-0.3271874449544056,-0.4140787816267335
1770450965672,126,-2,-0.9245517459247956,0.007612934110309,-0.2026299614038946
1770450965676,127,-1,-0.5125799055217105,0.5596584055112876,0.2115029657945415
1770450965679,127,-1,0.0405708271699385,0.988718014952928,0.7659926541900537
1770450965684,128,0,0.6435747466767737,1.5100836868449306,1.370384927039206
1770450965688,128,0,1.2003119251642342,2.015524248506998,1.929268657245061
1770450965692,129,1,1.621815842136808,2.6702318873165916,2.353654833833894
1770450965696,129,1,1.8493267170357697,2.886608806588727,2.584286420073085
1770450965699,129,1,1.885929805802266,2.718343168079869,2.6238598294863644
1770450965704,129,1,1.8098312159012415,2.744776537893559,2.550403018455513
1770450965708,129,1,1.751766703565234,2.8257261368445783,2.4945834569783374
1770450965712,129,1,1.8439114636671203,2.814795322632375,2.588799807671088
1770450965716,129,1,2.1639707959352625,2.8024653312781616,2.9111704731620236
1770450965719,130,2,2.706264777175567,3.7830977264971697,3.4559344075819283
1770450965724,131,3,3.401116001844673,4.72795083584996,4.152687730443577
1770450965728,131,3,4.163420134014267,4.802862855839048,4.91588174082922
1770450965732,132,4,4.922524540000206,5.869731354995152,5.675423850632972
1770450965735,133,5,5.615006421211872,6.737421462659513,6.368993120660485
1770450965739,133,5,6.172728810774625,6.876019595104075,6.92907286396383
1770450965744,134,6,6.542624413725788,7.647842095190942,7.302098278581992
1770450965748,134,6,6.731456671235771,7.873962606531724,7.493520150713333
1770450965752,134,6,6.827542204333807,7.80526946084493,7.590750598217769
1770450965755,134,6,6.955970519193667,7.806129012797614,7.719333127050915
1770450965760,134,6,7.185725537518123,7.839275401585803,7.949467491728075
1770450965764,135,7,7.472822868535181,8.672650090129952,8.237727707302536
1770450965768,135,7,7.706362115900475,8.891763809026815,8.472776024003982
1770450965772,135,7,7.82121881347164,8.729817692267485,8.589025777517937
1770450965775,135,7,7.864130213803556,8.959952857737692,8.633367053152321
1770450965780,135,7,7.942299454673131,8.629071239695904,8.713187117712081
1770450965784,135,7,8.101369150993817,8.953168822166605,8.87359470614226
1770450965788,136,8,8.247886355078418,9.574950423227468,9.020305659443602
1770450965792,135,7,8.185648455490252,9.076338936172226,8.95716502399134
1770450965795,135,7,7.732571300172421,8.607792280566095,8.503237466374484
1770450965800,134,6,6.829137590074204,7.998007337764594,7.600127849226877
1770450965804,133,5,5.572665105140407,6.585121728638154,6.345311515924072
1770450965808,131,3,4.1667900641207085,4.949450863309612,4.941770905396151
1770450965812,130,2,2.8238314932335653,3.720011080664668,3.600867409763535
1770450965815,129,1,1.6820757610075527,2.9509132865409193,2.460012611599136
1770450965820,128,0,0.7794437284427116,1.707323396511689,1.556805588972835
1770450965824,127,-1,0.0746608423059864,0.8303680713997137,0.8504556296091095
1770450965828,127,-1,-0.5177016442282079,0.7739960399323671,0.2565461327366978
1770450965831,126,-2,-1.0967288003670608,-0.1684636787158906,-0.3229630988805032
1770450965835,125,-3,-1.748020450541997,-1.0895525184964965,-0.9732419525135404
1770450965840,125,-3,-2.512846228576975,-1.2916983368613568,-1.7363672389325957
1770450965844,124,-4,-3.356347828863687,-2.1255492408446326,-2.5790195006006975
1770450965848,123,-5,-4.163493980994448,-3.2938639497738027,-3.386757621757779
1770450965851,122,-6,-4.793905919442615,-4.071465509193688,-4.018153633006977
1770450965856,122,-6,-5.169826301091958,-4.198155578495495,-4.394206404434175
1770450965860,122,-6,-5.317349158579768,-4.15356986386517,-4.541153958536004
1770450965864,122,-6,-5.318470518540677,-4.26614824948174,-4.542142783506089
1770450965868,122,-6,-5.228342031643678,-4.136242972174468,-4.452910280259965
1770450965871,122,-6,-5.048501827988971,-4.234244777135552,-4.274403863910926
1770450965876,122,-6,-4.7780499721683105,-4.033235885083039,-4.004850878413194
1770450965880,123,-5,-4.473237738639402,-3.2971558565251504,-3.700321890756585
1770450965884,123,-5,-4.2372746260738126,-3.125109895259923,-3.464385799109619
1770450965888,123,-5,-4.142766264126757,-3.2438136991293693,-3.36989097778305
1770450965891,123,-5,-4.163557694023714,-3.160201826020038,-3.3907632947754056
1770450965896,123,-5,-4.183845843724509,-3.071526306626217,-3.411392173502868
1770450965900,123,-5,-4.082971831223411,-3.283643474790185,-3.311281508771464
1770450965904,123,-5,-3.830730164007957,-3.087485486078606,-3.0601870972395973
1770450965908,124,-4,-3.5127076198110148,-2.2926394565042,-2.7436182379813174
1770450965911,124,-4,-3.256184075528737,-2.1038972117099384,-2.4886204096376563
1770450965916,124,-4,-3.117781881686865,-2.125389889606123,-2.351087601541706
1770450965920,124,-4,-3.035751161074542,-2.2301657724708104,-2.268645443172693
1770450965924,124,-4,-2.8862549392721486,-2.1167745316937303,-2.118186315036497
1770450965928,125,-3,-2.5839525712821985,-1.2590028015254748,-1.816189906789584
1770450965931,125,-3,-2.1443278304956577,-1.1338057803385282,-1.3788717058517932
1770450965936,125,-3,-1.6802447344388785,-1.0831508904617708,-0.9175900156017668
1770450965940,126,-2,-1.3486368307825958,-0.2841474119330358,-0.5873880912685916
1770450965944,126,-2,-1.2671982762792289,-0.0257364644441655,-0.5060089295371595
1770450965947,126,-2,-1.4379863393812058,-0.375411546023682,-0.6770356166701046
1770450965952,125,-3,-1.7403486634089154,-0.9756101100490768,-0.980582494967214
1770450965956,125,-3,-2.016418262199327,-1.2678170753963371,-1.2580453952258863
1770450965960,125,-3,-2.1793279573578532,-1.0863423293314345,-1.4216181144557012
1770450965964,125,-3,-2.24278074846667,-1.190657578315264,-1.485096994317363
1770450965967,125,-3,-2.2523328668841107,-1.2385563328198133,-1.4950054257981251
1770450965972,125,-3,-2.2023661477776812,-1.0463648718536085,-1.4465455003065844
1770450965976,125,-3,-2.0346300308763254,-1.266313184063304,-1.2813183376741786
1770450965980,125,-3,-1.7251755385610297,-1.0336728251953156,-0.9743230223995958
1770450965984,126,-2,-1.3663638547884809,-0.2552020995712993,-0.6168819159484134
1770450965987,126,-2,-1.141314074369548,-0.1565185641334072,-0.3920409666231168
1770450965992,126,-2,-1.1885599802502431,-0.0991210873443431,-0.4393078147761908
1770450965996,126,-2,-1.4716549645791104,-0.2577298747064827,-0.7232633252634113
1770450966000,125,-3,-1.7843426340967563,-1.0042105626652846,-1.037546428840096
1770450966004,125,-3,-1.9094260523971085,-1.3075164685701322,-1.1638761291329307
1770450966007,125,-3,-1.7999799780686638,-1.053816949050479,-1.054924817751823
1770450966012,126,-2,-1.6114441948566005,-0.2098121415819362,-0.867284769441568
1770450966016,126,-2,-1.5491779291606842,-0.1404824994807123,-0.807412239243233
1770450966020,125,-3,-1.684189972690138,-1.1212045169147793,-0.9454205698137592
1770450966024,125,-3,-1.9171217182052935,-1.2037091405991558,-1.1799190711876628
1770450966027,125,-3,-2.101658632007532,-1.1109835061001976,-1.364053061011469
1770450966032,125,-3,-2.1772070851735217,-1.1857348874118157,-1.4388832643253988
1770450966036,125,-3,-2.1830774323826043,-1.099876102682695,-1.4455852048517233
1770450966040,125,-3,-2.171547712822657,-1.2175827208671368,-1.4365581050879888
1770450966043,125,-3,-2.130941682388302,-1.064753306159236,-1.3985817832287022
1770450966047,125,-3,-1.998463869511147,-1.2615986181888124,-1.2672725040307729
1770450966052,125,-3,-1.742291928545666,-1.0293978909157633,-1.0107988783455166
1770450966056,126,-2,-1.4224521973729456,-0.2061415028508813,-0.6909528886844913
1770450966060,126,-2,-1.1646389576653975,-0.1755899899953292,-0.4352207719075651
1770450966063,126,-2,-1.0743521963372815,-0.0261396527220032,-0.3487292168974165
1770450966068,126,-2,-1.1766742717898118,-0.3763706657554737,-0.4539900808460702
1770450966072,125,-3,-1.424449697948903,-0.8342491078221308,-0.7017195600096486
1770450966076,126,-2,-1.735408427521999,-0.4422374386181709,-1.010430421282739
1770450966080,125,-3,-2.006611015513773,-0.9079029775575228,-1.2801843927312675
1770450966083,125,-3,-2.1208888758750915,-1.2892343536348518,-1.395939165037472
1770450966088,125,-3,-1.9966049164861548,-1.1334467054068529,-1.2754137977544904
1770450966092,125,-3,-1.670773159159609,-1.0194434401942132,-0.953337797343954
1770450966096,126,-2,-1.325338099583386,-0.3196450589496922,-0.6100622150189281
1770450966100,126,-2,-1.188507218207156,0.0627781596778249,-0.473775346559661
1770450966103,126,-2,-1.3651705949746389,-0.3398136481024212,-0.6500771500442473
1770450966108,125,-3,-1.7406780508553588,-1.0141034643451654,-1.024934581844566
1770450966112,125,-3,-2.052270467174311,-1.179872435300096,-1.3362152194495596
1770450966116,125,-3,-2.07722117091986,-1.1388024482262458,-1.3619100968378266
1770450966120,125,-3,-1.7902245664410508,-1.0827912364441918,-1.076951504724252
1770450966123,126,-2,-1.3741143797327378,-0.226556117174101,-0.6635707683548706
1770450966128,126,-2,-1.0838008133549295,-0.0657456790240016,-0.3757240241324435
1770450966132,126,-2,-1.0696768528188627,-0.201522852728941,-0.3631378274365726
1770450966136,126,-2,-1.2916113054836562,-0.0493262271718073,-0.5854033081065015
1770450966139,125,-3,-1.579905922722094,-1.2028087427818588,-0.8729539101020352
1770450966143,125,-3,-1.7782231836884372,-1.0890237620007026,-1.0703434213723204
1770450966148,126,-2,-1.8391932373885835,-0.1636036111512169,-1.1315982328789989
1770450966152,125,-3,-1.804614135039489,-1.1690321493863578,-1.0990497121430751
1770450966156,125,-3,-1.7245290152796462,-0.9943471052376264,-1.0216413245172853
1770450966159,126,-2,-1.6115494248644509,-0.3228194831770479,-0.9103933314806034
1770450966164,125,-3,-1.4594295755205615,-0.9107532623354544,-0.7585595352756442
1770450966168,126,-2,-1.282182142889711,-0.3699414036620507,-0.5809676306578138
1770450966172,126,-2,-1.123383618391691,0.0639508896943867,-0.4223385338658372
1770450966176,126,-2,-1.026745363075297,-0.2349800733011051,-0.3267738269565612
1770450966179,126,-2,-1.0015982252251954,-0.0730388852141494,-0.3030034232114966
1770450966184,126,-2,-1.0197552630587563,-0.1420525191057495,-0.322035152863398
1770450966188,126,-2,-1.0430667092282029,-0.1686668742732338,-0.3455905835849917
1770450966192,126,-2,-1.0509534234504407,-0.0794563245081421,-0.3536349239648495
1770450966196,126,-2,-1.0452695708432052,-0.1416885102629661,-0.3485333843207927
1770450966199,126,-2,-1.0368419030389433,-0.1070619538188832,-0.3410805675079515
1770450966204,126,-2,-1.0320642629258523,-0.1430228797366044,-0.3372467633114944
1770450966208,126,-2,-1.0305706728385575,-0.1437837148027785,-0.3363505511224216
1770450966212,126,-2,-1.0303342398225863,-0.1022781610168019,-0.3364250897960867
1770450966216,126,-2,-1.0310305731884404,-0.1170048683850613,-0.3374033303242201
1770450966219,126,-2,-1.0326397190082972,-0.1147354638223756,-0.3393955144856846
1770450966224,126,-2,-1.033504522851379,-0.1417807753302411,-0.34068042359866
1770450966228,126,-2,-1.0315517979939166,-0.1362412487140412,-0.3391402837004489
1770450966232,126,-2,-1.0269128553476774,-0.1049057230729706,-0.3350177764079487
1770450966235,126,-2,-1.0222638012123948,-0.1078648129422736,-0.3310663086411232
1770450966239,126,-2,-1.020755056185213,-0.1144282296399603,-0.3302001752986339
1770450966244,126,-2,-1.0241463966956332,-0.1413070571271308,-0.3337280974237497
1770450966248,126,-2,-1.0317332991113692,-0.1340067042822788,-0.3408125245152316
1770450966252,126,-2,-1.0385970098358095,-0.0991932045648025,-0.3471109338643638
1770450966255,126,-2,-1.035137446733526,-0.107686793908845,-0.3439411125561127
1770450966260,126,-2,-1.0139642728008125,-0.1064640060416668,-0.3242091262512889
1770450966264,126,-2,-0.9841891725341834,-0.1451465695237268,-0.2961348140563309
1770450966268,126,-2,-0.9777599976473256,-0.1340557457148916,-0.2902383562942019
1770450966272,126,-2,-1.0272171134177677,-0.0830348137761662,-0.3385277175190972
1770450966275,126,-2,-1.1176339080078217,-0.1271258392105869,-0.4271155105769086
1770450966280,126,-2,-1.1551579703026291,-0.0703148733908973,-0.4637352326204045
1770450966284,126,-2,-1.00477242941454,-0.1824823434504598,-0.3138712414910583
1770450966288,126,-2,-0.5955242302878225,-0.101984868011445,0.0941971109009112
1770450966292,127,-1,-0.0073707741047266,0.9092867567584582,0.6812046666760203
1770450966295,128,0,0.5607062400738039,1.8637686350408016,1.2481724816890636
1770450966300,128,0,0.9375837965871416,1.9816310455261965,1.624322804571201
1770450966304,128,0,1.1158620128578445,1.7288072146050362,1.8033835690778235
1770450966308,128,0,1.2574726346451923,2.0163944989949267,1.9476088892888543
1770450966312,129,1,1.5761867493051902,2.7598813491021694,2.269074615745272
1770450966315,129,1,2.197205950545999,3.060782414782394,2.890793485649497
1770450966320,130,2,3.0773989775327815,3.7723239037456953,3.7693136729783903
1770450966324,131,3,4.013885382553865,4.969833011130364,4.703346056780288
1770450966328,132,4,4.734940663891789,5.730475981425393,5.422812731807119
1770450966331,132,4,5.033830552334189,6.080633971166694,5.721591925778419
1770450966335,132,4,4.869166772891536,5.722725128362996,5.558241049985536
1770450966340,131,3,4.366656375307375,5.146810865722738,5.058123404322092
1770450966344,131,3,3.7297148125981727,4.584127720070335,4.423755395617118
1770450966348,130,2,3.132196572609282,4.098846071641043,3.827626541359528
1770450966351,130,2,2.6602728196389895,3.7507511025439224,3.35514162838466
1770450966356,129,1,2.3117727604220013,3.0211882374535404,3.004891631536897
1770450966360,129,1,2.0226274028831677,2.923217470912607,2.7145548619104742
1770450966364,129,1,1.700516487073446,2.738328687677619,2.3929630419565027
1770450966368,128,0,1.26564815133888,1.9903545352280776,1.959915538298279
1770450966371,128,0,0.6915139098000066,1.827577227248048,1.3874699328259965
1770450966376,127,-1,0.020616771273227,0.9790569358821376,0.7171030005272343
1770450966380,126,-2,-0.6640167344527572,-0.020795741337698,0.0321508254236415
1770450966384,126,-2,-1.2945385251642585,-0.3452102887868631,-0.5983564463371429
1770450966388,125,-3,-1.851723972613267,-0.8959573165309282,-1.1543769535148738
1770450966391,125,-3,-2.343624790478331,-1.322541356451501,-1.6442315174503557
1770450966396,124,-4,-2.755680596959716,-1.8108408830154188,-2.0545240962446973
1770450966400,124,-4,-3.0320630778620004,-2.2442275156608193,-2.330696194479134
1770450966404,124,-4,-3.116092488301349,-2.1389365190391714,-2.4162299668417067
1770450966408,124,-4,-3.0171840907355305,-2.0643332326467165,-2.3186904213362407
1770450966411,124,-4,-2.841196212631413,-2.2202109159437917,-2.141145367139173
1770450966416,124,-4,-2.739540338110105,-1.7996537384094058,-2.034436345258761
1770450966420,125,-3,-2.792274763820978,-1.3429699417828571,-2.0821684218926073
1770450966424,124,-4,-2.9150264798465275,-1.9708091650661612,-2.205008243417321
1770450966428,124,-4,-2.89300288732814,-2.2960498695243565,-2.1894408499789852
1770450966431,124,-4,-2.5321936408660557,-1.9504184808386844,-1.836612113028861
1770450966436,125,-3,-1.7632520663926483,-1.0549593366928578,-1.069550175105893
1770450966440,127,-1,-0.5364034194409946,0.9090447485323968,0.165609697787888
1770450966444,129,1,1.4307944531231294,2.813188966742992,2.147910466199975
1770450966447,132,4,4.750363654674957,5.85628731700483,5.480396178403949
1770450966452,137,9,10.0293448288158,10.9650666506066,10.762151209622823
1770450966456,143,15,17.184701088785065,16.98269852346819,17.90897342534511
1770450966460,151,23,24.911792573826133,24.94446179780185,25.62176772141762
1770450966464,159,31,30.88700146983437,32.738989522284754,31.58444415542526
1770450966467,161,33,32.8139410745153,34.93916894464591,33.50632178165968
1770450966472,157,29,29.70866030098717,30.841308869919235,30.40637097961542
1770450966476,149,21,22.515139198140965,23.096969511088417,23.22774477859292
1770450966480,140,12,13.59657890044275,13.825825774954671,14.327650418729498
1770450966484,132,4,5.478745595715388,5.861317963736953,6.222478737971411
1770450966487,127,-1,-0.2933539778006047,0.9061516486743242,0.4504992271313255
1770450966492,124,-4,-3.528861345958192,-2.1539937319715197,-2.796169178156716
1770450966496,122,-6,-4.963405974772988,-3.825763721265244,-4.244643942515821
1770450966500,122,-6,-5.510078824364275,-4.354740018343389,-4.798681205985581
1770450966504,121,-7,-5.7349981520741755,-4.902379118798627,-5.020601516085059
1770450966507,121,-7,-5.791653090333657,-5.367157409783212,-5.067119413487714
1770450966512,121,-7,-5.665991023422899,-4.84309569771892,-4.93112725724299
1770450966516,122,-6,-5.413476501832498,-4.113734679263867,-4.6737801117579325
1770450966520,122,-6,-5.188475818013141,-4.138921533494443,-4.450378119346201
1770450966524,122,-6,-5.115982393472778,-4.042094355629222,-4.382080582594847
1770450966527,122,-6,-5.18939509198974,-4.310272167790256,-4.457141898130285
1770450966532,121,-7,-5.300566733909192,-4.796927037952248,-4.565273885855257
1770450966536,122,-6,-5.345710053788659,-4.220771851688034,-4.60507551911889
1770450966540,122,-6,-5.287418182051332,-4.001011198271561,-4.543267085092289
1770450966543,122,-6,-5.135276129091333,-4.195644818251765,-4.390939957259619
1770450966547,122,-6,-4.909484433923884,-4.155184710631007,-4.166024699415303
1770450966552,122,-6,-4.642302472260222,-3.913676589576897,-3.897951483693753
1770450966556,123,-5,-4.388325324447057,-3.1413737174872898,-3.6412646567248776
1770450966560,123,-5,-4.195376946982329,-3.041345139615176,-3.4458706873450606
1770450966563,123,-5,-4.058347549156332,-3.197200515860928,-3.3076995598158043
1770450966568,123,-5,-3.919993799078997,-3.1129775799801136,-3.1683283632059047
1770450966572,123,-5,-3.72487140257114,-2.9670906248027404,-2.9709168262810777
1770450966576,124,-4,-3.460674352313264,-2.086791963682785,-2.7035084245745775
1770450966580,124,-4,-3.1424497259072135,-2.0742186249278873,-2.3826545518644
1770450966583,124,-4,-2.776180978128774,-2.1963060207171297,-2.015188362916084
1770450966588,125,-3,-2.361514807882932,-1.0749902879946474,-1.6002436140385354
1770450966592,125,-3,-1.9338732349040983,-1.0232078024818332,-1.171993267111168
1770450966596,125,-3,-1.5892804525588733,-1.033171814948194,-0.8255903233932953
1770450966600,126,-2,-1.442802857194037,-0.0872846269122087,-0.6764231483605567
1770450966603,126,-2,-1.533422768650152,-0.2430954519518102,-0.7645229674449099
1770450966608,125,-3,-1.757092475362242,-0.9579250451467712,-0.9861610487764718
1770450966612,125,-3,-1.909525588903788,-1.1993796087901445,-1.136302669976867
1770450966616,125,-3,-1.820187924591111,-0.8109347643080693,-1.0440097392727383
1770450966620,126,-2,-1.4611610230107095,-0.3248134474221684,-0.6822619592462518
1770450966623,126,-2,-0.940311166524554,0.0002915185429919,-0.1601267358067555
1770450966628,127,-1,-0.4044103653113494,0.8247265922016509,0.3757347295567113
1770450966632,127,-1,0.0495894610268127,0.9796567896791786,0.830000611806637
1770450966636,127,-1,0.3910801297917619,1.0434744419242326,1.1736740283784
1770450966639,128,0,0.6225854355950365,1.7925495193864376,1.4091569820754908
1770450966643,128,0,0.7610381219433956,1.91310923922832,1.551609823146071
1770450966648,128,0,0.8539016478888568,1.910701575965476,1.646969729861072
1770450966652,128,0,0.9859769606749011,1.888505963638599,1.7802210723889225
1770450966656,128,0,1.2384317392376345,2.138257046622417,2.03384375393537
1770450966659,129,1,1.6282914627742304,2.689867493567333,2.4256844001293314
1770450966664,129,1,2.092670834159153,3.034246219458549,2.8924988570568635
1770450966668,130,2,2.541044956778393,3.803334308480149,3.3430116530348126
1770450966672,130,2,2.928816726551754,3.974590432131372,3.732613661681624
1770450966676,130,2,3.282949626354743,4.0706358993300364,4.089040769826219
1770450966679,131,3,3.6599926546456154,4.7222868098798205,4.469256178722702
1770450966684,131,3,4.085198660298162,5.051333493997555,4.89775502513163
1770450966688,132,4,4.532552171304268,5.766981381670605,5.347353044575723
1770450966692,132,4,4.952154446434042,6.0293489437555134,5.7680074640570345
1770450966696,132,4,5.304864125683467,6.001670675606111,6.121657862060769
1770450966699,133,5,5.576481679040396,6.77101419578579,6.395232155644483
1770450966704,133,5,5.779966912796427,7.049279541421595,6.601974332181416
1770450966708,133,5,5.956446117261878,6.739180632164187,6.782522347660519
1770450966712,133,5,6.166574701906888,7.097009546218182,6.996479642060578
1770450966716,134,6,6.466012501120091,7.897578146870778,7.298309037515895
1770450966719,134,6,6.871376134348141,7.872400187551419,7.704475581039567
1770450966724,134,6,7.326141418630389,7.982282440482677,8.159915606125772
1770450966728,135,7,7.691225184128967,8.78944171919527,8.527097508742468
1770450966732,135,7,7.79799379825394,9.072941576494427,8.637254705474433
1770450966735,135,7,7.55325284385815,8.886257506279765,8.395939393511913
1770450966739,134,6,7.007175585635428,7.893356433854396,7.85276889424332
1770450966744,133,5,6.305698136296254,6.9686656629526365,7.154018520216804
1770450966748,133,5,5.565852078584562,6.810644146119611,6.416741812219062
1770450966752,132,4,4.795165724965305,6.05583998478158,5.648064444215052
1770450966755,131,3,3.9221479932618726,4.900327436118067,4.776770023826697
1770450966760,130,2,2.8914966166802767,3.8659601364068017,3.74853199821872
1770450966764,129,1,1.734656808216484,3.024825599104228,2.59515285427973
1770450966768,128,0,0.5648927313841234,1.7248768370280931,1.429114457847407
1770450966772,126,-2,-0.4969806636337015,0.1868261218394418,0.3702244234832592
1770450966775,126,-2,-1.4123506166812376,-0.2734902305456073,-0.5432471783779858
1770450966780,125,-3,-2.2554368382284844,-0.9322505322096268,-1.3850534597968245
1770450966784,124,-4,-3.1511615772227053,-2.184527869594478,-2.2791180532559174
1770450966788,123,-5,-4.1666848004900325,-3.0659725538890488,-3.2917701709496257
1770450966792,122,-6,-5.241602799591703,-3.99510565450725,-4.362720432905786
1770450966795,121,-7,-6.208959687346811,-5.143219165104449,-5.325960663281998
1770450966800,120,-8,-6.894814671294652,-6.0104846098863955,-6.008431575523998
1770450966804,120,-8,-7.229040241292069,-6.147583197243083,-6.340282128473727
1770450966808,120,-8,-7.285950782206334,-6.052433313998232,-6.3955961469622284
1770450966812,120,-8,-7.224018221309282,-6.03905349976553,-6.332250138221271
1770450966815,120,-8,-7.176428152711996,-6.081471810362539,-6.282624309061657
1770450966820,120,-8,-7.179794546858725,-6.103364109661728,-6.282798783962908
1770450966824,120,-8,-7.185832883408623,-6.018224468620509,-6.284727715507983
1770450966828,120,-8,-7.129376822950013,-6.215488068333821,-6.224219344080024
1770450966831,120,-8,-6.989237570423843,-5.822079202325736,-6.081126095964433
1770450966835,121,-7,-6.797742927611167,-5.357258838702713,-5.8879755699144996
1770450966840,120,-8,-6.606053868964344,-5.779946918968726,-5.694967413648279
1770450966844,121,-7,-6.444651189507431,-5.38291015665954,-5.531298271380904
1770450966848,121,-7,-6.305741433495401,-4.81344594785718,-5.388748684330824
1770450966851,121,-7,-6.148983892578304,-5.232186044196787,-5.227660837305532
1770450966856,121,-7,-5.924819587580608,-4.967141831334781,-4.999659899534645
1770450966860,122,-6,-5.605805770294033,-4.126282835789963,-4.6781872370357185
1770450966864,122,-6,-5.209574511903611,-4.108694771525968,-4.280690972707158
1770450966868,122,-6,-4.80197525466229,-3.990393425612438,-3.871724571576191
1770450966871,123,-5,-4.474837913312193,-3.1441769524419136,-3.5419299537923794
1770450966876,123,-5,-4.29581155585886,-2.977131904308958,-3.359064795100822
1770450966880,123,-5,-4.2529547353449635,-3.1920383415888183,-3.3122276499389645
1770450966884,123,-5,-4.245714827516189,-2.984354323608321,-3.301594845487121
1770450966888,123,-5,-4.1496119739542205,-3.1464420058581317,-3.2026534808744476
1770450966891,123,-5,-3.911322814774469,-2.968177821666068,-2.9618741044276575
1770450966896,124,-4,-3.5914775407398807,-2.1550102074949335,-2.639953392543865
1770450966900,124,-4,-3.3149765044380866,-2.0283306622867765,-2.3616731033510514
1770450966904,124,-4,-3.174639806762846,-2.128515907901953,-2.2190738604664175
1770450966908,124,-4,-3.172610274731024,-2.016310260769993,-2.21354559723253
1770450966911,124,-4,-3.2375341549730416,-2.0870817986780708,-2.2741567021050115
1770450966916,124,-4,-3.286077155730092,-2.0541980029944047,-2.31900762375886
1770450966920,124,-4,-3.276835036890669,-2.103270107285789,-2.3075998358408047
1770450966924,124,-4,-3.22905327584871,-2.0838231270969807,-2.2585160962073454
1770450966928,124,-4,-3.203955116907946,-2.0129218578226027,-2.2315086033221565
1770450966931,124,-4,-3.2584762721318015,-2.1499323792790945,-2.282853836694453
1770450966936,124,-4,-3.394505980211127,-1.936460739525888,-2.415103542485559
1770450966940,124,-4,-3.5423221333952526,-2.2711307691640163,-2.559477317247752
1770450966944,123,-5,-3.60543033287745,-2.8714341778743053,-2.619756386796676
1770450966947,124,-4,-3.539530685914547,-2.25184621546648,-2.551530401074751
1770450966952,124,-4,-3.3925843204576656,-1.901310514481048,-2.402668964886856
1770450966956,124,-4,-3.2649774390943422,-2.1835015880239923,-2.2731067981404336
1770450966960,124,-4,-3.229477822159342,-2.037474996813883,-2.2348173335418102
1770450966964,124,-4,-3.281072435298674,-2.070659686071747,-2.2827352800168463
1770450966967,124,-4,-3.345693650915119,-2.1117754644460653,-2.3439249567759104
1770450966972,124,-4,-3.331443665231548,-1.9732959743844665,-2.3274232555717753
1770450966976,124,-4,-3.1909805426421203,-2.181402771897746,-2.1852610093239626
1770450966980,124,-4,-2.956516130389767,-1.969225413885716,-1.9483320462392568
1770450966984,125,-3,-2.7097965721003474,-1.1923955451123744,-1.698333144945732
1770450966987,125,-3,-2.494983121325353,-0.9589017968485604,-1.480647193742914
1770450966992,125,-3,-2.2545325231680535,-1.147751912639596,-1.2382255495482393
1770450966996,125,-3,-1.8689835657299936,-0.9923904315904588,-0.8506163979351729
1770450967000,126,-2,-1.272398623201504,-0.1703947009178743,-0.2511150768452013
1770450967004,127,-1,-0.518290795964236,1.0216186314994813,0.5060210694617084
1770450967007,128,0,0.2778181293102895,1.813893834472197,1.304331529717662
1770450967012,128,0,1.048463277299644,2.0998733500573064,2.0769092276431804
1770450967016,129,1,1.811992468311446,2.7375352636851726,2.843298686156826
1770450967020,130,2,2.6082340138996676,4.099100384741323,3.643104782396048
1770450967024,131,3,3.41142680059314,4.7654207114153255,4.4490268978019865
1770450967027,131,3,4.100791100891823,5.040592796369694,5.139517721686804
1770450967032,132,4,4.502772516114044,5.9440773571186725,5.541992984935015
1770450967036,132,4,4.474926051879567,5.789960196142568,5.515540975804784
1770450967040,131,3,3.9880700361155026,5.14136464272938,5.031603898660065
1770450967043,131,3,3.160252097684469,4.619097053302683,4.20765162558964
1770450967047,129,1,2.215900345960316,3.295085341334011,3.2670009127128634
1770450967052,129,1,1.3892934444589595,2.6074487434687703,2.4430803794751625
1770450967056,128,0,0.8302224447882969,2.186617709614562,1.8855228718617276
1770450967060,128,0,0.5677136364539056,1.6979973352826627,1.6239160792279466
1770450967063,128,0,0.5440136924497194,2.0726944881201503,1.601460416805928
1770450967068,128,0,0.6811220744201718,1.8845386935255832,1.7407987183370732
1770450967072,128,0,0.927885184661909,1.944568659061096,1.990414658547894
1770450967076,129,1,1.2632896453761822,2.9355220147721246,2.3281760032360954
1770450967080,129,1,1.6667789457507651,2.843148057702243,2.732993836698002
1770450967083,129,1,2.0830779529473267,3.008311299542549,3.150411742493445
1770450967088,130,2,2.415399387065793,3.9182375120128,3.484705520492916
1770450967092,130,2,2.5716268697754345,3.908299401884173,3.6436060136634913
1770450967096,130,2,2.539490044313627,3.9904744745216134,3.6138204887175256
1770450967100,130,2,2.415536565030388,3.740337999151064,3.4915066433257036
1770450967103,129,1,2.339081113026304,3.1534139353298567,3.4165604304067454
1770450967108,130,2,2.381290393696625,3.748994454750541,3.4605632386153444
1770450967112,130,2,2.49773084074427,4.097010918365587,3.578690203871587
1770450967116,130,2,2.5908031690197384,3.7951752721145353,3.67293916676877
1770450967120,130,2,2.614805713375404,3.9117801649784463,3.697976231787289
1770450967123,130,2,2.6209333780924857,4.016457388973194,3.705720933913447
1770450967128,130,2,2.707750749842051,3.832888201028821,3.794930756868097
1770450967132,130,2,2.9298475368184187,4.0786907918639805,4.019546107603084
1770450967136,131,3,3.2465973957924676,4.7571130520365985,4.337956071666346
1770450967139,131,3,3.549682566782558,4.981109331419367,4.641496368061981
1770450967143,131,3,3.7344486449344014,4.93026894874272,4.8262715806927625
1770450967148,131,3,3.7496720017947367,4.909772527892056,4.842142833323078
1770450967152,131,3,3.599638005615354,5.023354171862148,4.693714160195753
1770450967156,131,3,3.321734882243271,4.785370294004855,4.4179540622444815
1770450967159,130,2,2.9662381555628694,3.969780921818576,4.064678125708001
1770450967164,130,2,2.5850045153269705,3.931542165257215,3.685337369520107
1770450967168,130,2,2.22708102221658,3.900626818357311,3.328495320205664
1770450967172,129,1,1.9322828312049227,3.050758901989581,3.0338769193320174
1770450967176,129,1,1.7111769748558014,2.733386313696509,2.812643218635301
1770450967179,129,1,1.5250173185318272,3.0441109498127896,2.6267662132422216
1770450967184,129,1,1.3006111240041944,2.832040629051269,2.4034136956506496
1770450967188,128,0,0.9837583706220928,2.0091312622309587,2.088403992076688
1770450967192,128,0,0.5874560342683696,1.9463027216391873,1.6942371339883575
1770450967196,128,0,0.1924456889326297,1.8208669263027824,1.3006542379779162
1770450967199,127,-1,-0.104877319268694,0.9681628385788958,1.0034917868050677
1770450967204,127,-1,-0.2675493908000726,0.891841782028806,0.84033010697972
1770450967208,127,-1,-0.3598311039711013,0.9629230660545728,0.7479350487455114
1770450967212,127,-1,-0.5047969701718575,0.9805525594218354,0.6035398173168067
1770450967216,127,-1,-0.775250383601807,0.7952230653158541,0.3340668925556895
1770450967219,126,-2,-1.1131830528945523,-0.0231329929361823,-0.0025556403893749
1770450967224,126,-2,-1.3605140462691452,-0.1114452983788463,-0.2482260701837559
1770450967228,126,-2,-1.379630116018196,-0.0467348143459562,-0.265928724959092
1770450967232,126,-2,-1.1573485306924305,0.0069311832088116,-0.0435927030488765
1770450967235,127,-1,-0.8062328260085007,0.7536458164985778,0.3058612428427056
1770450967239,127,-1,-0.4728534454893752,1.038112546147948,0.6372860230400326
1770450967244,127,-1,-0.2368068323389895,0.7890833069708538,0.8733748317758361
1770450967248,127,-1,-0.0723123300761366,1.0737034601128397,1.0405652755804005
1770450967252,128,0,0.1239571396481097,1.8654086922152144,1.2401079341092842
1770450967255,128,0,0.4710186924597371,1.9141011235236736,1.5883920361579196
1770450967260,128,0,1.0248364342248308,1.869121101531768,2.1409918235089065
1770450967264,129,1,1.7071045690479316,2.956792280507666,2.821205610994898
1770450967268,130,2,2.305077856709978,3.884434236234213,3.4176043873223367
1770450967272,130,2,2.581126892818407,4.072955874390001,3.692804998291372
1770450967275,130,2,2.425601284486794,3.693897911318437,3.5373200013034314
1770450967280,129,1,1.9293387175612788,3.101789690426909,3.042377342168616
1770450967284,129,1,1.32186131288226,2.695851531129577,2.4372366062113606
1770450967288,128,0,0.83343834087366,2.1368069336293827,1.9508885634180744
1770450967292,128,0,0.5794998661147139,1.850598632568806,1.6973150599466706
1770450967295,128,0,0.5256033935463471,1.8875425828097576,1.6415313164470555
1770450967300,128,0,0.5297140364246423,1.9622705300094785,1.6423599418228436
1770450967304,128,0,0.419339621132516,1.7436106469471948,1.529273575304328
1770450967308,127,-1,0.0594078486726921,1.1530313189617525,1.169011764488091
1770450967312,127,-1,-0.6040797657568611,0.7755290197438405,0.5075943058932864
1770450967315,126,-2,-1.5176816147303538,0.0159358466513941,-0.4035763500106575
1770450967320,125,-3,-2.520997842781441,-1.1864935627200652,-1.4062855687006768
1770450967324,124,-4,-3.40448604688753,-2.1399287852360276,-2.291147977537963
1770450967328,123,-5,-4.020800667249927,-2.929595432359299,-2.9090910339932914
1770450967331,123,-5,-4.374408488087522,-3.1966310928701733,-3.2632777293200737
1770450967335,123,-5,-4.600797954592634,-2.93310032894255,-3.4898798543251015
1770450967340,123,-5,-4.838142013321915,-3.292470356759381,-3.728552254788947
1770450967344,122,-6,-5.1059304113766855,-4.026825304487913,-3.998662723744191
1770450967348,122,-6,-5.3047982172760735,-4.055695196121745,-4.198620420265978
1770450967351,122,-6,-5.328339323916163,-4.097742202977278,-4.2199431932792555
1770450967356,122,-6,-5.166610304140132,-3.97303368936616,-4.053616106780259
1770450967360,123,-5,-4.900279761016101,-3.291503613003301,-3.7847141242079094
1770450967364,123,-5,-4.604623317128528,-3.013037138194725,-3.493114312154891
1770450967368,123,-5,-4.272848114565727,-3.10503658606954,-3.171905988048738
1770450967371,123,-5,-3.8265052246156808,-3.0529826058553406,-2.7361452371576886
1770450967376,124,-4,-3.144879746666763,-1.989113159509269,-2.056636562019224
1770450967380,126,-2,-1.9901212754277176,-0.2899316805383001,-0.8922507240816269
1770450967384,128,0,0.1474860958265482,1.9944088061280112,1.2614035728750208
1770450967388,132,4,4.039972442537438,5.863243043284206,5.166041172368689
1770450967391,137,9,10.306970208309108,10.97724779897643,11.43336202842827
1770450967396,145,17,18.70076991442693,18.99371935116929,19.815007957101905
1770450967400,155,27,27.61731308872825,28.738554291796547,28.71289323223033
1770450967404,162,34,34.40100877324853,35.947283256579794,35.47989512005359
1770450967408,165,37,36.50009879780942,38.903824520011014,37.57132130901152
1770450967411,161,33,32.83011172736766,34.87009127781953,33.90605390015265
1770450967416,151,23,24.431412993456128,25.10753913450432,25.522668900820904
1770450967420,141,13,13.950564678523271,14.568255924334972,15.060460443322864
1770450967424,131,3,4.297266071758083,5.194042926426997,5.419093516572293
1770450967428,125,-3,-2.6416865703192816,-1.36760077261202,-1.5215009702305973
1770450967431,121,-7,-6.502527982171797,-4.769151042915188,-5.396282007163533
1770450967436,120,-8,-8.057089639009147,-6.297393471386592,-6.968414559479025
1770450967440,119,-9,-8.402898410512472,-7.03425135357982,-7.325528783134743
1770450967444,119,-9,-8.325404998706071,-7.215483262620064,-7.248370954697552
1770450967447,119,-9,-8.135408946261911,-6.997950726344085,-7.0502715890313015
1770450967452,119,-9,-7.874296975618625,-7.073020408250608,-6.779633265275548
1770450967456,120,-8,-7.565875260814757,-6.073241022534035,-6.466828593171887
1770450967460,121,-7,-7.286312426894252,-5.189948387207977,-6.18992547655664
1770450967464,120,-8,-7.078907223437985,-6.160044459317082,-5.988567767703733
1770450967467,120,-8,-6.891192773875474,-5.9797860367729845,-5.804777643323129
1770450967472,121,-7,-6.62816871807585,-5.135459883757749,-5.541440672689172
1770450967476,121,-7,-6.247583175977438,-4.994263952505639,-5.158834367245092
1770450967480,122,-6,-5.790414098648022,-4.269965884524778,-4.701307129106532
1770450967484,122,-6,-5.339018326458575,-4.111890647215905,-4.251660334325603
1770450967487,122,-6,-4.963924662166854,-4.006279889574614,-3.878437180250257
1770450967492,123,-5,-4.694067654355328,-3.1386856117527895,-3.6091329086088
1770450967496,123,-5,-4.505266095625879,-2.9647936957696563,-3.4198634994705337
1770450967500,123,-5,-4.329000358650836,-3.330624142259233,-3.2429431613809725
1770450967504,123,-5,-4.092239114713555,-3.038754147303127,-3.005813765154172
1770450967507,124,-4,-3.7662310992884658,-2.101770105755181,-2.680088372747642
1770450967512,124,-4,-3.381637705060187,-2.040064250307793,-2.2965691437363804
1770450967516,124,-4,-3.0035853091732907,-2.0553409953990913,-1.919826242463598
1770450967520,125,-3,-2.6956734362046246,-1.255775992765684,-1.6126811662869434
1770450967524,125,-3,-2.4905433269346524,-1.116521123646974,-1.407591973405624
1770450967527,125,-3,-2.3705485919750746,-1.048286023334119,-1.2870984782313657
1770450967532,125,-3,-2.2717862516586154,-1.0715163631303048,-1.1873228903462838
1770450967536,125,-3,-2.117628340824594,-1.0474631484419052,-1.031929370286324
1770450967540,126,-2,-1.8572711785586469,-0.2415543596281941,-0.7711167301772635
1770450967543,126,-2,-1.4815926027453052,-0.1728955798707603,-0.3965080768954117
1770450967547,126,-2,-1.02065854974453,0.0292668267596709,0.0626478027496508
1770450967552,127,-1,-0.5386861560380283,0.8266463820742349,0.5439958200807544
1770450967556,127,-1,-0.1164091854489227,1.0762019890836128,0.9676519514453664
1770450967560,128,0,0.1961159255453844,1.6029677671136309,1.2823583344772425
1770450967563,128,0,0.4311244487558774,1.994936080310871,1.5184896055911468
1770450967568,128,0,0.6976861011501638,1.8363821654583337,1.784782939120972
1770450967572,128,0,1.0948599779965544,2.023218527594461,2.181693592295913
1770450967576,129,1,1.6115588997500332,2.888616443550481,2.6992203005308495
1770450967580,130,2,2.120197025385661,3.760002837136971,3.2091306063659055
1770450967583,130,2,2.4850408030242517,3.865163915992654,3.574452047648813
1770450967588,130,2,2.679739455180241,3.9239053843761496,3.7689250681172863
1770450967592,130,2,2.7956013227221637,3.9520450186295446,3.8852304588832927
1770450967596,130,2,2.94240115243482,3.9446703256631426,4.033944755550785
1770450967600,131,3,3.155152710291512,4.687978719232449,4.249238063562099
1770450967603,131,3,3.399158173085257,4.97635448972113,4.494998456029774
1770450967608,131,3,3.647270555952552,4.746028018050421,4.743740633281378
1770450967612,131,3,3.9300996482077983,5.190239683278579,5.026886710960253
1770450967616,132,4,4.306418871867964,5.625929713959949,5.404019502684823
1770450967620,132,4,4.794161424430485,6.05445914849048,5.893302318632148
1770450967623,133,5,5.336197535416863,6.593765717068852,6.4374934149252185
1770450967628,133,5,5.835928664600549,7.110075382321452,6.939616821611867
1770450967632,134,6,6.235450807009961,7.856838127561542,7.341166908894068
1770450967636,134,6,6.567002654516768,7.875690914084255,7.674182553947609
1770450967639,134,6,6.921300353831593,7.887593485672836,8.030002764758512
1770450967643,135,7,7.353048503723895,8.668988477696857,8.463973996795447
1770450967648,135,7,7.817953978803637,9.12762258685673,8.931426358818571
1770450967652,136,8,8.213113671212849,9.73431713568755,9.328551289148734
1770450967656,136,8,8.482380465570587,10.071485860396274,9.599336956571504
1770450967659,136,8,8.67395515632591,9.619339416929996,9.79339180493098
1770450967664,136,8,8.889603663618391,9.972458943065416,10.013250760963636
1770450967668,137,9,9.182761922155162,10.81483621764223,10.311009156008586
1770450967672,137,9,9.50421574195057,11.012792527170106,10.635397863024238
1770450967676,137,9,9.72266791538902,10.83877717252182,10.854822240130066
1770450967679,137,9,9.677361661249511,10.780234933119488,10.810112654408918
1770450967684,137,9,9.232144704723169,10.86214232398128,10.366719560341082
1770450967688,136,8,8.330569836524917,9.870779631585568,9.46884550013914
1770450967692,134,6,7.034750239463513,7.981179649087451,8.178517351283244
1770450967696,133,5,5.516350379302423,6.857940884930036,6.666366018337342
1770450967699,132,4,3.999662337773339,5.734455210783375,5.15472797910493
1770450967704,130,2,2.683167068861707,3.9361405273038432,3.8408814887075335
1770450967708,129,1,1.6602028233044208,2.7466757571457525,2.8192688384388096
1770450967712,128,0,0.8699745646199792,2.1647094081347396,2.0313844383578203
1770450967716,128,0,0.1320036740359707,1.5987015458196518,1.2977260281003618
1770450967719,127,-1,-0.7269106371921885,1.0396281750609615,0.4441762340796975
1770450967724,126,-2,-1.7436430990908978,-0.4107392515094505,-0.5673698017699476
1770450967728,124,-4,-2.805377588118706,-1.907726731897522,-1.6244791759298258
1770450967732,124,-4,-3.7641383361989824,-2.1656495049995854,-2.578996288462296
1770450967735,123,-5,-4.565926941054748,-3.1220121960279066,-3.3765803728474513
1770450967739,122,-6,-5.275674185807151,-4.195178979968822,-4.081674387867459
1770450967744,122,-6,-5.983838075455543,-4.2195360716434624,-4.78448163139698
1770450967748,121,-7,-6.683762062260728,-5.078978140107928,-5.478679798276805
1770450967752,120,-8,-7.235877539719365,-6.027860842914075,-6.025145044112815
1770450967755,120,-8,-7.467263993979119,-6.253744102187792,-6.2510021203597415
1770450967760,120,-8,-7.329810872876371,-6.077840963509589,-6.108134839244887
1770450967764,121,-7,-6.969685623610568,-5.3286438909415175,-5.742991076213652
1770450967768,121,-7,-6.634392945935755,-4.984007598655316,-5.403095429682738
1770450967772,121,-7,-6.496388647651389,-5.123878028290518,-5.260141663856609
1770450967775,121,-7,-6.544977170312379,-5.192332917547938,-5.302478563098731
1770450967780,121,-7,-6.625625477341852,-5.126588872730213,-5.375459667753405
1770450967784,121,-7,-6.5759828214672,-5.301036933409413,-5.317668023694502
1770450967788,121,-7,-6.341595289823294,-5.00136614481648,-5.075940246445728
1770450967792,122,-6,-5.989732641420777,-4.104368876376026,-4.718291725736674
1770450967795,122,-6,-5.633049049992286,-4.259133274206878,-4.356957305539215
1770450967800,122,-6,-5.345403428940055,-4.025002082286099,-4.064353975555626
1770450967804,123,-5,-5.138806256456866,-3.45763819613893,-3.851071706687996
1770450967808,122,-6,-4.995756028567993,-3.802713315759816,-3.699381800220563
1770450967812,123,-5,-4.900421846770671,-3.342539593386891,-3.594698481014194
1770450967815,123,-5,-4.832107038961446,-3.0173318738619264,-3.518040667770673
1770450967820,123,-5,-4.743586808644193,-3.2767372112509943,-3.4227885124912936
1770450967824,123,-5,-4.574995755647265,-3.231878806257915,-3.248061067446832
1770450967828,123,-5,-4.309513731263909,-2.9905153762720142,-2.97567328820577
1770450967831,124,-4,-4.009938753257742,-2.2218693624134733,-2.6681024302647964
1770450967835,124,-4,-3.7813954108717738,-2.078330218446384,-2.430979779582324
1770450967840,124,-4,-3.687892432876056,-2.2976755146232453,-2.328689613191341
1770450967844,124,-4,-3.7032395487202887,-2.1526988183457982,-2.335255784360385
1770450967848,124,-4,-3.738047106850132,-2.134749691832035,-2.3617145492870253
1770450967851,124,-4,-3.7134548363127657,-2.0413333455115215,-2.329322427668329
1770450967856,124,-4,-3.622487875564637,-2.2967999280793605,-2.2303432863194965
1770450967860,124,-4,-3.5322228298659972,-2.0633214716654646,-2.1310454235033007
1770450967864,125,-3,-3.5163158506177843,-1.416411054905474,-2.105358652495935
1770450967868,124,-4,-3.5682008352203862,-1.8629831286260965,-2.147577190563137
1770450967871,124,-4,-3.5854842684232504,-2.336414973884641,-2.155554268776521
1770450967876,124,-4,-3.4601674914728733,-1.9981551686337573,-2.021089711310422
1770450967880,125,-3,-3.1914548505244587,-1.3770584043325564,-1.743551739329313
1770450967884,125,-3,-2.9030210976029216,-1.1154914529904132,-1.446694942501301
1770450967888,125,-3,-2.745363013003882,-1.1478494722026718,-1.280117359380614
1770450967891,125,-3,-2.7745748990939543,-1.092466077459708,-1.2987636100953912
1770450967896,125,-3,-2.906322262818936,-1.2225776993456932,-1.418564137181535
1770450967900,125,-3,-2.9725005354792513,-1.20263902536416,-1.4731581410701038
1770450967904,125,-3,-2.8392100313494493,-1.255187412277997,-1.3300246162093678
1770450967908,125,-3,-2.509945553395368,-1.041626785008151,-0.992273387163816
1770450967911,126,-2,-2.1393256972071155,-0.1813643244023675,-0.6129743670058716
1770450967916,126,-2,-1.933405333492045,-0.1681959911786656,-0.3970447521755298
1770450967920,126,-2,-1.999162554447728,-0.2632937544681633,-0.4514951176224433
1770450967924,126,-2,-2.2589892101554105,-0.1975509168271096,-0.6993932924871409
1770450967928,125,-3,-2.5054889491482437,-1.111160140208011,-0.9338570917921408
1770450967931,125,-3,-2.558431612150742,-1.1183043997492308,-0.9750108130246862
1770450967936,126,-2,-2.393750826356073,-0.238895355459477,-0.7993471402960886
1770450967940,126,-2,-2.137942220506268,-0.2119194271922495,-0.533643071824021
1770450967944,126,-2,-1.948481609301507,-0.2385034866347526,-0.3345824778342336
1770450967947,126,-2,-1.898452179238769,-0.0874040861680123,-0.2738978548927682
1770450967952,126,-2,-1.9537277138825215,-0.1582764652230139,-0.3169888645015972
1770450967956,126,-2,-2.0317922956933563,-0.2122460127593179,-0.3821327278098332
1770450967960,126,-2,-2.0739339716014538,-0.2434662449321591,-0.4116618652946844
1770450967964,126,-2,-2.07593950198117,-0.2084396264169754,-0.4017362251544367
1770450967967,126,-2,-2.067872289416945,-0.1215896431401788,-0.3822102511914875
1770450967972,126,-2,-2.072822629070474,-0.1477954775148378,-0.3759007555658498
1770450967976,126,-2,-2.085737843675591,-0.2342881532360858,-0.377564179976402
1770450967980,126,-2,-2.089684681734183,-0.2295152543811494,-0.3699705814030489
1770450967984,126,-2,-2.087219228149532,-0.2183816955694302,-0.355271211138183
1770450967987,126,-2,-2.106767744993508,-0.1293867193371594,-0.3617526774233022
1770450967992,126,-2,-2.168829210839996,-0.1411052042084244,-0.4103927205233364
1770450967996,126,-2,-2.2426015028728985,-0.2797863386742929,-0.4712573302620262
1770450968000,126,-2,-2.244257204629908,-0.1650196780576875,-0.46094914643442
1770450968004,126,-2,-2.0970317241114085,-0.3039544779136045,-0.3021320510594414
1770450968007,126,-2,-1.810618642146976,-0.0456857177288785,-0.003505288685907
1770450968012,127,-1,-1.5014318468435004,0.7708183621702236,0.3187320194785576
1770450968016,127,-1,-1.316260232349876,0.7645377784473455,0.5169794845498472
1770450968020,127,-1,-1.3166960336455924,0.8249119904569173,0.5289603316734723
1770450968024,127,-1,-1.4326417917872694,0.6556237569702335,0.4252505980125522
1770450968027,126,-2,-1.532429390301554,0.0276982089607402,0.3385778164097341
1770450968032,127,-1,-1.5390958817860037,0.6360786898907083,0.3460075705359566
1770450968036,127,-1,-1.4754073768167089,0.9345870320673064,0.4235732459776615
1770450968040,127,-1,-1.4016537393109298,0.6100653243541059,0.5099587592872259
1770450968043,127,-1,-1.328538743542315,0.9009328408554204,0.5949471409652063
1770450968047,127,-1,-1.2055993119959572,0.7459602183250822,0.7303968941146486
1770450968052,127,-1,-0.9906166640874008,0.8924499145152058,0.9590981821005098
1770450968056,128,0,-0.7147566096318434,1.6971727214856018,1.2489917303298257
1770450968060,128,0,-0.4701944038098895,1.8093966111295616,1.506764261634002
1770450968063,128,0,-0.3369047450175197,1.7402803341426574,1.6525033848641828
1770450968068,128,0,-0.3255232026676611,1.8485917299493784,1.6766324928594218
1770450968072,128,0,-0.3837469934350745,1.7922646706921128,1.632098752710196
1770450968076,128,0,-0.4457243551265073,1.7689226946023675,1.5842992162871243
1770450968080,128,0,-0.4753215750284554,1.7606343325098388,1.568498143936989
1770450968083,128,0,-0.47558023438713,1.771009569236719,1.5813106101201393
1770450968088,128,0,-0.4697468347021056,1.8109021826252945,1.5998455830593508
1770450968092,128,0,-0.4761115628410939,1.7911526682212158,1.6063796611206058
1770450968096,128,0,-0.4959191330470072,1.7705388608772097,1.5999475448504374
1770450968100,128,0,-0.518808738867508,1.7593111493066966,1.5907726856335167
1770450968103,128,0,-0.5358514831602754,1.7709309660393342,1.5874314231045212
1770450968108,128,0,-0.5469160527974828,1.790483861894375,1.5897917645406818
1770450968112,128,0,-0.5576604797394851,1.7830414069960492,1.592201658551646
1770450968116,128,0,-0.5720780170184463,1.772562879796744,1.590883698461581
1770450968120,128,0,-0.5889627561710957,1.7601866573736296,1.5872436450417926
1770450968123,128,0,-0.6045543176342217,1.7675082187727116,1.585045715059685
1770450968128,128,0,-0.6170679443374666,1.772787932891568,1.5859072990524836
1770450968132,128,0,-0.6282556422749501,1.7728878576690328,1.587922661960775
1770450968136,128,0,-0.6413034095479488,1.776399526259019,1.5879209775184535
1770450968139,128,0,-0.6578130573928341,1.758506842581768,1.5844675141518791
1770450968143,128,0,-0.6764544046949451,1.7665222928381874,1.579045490937222
1770450968148,128,0,-0.6937009828929023,1.7532710187689733,1.5751569221235322
1770450968152,128,0,-0.7057922015150984,1.761840194604595,1.576351423712799
1770450968156,128,0,-0.7114322440702961,1.7852814104089254,1.5836960781814944
1770450968159,128,0,-0.7148300439958943,1.7470412074119084,1.5929297197126386
1770450968164,128,0,-0.7266250353510921,1.777234965789093,1.593558516819641
1770450968168,128,0,-0.7578249452327825,1.725536840617024,1.5747722260806922
1770450968172,128,0,-0.804696305529756,1.745126323947795,1.5404862436849192
1770450968176,128,0,-0.8329934409625377,1.8260559969582189,1.5252093428247542
1770450968179,128,0,-0.7786304609421143,1.6634098018614618,1.593259406988778
1770450968184,128,0,-0.5737217442035327,1.9136013009771236,1.8121806310176596
1770450968188,129,1,-0.1845409846024719,2.5069771765141646,2.2145434126070236
1770450968192,129,1,0.3625638734257883,2.9938490490005467,2.7729468968503825
1770450968196,130,2,0.9783913356840884,3.524712192550861,3.398594574371071
1770450968199,130,2,1.530925838772071,3.9962548174742256,3.961335678781376
1770450968204,131,3,1.8932345337086505,4.565045749006847,4.33588731159059
1770450968208,131,3,2.0178921940458285,4.8169854089533475,4.47472380771751
1770450968212,131,3,1.9986980077433216,4.695963654251818,4.470039859762743
1770450968216,131,3,2.0532613881908293,4.755055999167304,4.537890967203275
1770450968219,131,3,2.4007030988162463,4.847499288543888,4.896997619567389
1770450968224,132,4,3.1021355357610236,5.615167602933527,5.6089738750844464
1770450968228,133,5,3.9877698184879007,6.845706184121546,6.50460764939937
1770450968232,134,6,4.74175018917621,7.551835257428455,7.268478797841321
1770450968235,134,6,5.0882390262408,7.96453964505209,7.625377386903824
1770450968239,134,6,4.938700024428275,7.587719211816131,7.487437515482839
1770450968244,133,5,4.4016608418967555,6.8705549420020615,6.9630933835326125
1770450968248,133,5,3.6764906433271345,6.595527167514804,6.250612185989725
1770450968252,132,4,2.9322898590008353,5.726345511701897,5.518025740167998
1770450968255,131,3,2.251836280672171,4.869582789291801,4.8481542996251346
1770450968260,131,3,1.6480820107988725,4.585026313996137,4.254716014355742
1770450968264,130,2,1.1110898119576678,3.962484717236753,3.728055643275947
1770450968268,130,2,0.6365738096979275,3.3761621626213034,3.2634251142932627
1770450968272,129,1,0.2123817674034459,3.022467599426455,2.8483818957141427
1770450968275,129,1,-0.2162833460837758,2.495193564500618,2.42869261914745
1770450968280,128,0,-0.7497206360329582,1.998891871523094,1.9049547905762736
1770450968284,128,0,-1.4699030843811831,1.5288232430094708,1.1954259134965703
1770450968288,127,-1,-2.34348091058407,0.7543144768616419,0.3329461553488173
1770450968292,126,-2,-3.1843803668337225,-0.3134484238721082,-0.4968647954940319
1770450968295,125,-3,-3.7430732485559006,-1.252649730188244,-1.0447802803311064
1770450968300,125,-3,-3.874961543894187,-1.1734403926086112,-1.1671975565986463
1770450968304,126,-2,-3.648102401977732,-0.3870352553101237,-0.9335398320870198
1770450968308,126,-2,-3.29598370279139,-0.282117178525975,-0.5767516092287559
1770450968312,126,-2,-3.062402755382488,-0.3473683197283097,-0.3370532670669466
1770450968315,126,-2,-3.063306049648873,-0.1918018251128657,-0.3267134682714745
1770450968320,126,-2,-3.2411981604841147,-0.27676805022676,-0.4890231099717468
1770450968324,126,-2,-3.4072953175582756,-0.2762515872288598,-0.6411768851268862
1770450968328,126,-2,-3.340456655841733,-0.4130942654757144,-0.5683571688134594
1770450968331,126,-2,-2.9054485611908234,-0.2333174586427784,-0.1357964978355395
1770450968335,127,-1,-2.1150621974912034,0.6926109568174152,0.6507537674213617
1770450968340,128,0,-1.0388909287147143,1.8097711917859345,1.731232918006167
1770450968344,130,2,0.4524409456185811,3.649475536218653,3.2391437071520377
1770450968348,133,5,2.9332004328191066,6.626070255979858,5.743657885322908
1770450968351,137,9,7.355291443137846,10.738400441116958,10.186363540987264
1770450968356,143,15,14.48887269455436,16.68052689578097,17.32967967830882
1770450968360,152,24,24.095448678939327,25.84306213370327,26.93404930644603
1770450968364,164,36,34.44433611331716,37.58372166555796,37.27296532401576
1770450968368,173,45,42.71330738486903,46.708722382448265,45.53103110480255
1770450968371,176,48,46.20436946962349,49.60763140542114,49.01814813000371
1770450968376,173,45,43.65338773048617,46.76631422482011,46.4760056672188
1770450968380,165,37,35.81361059039746,38.70861742892252,38.65709631239448
1770450968384,154,26,25.006708908650005,27.665225084066183,27.8749834159027
1770450968388,143,15,13.995131287496594,16.704261552612394,16.881860652607052
1770450968391,134,6,4.866633726557575,7.583798975825033,7.759582189438879
1770450968396,128,0,-1.5052504486392655,1.858689924492271,1.3826701797290826
1770450968400,125,-3,-5.299098560144714,-1.4660602827811324,-2.42111072943214
1770450968404,122,-6,-7.19752475319089,-4.142158297568516,-4.326074447986553
1770450968408,121,-7,-7.909913617734624,-5.510517397998223,-5.035883890325783
1770450968411,121,-7,-7.992744821891344,-5.20807745945905,-5.10792428032018
1770450968416,122,-6,-7.862735136667081,-4.3488052310487895,-4.965775914941006
1770450968420,122,-6,-7.805206353983468,-4.3412410417209415,-4.901221415559461
1770450968424,121,-7,-7.938899211573876,-5.217090137413371,-5.033369202695765
1770450968428,121,-7,-8.224837365284262,-5.52651481953519,-5.318825580329164
1770450968431,121,-7,-8.546280766853005,-5.114343881232336,-5.637441981575937
1770450968436,121,-7,-8.788867408301964,-5.532949060552677,-5.875367872555293
1770450968440,120,-8,-8.87154926431796,-6.124927841468306,-5.9539905103491515
1770450968444,121,-7,-8.753628382585415,-5.470499229086975,-5.8340509719197575
1770450968447,121,-7,-8.450648544790198,-5.291525310869192,-5.530680057600553
1770450968452,121,-7,-8.048288913341612,-5.329716084950184,-5.128109093810394
1770450968456,122,-6,-7.681864237517729,-4.377157934603668,-4.760429284226946
1770450968460,122,-6,-7.469711685528326,-4.240696515965079,-4.545778492206843
1770450968464,122,-6,-7.434081288241219,-4.447139350856187,-4.507119914823677
1770450968467,122,-6,-7.473304849838455,-4.246115136514732,-4.543778476792181
1770450968472,122,-6,-7.421515910266714,-4.467874721021261,-4.490612060055641
1770450968476,122,-6,-7.161382747470501,-4.180715613007379,-4.230415481952242
1770450968480,123,-5,-6.706838784713915,-3.506915183819996,-3.7765841606119848
1770450968484,123,-5,-6.191248890603287,-3.162404047624707,-3.261617722806921
1770450968487,124,-4,-5.767983593795593,-2.56130655578266,-2.8382780165500887
1770450968492,124,-4,-5.4996881926850705,-2.163780272854953,-2.569233292914747
1770450968496,124,-4,-5.323725532656596,-2.4904503185273006,-2.3924829224459883
1770450968500,124,-4,-5.1189658029001945,-2.2450927604046176,-2.187827998027174
1770450968504,125,-3,-4.8120569370865605,-1.3920800918489826,-1.8823961283980108
1770450968507,125,-3,-4.432268975053827,-1.4029889151337729,-1.504695536153697
1770450968512,125,-3,-4.0768627585430135,-1.2656727839492734,-1.1505247001410184
1770450968516,126,-2,-3.819820302871405,-0.4666829877780736,-0.8935490963917756
1770450968520,126,-2,-3.632869312069696,-0.2467507359776579,-0.7069026575610176
1770450968524,126,-2,-3.38923162718258,-0.4350074957704848,-0.4651066637120968
1770450968527,126,-2,-2.971226104097004,-0.3542800628000324,-0.0501314115972264
1770450968532,127,-1,-2.399980455102489,0.6666802839027286,0.5180034596368157
1770450968536,128,0,-1.850926422701983,1.592278441077795,1.064254314927606
1770450968540,128,0,-1.5138232792553024,1.6587932609849785,1.3987025485842244
1770450968543,128,0,-1.4190152441516393,1.6736811678913155,1.4911487476552912
1770450968547,128,0,-1.3943981710008992,1.4782975029825072,1.513906346446234
1770450968552,128,0,-1.1929064325432008,1.8618587062333187,1.71356097152756
1770450968556,129,1,-0.6781017659506875,2.346270346679314,2.2255406218210254
1770450968560,129,1,0.0830706594216259,2.9147371788495597,2.982261624974518
1770450968563,131,3,0.884926720088417,4.410321445023765,3.778413919066066
1770450968568,131,3,1.541552544041976,4.691738713777121,4.42941182872263
1770450968572,131,3,2.006592225062274,4.67631747999108,4.890255173526788
1770450968576,132,4,2.369894712578471,5.449940659378646,5.25080580134669
1770450968580,132,4,2.763202642945502,5.865729764590049,5.641290910313294
1770450968583,133,5,3.269080158123735,6.387845970389521,6.142900392978152
1770450968588,133,5,3.889657266623805,6.7493175114805055,6.757960968141846
1770450968592,134,6,4.5698188150096986,7.571697822316086,7.432387084194743
1770450968596,135,7,5.244740976833856,8.528054845689422,8.101665515258118
1770450968600,135,7,5.877664576788834,8.809872686905171,8.728597034739513
1770450968603,136,8,6.458272818789754,9.373609540575773,9.302806733356007
1770450968608,136,8,6.966175321798871,9.824948325899795,9.804520542966388
1770450968612,137,9,7.348790188195776,10.39179825899384,10.181571580196575
1770450968616,137,9,7.555888399886235,10.75712672002741,10.3833476368892
1770450968620,137,9,7.606111486436385,10.522077704825724,10.427774004313283
1770450968623,137,9,7.610203171180652,10.670713085765206,10.425317462269408
1770450968628,137,9,7.707585864458627,10.519454129056705,10.515652375256446
1770450968632,137,9,7.960303645770287,10.640002735335363,10.76102444978732
1770450968636,138,10,8.300828989405208,11.538426801807327,11.093757635033928
1770450968639,138,10,8.587367574181378,11.686051427374656,11.372114507740696
1770450968643,138,10,8.718671761120842,11.533137230366972,11.495593693129242
1770450968648,138,10,8.706270756388648,11.610662379476556,11.47641196126352
1770450968652,138,10,8.65019385674027,11.533772061648014,11.4140804640994
1770450968656,138,10,8.651152875992672,11.614095824445045,11.407895966463965
1770450968659,138,10,8.729237503418826,11.627591475395787,11.477218286589036
1770450968664,138,10,8.798699399409532,11.551752637161698,11.536957308005537
1770450968668,138,10,8.712476414995031,11.611249232671678,11.441082726506057
1770450968672,138,10,8.354430301311915,11.452535937869584,11.073846058019589
1770450968676,137,9,7.7199790079687265,10.725175723971793,10.430796008529509
1770450968679,136,8,6.918432534966129,9.472198042028127,9.62163232035032
1770450968684,135,7,6.08984664457158,8.720071965866477,8.786162902199173
1770450968688,135,7,5.311965379625168,8.41858793932638,8.00036746621046
1770450968692,134,6,4.57703336235561,7.59489980185271,7.254694021182068
1770450968696,133,5,3.832132002805636,6.616040701881229,6.496948752013869
1770450968699,132,4,3.017509737085276,5.510303369722749,5.670440904224531
1770450968704,131,3,2.081234266302936,4.740105254867941,4.725293158687046
1770450968708,131,3,1.009885068337737,4.293539648191551,3.6468614478834582
1770450968712,129,1,-0.1176110339462948,2.7759305927645475,2.5112877321934493
1770450968716,128,0,-1.1244783067753366,1.3516604754872288,1.494154926712636
1770450968719,127,-1,-1.8335539441626831,0.8210253112223487,0.7735722829202905
1770450968724,127,-1,-2.2025694261847635,0.3789747976525002,0.3929818961599451
1770450968728,127,-1,-2.3647059627176454,0.6299110341052205,0.2194293296711549
1770450968732,127,-1,-2.525010424923097,0.4675089635858855,0.0478419892882311
1770450968735,126,-2,-2.8036816216032405,-0.4339987250715604,-0.2415928995116991
1770450968739,126,-2,-3.159852410269586,-0.312247430986134,-0.607798455594625
1770450968744,126,-2,-3.4463375730004837,-0.6135278318532467,-0.9041490719933312
1770450968748,125,-3,-3.537843186696497,-1.311277914735557,-1.0062111704409549
1770450968752,126,-2,-3.429717426630692,-0.662103642576156,-0.9097732982605856
1770450968755,126,-2,-3.2344840347898267,-0.2812481351625546,-0.7271386444391079
1770450968760,126,-2,-3.0867033031199553,-0.4991621026208781,-0.5920143330793004
1770450968764,126,-2,-3.0440013356308975,-0.4524239810804613,-0.5610102601575992
1770450968768,126,-2,-3.0672782565622483,-0.4835811431233736,-0.5948476115106125
1770450968772,126,-2,-3.0814867099370593,-0.5234834646817124,-0.6195700948474765
1770450968775,126,-2,-3.051099383701808,-0.4110657065732748,-0.6010335133839781
1770450968780,126,-2,-3.008540663445628,-0.3954552652738692,-0.5719150667554058
1770450968784,126,-2,-3.0219699662731068,-0.5819413725440015,-0.5991912479701944
1770450968788,126,-2,-3.131511635293389,-0.3672956586135534,-0.7213816340386927
1770450968792,126,-2,-3.300608372395215,-0.6711353419982817,-0.9012258670284176
1770450968795,125,-3,-3.41977632607268,-1.2632328420244527,-1.0301770101622605
1770450968800,126,-2,-3.3651833792974197,-0.5606808585350809,-0.986551276151152
1770450968804,126,-2,-3.0771377337318513,-0.4458026943151716,-0.7122357009896914
1770450968808,126,-2,-2.6143308627068156,-0.5175839481629989,-0.2651806702793149
1770450968812,127,-1,-2.1510530383410256,0.4558647414325263,0.1829217309335153
1770450968815,127,-1,-1.8996106709918712,0.6046106795740842,0.4217096797479143
1770450968820,127,-1,-1.979197885111566,0.544309662010388,0.3315025708672008
1770450968824,127,-1,-2.3141248737793108,0.4309773110434536,-0.0140939545135589
1770450968828,126,-2,-2.65921673001595,-0.417528417051435,-0.3713349007943882
1770450968831,126,-2,-2.765531439071669,-0.6773536352740659,-0.4910308370389924
1770450968835,126,-2,-2.5692417514067647,-0.2392434934445204,-0.3085349625304514
1770450968840,127,-1,-2.2407355600009473,0.3312029460304539,0.0058283075603793
1770450968844,127,-1,-2.042282826311421,0.6690185303568204,0.1895216223093303
1770450968848,127,-1,-2.118970072312221,0.2850720978993066,0.0981644694977976
1770450968851,126,-2,-2.4069691894427816,-0.3926630085267737,-0.2029418194732959
1770450968856,126,-2,-2.720486577585032,-0.5337693980753802,-0.5276205719116871
1770450968860,126,-2,-2.909625814739052,-0.413331744100669,-0.7276262870613404
1770450968864,126,-2,-2.9432731313946587,-0.5570743335167059,-0.774027001841834
1770450968868,126,-2,-2.877779302403158,-0.5580448038521317,-0.7237108465819782
1770450968871,126,-2,-2.7827915114025035,-0.5221994173089644,-0.6448616576710853
1770450968876,126,-2,-2.703112823228588,-0.4858944071312936,-0.5802987382969258
1770450968880,126,-2,-2.669064313524391,-0.4186607358435732,-0.5594105568885495
1770450968884,126,-2,-2.7143731383463967,-0.6130667533511276,-0.6165806517191323
1770450968888,126,-2,-2.86398336603204,-0.482838283054301,-0.7783928312791677
1770450968891,126,-2,-3.10009240841963,-0.6473288648618127,-1.0282562715905723
1770450968896,125,-3,-3.3542095854338707,-1.3820594103759891,-1.2973353754581305
1770450968900,125,-3,-3.5551010879870533,-1.52361103187237,-1.512982603057298
1770450968904,125,-3,-3.694058927929445,-1.544400510754142,-1.6657087098622716
1770450968908,125,-3,-3.833006892937611,-1.5387073175024877,-1.8180459459635403
1770450968911,125,-3,-4.036956599469635,-1.648206879032332,-2.0358824864977354
1770450968916,124,-4,-4.300055372216761,-2.374708942781272,-2.3132418918720097
1770450968920,124,-4,-4.543789238245748,-2.5800471920928603,-2.5708636827885134
1770450968924,124,-4,-4.685287059457626,-2.476276554354783,-2.7257505418514008
1770450968928,124,-4,-4.703411323803627,-2.6419455879812337,-2.757445663854438
1770450968931,124,-4,-4.645402794800868,-2.556215779148688,-2.7137175616211193
1770450968936,124,-4,-4.581466700035637,-2.4864363037697297,-2.6645314160033755
1770450968940,124,-4,-4.553975840424018,-2.5084949404864085,-2.6516159536105817
1770450968944,124,-4,-4.5594801676923575,-2.539671676839245,-2.6711078386544664
1770450968947,124,-4,-4.568803155958458,-2.6211870374010076,-2.6939079070405705
1770450968952,124,-4,-4.560835499989269,-2.574526399905054,-2.699363381709748
1770450968956,124,-4,-4.538858984902246,-2.5064848262538724,-2.691267869773512
1770450968960,124,-4,-4.519029893693409,-2.504293733402211,-2.685929153318978
1770450968964,124,-4,-4.509142706723799,-2.560492743147854,-2.6907349532411997
1770450968967,124,-4,-4.502425684369268,-2.621175850463761,-2.698284383076854
1770450968972,124,-4,-4.489950339976066,-2.590543971883847,-2.699450531386493
1770450968976,124,-4,-4.472828050974531,-2.5189379713058297,-2.6958341363090077
1770450968980,124,-4,-4.458713602857806,-2.50964813504557,-2.695748360919052
1770450968984,124,-4,-4.4497308054521385,-2.5739170737042465,-2.701384263467168
1770450968987,124,-4,-4.439906111976425,-2.6244661247391257,-2.7061344244204744
1770450968992,124,-4,-4.425409849366116,-2.6094414494181732,-2.705535528393242
1770450968996,124,-4,-4.411615730924969,-2.5258552025142533,-2.7050420530438366
1770450969000,124,-4,-4.404807037268636,-2.5190133635679235,-2.711651953625233
1770450969004,124,-4,-4.399181884021597,-2.5870374217101193,-2.7201606155391307
1770450969007,124,-4,-4.380113507761817,-2.6229565199336693,-2.715844652551613
1770450969012,124,-4,-4.345336258951178,-2.639831381625407,-2.6958051825839866
1770450969016,124,-4,-4.31873210868387,-2.5199909456757252,-2.6833753128521174
1770450969020,124,-4,-4.331943098489934,-2.534036633174532,-2.710154339394886
1770450969024,124,-4,-4.382058056857341,-2.6108979397233827,-2.773584073939201
1770450969027,124,-4,-4.405605929444967,-2.5832427900488177,-2.8105326795338472
1770450969032,124,-4,-4.303548889359837,-2.74867031208486,-2.7220644074365863
1770450969036,124,-4,-4.008112053721936,-2.38894868400555,-2.440419998342477
1770450969040,125,-3,-3.539922509780904,-1.7245003543823516,-1.9863331368867052
1770450969043,125,-3,-3.007133934777976,-1.4041358968973772,-1.4680155736700125
1770450969047,126,-2,-2.546248620564119,-0.8261593476935696,-1.0217436651341774
1770450969052,126,-2,-2.2499899166142305,-0.5304038243515206,-0.7397800546753301
1770450969056,126,-2,-2.1314003255961893,-0.6253611698627279,-0.6347818187625509
1770450969060,126,-2,-2.139421871481833,-0.5295112114218643,-0.6556923988493559
1770450969063,126,-2,-2.201911964449148,-0.5825899473193488,-0.7308503361563261
1770450969068,126,-2,-2.2590585039350057,-0.6992595599403364,-0.8011488664438295
1770450969072,126,-2,-2.270275977833577,-0.6515095000296753,-0.8264011451447033
1770450969076,126,-2,-2.207224636637289,-0.5519653243367788,-0.7779191797677187
1770450969080,126,-2,-2.0549020461930523,-0.6179911179769328,-0.6398083203381137
1770450969083,126,-2,-1.823319024972335,-0.4971016610986329,-0.4215790377536619
1770450969088,127,-1,-1.5476335905094811,0.171745658995333,-0.1588891242758519
1770450969092,127,-1,-1.2631529657453386,0.4851623730088497,0.1122227650884504
1770450969096,127,-1,-0.9804325266735296,0.2518417450111585,0.3813606365665358
1770450969100,127,-1,-0.6944339540376059,0.5804890843054364,0.6542004343160366
1770450969103,128,0,-0.4157161227563049,1.277111454190109,0.9199741039451428
1770450969108,128,0,-0.1796989219115916,1.3724038096980284,1.1423301710432396
1770450969112,128,0,-0.0237173474841672,1.2842413351126871,1.283816035398934
1770450969116,128,0,0.0362385284505726,1.396724293071535,1.3296268383365293
1770450969120,128,0,0.0099239542848801,1.4388299929974044,1.290628565413393
1770450969123,128,0,-0.0677007793745938,1.3755466490667692,1.2014587565789812
1770450969128,128,0,-0.1327246297137487,1.276496001969866,1.124577287147452
1770450969132,128,0,-0.1028884106844618,1.3511096367386108,1.1411485918953008
1770450969136,128,0,0.0794619848155067,1.3029829396564387,1.3091004673076747
1770450969139,128,0,0.3934358911210291,1.509794134329999,1.6087433081883535
1770450969143,129,1,0.7296976825224226,2.2786797779736103,1.9316182468758627
1770450969148,129,1,0.9565475730474328,2.37186067076824,2.1459129301338664
1770450969152,129,1,1.0225447156414986,2.2175576606627283,2.19946185428935
1770450969156,129,1,1.0109914786126348,2.425981635861932,2.175047072202844
1770450969159,129,1,1.0953734594879587,2.3347624558324354,2.2464326174922835
1770450969164,129,1,1.425927527972965,2.4540200929439635,2.5647062335775046
1770450969168,130,2,2.03555156497426,3.1786150431374462,3.162998028286556
1770450969172,131,3,2.8398095826730936,4.389342848317857,3.955693367685176
1770450969176,132,4,3.7195487378911345,5.240118734163548,4.822160749216796
1770450969179,132,4,4.5895957234860445,5.460891869635742,5.6773325272794075
1770450969184,133,5,5.37801901244771,6.342082938074081,6.451038072996327
1770450969188,134,6,5.959898905303597,7.23370275379306,7.019924723384852
1770450969192,134,6,6.160457688020023,7.358607582314736,7.209212892380904
1770450969196,134,6,5.8671642894131155,7.207185325359893,6.905216450397139
1770450969199,133,5,5.15497544293112,6.491849240870935,6.181842171625053
1770450969204,132,4,4.2883301689931725,5.264589966755498,5.303271091946416
1770450969208,131,3,3.5657544036392643,4.298955894597421,4.568239773943116
1770450969212,131,3,3.122405352995491,4.293634872242842,4.1120075234190265
1770450969216,131,3,2.8553738951825913,4.224208814257255,3.831774271388245
1770450969219,130,2,2.530788319899599,3.491000422069299,3.4941925437972756
1770450969224,130,2,1.9754948925384543,3.181030217415041,2.9266728667359314
1770450969228,129,1,1.1976786520859748,2.4204018246075103,2.1372551934492576
1770450969232,128,0,0.3537600281009126,1.0833902833371376,1.2816654054698569
1770450969235,127,-1,-0.3941411320704567,0.4869934181743991,0.5216913472588063
1770450969239,127,-1,-1.0014464623408474,0.1387638140976124,-0.0976217318502994
1770450969244,126,-2,-1.539484299283869,-0.436047401715077,-0.6468645727381699
1770450969248,126,-2,-2.0806923487574625,-1.028939316551452,-1.1984682865331733
1770450969252,125,-3,-2.588628233451816,-1.458320735965331,-1.7171850833508635
1770450969255,125,-3,-2.9266428528584116,-2.008394834560285,-2.067847440959963
1770450969260,124,-4,-2.989312611701206,-2.3967888371706727,-2.1450581113409672
1770450969264,125,-3,-2.8389073983033,-1.897397685774304,-2.0089622268468226
1770450969268,125,-3,-2.703036353909192,-1.6369965457713982,-1.8843678699124249
1770450969272,125,-3,-2.799890799495997,-1.7977404644233943,-1.9886422007750055
1770450969275,125,-3,-3.122588762283818,-1.7873624927921683,-2.317534703144497
1770450969280,124,-4,-3.3815466638256972,-2.5388420769313624,-2.5861279813844646
1770450969284,124,-4,-3.188885117798,-2.9045504713479344,-2.409551574788915
1770450969288,125,-3,-2.346856342314463,-1.5272372228036668,-1.5881699010780934
1770450969292,127,-1,-0.9707286053431144,-0.0208579309337162,-0.2305844405346162
1770450969295,128,0,0.713959890625933,1.486950129777676,1.4445676687391489
1770450969300,131,3,2.7718370264714856,4.12904175920603,3.502877263216578
1770450969304,134,6,5.793969595783484,7.379102981675508,6.5285896816259745
1770450969308,138,10,10.637502406500408,11.208224520936568,11.369375904301602
1770450969312,144,16,17.680845238272102,17.174806948364655,18.398537543617408
1770450969315,153,25,26.078223030964217,26.339850324776496,26.771944720384987
1770450969320,162,34,33.68169562277403,35.20579819759541,34.34788771779384
1770450969324,166,38,37.90027824425121,39.289550447026606,38.54322950869805
1770450969328,165,37,37.03480467038318,38.254183995690255,37.66530412547654
1770450969331,159,31,31.208999632909073,32.04994413256351,31.839473105531397
1770450969335,149,21,22.28668802881031,22.45620623631789,22.92448420908887
1770450969340,140,12,12.87485420963331,13.034925821635952,13.517890570017336
1770450969344,132,4,5.09431709094354,5.515919480603992,5.732173297285675
1770450969348,128,0,-0.1443547004512551,1.0099985605917527,0.4755839282653964
1770450969351,125,-3,-3.069966522896558,-1.7007450020558128,-2.475528106843188
1770450969356,123,-5,-4.4608226843497985,-3.838268384787062,-3.890001768493657
1770450969360,122,-6,-5.058243057989703,-4.722471203837687,-4.501678690501212
1770450969364,122,-6,-5.3129813591735635,-4.729573265319083,-4.760796876939205
1770450969368,122,-6,-5.432872703897349,-4.7793257803405025,-4.881124414394833
1770450969371,122,-6,-5.51301394517568,-4.916962062831258,-4.964844043186952
1770450969376,122,-6,-5.597125553489146,-4.6635656065038305,-5.058724450836662
1770450969380,122,-6,-5.675924537227182,-4.9463349328378685,-5.1513435484957455
1770450969384,121,-7,-5.700818396839131,-5.51359311819487,-5.189719825195918
1770450969388,122,-6,-5.640369875671462,-5.014831879677173,-5.139797349420542
1770450969391,122,-6,-5.52495177542997,-4.696801238893267,-5.032686848752672
1770450969396,122,-6,-5.424066013500697,-4.9042779968522625,-4.940217181868853
1770450969400,122,-6,-5.377969580591096,-4.773817265366667,-4.903887474742883
1770450969404,122,-6,-5.355994806526267,-4.666773896420958,-4.892307731898425
1770450969408,122,-6,-5.281798580528715,-4.927395466570497,-4.8276558536579754
1770450969411,122,-6,-5.096410214641951,-4.749850151062207,-4.6505122337735845
1770450969416,123,-5,-4.795475775306984,-3.917620846131373,-4.357665668405417
1770450969420,123,-5,-4.410803620600126,-3.7845747989302474,-3.9823214289009097
1770450969424,123,-5,-3.972388481352065,-3.668277192825171,-3.5544380612849897
1770450969428,124,-4,-3.503394514474209,-2.975303691359568,-3.0958120190878207
1770450969431,124,-4,-3.044613977273109,-2.671445055476272,-2.646174984088735
1770450969436,125,-3,-2.656941029657797,-2.085518412681729,-2.26662936827059
1770450969440,125,-3,-2.378969495734093,-1.5936585735707305,-1.9965605220942504
1770450969444,125,-3,-2.1821398115795323,-1.9271772615741,-1.8078130830471708
1770450969447,125,-3,-1.9795864291259084,-1.7164008363953087,-1.6136380743323708
1770450969452,126,-2,-1.688936908472371,-0.938778646675346,-1.3319248593429085
1770450969456,126,-2,-1.295881316184666,-0.8889385060293946,-0.9483368925001538
1770450969460,126,-2,-0.870572633602656,-0.7572889838781427,-0.5322614969062371
1770450969464,127,-1,-0.5257798540526997,0.1388118023225286,-0.1957566734133713
1770450969467,127,-1,-0.3383093782079535,0.2701251196871101,-0.0159387543676676
1770450969472,127,-1,-0.2856259948043197,-0.017966815501847,0.0288799342381236
1770450969476,127,-1,-0.2558602095495879,0.2206938657002775,0.0503998615847161
1770450969480,127,-1,-0.1352320593499356,0.0604745235465353,0.1630449592087108
1770450969484,127,-1,0.1006520119703026,0.3115338488263861,0.3915503415523582
1770450969487,128,0,0.3785809095216789,1.0920590498759934,0.6620040082941346
1770450969492,128,0,0.6110307630951018,1.105820197280076,0.8860116461519054
1770450969496,128,0,0.7836821678907825,1.1117633168174132,1.04966061933899
1770450969500,128,0,0.9545710803313738,1.0900514654158,1.212489954948802
1770450969504,128,0,1.1731007052340736,1.2854843593798726,1.424585204997835
1770450969507,129,1,1.4191966747349265,2.0816884723363067,1.664650988522306
1770450969512,129,1,1.6331841653906896,2.1127569942765883,1.8713359289047904
1770450969516,129,1,1.7933069009476394,2.0677880960235147,2.022896403336465
1770450969520,129,1,1.9443970251569207,2.1049650405507903,2.1657894801470414
1770450969524,129,1,2.149901142304679,2.2229333004263987,2.364588328307513
1770450969527,130,2,2.432400093486419,3.1390540889248415,2.641302461141364
1770450969532,130,2,2.7675650714807825,3.0477614653512703,2.9703532550010774
1770450969536,130,2,3.122113967113749,3.084195225896005,3.317887558989777
1770450969540,131,3,3.48447735644741,4.090935751599544,3.6725541056080377
1770450969543,131,3,3.861607552452058,4.13274375146308,4.041975919249267
1770450969547,131,3,4.252451485658119,4.292033727580643,4.426044491621001
1770450969552,132,4,4.627064570205054,4.809692227044291,4.795251846866757
1770450969556,132,4,4.942462780673393,5.362998156398492,5.1056504965107194
1770450969560,133,5,5.193812118591573,5.714590972899782,5.3508407183177775
1770450969563,132,4,5.444809803701697,5.50598801045081,5.594405091458174
1770450969568,133,5,5.7820160795253654,5.8928970893063,5.924651201506566
1770450969572,133,5,6.223734686686652,6.185875891856867,6.361225576559632
1770450969576,134,6,6.686216651778187,6.991184504487803,6.819307902907289
1770450969580,135,7,7.0588918405159555,8.002725092097688,7.186177701000644
1770450969583,134,6,7.3080369693634095,7.233470920904858,7.427989248462082
1770450969588,134,6,7.483780485943927,7.0945479268576,7.597090455411355
1770450969592,135,7,7.624623039831253,8.007641571403205,7.733419717902984
1770450969596,135,7,7.685467885439726,8.120559099234296,7.79059195510606
1770450969600,135,7,7.578056148109529,7.838686802858545,7.678267247583062
1770450969603,134,6,7.264502169192363,7.396127182247147,7.358385951905625
1770450969608,134,6,6.788657131508877,6.8558477969800204,6.876385348755363
1770450969612,133,5,6.21895943474373,6.272680554666282,6.3018711476903615
1770450969616,133,5,5.577887281015322,5.796542335536264,5.656890223979698
1770450969620,132,4,4.8341997049034235,5.147933601822215,4.9090337603869045
1770450969623,131,3,3.956278638849012,4.0743460386309,4.02620018887281
1770450969628,130,2,2.9629984020391493,3.1036189757543076,3.027791266066751
1770450969632,129,1,1.9204565173291703,2.057829703727879,1.9806528368587488
1770450969636,128,0,0.8925914096041403,0.9240596491896552,0.9488824138779662
1770450969639,127,-1,-0.1033930953924686,0.0525497739928961,-0.0508504234271431
1770450969643,126,-2,-1.0945797931003,-0.8967155232207813,-1.046315231978483
1770450969648,125,-3,-2.1066909533317544,-1.9414149890152383,-2.0633234419778894
1770450969652,124,-4,-3.1197161989248645,-2.9183351877658046,-3.0810521021165744
1770450969656,123,-5,-4.0661962408817915,-4.146458311936574,-4.031020579356684
1770450969659,122,-6,-4.868591439284554,-4.873722783412771,-4.835680951965012
1770450969664,122,-6,-5.47481506875404,-5.027779011922757,-5.44419988278492
1770450969668,121,-7,-5.86613203632717,-5.808859970391444,-5.839039827652558
1770450969672,121,-7,-6.054726264582816,-6.1107040869325004,-6.032225652024612
1770450969676,121,-7,-6.09302845521336,-5.942366269064378,-6.0750539998592705
1770450969679,121,-7,-6.078101100683809,-6.148782297023485,-6.063827844762869
1770450969684,121,-7,-6.119096985595454,-5.741892061976861,-6.107777206776527
1770450969688,121,-7,-6.275702040007138,-6.146859735857543,-6.2668677265579955
1770450969692,120,-8,-6.517423750901808,-6.79695933925066,-6.510687226054125
1770450969696,121,-7,-6.74080274828064,-6.27290897472646,-6.735971214985603
1770450969699,120,-8,-6.832046965035505,-6.868953276795381,-6.82940579223063
1770450969704,120,-8,-6.731400894233915,-7.025271027844062,-6.731612000896921
1770450969708,121,-7,-6.459993194576647,-5.9006986745146754,-6.463548539496385
1770450969712,121,-7,-6.097335761459026,-6.064603511740648,-6.103961666370568
1770450969716,121,-7,-5.731927335301666,-6.045379566650788,-5.740660617553582
1770450969719,122,-6,-5.418841904843923,-5.11130296638609,-5.42906361271954
1770450969724,122,-6,-5.161598293413699,-4.830917478289235,-5.1737475813038065
1770450969728,122,-6,-4.925413304363331,-5.099143029659869,-4.940084360862143
1770450969732,122,-6,-4.680701325085627,-4.911297334568996,-4.697368342898128
1770450969735,123,-5,-4.441057301335413,-4.21519663613887,-4.458546039604053
1770450969739,123,-5,-4.245908525449666,-3.990193234789352,-4.263997124756466
1770450969744,123,-5,-4.099289560544374,-3.952180530332493,-4.118997243259512
1770450969748,123,-5,-3.943817017112969,-4.0302940033767385,-3.965987195858392
1770450969752,123,-5,-3.716176158664457,-3.9806699840869335,-3.740413710741024
1770450969755,124,-4,-3.427284599251774,-3.2148195874405805,-3.452530787898193
1770450969760,124,-4,-3.1711942849270653,-2.9806658359727463,-3.196882641815303
1770450969764,124,-4,-3.044194824962874,-3.0204046004368363,-3.0705453266593112
1770450969768,124,-4,-3.054259642636312,-2.946977532629231,-3.0817340555619412
1770450969772,124,-4,-3.109886254018474,-3.143064882509357,-3.1385797457016515
1770450969775,124,-4,-3.099084482149218,-3.052826119131527,-3.128463703837839
1770450969780,124,-4,-2.987563656690048,-3.1935431486118007,-3.016810242076901
1770450969784,124,-4,-2.846921273589087,-2.807995364293422,-2.875875865410804
1770450969788,125,-3,-2.7839388596247088,-2.1890589509433807,-2.813598280887027
1770450969792,124,-4,-2.8388374254942565,-2.9427026777736307,-2.870330509372704
1770450969795,124,-4,-2.9574723775796095,-3.2874287650083045,-2.990499806086349
1770450969800,124,-4,-3.061365822833949,-2.990541722020978,-3.0942126552734406
1770450969804,124,-4,-3.1263679340241417,-3.026646199988181,-3.1575774953563354
1770450969808,124,-4,-3.178295630632377,-2.9934501444637736,-3.2079579308722077
1770450969812,124,-4,-3.221741874383539,-3.1622317577290184,-3.2511174418922004
1770450969815,124,-4,-3.1977424256995963,-3.1308322152920622,-3.22793803826293
1770450969820,124,-4,-3.030162400927418,-3.150626529478058,-3.061213110212295
1770450969824,124,-4,-2.71963578216542,-2.919092986229668,-2.7506619544319317
1770450969828,125,-3,-2.384896039812891,-2.081985500554876,-2.415038398647188
1770450969831,125,-3,-2.194183949337514,-2.1353967173229487,-2.2233993767715923
1770450969835,125,-3,-2.2357765580070277,-2.185709902836676,-2.2646988160705455
1770450969840,125,-3,-2.4426797134655382,-2.1317812685559474,-2.4715624248044685
1770450969844,124,-4,-2.64478395588129,-2.976349712481689,-2.672612287296205
1770450969848,124,-4,-2.7060199319803884,-3.0113858774649502,-2.731214571407519
1770450969851,125,-3,-2.619823857967071,-2.273258656421159,-2.6422635745072425
1770450969856,125,-3,-2.4770894945569086,-2.041390655759451,-2.4988512824823648
1770450969860,125,-3,-2.3599809731424184,-2.3616024390017145,-2.3832289908547284
1770450969864,124,-4,-2.2911742702818634,-2.7165477979349335,-2.3156177901745134
1770450969868,125,-3,-2.2786314574980127,-2.347143396730281,-2.301893535765548
1770450969871,125,-3,-2.362477112777579,-1.9320799464176008,-2.3827044293304085
1770450969876,125,-3,-2.5783341401409707,-2.425792870771174,-2.5955475737437417
1770450969880,124,-4,-2.8794081563380884,-3.0293762871251415,-2.8944910572168423
1770450969884,124,-4,-3.1238041637990746,-3.024142506369025,-3.137276900479069
1770450969888,124,-4,-3.159997845961352,-3.1468406354500065,-3.1720951292053714
1770450969891,124,-4,-2.9394781011394455,-3.0744942859797257,-2.950649903836692
1770450969896,125,-3,-2.561913956841814,-2.385755573914121,-2.572572395735766
1770450969900,125,-3,-2.2163562563931616,-2.0447953594917303,-2.226144673676602
1770450969904,125,-3,-2.061985427556418,-2.067373652719522,-2.0697220186935743
1770450969908,125,-3,-2.133110056177692,-2.141629026570422,-2.137841365182991
1770450969911,125,-3,-2.329997428365977,-2.0823307239884814,-2.331998301472937
1770450969916,125,-3,-2.4972409718815274,-2.4498017172770874,-2.4975156091380715
1770450969920,124,-4,-2.5358455455893543,-2.955150941203351,-2.5347073411116727
1770450969924,125,-3,-2.4656974794004665,-2.2395201368642725,-2.4624480751486613
1770450969928,125,-3,-2.38111974710235,-1.9539045274152824,-2.3751654906046347
1770450969931,125,-3,-2.3363133597356147,-2.3412744505732617,-2.32792824072846
1770450969936,125,-3,-2.278887337724276,-2.1852494591520424,-2.268634779469907
1770450969940,125,-3,-2.109873220175974,-2.2732748207742643,-2.0977831936960136
1770450969944,125,-3,-1.813336409011166,-1.9496282517022467,-1.7990685269210152
1770450969947,126,-2,-1.5165724477056626,-1.2616316443535356,-1.5001799459983358
1770450969952,126,-2,-1.4060320397988109,-1.083034016486553,-1.388007445737755
1770450969956,126,-2,-1.5695798944176254,-1.4371055345997823,-1.5499004585750686
1770450969960,125,-3,-1.9111210056081251,-2.100274184978595,-1.8886376674202392
1770450969964,125,-3,-2.2127266121283986,-2.118045899407823,-2.186002771023503
1770450969967,125,-3,-2.284220078364685,-2.164172489765678,-2.2530083673391403
1770450969972,125,-3,-2.078523584738164,-2.158534348148105,-2.0442452528583352
1770450969976,126,-2,-1.7003202451891342,-1.4174955924420485,-1.6650854060359788
1770450969980,126,-2,-1.3259702708810983,-1.1336090422442897,-1.2909813891462212
1770450969984,126,-2,-1.1070119567404346,-1.1444740757864618,-1.0715541834999258
1770450969987,126,-2,-1.1171601376833062,-1.161868977747299,-1.079054034851741
1770450969992,126,-2,-1.347007308898398,-1.1821218286019626,-1.3042792518492878
1770450969996,126,-2,-1.7156910501089395,-1.4232860560974157,-1.6679748186955718
1770450970000,125,-3,-2.088117361738142,-2.154566803318802,-2.0365916172812413
1770450970004,125,-3,-2.3151684859903683,-2.1739300853965577,-2.2614076957142153
1770450970007,125,-3,-2.300180380183398,-2.1575266838752,-2.245098039248066
1770450970012,125,-3,-2.055775853085492,-2.2078852761555137,-1.9993314200224583
1770450970016,126,-2,-1.7035530991070844,-1.4242624165319506,-1.6451400770349265
1770450970020,126,-2,-1.4042073582652743,-1.1739692329441704,-1.343209115239324
1770450970024,126,-2,-1.2615317368033914,-1.2242369850009382,-1.1975774501097851
1770450970027,126,-2,-1.270323257274537,-1.1120083304687651,-1.203248353994971
1770450970032,126,-2,-1.3443809522385204,-1.3050962354673938,-1.2741563062205037
1770450970036,126,-2,-1.3952351537972485,-1.330607092104272,-1.3219638869750905
1770450970040,126,-2,-1.3950935445025707,-1.3009795663131265,-1.3190567753367344
1770450970043,126,-2,-1.377114066264771,-1.1578292978365097,-1.2987981341923902
1770450970047,126,-2,-1.382303020865917,-1.1740415328648297,-1.30219682228131
1770450970052,126,-2,-1.4080180010095755,-1.3231545758643568,-1.326119645826012
1770450970056,126,-2,-1.4075503414252564,-1.2679217104438294,-1.323086870555083
1770450970060,126,-2,-1.3365439368025889,-1.4715531262285664,-1.2485429543559
1770450970063,126,-2,-1.193261141646052,-0.957434138000998,-1.1016369072292185
1770450970068,127,-1,-1.010879331631365,-0.4673361475853035,-0.9166859065642634
1770450970072,126,-2,-0.8207692245073979,-1.0074128490221712,-0.7251006668761495
1770450970076,127,-1,-0.6381254358597914,-0.6378099956908145,-0.5410373702651499
1770450970080,127,-1,-0.4810256895127396,-0.1276100966562829,-0.381789647695764
1770450970083,127,-1,-0.3831862726161354,-0.3363190050069022,-0.2812092196909672
1770450970088,127,-1,-0.3730369579770796,-0.1481700883332297,-0.2681784217286946
1770450970092,127,-1,-0.4397812351433612,-0.2904831368848037,-0.3321381810028891
1770450970096,127,-1,-0.5225680651265354,-0.4682978847582926,-0.4124328797256578
1770450970100,127,-1,-0.5349064119041187,-0.2337849555796312,-0.422797836570747
1770450970103,127,-1,-0.408849664599453,-0.373244847833567,-0.2951127863473111
1770450970108,127,-1,-0.1312347232441173,-0.0500141627192407,-0.0155181001449395
1770450970112,128,0,0.2533866687984656,0.5261286925794615,0.3718680558613876
1770450970116,128,0,0.6799565336136288,0.7221338150288217,0.8013417173337716
1770450970120,129,1,1.1142443186142934,1.5205418328224587,1.2374725713615071
1770450970123,129,1,1.5700062306919884,1.836457346641527,1.6938566830538215
1770450970128,129,1,2.0672175583762304,1.7103750788660237,2.1918652353152432
1770450970132,130,2,2.573201209645473,2.737449949737856,2.7001151012238203
1770450970136,131,3,3.0068060139760195,3.4981354868044923,3.1369555692422564
1770450970139,131,3,3.3238791937067376,3.673461123792896,3.4567040564379066
1770450970143,131,3,3.592488261828506,3.699842940952537,3.7269136191596424
1770450970148,131,3,3.954925268850541,3.741029596480667,4.090699970081698
1770450970152,132,4,4.495174418747953,4.757770205606129,4.632676496671933
1770450970156,133,5,5.140743828285981,5.379927442598121,5.279900152572645
1770450970159,133,5,5.69594749864931,5.81677961727967,5.835986995484324
1770450970164,134,6,5.975045155755499,6.487853458381675,6.1153759400429575
1770450970168,133,5,5.918154537398263,5.915223145189559,6.0592015526771075
1770450970172,133,5,5.601960649074256,5.572822062048434,5.744940060435585
1770450970176,133,5,5.15735236820002,5.49206360079993,5.303166729500791
1770450970179,132,4,4.6788585006348615,4.747039927109881,4.827232893491145
1770450970184,132,4,4.195859179155487,4.433881866329383,4.345526845306022
1770450970188,131,3,3.704376832598149,4.036516129609107,3.85407171300185
1770450970192,131,3,3.2067734488528616,3.307910007322073,3.356191860747922
1770450970196,130,2,2.714874410161957,2.824668449944782,2.8648188419630665
1770450970199,130,2,2.2226468071925254,2.3192352598002013,2.3740918744262887
1770450970204,129,1,1.6943904667977685,1.8568729519110003,1.847286725728172
1770450970208,129,1,1.0972318859175367,1.5850528052440296,1.250537883369875
1770450970212,128,0,0.4478738000926348,0.685178935313588,0.6010563983274462
1770450970216,127,-1,-0.1819338749459171,-0.5222893345137289,-0.0279169220970922
1770450970219,127,-1,-0.7073030455463334,-0.4360448575184066,-0.5512191873844501
1770450970224,127,-1,-1.0682968290085966,-0.3449969815702727,-0.910527181159262
1770450970228,126,-2,-1.2343322440766165,-1.3216261887822165,-1.0767393984477336
1770450970232,126,-2,-1.2027963273387692,-1.3698654934775611,-1.0468457633277857
1770450970235,127,-1,-1.011693229643448,-0.5618162563377855,-0.8571662894722083
1770450970239,127,-1,-0.7378999813748092,-0.381525175444082,-0.5829427058679475
1770450970244,127,-1,-0.4616220257307176,-0.4717287805546093,-0.3037095706068411
1770450970248,127,-1,-0.2245927044529989,-0.1866248694711183,-0.0626921981299641
1770450970252,128,0,-0.0131791077324978,0.4160480342700394,0.1498343276789523
1770450970255,128,0,0.2296731517023928,0.6586420805020738,0.3876965983917644
1770450970260,128,0,0.5730439195729646,0.3255083729207837,0.7218372672177809
1770450970264,128,0,1.080457794872569,0.831578494642927,1.2228194471714209
1770450970268,130,2,1.870380111999182,2.4395345058950384,2.0156434658835485
1770450970272,131,3,3.262040019638333,3.791168549029966,3.419428887585088
1770450970275,134,6,5.856312921907659,6.21505858586698,6.027554299303773
1770450970280,138,10,10.327023799754183,10.781339199618357,10.504296257529957
1770450970284,144,16,16.88015650374361,16.309347439344528,17.051028845598523
1770450970288,151,23,24.688718228626083,23.949307563444982,24.844073175911287
1770450970292,160,32,31.812430456613484,32.253109036806684,31.95141501468524
1770450970295,164,36,35.89119160481187,36.68931402275372,36.020641863386054
1770450970300,164,36,35.328260368051104,36.30276294407744,35.45854211496988
1770450970304,158,30,30.208378848086152,30.670896638575265,30.348635476677103
1770450970308,149,21,22.288446714107405,21.580800311949712,22.442765426579573
1770450970312,141,13,14.041996889394184,13.5388556672324,14.207334962360902
1770450970315,135,7,7.414499475919642,7.463630174395376,7.581739897806926
1770450970320,131,3,3.0978286898336216,3.491814884400412,3.2565349122476435
1770450970324,129,1,0.6698649627273747,1.4960489724387929,0.814367704043166
1770450970328,127,-1,-0.702486835059358,-0.3150601953638274,-0.5699670403564223
1770450970331,126,-2,-1.6096953162730014,-1.647048932684319,-1.4812348128424802
1770450970335,125,-3,-2.210665688074102,-2.3312771444172755,-2.0783196022196364
1770450970340,125,-3,-2.46750492147132,-2.793517783227059,-2.328300605884189
1770450970344,125,-3,-2.4490056403735387,-2.1743222161390565,-2.3060682310748772
1770450970348,126,-2,-2.394087699616439,-1.7439067783651765,-2.253549694341976
1770450970351,125,-3,-2.526114081474766,-2.2590952077373494,-2.392171237383665
1770450970356,125,-3,-2.8564922099285557,-2.729430820610675,-2.7283518957351323
1770450970360,124,-4,-3.1905947839186823,-3.466759242267325,-3.0638947556986738
1770450970364,124,-4,-3.315203433548493,-3.453896506667852,-3.186678512924002
1770450970368,125,-3,-3.16880232428498,-2.5860830032659843,-3.0395483016259033
1770450970371,125,-3,-2.849296917266596,-2.3888327683150896,-2.7231398553239456
1770450970376,125,-3,-2.5028758833022535,-2.687211955492052,-2.381940603554914
1770450970380,125,-3,-2.2295830489923674,-2.4968194664621493,-2.1125236995950383
1770450970384,126,-2,-2.0625117958254444,-1.4732854391263954,-1.9470079471386377
1770450970388,126,-2,-1.9830753932540544,-1.6137385547470484,-1.8685045443687904
1770450970391,125,-3,-1.9431547910585008,-2.3844135567573206,-1.830225492961149
1770450970396,126,-2,-1.8976345254851577,-1.7404988627123994,-1.7868249925631206
1770450970400,126,-2,-1.8282718333735757,-1.4556568879580056,-1.7196961577339969
1770450970404,126,-2,-1.7301434146714687,-1.5614119909838986,-1.624172816674746
1770450970408,126,-2,-1.5824370377899712,-1.55285559577019,-1.4795489823897534
1770450970411,126,-2,-1.352102513894939,-1.4888804129239186,-1.2523773106162577
1770450970416,127,-1,-1.0307191814695682,-0.6748525381588903,-0.9338390757320548
1770450970420,127,-1,-0.6578171518355926,-0.5408139975086119,-0.5633262670196622
1770450970424,127,-1,-0.3012551128193887,-0.5157981543437309,-0.2088411524530458
1770450970428,128,0,-0.0096222471721945,0.3679755430535263,0.0804587704678891
1770450970431,128,0,0.2250280956985837,0.5540864017009726,0.3119708818811371
1770450970436,128,0,0.4572050090807393,0.2252303754433628,0.540577474546961
1770450970440,128,0,0.728195699460807,0.5611905197717073,0.8085844067802593
1770450970444,129,1,1.012561623314313,1.3223612624261452,1.0907850354258777
1770450970447,129,1,1.2357667512180446,1.5130801465032455,1.3117335189682464
1770450970452,129,1,1.349262626904288,1.3621673525327107,1.4221210316638409
1770450970456,129,1,1.3775130075244264,1.3753393437324175,1.446716682618135
1770450970460,129,1,1.3840848681110216,1.389231229611153,1.4498793756436392
1770450970464,129,1,1.39683882451164,1.4488833242615966,1.4597839257891674
1770450970467,129,1,1.3735449799767088,1.3665658222866233,1.4338299189425474
1770450970472,129,1,1.2443135333056632,1.4608597754676371,1.3015864511546529
1770450970476,129,1,0.9899859653232816,1.2480368984512913,1.043851047329473
1770450970480,128,0,0.6783635862792377,0.470553876061714,0.7289929984024155
1770450970484,128,0,0.4197117183232572,0.3436152230930566,0.4676936195793204
1770450970487,128,0,0.2845332550829083,0.4321978920868922,0.3299867462491543
1770450970492,128,0,0.2624344585481166,0.3614714108891601,0.3046071547697776
1770450970496,128,0,0.2922113508541,0.3216873270710864,0.3302593318337621
1770450970500,128,0,0.323036687035525,0.3392515929044938,0.3570680523434008
1770450970504,128,0,0.3503192144429186,0.4705959867933152,0.3814094234506497
1770450970507,128,0,0.4061564994914626,0.2260358848182306,0.4352477219596109
1770450970512,128,0,0.5246810212619313,0.5834957675914074,0.5515104666360561
1770450970516,129,1,0.7133463789067163,1.0183915335951683,0.7366302426442752
1770450970520,128,0,0.9435205269796736,0.6451182117409713,0.9623047904774736
1770450970524,129,1,1.157531946650853,1.1028339570821548,1.1721568168705498
1770450970527,129,1,1.293107072654221,1.5622204014738263,1.3046798795179333
1770450970532,129,1,1.324226709267018,1.230235381003153,1.3334003355314543
1770450970536,129,1,1.2925547188241358,1.2957024297991466,1.2990724882616205
1770450970540,129,1,1.2932636494186618,1.3997264201718933,1.2965863989602622
1770450970543,129,1,1.4127694082059163,1.2218791966393772,1.4128745015610762
1770450970547,129,1,1.6633915537745327,1.4993332906103338,1.6606865070882115
1770450970552,130,2,1.9720170670464607,2.1804470455870755,1.9664065498774068
1770450970556,130,2,2.2363601938949667,2.3718439876303723,2.226811604312396
1770450970560,130,2,2.3965434547204283,2.255314049372267,2.382084229686588
1770450970563,130,2,2.454321791150529,2.328676399873938,2.435462019336075
1770450970568,130,2,2.4334447342114314,2.3677632287065316,2.4122102602415136
1770450970572,130,2,2.3405847436633636,2.252932079203264,2.3188017121738156
1770450970576,130,2,2.1756795666139173,2.3056200099820687,2.1531292019338144
1770450970580,130,2,1.967108312203322,2.2468751842294097,1.941530715538498
1770450970583,129,1,1.761332543158296,1.339787508368429,1.73044532572891
1770450970588,129,1,1.5446782816569224,1.2556096406724355,1.5081732350904962
1770450970592,129,1,1.1745175784532105,1.4069222178150007,1.1340224123112317
1770450970596,128,0,0.4253239839503917,0.0408656121714625,0.3825626685233152
1770450970600,127,-1,-0.8449701006804555,-0.4423514519643143,-0.8896947125076933
1770450970603,126,-2,-2.538925911683809,-2.0743801076428983,-2.586239312812431
1770450970608,122,-6,-4.329630338016821,-5.354683768221655,-4.379465467305094
1770450970612,122,-6,-5.8546638389264665,-6.006578893117039,-5.90610065681006
1770450970616,121,-7,-6.931257542717457,-6.6010177804779655,-6.984250266891964
1770450970620,120,-8,-7.608621249285219,-7.779108757434329,-7.664888106689142
1770450970623,120,-8,-8.044693486346935,-7.828601866002554,-8.106119710525386
1770450970628,119,-9,-8.355789055694908,-8.588111571181063,-8.422316975145998
1770450970632,119,-9,-8.57049635101265,-8.897681121494072,-8.640110915300653
1770450970636,119,-9,-8.68399680302935,-8.650205707896284,-8.75468611416816
1770450970639,119,-9,-8.718556624504355,-8.834753887816195,-8.790015730706873
1770450970643,119,-9,-8.722026125174164,-8.742117534992408,-8.795554425119423
1770450970648,119,-9,-8.720532207838886,-8.765046604959364,-8.797574258797257
1770450970652,119,-9,-8.68880933627791,-8.758295772084763,-8.769615110221714
1770450970656,119,-9,-8.576020537078648,-8.811039168854832,-8.65956357163768
1770450970659,119,-9,-8.361817981274642,-8.706427656084458,-8.447049786220031
1770450970664,120,-8,-8.081428217429451,-7.898769525854655,-8.16855784461385
1770450970668,120,-8,-7.792496335902008,-7.648858889101359,-7.882621482124896
1770450970672,120,-8,-7.526335999539096,-7.947655357085258,-7.619774240752797
1770450970676,120,-8,-7.280284718242702,-7.619442011290778,-7.376034378273081
1770450970679,121,-7,-7.044686063186753,-6.9539621122551365,-7.141909616866993
1770450970684,121,-7,-6.81516345014953,-6.664465207826394,-6.914379619970747
1770450970688,121,-7,-6.580761658491192,-6.9282420433439595,-6.682901277432926
1770450970692,121,-7,-6.322867592787681,-6.736901140381214,-6.427774918516164
1770450970696,122,-6,-6.033052554629835,-5.8309784317474875,-6.13966681069036
1770450970699,122,-6,-5.718686601309168,-5.808432811876778,-5.826415545267533
1770450970704,122,-6,-5.385920341597642,-5.7990382932506215,-5.495335390391869
1770450970708,123,-5,-5.028604930156616,-4.868662897503572,-5.140842455763006
1770450970712,123,-5,-4.644821538021297,-4.828651943787049,-4.760384887088
1770450970716,123,-5,-4.265728411329888,-4.789197568877604,-4.383822846098474
1770450970719,124,-4,-3.95894578210177,-3.8655651988373503,-4.078169984489822
1770450970724,124,-4,-3.783902215865128,-3.76903089052319,-3.903706066893196
1770450970728,124,-4,-3.7287021389527975,-3.956946297634736,-3.849933799790082
1770450970732,124,-4,-3.696879796779031,-3.7681891193397017,-3.820750262714867
1770450970735,124,-4,-3.5763794152082204,-3.920547070861667,-3.703039902667729
1770450970739,124,-4,-3.3361605514316164,-3.7262904345260823,-3.464511360243891
1770450970744,125,-3,-3.05428884866361,-2.9564250773033702,-3.1832465575076303
1770450970748,125,-3,-2.8409978760098764,-2.7979377733663324,-2.9707735094358485
1770450970752,125,-3,-2.729076740417129,-2.985370962441422,-2.86095919843953
1770450970755,125,-3,-2.646097377645167,-2.7510216940122305,-2.7809295934171367
1770450970760,125,-3,-2.5028532213182904,-2.9067993250027406,-2.639933056658514
1770450970764,125,-3,-2.3070410593311133,-2.831878219377775,-2.44486622260816
1770450970768,126,-2,-2.1734408545462456,-1.9141003919675368,-2.3115697718688177
1770450970772,126,-2,-2.204269133874176,-1.9749523109209195,-2.34384570206481
1770450970775,125,-3,-2.3618201950523563,-2.7486552103534816,-2.503821754666087
1770450970780,125,-3,-2.479706685541643,-2.991179561985613,-2.6233217948856495
1770450970784,125,-3,-2.4106153935692336,-2.7387761583331858,-2.5542445496282165
1770450970788,126,-2,-2.1563348329995464,-2.069113322864209,-2.299924093688739
1770450970792,126,-2,-1.8531474242564947,-1.844692466667586,-1.9985627420590533
1770450970795,126,-2,-1.6475592160922967,-1.9262680724847108,-1.7964475235941006
