timestamp_ms,ecg_u8_raw,ecg_counts_raw_int,ecg_counts_filt_monitor,ecg_counts_filt_diagnostic,ecg_counts_filt_st
1769251703220,129,1,0.5001367996732706,2.2556293443821147,2.262379905305938
1769251703224,129,1,0.5892498075917654,2.1216517701736306,2.359019157846924
1769251703228,129,1,0.7824076289989452,2.1846951362956593,2.561643256218618
1769251703232,129,1,1.2289092261252383,2.581286769560231,3.013674620605814
1769251703236,130,2,1.792710898180521,3.7203682990530926,3.5772599423581246
1769251703240,131,3,2.193539685045331,4.441696497222711,3.974197130467775
1769251703244,131,3,2.271989437121192,3.9777630100692063,4.049388577790355
1769251703248,130,2,2.12000216321999,3.3515038559687653,3.8985324645872343
1769251703252,130,2,1.9736046743109004,3.4107622752898683,3.757585268354142
1769251703256,130,2,2.0059533656805644,3.849847708147093,3.79527962881291
1769251703260,131,3,2.2235945485732973,4.248416186567261,4.0134530716632
1769251703264,131,3,2.518678036512911,4.180842282015219,4.3042327669477345
1769251703268,131,3,2.7747076424440738,4.1997457535055025,4.555955657261759
1769251703272,131,3,2.93015650443637,4.521885820764057,4.711683302466787
1769251703276,131,3,3.0037288297129376,4.729172833545829,4.789838810380889
1769251703280,132,4,3.112425526225148,5.256935931166959,4.9032457912871905
1769251703284,132,4,3.4478142898740245,5.259215665900715,5.240284461649508
1769251703288,132,4,4.155170167274333,5.0804395536891755,5.94658841054296
1769251703292,133,5,5.167799537992266,6.697814491360319,6.957110638278152
1769251703296,135,7,6.159028604340748,8.446889060237982,7.945471054491314
1769251703300,135,7,6.704587324874877,8.520704963188198,8.487425112000379
1769251703304,135,7,6.545847382759082,8.008418693410984,8.326238399524971
1769251703308,134,6,5.751963911390373,7.336341360662539,7.533572922949358
1769251703312,133,5,4.689569593377672,6.449158085367628,6.475912671255146
1769251703316,132,4,3.859446070916716,5.605745812393548,5.650687175611182
1769251703320,132,4,3.6996793829529135,5.376923340052732,5.49243238414304
1769251703324,133,5,4.41899968559453,6.124148985573617,6.209037528736293
1769251703328,134,6,5.905490693215034,7.303784104275833,7.69035278197068
1769251703332,136,8,7.759235472911214,9.393645134443268,9.53873781066508
1769251703336,138,10,9.462765583893798,11.67699842294247,11.238325650203963
1769251703340,139,11,10.61533725214598,12.199267099120208,12.389632514018803
1769251703344,139,11,11.096570190550196,12.378570740665628,12.872906067202948
1769251703348,140,12,11.073501400778316,13.01184406225779,12.853753162490785
1769251703352,139,11,10.87465154326892,12.70161020518372,12.657328627624263
1769251703356,139,11,10.811163896083142,12.293956842124947,12.592230072007274
1769251703360,139,11,11.018472574154972,12.577910588366583,12.794502673658725
1769251703364,140,12,11.38586873547012,13.007353255941572,13.15639213367086
1769251703368,140,12,11.625847817096382,13.390990828895251,13.392963168580428
1769251703372,140,12,11.460244037340065,13.327009258463631,13.226497230825466
1769251703376,139,11,10.803211558012066,12.570553956833445,12.569841059457492
1769251703380,138,10,9.80421832822812,11.333146753157784,11.57084558542006
1769251703384,137,9,8.716557757759176,10.189038089470737,10.481924868010893
1769251703388,136,8,7.699719351296239,9.303088950539404,9.462514476779424
1769251703392,135,7,6.7202868691854505,8.331025382189846,8.479565957566273
1769251703396,134,6,5.630304804416851,7.575983495950446,7.385750922650024
1769251703400,133,5,4.345574852059977,6.263925353420364,6.097902904609379
1769251703404,131,3,2.958302614807951,4.27445221673047,4.709309589123029
1769251703408,130,2,1.682650921755125,3.236689143532193,3.4340358838690856
1769251703412,129,1,0.6882042195867428,2.3655358493558527,2.439602890253954
1769251703416,128,0,-0.0287003618947259,1.5186784146214052,1.7195894300941552
1769251703420,128,0,-0.6352241998532224,1.282347734188734,1.1060907879483644
1769251703424,127,-1,-1.337483387870034,0.27602995160024,0.3957480552453829
1769251703428,126,-2,-2.2404471531994083,-0.7774090311389874,-0.5118895774349119
1769251703432,125,-3,-3.271975076205358,-1.616536923400561,-1.5423843284283305
1769251703436,124,-4,-4.189820800178575,-2.5717884983509904,-2.455936775968379
1769251703440,124,-4,-4.664270994091791,-2.616853248874915,-2.9281553005072753
1769251703444,124,-4,-4.437196776518093,-2.8388537409203973,-2.704466672009089
1769251703448,124,-4,-3.524862327888237,-2.636739888285919,-1.8004592231032217
1769251703452,126,-2,-2.3372391822029224,-0.7881581151512034,-0.6229931269166658
1769251703456,127,-1,-1.555462684752796,0.5622496041318266,0.1497272316267108
1769251703460,127,-1,-1.7643111219257488,0.2235981461984391,-0.0645873423400673
1769251703464,125,-3,-3.0702814730166024,-1.6739054506050683,-1.3704269511550289
1769251703468,123,-5,-4.986516605164183,-3.798654187344793,-3.2817558564636133
1769251703472,122,-6,-6.665863023959774,-4.680986608945367,-4.956485870633836
1769251703476,121,-7,-7.329448443876416,-5.528443586682567,-5.621451259534762
1769251703480,121,-7,-6.659802205990859,-5.748919285971419,-4.960202477764327
1769251703484,123,-5,-4.9677886509809035,-3.6106183430322942,-3.2796447426075064
1769251703488,126,-2,-3.028142100780146,-0.9359339141417726,-1.350045736241804
1769251703492,127,-1,-1.6451067639165302,0.4620389242736702,0.026417890490453
1769251703496,127,-1,-1.2150588998379388,0.2809829612736245,0.4538218085781755
1769251703500,126,-2,-1.5838023333020723,-0.6038759981811705,0.0859026579337669
1769251703504,126,-2,-2.2594467266773375,-0.6929687380528593,-0.5877609770380965
1769251703508,126,-2,-2.7639443464903364,-0.941309875071175,-1.0928656105179215
1769251703512,125,-3,-2.861020758298741,-1.449350346057894,-1.195402709368593
1769251703516,126,-2,-2.570366938749711,-0.9317976942007632,-0.91375841010766
1769251703520,126,-2,-2.049196920097688,-0.3135269198725339,-0.4014951425550799
1769251703524,127,-1,-1.465579081671953,-0.064961913197584,0.1762933681982359
1769251703528,127,-1,-0.9351444418734212,0.4714209965789575,0.7041963121749573
1769251703532,128,0,-0.5188044761424369,1.1105061399467373,1.1189721495276972
1769251703536,128,0,-0.241570320304019,1.4476442224709636,1.3929348075404957
1769251703540,128,0,-0.1087095203281724,1.3618582207087588,1.5201151727477074
1769251703544,128,0,-0.1210217990069834,1.1601110311267322,1.5011610035895824
1769251703548,128,0,-0.282231485632928,1.3387325224529816,1.3340693809068824
1769251703552,128,0,-0.5786281978450922,1.1400099980653555,1.033055522634919
1769251703556,127,-1,-0.9397752225842038,0.4511818330896928,0.6681017625087831
1769251703560,127,-1,-1.227555942705255,0.3218666389820903,0.3767626129356805
1769251703564,127,-1,-1.286726728108562,0.183285028329607,0.3137759251502157
1769251703568,127,-1,-1.0324246068320386,0.341613976062648,0.5633455342609275
1769251703572,128,0,-0.5121903958090837,1.0774083865555668,1.0773419347136637
1769251703576,128,0,0.1046809659028259,1.540115708592135,1.686616138198616
1769251703580,129,1,0.6082264081348229,2.172198634444769,2.1824740197671644
1769251703584,129,1,0.8533165623789187,2.3594893024996484,2.4215738701457936
1769251703588,129,1,0.8344330608708346,2.1258449730275633,2.399222031274651
1769251703592,129,1,0.6981806512186715,2.2955600826461384,2.260857359585186
1769251703596,129,1,0.6901325833857366,2.2886034073956147,2.249737928714528
1769251703600,129,1,1.0478064047448004,2.4226116897841456,2.6020578180047127
1769251703604,130,2,1.8716706420462337,3.0867233838978563,3.418970667858569
1769251703608,131,3,3.041524861642675,4.416946985115033,4.581731215446333
1769251703612,133,5,4.249761108783236,5.945591691766997,5.783293270544389
1769251703616,133,5,5.149961803083588,6.674213790852867,6.676925293675259
1769251703620,134,6,5.520857114753887,6.956536206533434,7.041330175489511
1769251703624,133,5,5.331673592743513,6.598683016079731,6.846345057305571
1769251703628,133,5,4.688749802215261,5.845631335018611,6.1987667820276915
1769251703632,132,4,3.74232840992269,5.515314213883009,5.248625071643596
1769251703636,131,3,2.633863025495512,4.1209555953761825,4.13675758489417
1769251703640,129,1,1.4895035668305467,2.426239215967959,2.988302272194349
1769251703644,129,1,0.4167991698947604,2.2222442085494634,1.9092251634297823
1769251703648,128,0,-0.5226981718313799,1.0837086030346232,0.9601750324482644
1769251703652,126,-2,-1.3549973371811026,-0.6191646470884973,0.1168893533282884
1769251703656,126,-2,-2.204439243498544,-0.8510364632521865,-0.7411117925362194
1769251703660,125,-3,-3.21398559337724,-1.5485845137658432,-1.7542092138551664
1769251703664,124,-4,-4.380266747092774,-2.860198634982273,-2.92027347515656
1769251703668,123,-5,-5.435459297370141,-3.831668552191908,-3.975604169693301
1769251703672,122,-6,-5.9421970279994785,-4.710905890791583,-4.486680105666805
1769251703676,122,-6,-5.610490120353801,-4.803501853241098,-4.164557430862918
1769251703680,123,-5,-4.614784866684574,-3.5597714937612484,-3.1816297352326313
1769251703684,125,-3,-3.6165669569012096,-1.9113277246737153,-2.195657107216197
1769251703688,125,-3,-3.396472303340905,-1.7377825141798144,-1.9838163195152123
1769251703692,124,-4,-4.326127575213868,-2.877024296276466,-2.9164154853358006
1769251703696,122,-6,-6.072842224640518,-4.626591374967107,-4.662668100200578
1769251703700,120,-8,-7.775444433924124,-6.7937993723901995,-6.365482490692133
1769251703704,119,-9,-8.583747147063502,-7.651634639228312,-7.1779128391037075
1769251703708,120,-8,-8.188476947344506,-7.010330856520507,-6.7907782124431435
1769251703712,121,-7,-6.976518110652385,-5.59231077062862,-5.588643739700086
1769251703716,123,-5,-5.720535348285256,-3.947488877615105,-4.342259189278607
1769251703720,123,-5,-5.049907076972131,-3.4924031079231375,-3.681127848564338
1769251703724,123,-5,-5.090399985838366,-3.983413560420987,-3.731864318323944
1769251703728,122,-6,-5.488668618122647,-4.687413202247805,-4.140175030634555
1769251703732,122,-6,-5.700927342988511,-4.9114985784855865,-4.3590213513009175
1769251703736,123,-5,-5.2277822661958915,-3.673189590297598,-3.8859906722031026
1769251703740,125,-3,-3.6099389370130326,-1.7204960535769307,-2.262434420623673
1769251703744,128,0,-0.333036502041812,1.1560929646474558,1.0205342609292964
1769251703748,133,5,5.029532180433296,6.25942924154048,6.381902878298558
1769251703752,140,12,12.30845855200704,13.027225389011685,13.647793286644616
1769251703756,147,19,20.17574007485908,20.46234777598117,21.492394382507833
1769251703760,154,26,26.10526618287968,27.059512853017875,27.39731476159243
1769251703764,156,28,27.212768416444987,29.397502650574936,28.48656160155806
1769251703768,151,23,21.687919373976214,23.974301908125685,22.95457315990982
1769251703772,138,10,9.953698785648726,11.230555826593084,11.224642959753089
1769251703776,122,-6,-5.274741016350615,-4.712823013682026,-3.991783878141824
1769251703780,107,-21,-20.14129584901274,-19.872166585971435,-18.8458188230626
1769251703784,96,-32,-31.28663991751585,-30.50889856303111,-29.98684173348257
1769251703788,92,-36,-36.98944223024279,-35.20400428022261,-35.69923015717047
1769251703792,91,-37,-37.30755493579169,-35.45080245765374,-36.03915867431934
1769251703796,95,-33,-33.46158102468668,-32.17689016139354,-32.21828146597356
1769251703800,100,-28,-27.08466715894767,-26.366935464048485,-25.859409840861993
1769251703804,108,-20,-19.76624282561689,-19.08957378618257,-18.54743748237983
1769251703808,115,-13,-12.875878987459728,-11.608774750911309,-11.65538771397537
1769251703812,121,-7,-7.434159858189894,-6.034490558562419,-6.211063282620032
1769251703816,124,-4,-3.929072433540988,-2.689560263539408,-2.707498911628357
1769251703820,126,-2,-2.2075526451070218,-0.8329578711337096,-0.9919855150368816
1769251703824,126,-2,-1.6157936834283348,-0.7166967044137287,-0.4080307704484163
1769251703828,126,-2,-1.3798898331461853,-0.9034165563460508,-0.1792542822976588
1769251703832,127,-1,-0.9999521494228324,0.2277622524028539,0.1944493721072069
1769251703836,128,0,-0.3965696597721111,1.0613387026701917,0.7909766246769463
1769251703840,128,0,0.2514235351325187,1.3545953672765785,1.4304495711223837
1769251703844,129,1,0.7881142831327947,2.1018594037758307,1.9578518982241064
1769251703848,129,1,1.2266011783820514,2.247178031348925,2.3884326352674807
1769251703852,129,1,1.671636275733523,2.118278851256623,2.8281780032058963
1769251703856,130,2,2.1531044480020456,3.100241309381446,3.305725635235198
1769251703860,131,3,2.5724833946767984,4.341031662074686,3.719960986916507
1769251703864,131,3,2.815553269124454,4.038701132601229,3.955819740499765
1769251703868,130,2,2.8876430211047515,3.368789207258812,4.020501656445551
1769251703872,131,3,2.9143813054139502,3.945880273085809,4.041347949347903
1769251703876,131,3,3.017839897242652,4.2709664618162755,4.139446401119878
1769251703880,131,3,3.200147196702059,4.138667774437128,4.314816184364485
1769251703884,131,3,3.328756611393457,4.224270102084351,4.4347454863258555
1769251703888,131,3,3.222559083731123,4.206448932602826,4.3200692455678755
1769251703892,131,3,2.7847684253045366,4.062261205431721,3.8757303057124974
1769251703896,130,2,2.1048323955511785,3.159514477982857,3.191220725195885
1769251703900,129,1,1.4521450629208226,2.199557830803519,2.534726345911912
1769251703904,129,1,1.1446871519016542,2.166733711646115,2.222759996820274
1769251703908,129,1,1.3715757016208825,2.2778010650425857,2.4433962682848267
1769251703912,130,2,2.0898318534909017,2.947905128022697,3.1535032334237134
1769251703916,131,3,3.060277433092721,4.301825359146939,4.114842721057417
1769251703920,132,4,3.9867018349631262,4.978479502614315,5.032845368397535
1769251703924,132,4,4.659380642757365,5.41114857277186,5.699021446023671
1769251703928,133,5,5.022405624298286,6.019377661742367,6.0571988472078155
1769251703932,133,5,5.1537215751619145,6.168325443269205,6.183820779154062
1769251703936,133,5,5.196516416006281,6.11720509889065,6.220976697518889
1769251703940,133,5,5.285035901821363,6.061943656481872,6.30323775303375
1769251703944,133,5,5.497394158691003,6.406091638177032,6.509527507516033
1769251703948,134,6,5.854591252062467,6.935129854443494,6.860710148595503
1769251703952,134,6,6.352198357746596,7.314258537623759,7.351498514223378
1769251703956,135,7,6.978271293211088,7.901504413182996,7.9698521184350675
1769251703960,135,7,7.68871174396014,8.278681226344329,8.67279332349098
1769251703964,136,8,8.376127937275642,9.169602123098446,9.353944683610989
1769251703968,137,9,8.899264929281694,10.159494562476128,9.87176348161655
1769251703972,137,9,9.179009346579022,10.096957880364458,10.146124251350145
1769251703976,137,9,9.275542846843472,10.081743563654047,10.23676850783818
1769251703980,137,9,9.35885045451372,10.08330007350951,10.313960033953672
1769251703984,137,9,9.586840080697344,10.340727415764384,10.535807893819982
1769251703988,138,10,9.996094623683994,10.989985094326972,10.938739013995622
1769251703992,138,10,10.49355484279402,11.272132248883423,11.429627605649166
1769251703996,139,11,10.94286257784363,11.875321647673514,11.872391590348313
1769251704000,139,11,11.26228567131919,12.268470598580032,12.185704724793322
1769251704004,139,11,11.449773149619864,12.131344802287648,12.367761324220512
1769251704008,139,11,11.518081866754356,12.1863417493499,12.431041985194392
1769251704012,139,11,11.407554820625665,12.10595136724267,12.314808328905242
1769251704016,139,11,10.9713692069887,11.973852062039246,11.871086238593843
1769251704020,138,10,10.059983399818496,11.20012681436802,10.950852377185242
1769251704024,136,8,8.632336211950568,9.11902679044725,9.515630373547465
1769251704028,134,6,6.804269223712193,7.242188096989763,7.683338629446613
1769251704032,133,5,4.820630608479508,6.013328938079082,5.697636993845494
1769251704036,131,3,2.990661133530617,4.07017808311933,3.864455093416824
1769251704040,129,1,1.59644299682216,2.072501450382374,2.4642495178018313
1769251704044,128,0,0.7682976735027482,1.241182583970557,1.628577534257322
1769251704048,128,0,0.3898655846327816,1.0917397675969052,1.2425069942819946
1769251704052,128,0,0.1398373674550121,1.190545070607878,0.9844565913302744
1769251704056,128,0,-0.3203317281733824,0.8389969913028614,0.51573350630046
1769251704060,126,-2,-1.151947059928685,-0.6674073496222075,-0.3228953450069358
1769251704064,125,-3,-2.2848715284172405,-2.111154501519706,-1.4589378479464843
1769251704068,124,-4,-3.5019758749648284,-2.5086592907700895,-2.6764379975725774
1769251704072,124,-4,-4.549960126318365,-3.261598427216386,-3.726500773754047
1769251704076,122,-6,-5.218160901656878,-4.674394251873133,-4.401338029367257
1769251704080,122,-6,-5.41783441081528,-5.176982787339004,-4.61070671676513
1769251704084,122,-6,-5.256555213239174,-4.664808607747328,-4.458793943728151
1769251704088,123,-5,-5.013893487772525,-3.9149328859236583,-4.223413316195575
1769251704092,123,-5,-4.973692444838732,-3.93337748355121,-4.188396629622484
1769251704096,122,-6,-5.225767698252037,-4.898130454154168,-4.443854341462447
1769251704100,122,-6,-5.602715537807198,-5.097273152749766,-4.823242376973573
1769251704104,122,-6,-5.796868965750874,-4.675274100850741,-5.020832565862913
1769251704108,122,-6,-5.562964978660988,-5.013858939553854,-4.7927637937994945
1769251704112,122,-6,-4.876843150918431,-4.749000303532948,-4.114146057553567
1769251704116,124,-4,-3.95565542476486,-3.105629203752426,-3.2004715126349086
1769251704120,125,-3,-3.115358864997869,-1.9360712094630597,-2.366983231248752
1769251704124,125,-3,-2.5587281288844212,-1.833981334196528,-1.8162309981662597
1769251704128,125,-3,-2.267843567914514,-1.9408161977468377,-1.5295122230666411
1769251704132,125,-3,-2.090053771934885,-1.7323371600578918,-1.3540417480576543
1769251704136,126,-2,-1.9161556042263073,-1.2007918259047936,-1.182792546458606
1769251704140,126,-2,-1.7731949487207328,-0.8004953570875155,-1.0457962760382151
1769251704144,126,-2,-1.7718264321116868,-1.0447950193075262,-1.053848582293877
1769251704148,125,-3,-1.9975457849959095,-1.7355980933754678,-1.2887993847485104
1769251704152,125,-3,-2.4458539055938138,-1.9146561162000193,-1.7422550975986972
1769251704156,125,-3,-3.0104936418269213,-2.0727609699191496,-2.3078036340708956
1769251704160,124,-4,-3.4932525318286465,-2.875282037022351,-2.790828035487168
1769251704164,124,-4,-3.646571361192135,-3.0862333460354328,-2.9476336582145484
1769251704168,124,-4,-3.279246279228089,-2.618353934177184,-2.587939627232145
1769251704172,125,-3,-2.391597702468404,-2.116619997129052,-1.7096812449846328
1769251704176,126,-2,-1.233177785726476,-0.8061779989400706,-0.5589923004616282
1769251704180,128,0,-0.195375499810088,0.8017357103421678,0.4744295659433939
1769251704184,128,0,0.4221843343711235,1.21435793131425,1.089960498199125
1769251704188,128,0,0.6010338239820998,1.073232606725622,1.2666715957082175
1769251704192,128,0,0.5841513400616667,1.153997502154842,1.2455990160541996
1769251704196,128,0,0.6502891500817543,0.9543887909308936,1.3052874517499296
1769251704200,128,0,0.871659107341651,0.9955213534823356,1.5192872937904511
1769251704204,129,1,1.0735326563244432,2.024418425957338,1.7146462560223037
1769251704208,129,1,1.043228190930609,2.233869838777565,1.6799834537724616
1769251704212,128,0,0.8015277848701463,0.9871628806931194,1.4363542443359143
1769251704216,128,0,0.6750827982343615,1.106433135482789,1.3090418227681164
1769251704220,129,1,1.0802097552131915,1.8382283157391193,1.7116596433816484
1769251704224,129,1,2.181127025577392,2.130057321984452,2.8064700926459465
1769251704228,131,3,3.692982009527792,4.175650683998914,4.309339618091153
1769251704232,133,5,4.997470237107552,5.980826297303106,5.604863235599397
1769251704236,133,5,5.511662771078949,6.152857324021203,6.112965826734685
1769251704240,133,5,5.052987587559814,5.713272728691211,5.652018851174896
1769251704244,131,3,3.9336303165926942,4.265041592991713,4.532795570585121
1769251704248,130,2,2.7213504795591774,2.997854289835326,3.3203071928503074
1769251704252,129,1,1.854803398377301,2.1875287399384,2.450924894956436
1769251704256,129,1,1.3952260278099056,1.9240003526734972,1.9853775805209524
1769251704260,129,1,1.0708568924720188,1.9398009823552391,1.6531574086469116
1769251704264,128,0,0.5394287807254577,1.0022167505106945,1.1139966557082916
1769251704268,127,-1,-0.3558000850645952,0.2430332072421501,0.2128598009125855
1769251704272,126,-2,-1.520864989265248,-1.0611056894341648,-0.9554239811683592
1769251704276,124,-4,-2.7420675264266916,-2.846544873766082,-2.1775602516478587
1769251704280,124,-4,-3.857356499958735,-3.288772887386316,-3.293473750615952
1769251704284,123,-5,-4.8066704619340275,-3.807529045055043,-4.245622884360212
1769251704288,122,-6,-5.553009334166584,-4.940034478014055,-4.997678469664202
1769251704292,121,-7,-6.014438749271838,-5.9086836733257435,-5.465612827673445
1769251704296,121,-7,-6.115213943646022,-5.983627007836823,-5.571191213008219
1769251704300,122,-6,-5.896103342494303,-5.204149825321534,-5.355043516708703
1769251704304,122,-6,-5.542140265179838,-4.876417942142504,-5.003939131897757
1769251704308,122,-6,-5.284855246478103,-4.901753897899752,-4.750565132012714
1769251704312,122,-6,-5.269323352979147,-4.949651579124774,-4.739814097026919
1769251704316,122,-6,-5.4898779743025665,-4.959644018356371,-4.965508814169677
1769251704320,122,-6,-5.820408693448201,-5.268640890933694,-5.300748731110679
1769251704324,121,-7,-6.102807243492254,-5.801513912110938,-5.58556154978888
1769251704328,121,-7,-6.236987088370381,-5.993883875295901,-5.718362919661905
1769251704332,121,-7,-6.214789700688192,-5.866018753190966,-5.693385308164398
1769251704336,122,-6,-6.075012554853504,-5.0551956464203185,-5.5560476164093835
1769251704340,122,-6,-5.834867714844744,-5.208009564040256,-5.328450775791893
1769251704344,121,-7,-5.483844803858308,-5.861182390367853,-4.996341503148223
1769251704348,122,-6,-5.021025407169537,-4.947019217544385,-4.5471747881691895
1769251704352,123,-5,-4.38618623158504,-3.932999038204453,-3.910491809693158
1769251704356,125,-3,-3.215154686644766,-1.9925448038978604,-2.722544581877183
1769251704360,128,0,-0.6518983187818597,0.7060380983968253,-0.1390546946144226
1769251704364,131,3,4.37283473347754,4.232537474100387,4.894390081780182
1769251704368,139,11,12.270946781850272,11.920620354289834,12.781881705707663
1769251704372,148,20,21.825915350220285,21.22630314548175,22.31062686131158
1769251704376,157,29,29.98888084210674,29.79081038648345,30.44369374097893
1769251704380,162,34,32.964224262585624,34.9576906046574,33.39816803225017
1769251704384,157,29,28.168771132574232,29.907953007165577,28.598496095312676
1769251704388,143,15,15.847025654387451,16.17542739809023,16.289552387230273
1769251704392,126,-2,-0.7974123383041753,-1.0471607042087587,-0.3317940326002979
1769251704396,109,-19,-17.09872595374176,-17.99726583435035,-16.61147622310738
1769251704400,98,-30,-29.075302757585252,-29.137204582734284,-28.57962496178603
1769251704404,93,-35,-34.899969594612216,-33.9747707450602,-34.414357829952614
1769251704408,93,-35,-34.99926011760286,-33.916340591665396,-34.53756869494648
1769251704412,97,-31,-31.09641294631771,-29.994293605288735,-30.6604388253769
1769251704416,102,-26,-25.092056298685783,-25.122291409965957,-24.67138363434943
1769251704420,108,-20,-18.47710816718855,-19.010410020429067,-18.05639642158287
1769251704424,115,-13,-12.319835781677009,-12.110551748495537,-11.888723750381583
1769251704428,120,-8,-7.4040833360499345,-6.783005994301296,-6.962758285870415
1769251704432,124,-4,-4.176510855043637,-3.1862472692627093,-3.733096484491902
1769251704436,125,-3,-2.5707998333598376,-1.9562877705407211,-2.1333389819740276
1769251704440,125,-3,-2.01601688032902,-2.2152886864596972,-1.5862070695276569
1769251704444,125,-3,-1.7645223357387456,-1.8712819639164693,-1.338254581673151
1769251704448,126,-2,-1.3230031094403945,-1.0273146329092395,-0.8961524237177845
1769251704452,127,-1,-0.6420712779278506,0.0348472353249199,-0.2153292608370205
1769251704456,128,0,0.0527867733694438,0.8155433713899946,0.4746730999894324
1769251704460,128,0,0.5771834837713099,0.9645754064671812,0.9906685025232044
1769251704464,128,0,0.9453592858981624,0.9770904192112384,1.352457333638756
1769251704468,128,0,1.2737469097131922,1.0906253651105415,1.680878456552309
1769251704472,129,1,1.6069292034908331,1.910231282302853,2.0188998296544876
1769251704476,130,2,1.8887357413669688,2.92052666211925,2.303788025993815
1769251704480,130,2,2.086588372292378,2.836959674126222,2.4980209398007993
1769251704484,129,1,2.266387030876637,2.117303155465042,2.6691971269526538
1769251704488,129,1,2.4820033554906304,1.9143477137672928,2.8771605621197205
1769251704492,130,2,2.6164707739953004,3.0744580613648695,3.0086856301061164
1769251704496,131,3,2.424852101873863,3.7368829458106,2.8178482893779497
1769251704500,129,1,1.800175604206696,2.023456298492,2.1950217065931543
1769251704504,128,0,0.9923710395933992,0.9194103212320276,1.3884783204896554
1769251704508,128,0,0.5246202052940176,1.0866652555112848,0.9201559710934516
1769251704512,128,0,0.8420898680496256,0.8632621575442978,1.234105872528422
1769251704516,129,1,1.9674346696351224,1.9571095143369208,2.3536539174132143
1769251704520,131,3,3.4339818070214845,3.8227224241396858,3.814811076369143
1769251704524,132,4,4.570161223449818,5.092179935154243,4.9480776657159415
1769251704528,133,5,4.950981365908258,5.893897776561143,5.32802952283948
1769251704532,132,4,4.678416497886057,4.998941289742236,5.055149092544275
1769251704536,131,3,4.256255587166538,3.816492488883075,4.6328438777177166
1769251704540,131,3,4.159011566076541,3.988034458102352,4.535815423822953
1769251704544,132,4,4.475137503888277,4.902019324804502,4.851417667682913
1769251704548,133,5,4.933507474842922,6.086253656124048,5.306809772771089
1769251704552,133,5,5.242686361969071,5.760710757894105,5.610982899136105
1769251704556,132,4,5.378803418747287,5.042424672366488,5.742962478808709
1769251704560,133,5,5.55637418771693,5.7600880643249575,5.9193306780900175
1769251704564,133,5,5.9671798864768295,6.114419477089867,6.330654435239693
1769251704568,134,6,6.581019510359559,6.86223719857884,6.944024597586759
1769251704572,135,7,7.190552402455973,7.979833241834026,7.551307247280584
1769251704576,135,7,7.625311743457522,7.785882736568718,7.983647943336283
1769251704580,135,7,7.920518647837415,8.020931249971621,8.277617565144578
1769251704584,136,8,8.294683103304704,8.823453145686567,8.651007680430528
1769251704588,136,8,8.960445998256537,9.150990983341684,9.315179378792546
1769251704592,137,9,9.918653725168394,9.675974474260736,10.271195681428942
1769251704596,138,10,10.90330700055915,11.083390385928285,11.253989098625588
1769251704600,140,12,11.546581090296304,12.695711884881776,11.895546188412103
1769251704604,139,11,11.647962189993972,12.146606284012927,11.994638512873872
1769251704608,138,10,11.30882784044511,10.798985761301404,11.653120601052011
1769251704612,138,10,10.804969755124764,11.016310381107976,11.148012511885655
1769251704616,138,10,10.331659417306714,10.73299268619306,10.674841471395128
1769251704620,137,9,9.872079298040733,10.013236501621646,10.215796096163828
1769251704624,137,9,9.290371894015738,9.874721932480467,9.633725188169516
1769251704628,136,8,8.52407517270254,8.994807555000783,8.865323465289084
1769251704632,135,7,7.671134664537973,7.853019171782451,8.00872274246836
1769251704636,134,6,6.881270634409951,6.821092997913764,7.2151098627869
1769251704640,133,5,6.1621275249908045,5.965154663071942,6.493849464896257
1769251704644,133,5,5.31687186861419,5.885225692467342,5.648442856428941
1769251704648,132,4,4.116409996069619,5.009923913418177,4.44861545716577
1769251704652,130,2,2.5604477957424265,2.773750667024169,2.8928853452692915
1769251704656,128,0,0.9583766759338044,0.9066329462201111,1.2903447781806476
1769251704660,127,-1,-0.2816607506737398,-0.1618108632546253,0.0491154147804158
1769251704664,126,-2,-0.9830059921327968,-0.9641852407129315,-0.6544281353183754
1769251704668,126,-2,-1.3566625205577694,-1.1512849180475442,-1.0313418914571626
1769251704672,126,-2,-1.8398904538968897,-1.077770062929016,-1.5180795134906866
1769251704676,125,-3,-2.746165719144142,-2.272859644755063,-2.4266399944688217
1769251704680,123,-5,-4.014137383995344,-4.017613413908588,-3.694541964094185
1769251704684,122,-6,-5.2555951641757925,-5.093478530048835,-4.933945016395874
1769251704688,121,-7,-6.048170233317836,-6.05367174697166,-5.724548164952934
1769251704692,121,-7,-6.224994959832533,-6.14610584389167,-5.901935772693119
1769251704696,122,-6,-5.941817690879364,-5.266443874138481,-5.622620203947733
1769251704700,122,-6,-5.507130345840063,-4.99734409978484,-5.193046554525979
1769251704704,122,-6,-5.151280856505915,-5.174926900957785,-4.840116556289764
1769251704708,122,-6,-4.921371313183616,-4.931636518995634,-4.60946471835165
1769251704712,123,-5,-4.737536739591209,-4.334706900004043,-4.423501814472186
1769251704716,123,-5,-4.51110057912025,-4.055353474077197,-4.197072027471929
1769251704720,123,-5,-4.224091117466273,-4.247812522043075,-3.912976891295828
1769251704724,123,-5,-3.936577223913546,-3.921272788594927,-3.628857065220036
1769251704728,124,-4,-3.726594986602727,-3.196449580751448,-3.420331992548716
1769251704732,124,-4,-3.5952895679123644,-3.100285809183384,-3.2884733048593655
1769251704736,124,-4,-3.4166036839603455,-3.2885026467723053,-3.108699400586711
1769251704740,124,-4,-3.0063303805344184,-3.040806021933232,-2.698185481504783
1769251704744,125,-3,-2.281237405735237,-2.134029554475227,-1.974514821161916
1769251704748,126,-2,-1.3748835786627576,-0.994191499554282,-1.0713755629498043
1769251704752,127,-1,-0.6003538519311686,-0.3206376384845666,-0.3008015643362083
1769251704756,127,-1,-0.2789666697887705,-0.0760857394186038,0.0178516696528145
1769251704760,127,-1,-0.5552346898366842,-0.2728755051989364,-0.2586101714320983
1769251704764,126,-2,-1.3169023679952692,-0.9377009799480368,-1.0184858442471034
1769251704768,125,-3,-2.2641058413765793,-2.166957759323441,-1.9638788478557792
1769251704772,124,-4,-3.0789717377523145,-3.2140822931706907,-2.778869724661865
1769251704776,124,-4,-3.582150810421958,-3.1129938928743277,-3.2847932883203033
1769251704780,124,-4,-3.775373780568924,-3.3384621929806264,-3.4820880355140984
1769251704784,123,-5,-3.761936999488947,-3.80044573157101,-3.471407679490288
1769251704788,124,-4,-3.624598749834676,-3.392203562365378,-3.3339038646049106
1769251704792,124,-4,-3.3479736203377053,-2.94886118713522,-3.0555127060947163
1769251704796,125,-3,-2.829594931087254,-2.42250548570526,-2.5366497465435143
1769251704800,125,-3,-1.9795525815663593,-2.032287656175151,-1.6886347200576788
1769251704804,126,-2,-0.8503613478983362,-1.1092717013358062,-0.5626316478129998
1769251704808,128,0,0.3178482811766658,0.8705427713186635,0.6030971837997607
1769251704812,129,1,1.2137215620205004,1.8202706339073929,1.4978123354839037
1769251704816,129,1,1.660780856175267,1.7453408548304408,1.9446608407684145
1769251704820,129,1,1.7354007315944822,1.8345765355414283,2.019404333855645
1769251704824,129,1,1.6903845056884466,1.957187591370692,1.974209780552744
1769251704828,129,1,1.7516911478525103,1.8181078827569503,2.034665464817012
1769251704832,129,1,1.9569771771875597,1.8546166406732183,2.238553776419849
1769251704836,130,2,2.1612640061656587,2.713810751526628,2.441145684450528
1769251704840,130,2,2.195171806552477,2.847381139436753,2.473183747172894
1769251704844,129,1,2.0291913953305523,1.923969399773571,2.3054880468427847
1769251704848,129,1,1.792456758940409,1.8147459078712809,2.06768241463777
1769251704852,129,1,1.6382352214203717,1.8802118044799003,1.9130417175831396
1769251704856,129,1,1.5963373544994597,1.643387995192429,1.8708159967599471
1769251704860,129,1,1.5510441426691584,1.9579407625969265,1.82482458651938
1769251704864,129,1,1.3511766116264414,1.7490273208679885,1.6238629358949432
1769251704868,128,0,0.9386866839228456,0.9893907929557806,1.209957136678982
1769251704872,128,0,0.376459270375934,0.688571438381627,0.6459347077381015
1769251704876,127,-1,-0.2439682397930747,-0.1838287355106282,0.0233941730551701
1769251704880,126,-2,-0.9190997889927032,-1.1924832405063055,-0.6538348011468602
1769251704884,126,-2,-1.7484972359103683,-1.1588117100655264,-1.4848640484821414
1769251704888,125,-3,-2.814571429988317,-2.0785300636648048,-2.5515188082603526
1769251704892,123,-5,-4.03718730958879,-4.305616235183616,-3.7732068272472543
1769251704896,122,-6,-5.156235430634767,-5.153438939871348,-4.890681734659253
1769251704900,122,-6,-5.878178313462102,-5.260618569346182,-5.61288748905774
1769251704904,121,-7,-6.076267488338163,-6.102115574274597,-5.814776343045161
1769251704908,121,-7,-5.899040915114011,-6.132154026839861,-5.643320756593512
1769251704912,122,-6,-5.703746717329362,-5.2877773370128205,-5.4520336074003986
1769251704916,122,-6,-5.8328519045421725,-5.164259448391967,-5.5810200602451285
1769251704920,121,-7,-6.369672572280089,-6.269858507072653,-6.114770421658977
1769251704924,120,-8,-7.060384902488717,-7.1326692628356865,-6.8033506650313305
1769251704928,120,-8,-7.48307540673399,-7.07293013957632,-7.228226225106325
1769251704932,120,-8,-7.350608531753713,-7.425168736646208,-7.101508775270264
1769251704936,120,-8,-6.723918208761226,-6.950365003437499,-6.479092976570047
1769251704940,122,-6,-5.965027246593793,-5.562069208243899,-5.7187799109099045
1769251704944,122,-6,-5.441151306270361,-4.811503584984461,-5.189893256924894
1769251704948,123,-5,-5.205024886704486,-4.43752900544004,-4.952509155182167
1769251704952,122,-6,-4.946848773653045,-5.091015187624452,-4.701902075184998
1769251704956,122,-6,-4.297962252682006,-5.248685925179262,-4.066336618954985
1769251704960,124,-4,-3.195092012483954,-3.3439394422089204,-2.9732804795102203
1769251704964,126,-2,-1.878549498968176,-0.9497950014542356,-1.6550989589815308
1769251704968,128,0,-0.4376057411549165,0.5990360577240845,-0.2007381925894331
1769251704972,129,1,1.6486995095406032,1.9429188122670955,1.9025442665574992
1769251704976,133,5,5.370304677061679,5.628184524030376,5.632883693337715
1769251704980,138,10,11.301734004287528,10.797630406594866,11.557553202321136
1769251704984,144,16,18.554638275180196,16.90062105353673,18.79058870259624
1769251704988,152,24,24.505122056278605,24.736375395797513,24.71752340202004
1769251704992,155,27,25.82834401151746,27.83661512351352,26.023313252858117
1769251704996,149,21,20.38027724252968,21.619385547252957,20.570310256129904
1769251705000,136,8,8.663959728799625,8.806139041337136,8.863945930402016
1769251705004,120,-8,-6.207631966805664,-7.199403480504433,-5.985913077669798
1769251705008,106,-22,-20.04262871104323,-21.13370553711324,-19.797674084716192
1769251705012,98,-30,-29.515814684194464,-29.229935705603996,-29.260006775842612
1769251705016,95,-33,-33.30854592956614,-32.28936033064991,-33.062412647974725
1769251705020,96,-32,-32.00695332925275,-31.261113327596338,-31.786063105098712
1769251705024,100,-28,-27.234465707713632,-27.193579821254893,-27.039114697965097
1769251705028,106,-22,-20.78848971475449,-21.18742725090641,-20.604968905808786
1769251705032,113,-15,-14.18648785091182,-14.17060854203987,-13.998409779955605
1769251705036,119,-9,-8.533919545513037,-8.362750962270763,-8.333627935100015
1769251705040,123,-5,-4.465842477798392,-4.182886829578587,-4.257230174232541
1769251705044,126,-2,-2.0839781753661635,-1.3485395385308423,-1.8761650913493175
1769251705048,126,-2,-1.0043858596830804,-1.055123278294742,-0.802867424992405
1769251705052,126,-2,-0.6062351973944438,-1.3249783341047832,-0.4094072893790588
1769251705056,127,-1,-0.3679562927456068,-0.1632391006707235,-0.1714507032122805
1769251705060,128,0,-0.0527258555940035,0.6170669891850149,0.1440893902842182
1769251705064,128,0,0.3564002819798098,0.8000152797814667,0.5494656652885588
1769251705068,128,0,0.8199344636367096,0.8032423461835687,1.0056791451895382
1769251705072,128,0,1.2999856235887863,0.7367959246641957,1.4797064591751543
1769251705076,129,1,1.7059908104576975,1.8645949532012829,1.8841879723875516
1769251705080,130,2,1.888094631089238,2.5226183458130405,2.067490239527573
1769251705084,129,1,1.7571025490459966,1.9200789224116943,1.936530877212122
1769251705088,129,1,1.409831233548251,1.6143316842403963,1.5866429432568927
1769251705092,128,0,1.0951755766088724,0.9120866465943408,1.2683262130718682
1769251705096,128,0,1.0251909677515714,0.7076327963237796,1.1954023107707707
1769251705100,129,1,1.2097581374430022,1.6646558433484122,1.3774482863264723
1769251705104,129,1,1.474335698988903,1.803337066317794,1.638552822990333
1769251705108,129,1,1.6364618830846167,1.641233288736228,1.79619515748264
1769251705112,129,1,1.6700552721005284,1.9125648441779552,1.826048117941985
1769251705116,129,1,1.7176082997466675,1.6637962177328744,1.8722616010895563
1769251705120,129,1,1.9616319562837976,1.7298210659169584,2.1167824389177143
1769251705124,130,2,2.4819358505961415,2.7541810840387457,2.636593303113799
1769251705128,131,3,3.211134065679409,3.594960670230278,3.361736585459253
1769251705132,131,3,3.990489443299622,4.024753520500577,4.134032795340171
1769251705136,132,4,4.645724851174066,4.446600872125963,4.782766004007952
1769251705140,132,4,5.031563622459138,5.043620903720479,5.165712289958042
1769251705144,133,5,5.0687756477043715,5.353319345618303,5.20311792037078
1769251705148,132,4,4.7964988259042025,5.007544137917655,4.930870025735139
1769251705152,132,4,4.391504675618764,4.585440697895493,4.523298226548975
1769251705156,131,3,4.089250871776234,3.85123904099691,4.216264738966718
1769251705160,131,3,4.035692848480289,3.698214336675598,4.157612887256503
1769251705164,132,4,4.199856446872245,4.610879053558087,4.317412505051967
1769251705168,132,4,4.443314561240481,4.818513493538937,4.5572305798710575
1769251705172,132,4,4.6861714072242675,4.657621639694804,4.797353041772755
1769251705176,132,4,5.0064945595180665,4.865870944414006,5.116087879334307
1769251705180,133,5,5.581145403225887,5.585896054746861,5.689285165968427
1769251705184,134,6,6.528096180083776,6.787606695607405,6.632997704231151
1769251705188,135,7,7.78061608808705,7.573285223978785,7.8798564861261235
1769251705192,136,8,9.082761791664934,8.91677013553923,9.175518250315026
1769251705196,138,10,10.11468026142537,10.588464940435443,10.202412871959696
1769251705200,138,10,10.675874281257215,10.833144753902635,10.76105682745572
1769251705204,138,10,10.801635699205072,10.562366025119289,10.885893870933078
1769251705208,138,10,10.721687868884471,10.730255795715784,10.80454952221807
1769251705212,138,10,10.689958568395015,10.807482136645223,10.769096371136554
1769251705216,138,10,10.812836352597236,10.610799138965914,10.885974197396711
1769251705220,138,10,10.996890309775464,10.898059091877531,11.06378657142875
1769251705224,139,11,11.04882875581018,11.390522469806111,11.11131989994314
1769251705228,138,10,10.851820101973788,10.975292356085593,10.91203695393846
1769251705232,138,10,10.4748037738842,10.457917190785452,10.533463713133056
1769251705236,137,9,10.110644985166273,10.014672209318986,10.166668765092975
1769251705240,137,9,9.88229263852418,9.44770755727655,9.93355662023983
1769251705244,137,9,9.684282976017451,9.84040856669975,9.72894846394354
1769251705248,137,9,9.209694807657524,9.54009738833189,9.247591524554291
1769251705252,135,7,8.156830575972975,7.814378272911778,8.189842844073747
1769251705256,134,6,6.460355477240382,6.718329762470669,6.490985002017046
1769251705260,132,4,4.373843164647289,4.652248151418188,4.403086757051623
1769251705264,129,1,2.33870020016769,1.6898440669268326,2.3654464856548234
1769251705268,128,0,0.7251213816158604,0.6353734598541578,0.747436444860899
1769251705272,127,-1,-0.3690893468313705,-0.2553299122799983,-0.3524208349788216
1769251705276,126,-2,-1.1122169690070796,-1.2555565725817734,-1.1011948358105623
1769251705280,126,-2,-1.7428694884054536,-1.3522818367537623,-1.736783098614604
1769251705284,125,-3,-2.360243757197178,-2.3453589827508203,-2.358451142894073
1769251705288,124,-4,-2.8779250869743915,-3.336580814651316,-2.880269689483763
1769251705292,124,-4,-3.164008460032016,-3.2963644681909092,-3.170688549454432
1769251705296,124,-4,-3.220371406559106,-3.2398627691303914,-3.2314787967020915
1769251705300,124,-4,-3.2245996245686555,-3.3516866504519336,-3.2399069419198505
1769251705304,124,-4,-3.390155235802615,-3.373144761204684,-3.4096174626761275
1769251705308,124,-4,-3.768404312464376,-3.321685803454744,-3.792628091828588
1769251705312,123,-5,-4.179103497408284,-4.330518740252707,-4.208572065989882
1769251705316,122,-6,-4.354918713515443,-5.2352504588875775,-4.388861537689748
1769251705320,123,-5,-4.182329666857717,-4.32734106804708,-4.219488071031238
1769251705324,124,-4,-3.805326612045113,-3.4451434952343925,-3.8460731660460663
1769251705328,124,-4,-3.485441168268561,-3.214971779020823,-3.531929496361294
1769251705332,124,-4,-3.36803125325228,-3.5035318221153444,-3.4216003513286597
1769251705336,123,-5,-3.3935311431966197,-4.044544035164059,-3.452877620303961
1769251705340,124,-4,-3.414234760889512,-3.5645134529825677,-3.476965520446478
1769251705344,124,-4,-3.359079725342429,-3.192490433563021,-3.424487075164005
1769251705348,124,-4,-3.2752438191714353,-3.4665449140138493,-3.3447456664802764
1769251705352,124,-4,-3.236192657996488,-3.294846988174944,-3.311392386819137
1769251705356,124,-4,-3.234896086324074,-3.223149075216696,-3.315978782619463
1769251705360,124,-4,-3.168806490028568,-3.4901851391614573,-3.2547736328385963
1769251705364,124,-4,-2.9241026270504467,-3.1719471105691013,-3.0140261139616644
1769251705368,125,-3,-2.479846982578241,-2.5773896745518217,-2.573771885634314
1769251705372,125,-3,-1.940192679593399,-2.122955905951641,-2.0390799107672235
1769251705376,126,-2,-1.4682005993104787,-1.4674317851731349,-1.5730999984162242
1769251705380,126,-2,-1.1795832143126896,-1.251320794718576,-1.2906697615192744
1769251705384,126,-2,-1.083581116243984,-1.409946569845425,-1.19981501614745
1769251705388,126,-2,-1.108406500971199,-1.362452811860199,-1.2282760124268717
1769251705392,126,-2,-1.170940906428426,-1.32055579063718,-1.2938483950984965
1769251705396,126,-2,-1.2213809183002513,-1.3238764927177449,-1.348384958122741
1769251705400,126,-2,-1.236443285734223,-1.3860999383717676,-1.3694229033889012
1769251705404,126,-2,-1.1939836765144496,-1.3022645353360944,-1.3338199351228444
1769251705408,126,-2,-1.0707647883894702,-1.4521481900354738,-1.2163557416868036
1769251705412,126,-2,-0.861329904202298,-1.2672853371030763,-1.0106549237581557
1769251705416,127,-1,-0.5804452154763328,-0.3721912066872869,-0.7326565543611774
1769251705420,127,-1,-0.2364056302719669,-0.3870898918760022,-0.3925910451842305
1769251705424,127,-1,0.1839214756046573,-0.2715322840680935,0.0220397873117024
1769251705428,128,0,0.680691502973646,0.4810141269398524,0.5123427774819029
1769251705432,128,0,1.1901935857218993,0.8097726781806325,1.0157274251647994
1769251705436,129,1,1.592056083102219,1.504915518058646,1.412139141880528
1769251705440,129,1,1.796070343413987,1.746099840193689,1.6113451899817726
1769251705444,129,1,1.8387237307745457,1.5678418552404174,1.650197068911637
1769251705448,129,1,1.8930857557380407,1.650017390855966,1.7020790578819305
1769251705452,129,1,2.166357837270753,1.6164636584403465,1.9732259930967824
1769251705456,130,2,2.7573533983441134,2.6704610034843705,2.5601816715287704
1769251705460,131,3,3.5747982544717543,3.597889705514744,3.3701903525030734
1769251705464,131,3,4.360876403764317,3.6800133502349377,4.146775195700705
1769251705468,132,4,4.798535920618303,4.559017960526813,4.576260680212261
1769251705472,132,4,4.6585721867492715,4.662563742365454,4.431921850257216
1769251705476,131,3,3.931062520947938,3.600698592601564,3.7035328267819065
1769251705480,130,2,2.864092611422237,2.680109709775996,2.63671939573248
1769251705484,129,1,1.8530568464135024,1.564998462450024,1.62414824420903
1769251705488,128,0,1.215244793934883,0.6983233667340709,0.981569908240156
1769251705492,128,0,0.9837303298653608,0.4754593817151871,0.7421114344829771
1769251705496,128,0,0.8693294901880282,0.7951804349757972,0.6180708678817353
1769251705500,128,0,0.4352352607831489,0.4635094176876997,0.1752804805739782
1769251705504,126,-2,-0.6254095747477122,-1.211568783792309,-0.890372000670566
1769251705508,125,-3,-2.2914003329998307,-2.5578682476993997,-2.556973159049835
1769251705512,123,-5,-4.210334332155921,-4.2798895748427075,-4.474674499659351
1769251705516,121,-7,-5.8776021860086685,-6.48181782301643,-6.142930689523083
1769251705520,120,-8,-6.892105602273823,-7.241047593009666,-7.162819974195644
1769251705524,120,-8,-7.1506708964249945,-7.504646201512595,-7.42977815984098
1769251705528,120,-8,-6.871673478053122,-7.300091393854977,-7.15871162982849
1769251705532,121,-7,-6.433002577807975,-6.518802086319692,-6.725054393623869
1769251705536,121,-7,-6.129247588067338,-6.326101037545123,-6.423870764760076
1769251705540,121,-7,-6.0134942021195785,-6.326538525985001,-6.310798056093525
1769251705544,121,-7,-5.931223951973318,-6.500695229402721,-6.233230199173678
1769251705548,121,-7,-5.705118462047512,-6.25438749709658,-6.013065610319646
1769251705552,122,-6,-5.305895679492567,-5.635594992944587,-5.618106844447525
1769251705556,122,-6,-4.859488642099631,-5.194248309286436,-5.1722462519022825
1769251705560,123,-5,-4.492134334158152,-4.457445066379453,-4.8034957920823365
1769251705564,123,-5,-4.172168145705253,-4.403887420266683,-4.485433058249765
1769251705568,123,-5,-3.722796576340671,-4.325153646098077,-4.045548864517116
1769251705572,124,-4,-3.0181019956557087,-3.65358349395874,-3.356232194175985
1769251705576,124,-4,-2.1626694555124812,-3.114913878341299,-2.5140336749675853
1769251705580,126,-2,-1.404692839598999,-1.6005868886863028,-1.7586511835698766
1769251705584,127,-1,-0.7538297696533336,-0.2062331404564221,-1.0981818095770008
1769251705588,128,0,0.3724035900746063,0.421235242890265,0.042458274538732
1769251705592,130,2,3.008294585410411,2.5700214980367684,2.6865132613792766
1769251705596,134,6,7.854882411703944,6.68577323514751,7.528066420361492
1769251705600,140,12,14.306034367624228,12.543247427790394,13.9616946258739
1769251705604,147,19,20.11120379724693,19.74033717482946,19.743190342495375
1769251705608,151,23,22.19279655062531,23.382499667058127,21.80337570333478
1769251705612,146,18,18.27595547703412,18.611278520358137,17.87568994381023
1769251705616,135,7,8.28006920479763,7.553480381686807,7.884803927804533
1769251705620,121,-7,-5.4716320381049375,-6.34638206210041,-5.848258957878208
1769251705624,107,-21,-19.32218318356579,-20.36039942488225,-19.677396900547
1769251705628,97,-31,-29.888677957765076,-30.488443737713816,-30.233158366381808
1769251705632,92,-36,-35.266803978008724,-35.45899486481363,-35.618136214287574
1769251705636,92,-36,-35.33290109728297,-35.41113091244448,-35.704740408955686
1769251705640,96,-32,-31.271032193131187,-31.36165670264477,-31.665827009042452
1769251705644,102,-26,-24.815202426025447,-25.414822927949015,-25.224637905198534
1769251705648,109,-19,-17.6449659364973,-18.39445690423302,-18.056613980770273
1769251705652,116,-12,-11.075412743080005,-11.619299091308845,-11.480610026246064
1769251705656,121,-7,-5.939621630632964,-6.232546076775572,-6.337503993693919
1769251705660,125,-3,-2.543610973432772,-2.6270109344667034,-2.9391337250717013
1769251705664,126,-2,-0.6984749252491422,-1.120958762877596,-1.0967369988870583
1769251705668,127,-1,0.1067760678798328,-0.729213055040006,-0.295370752168248
1769251705672,127,-1,0.4247054895557087,-0.2627657704816992,0.0204652430036195
1769251705676,128,0,0.6192198006003853,0.4004444944176771,0.2134744534173367
1769251705680,128,0,0.8193259198125669,0.6952867252351378,0.4096633488728149
1769251705684,128,0,1.0250062770585324,0.6058600383661119,0.6089713743445865
1769251705688,128,0,1.2183261371565448,0.4605218053213848,0.7973253679404375
1769251705692,128,0,1.394007747252499,0.6254940868149428,0.9728231452600796
1769251705696,129,1,1.5561619198782464,1.4029649436431415,1.1381686099600157
1769251705700,129,1,1.7454851322210927,1.763005610584864,1.329240736105651
1769251705704,129,1,2.056847270217397,1.4682287763318234,1.638063885213525
1769251705708,129,1,2.563342109894752,1.6274065302626928,2.1394916049758868
1769251705712,130,2,3.181431172697466,2.4348391407418046,2.753454473734927
1769251705716,131,3,3.640125706098724,3.5469441092570095,3.2102376181582413
1769251705720,131,3,3.6485823315145938,3.675290740804301,3.2180266855888977
1769251705724,130,2,3.1388909927430833,2.466958278778908,2.7081753931553454
1769251705728,129,1,2.3559654220890067,1.7059690588187344,1.9258394719039476
1769251705732,129,1,1.7044285155554428,1.2360410195147158,1.275421588750119
1769251705736,128,0,1.483349677471146,0.8142365176018327,1.054655303416834
1769251705740,129,1,1.7186055473209936,1.3519508493810846,1.288203940847463
1769251705744,129,1,2.199510069056753,1.844594194513513,1.7656209804101524
1769251705748,130,2,2.6627158746361608,2.270147461359171,2.225232252670303
1769251705752,130,2,2.971163234881988,2.662327336847996,2.532019524415988
1769251705756,130,2,3.1639997332613885,2.360309651562531,2.726185637983483
1769251705760,130,2,3.371114084140568,2.797108783513911,2.936669504936548
1769251705764,131,3,3.691173939279668,3.442000142294189,3.259426714097273
1769251705768,131,3,4.1341620164045745,3.599744623541226,3.701937882043473
1769251705772,132,4,4.642326301692929,4.3716778510964325,4.206514068106067
1769251705776,132,4,5.132456770831666,4.563958441745954,4.69290180999149
1769251705780,132,4,5.518671257783135,4.651877304022124,5.078527464146552
1769251705784,133,5,5.735756254009042,5.543277256524238,5.298641887081753
1769251705788,133,5,5.792399460955558,5.526295428408926,5.359115867370651
1769251705792,133,5,5.818116950117427,5.372584096643102,5.386367961111933
1769251705796,133,5,6.021634479995232,5.595026380781626,5.588888868940513
1769251705800,133,5,6.545913561916506,5.5635906431700874,6.111991660969294
1769251705804,134,6,7.334436970677475,6.689713110526063,6.900941405208307
1769251705808,136,8,8.154489262635916,8.324588801405376,7.722327206420423
1769251705812,136,8,8.78200589568544,8.587594404848192,8.350595943915396
1769251705816,136,8,9.17604300544941,8.328407065481102,8.745025514438604
1769251705820,136,8,9.47229669019534,8.840270240093044,9.042832131684827
1769251705824,137,9,9.815792668851358,9.399473637023585,9.38939450167046
1769251705828,137,9,10.211044770437768,9.6067154147901,9.787540199581866
1769251705832,138,10,10.52727457599044,10.31753989079784,10.104581961682516
1769251705836,138,10,10.629306177447344,10.532308846184378,10.205537165638448
1769251705840,137,9,10.492596951903824,9.68488308712898,10.06838058600048
1769251705844,137,9,10.2005091047825,9.463860902162027,9.77887123653087
1769251705848,137,9,9.85560721217913,9.63370896653787,9.439186839426457
1769251705852,137,9,9.511784981465816,9.18013860845348,9.100303527055146
1769251705856,136,8,9.17505208311218,8.750347088408834,8.765732507433608
1769251705860,136,8,8.825293502239962,8.376027324605978,8.415570965742496
1769251705864,135,7,8.406393315615501,7.806338783060341,7.996075871844974
1769251705868,135,7,7.805371079267348,7.268902176201986,7.396449349272386
1769251705872,134,6,6.883729898644624,6.524069067088728,6.4784758940378655
1769251705876,133,5,5.576039876664597,5.428872586767988,5.175435723152406
1769251705880,131,3,3.9806473209461464,3.630609222398855,3.584426248497766
1769251705884,129,1,2.341500686733535,1.5941301337241065,1.9490775013914787
1769251705888,128,0,0.9077127239016908,0.4123348538624005,0.51853754053236
1769251705892,127,-1,-0.2224924118888109,-0.5631573518282984,-0.6092144037425156
1769251705896,126,-2,-1.1450149959732192,-1.5465418549685883,-1.5301241450363774
1769251705900,125,-3,-2.0506924668757183,-2.356615962544656,-2.4342031811221716
1769251705904,124,-4,-3.068440719336789,-3.4756771187467823,-3.4491028334369735
1769251705908,123,-5,-4.1667544778980785,-4.512746109829221,-4.5427378339142495
1769251705912,122,-6,-5.173679465726162,-5.646369981737881,-5.543778310032389
1769251705916,121,-7,-5.888626483206165,-6.487208107302163,-6.252961542813543
1769251705920,121,-7,-6.202149945310872,-6.3912157925239175,-6.561892184885199
1769251705924,121,-7,-6.147416496739664,-6.497153594561103,-6.503868987647745
1769251705928,121,-7,-5.86537784548149,-6.463920406916802,-6.219316007695346
1769251705932,122,-6,-5.519939914979135,-5.7374365954014594,-5.871623664836576
1769251705936,122,-6,-5.216501503954792,-5.383536418624111,-5.565565620140479
1769251705940,122,-6,-4.966833616336516,-5.514914211024564,-5.31160575030121
1769251705944,122,-6,-4.7105345361364375,-5.397807863508589,-5.048221408674874
1769251705948,123,-5,-4.3567510627321555,-4.550508175843934,-4.68559070704498
1769251705952,124,-4,-3.8050799119125625,-3.704019387655416,-4.126356731506975
1769251705956,124,-4,-2.966983528409876,-3.358127323312571,-3.284006638546815
1769251705960,125,-3,-1.8436408734281435,-2.6224672421993502,-2.1586479011409874
1769251705964,126,-2,-0.632921305529984,-1.2364778658248756,-0.9456911234323296
1769251705968,128,0,0.2673354632806484,0.2055716065738182,-0.0418903026300914
1769251705972,128,0,0.4428781845983734,0.5834214714398422,0.1382836892631578
1769251705976,127,-1,-0.2727059375010565,-0.6708959063624276,-0.5712695251608935
1769251705980,125,-3,-1.665801166332696,-2.336378411207183,-1.9562178231158596
1769251705984,124,-4,-3.246160653815478,-3.515466369312792,-3.5271207686173867
1769251705988,123,-5,-4.495331179889359,-4.58460370840367,-4.767903917187327
1769251705992,122,-6,-5.091803258344124,-5.54685917069578,-5.3585856868194695
1769251705996,122,-6,-5.0040323113431455,-5.597533799611792,-5.266967368636214
1769251706000,123,-5,-4.431933379455608,-4.375865764780844,-4.691412400388409
1769251706004,124,-4,-3.650056217236465,-3.5410905419249863,-3.905335766012404
1769251706008,124,-4,-2.860683696968909,-3.5646557681120257,-3.1101782824664017
1769251706012,125,-3,-2.149929052638586,-2.5551402172099644,-2.3916080411034626
1769251706016,126,-2,-1.5370119599330014,-1.6042120313935997,-1.7696538701564424
1769251706020,126,-2,-1.0268135695690244,-1.3762433568188204,-1.2509890560803365
1769251706024,127,-1,-0.6123661971172347,-0.5743160438121423,-0.8296343723087556
1769251706028,127,-1,-0.2604549160936912,-0.5410054181647208,-0.4715632936398594
1769251706032,127,-1,0.069352692240687,-0.5774070474539679,-0.1350291278596517
1769251706036,128,0,0.3818593638216652,0.4151646420214725,0.18472273325785
1769251706040,128,0,0.6324054837138009,0.5964001752605951,0.4419009343385776
1769251706044,128,0,0.7618773340768819,0.4105047421367715,0.5772443713083951
1769251706048,128,0,0.7453528844652768,0.4905001804039947,0.5673626090650972
1769251706052,128,0,0.6198659987104993,0.3572782995217741,0.4506298338724837
1769251706056,128,0,0.4915267279755136,0.5018005321923491,0.3324834785912096
1769251706060,128,0,0.5226552867649669,0.4872791794878026,0.373244898969715
1769251706064,128,0,0.8767248056234918,0.4946779889503527,0.735211519095325
1769251706068,129,1,1.618844637369288,1.4068255696695893,1.4840598657051118
1769251706072,130,2,2.6318412918744474,2.425837244639279,2.5038603911836494
1769251706076,131,3,3.6316065973707654,3.435337124474307,3.5110176730340577
1769251706080,132,4,4.299123324117238,4.550445627646786,4.186224158898709
1769251706084,132,4,4.443273898077827,4.388374527244618,4.33826438942607
1769251706088,131,3,4.074557454607792,3.5182128541548803,3.9781079043084504
1769251706092,131,3,3.3499039308165797,3.278105150109039,3.2629491383495384
1769251706096,130,2,2.4610237272404683,2.6154397930145965,2.384117302659166
1769251706100,129,1,1.5613809905340514,1.3297794599571302,1.4946574104718828
1769251706104,128,0,0.7556489432600779,0.6322661596944336,0.6990228311159521
1769251706108,128,0,0.1124255801330074,0.2151146904061079,0.0651479052963442
1769251706112,127,-1,-0.3414024990916098,-0.3900169528371964,-0.3810017281904836
1769251706116,127,-1,-0.6562068291599943,-0.7528393709641563,-0.689481463070341
1769251706120,126,-2,-0.9962436024491956,-1.266260926158672,-1.0225321563076155
1769251706124,126,-2,-1.6130063887646178,-1.8355899695587667,-1.6299297557162022
1769251706128,125,-3,-2.7118846699853765,-2.2947866643410872,-2.7177067362243577
1769251706132,124,-4,-4.272642275081924,-3.927119983975338,-4.267686782626729
1769251706136,121,-7,-5.9813187541807675,-6.196846825562924,-5.966551661111216
1769251706140,120,-8,-7.379089951285703,-7.820545308030782,-7.354069935088351
1769251706144,119,-9,-8.136568475885811,-8.3406420351416,-8.09991283067918
1769251706148,120,-8,-8.226350981998596,-7.7336850429205715,-8.178119801069613
1769251706152,120,-8,-7.8631152024949245,-7.576813843812355,-7.805738243060976
1769251706156,120,-8,-7.307500589112134,-7.441142212495914,-7.243930149620554
1769251706160,121,-7,-6.730861189312763,-6.701498419833693,-6.661974076647046
1769251706164,121,-7,-6.223802552116519,-6.390291951121119,-6.147254471421849
1769251706168,122,-6,-5.86363368461139,-5.7920032416170955,-5.77462822125159
1769251706172,122,-6,-5.718458766975872,-5.432388811777215,-5.612236562156427
1769251706176,122,-6,-5.769409428228251,-5.640376593900972,-5.644985103139099
1769251706180,122,-6,-5.850400545149679,-5.485072556267744,-5.7133165748916515
1769251706184,122,-6,-5.714549042351928,-5.651374552576692,-5.574991459736793
1769251706188,122,-6,-5.216324969660434,-5.55598605490452,-5.081636660331382
1769251706192,123,-5,-4.441844708999285,-4.631463639081089,-4.308582532089737
1769251706196,124,-4,-3.585037001020483,-3.4608934136423777,-3.4385843626847814
1769251706200,126,-2,-2.561410318679754,-1.6612206262606792,-2.385667737476882
1769251706204,128,0,-0.6797969257772465,0.485125906479646,-0.4697239787518041
1769251706208,131,3,3.1565601342192764,3.2849568666887836,3.390426116370232
1769251706212,136,8,9.55861373134109,8.549163232343759,9.797294481329082
1769251706216,144,16,17.573666095217604,16.359000636216802,17.801667815500803
1769251706220,152,24,24.371467428828936,24.517093894180277,24.5843472183706
1769251706224,156,28,26.300869923822887,28.274231961592175,26.505973713666307
1769251706228,150,22,20.88427214462748,22.457873249952545,21.09753293305876
1769251706232,136,8,8.44202833052587,8.32187366256155,8.682086596582186
1769251706236,119,-9,-7.82148316897722,-8.433736489001262,-7.542253936889095
1769251706240,104,-24,-23.346131558667256,-23.72130681890847,-23.029748499243052
1769251706244,93,-35,-34.32934518603307,-34.41696012301053,-33.99211884583335
1769251706248,89,-39,-39.13993433372674,-38.802491978173904,-38.80252230697137
1769251706252,90,-38,-38.38828727801084,-37.39174115367295,-38.06330102832736
1769251706256,95,-33,-33.93917465266661,-32.7385472099307,-33.625037123906935
1769251706260,100,-28,-27.716754115375696,-27.512862167789237,-27.40045070938548
1769251706264,106,-22,-21.045155731293654,-21.58238321354871,-20.7110385395706
1769251706268,113,-15,-14.67508758027749,-14.719294299877731,-14.314520105787498
1769251706272,119,-9,-9.102287236539476,-8.373340517933514,-8.718162849041223
1769251706276,124,-4,-4.726697805239634,-3.897269193996447,-4.329419055742206
1769251706280,126,-2,-1.7594154484461215,-1.2883358137208374,-1.3575952864545815
1769251706284,128,0,-0.1019096344131607,0.0906159113387335,0.3040432889052074
1769251706288,128,0,0.6020833635425475,0.669584622412841,1.0182575797891371
1769251706292,129,1,0.7773690443844687,1.2262323049877182,1.209297903172022
1769251706296,129,1,0.7624318982533254,1.479308094544196,1.2100940460677982
1769251706300,129,1,0.7788129020272132,1.352144389044685,1.2379971172585615
1769251706304,129,1,0.962662011274222,1.3763539092820156,1.4301019322745252
1769251706308,129,1,1.3643798396504274,1.4551825548884054,1.8406855439763643
1769251706312,130,2,1.9199178806322224,2.3733537107649454,2.4076544553305177
1769251706316,131,3,2.4715451474423444,3.3867098135184635,2.9716273144126286
1769251706320,131,3,2.862519071404229,3.3699935145603512,3.3735250629856086
1769251706324,131,3,3.029007339147375,3.373383970042736,3.5497729145845893
1769251706328,131,3,3.008832670755398,3.440584494583151,3.540596263258867
1769251706332,131,3,2.8832929185589165,3.3792393869820216,3.4286305830758477
1769251706336,131,3,2.732448856306374,3.39519299342426,3.2922637337435785
1769251706340,131,3,2.640129965386948,3.322072400722677,3.212168982245222
1769251706344,131,3,2.7012470285233863,3.4221893190173893,3.282085679620637
1769251706348,131,3,2.9708916899122717,3.3800001022888844,3.559561475439049
1769251706352,131,3,3.3783821704631296,3.424474151692265,3.977406482071129
1769251706356,132,4,3.718952243181904,4.376066351077645,4.3310726571433245
1769251706360,133,5,3.797426870389749,5.275685799713099,4.422042649543877
1769251706364,132,4,3.622081005122154,4.522002711430183,4.256531407964365
1769251706368,131,3,3.4345773620790263,3.1865596251138095,4.078696512517903
1769251706372,131,3,3.5080392023756755,3.696194207647793,4.165103611961344
1769251706376,133,5,3.915235818331615,5.012253405175402,4.587348775233933
1769251706380,133,5,4.510410790962683,5.7080921760830075,5.194773362401801
1769251706384,134,6,5.108100473408124,6.041003555328525,5.79971953379381
1769251706388,133,5,5.620784221440378,5.672619674371955,6.318175845353064
1769251706392,134,6,6.017117850466475,6.179722344136395,6.723611324212899
1769251706396,135,7,6.2239391607310885,7.500911229241891,6.943500877207737
1769251706400,135,7,6.158070214994301,7.25872962345979,6.891537072341021
1769251706404,134,6,5.873357808924347,6.4558345470782985,6.619112382390399
1769251706408,134,6,5.63299505919712,6.28416408385851,6.389641087415218
1769251706412,134,6,5.788200089083829,6.482692021783238,6.555433449287303
1769251706416,135,7,6.547927809868205,7.22651938317515,7.325621807701499
1769251706420,136,8,7.82577725491635,8.5329982203133,8.613330370670337
1769251706424,138,10,9.280922066263388,10.20142279733458,10.077436273565064
1769251706428,139,11,10.520815119848152,11.514948344173712,11.32553552000013
1769251706432,140,12,11.318775949157336,12.20009094805634,12.131763253142369
1769251706436,140,12,11.6946910058376,12.492359940413834,12.517651114317667
1769251706440,140,12,11.82046933869142,12.295519454494324,12.656416445052644
1769251706444,140,12,11.858548305769697,12.428277774632956,12.70924653334956
1769251706448,141,13,11.88536482021304,13.302840418959905,12.748632991140216
1769251706452,141,13,11.934546661239883,13.33628564626665,12.805364213404378
1769251706456,140,12,12.041601985995072,12.378359427430974,12.916974909134854
1769251706460,140,12,12.186271011010264,12.397138991682327,13.068242790015846
1769251706464,141,13,12.210388975444026,13.343102740893954,13.103271735825636
1769251706468,141,13,11.877135482076582,13.378431523783789,12.782667153626806
1769251706472,140,12,11.07108786651959,12.202582632524056,11.987646137283146
1769251706476,138,10,9.928414659536823,10.546569145919555,10.854218318559749
1769251706480,137,9,8.732143225670804,9.163151476785966,9.66716031055914
1769251706484,136,8,7.666945215283804,8.650322275006257,8.611248041452507
1769251706488,136,8,6.680574469224098,8.002673253908943,7.632655306767085
1769251706492,134,6,5.575136764265078,6.605443432290592,6.533463812079145
1769251706496,133,5,4.219478011325101,5.113546078813824,5.1852191931989
1769251706500,131,3,2.6888707124752695,3.5664487069982203,3.665518065917629
1769251706504,130,2,1.2391813062929211,2.290123891948072,2.228923220397644
1769251706508,129,1,0.1576050707314173,1.2888153587841091,1.1587162652125078
1769251706512,128,0,-0.4117227272231583,0.3985334415633652,0.5965424975981426
1769251706516,128,0,-0.5729172734539842,0.2179277750357304,0.4394598655153088
1769251706520,128,0,-0.644399163715911,0.5281348673160576,0.3723123463947313
1769251706524,128,0,-0.979093278767476,0.2674997495697138,0.0445999261651191
1769251706528,127,-1,-1.736292121823257,-0.6727368850901922,-0.7027520416657831
1769251706532,126,-2,-2.764707674780039,-1.6380788142674798,-1.7199032935643808
1769251706536,125,-3,-3.693110652630765,-2.809990119724462,-2.6375383593719826
1769251706540,124,-4,-4.171477517240279,-3.3917249943149734,-3.107089733004735
1769251706544,125,-3,-4.089813290754236,-2.8784680116074246,-3.019053009307087
1769251706548,125,-3,-3.6225423887417274,-2.460416248850578,-2.547153414187815
1769251706552,126,-2,-3.0855395964699506,-1.9078116406016696,-2.005620524729566
1769251706556,126,-2,-2.7305538820620576,-1.535216662058423,-1.644565762774998
1769251706560,126,-2,-2.62635412672072,-1.6939230761692283,-1.5322817288321289
1769251706564,126,-2,-2.685021635754312,-1.5984912243962988,-1.5818488075211543
1769251706568,126,-2,-2.777073621965748,-1.6939446048242968,-1.6653888706111064
1769251706572,126,-2,-2.830909040058009,-1.742089422284707,-1.7123015283752228
1769251706576,126,-2,-2.849999921408165,-1.6441368277471315,-1.7259586667072655
1769251706580,126,-2,-2.8586955233687954,-1.6816244906479945,-1.7298054475907587
1769251706584,126,-2,-2.8426966687602317,-1.5457012241894827,-1.7083484374079263
1769251706588,126,-2,-2.7461295423139664,-1.7949784770876231,-1.6048904458425712
1769251706592,126,-2,-2.5274922081311817,-1.6204378706557248,-1.3783885727450969
1769251706596,127,-1,-2.2143632491707637,-0.7863719387965653,-1.058311820744184
1769251706600,127,-1,-1.9001442611503827,-0.5753180605198551,-0.7397000399048101
1769251706604,127,-1,-1.6937278934611035,-0.6231274737533494,-0.5307452251335112
1769251706608,127,-1,-1.6754352887733877,-0.7505297379422736,-0.5090720301578371
1769251706612,127,-1,-1.8768981682067616,-0.6500104814517866,-0.7043970902051047
1769251706616,127,-1,-2.2582360317637904,-0.7894659686591929,-1.0776453006092508
1769251706620,126,-2,-2.6816806799414628,-1.586849110956969,-1.4935558150133132
1769251706624,126,-2,-2.933206911502818,-1.5972729022366825,-1.739861759811998
1769251706628,126,-2,-2.825808337857713,-1.7967827037998017,-1.629392120892667
1769251706632,126,-2,-2.328672023838836,-1.5961071896757415,-1.1300331576204277
1769251706636,128,0,-1.6084153045358422,0.1281256341736312,-0.4071541817287561
1769251706640,128,0,-0.926043164987675,0.4922005014622699,0.2791278255192636
1769251706644,128,0,-0.4635247365585663,0.3239337539164997,0.7471734009556907
1769251706648,129,1,-0.2186391586457978,1.2596368996832374,0.9982174297627284
1769251706652,129,1,-0.0427751141446259,1.363144737839343,1.1788413807332638
1769251706656,129,1,0.2147682503689651,1.0973011209272407,1.4387254307397677
1769251706660,129,1,0.5629511963720573,1.594329354287847,1.7880404580885827
1769251706664,130,2,0.8430630546316287,2.148959632232229,2.070016185823983
1769251706668,130,2,0.8670243484628395,2.4803903032944006,2.0972145431261016
1769251706672,130,2,0.6223735251176793,2.1100681323867896,1.8565712120944384
1769251706676,129,1,0.3547546270911739,1.305071484987142,1.5931365807624336
1769251706680,129,1,0.4265946108916363,1.4440487008241665,1.669002599185987
1769251706684,130,2,1.0561757224915789,2.2109681370322085,2.3017706935823927
1769251706688,131,3,2.155077073426385,3.5146693089208463,3.4022130480494592
1769251706692,133,5,3.388464254282103,4.984110117375391,4.635641577970364
1769251706696,133,5,4.386511673154519,5.4759222456776335,5.63356881403678
1769251706700,134,6,4.928605690265524,6.217054879411596,6.176725241295119
1769251706704,134,6,4.979483307708016,6.436688871618892,6.230047860956578
1769251706708,133,5,4.5948076104555895,5.3114972343397175,5.848280240373017
1769251706712,133,5,3.811406743826319,5.125045349775366,5.066965885828235
1769251706716,132,4,2.6297769422128434,4.412751684192191,3.885887069125088
1769251706720,130,2,1.093733032774763,2.1503184562590447,2.349479047148634
1769251706724,128,0,-0.6318203627789565,0.6157793795513062,0.6242016946028286
1769251706728,127,-1,-2.279515065226499,-0.9704560452384317,-1.0217655623641613
1769251706732,125,-3,-3.588266919779895,-2.5334858105897338,-2.3283274524325113
1769251706736,125,-3,-4.417890889527381,-2.9610490565282057,-3.157067909176149
1769251706740,124,-4,-4.796756554502311,-3.4934035177622356,-3.5369861073666993
1769251706744,124,-4,-4.889999329993304,-3.720596033839988,-3.6322219412966086
1769251706748,124,-4,-4.91817234552873,-3.673107807797711,-3.662188987496656
1769251706752,124,-4,-5.0617333732176215,-3.8108588045175313,-3.807359400117903
1769251706756,124,-4,-5.385204807842291,-3.722261396303816,-4.1324969989160065
1769251706760,123,-5,-5.820154410461197,-4.718116271335142,-4.568009307473769
1769251706764,122,-6,-6.221641286328333,-5.528016802637281,-4.9674403636138855
1769251706768,123,-5,-6.449555093481824,-4.850004826061814,-5.191922179749559
1769251706772,123,-5,-6.406965075388153,-4.657854795483479,-5.148755047732947
1769251706776,123,-5,-6.044660337187106,-4.869793063504897,-4.791599813832679
1769251706780,123,-5,-5.403229591647679,-4.580170227000625,-4.158747992083985
1769251706784,124,-4,-4.687132682370751,-3.68379989865122,-3.448853682618594
1769251706788,125,-3,-4.246226453798725,-2.7031587883923596,-3.0078090324921787
1769251706792,125,-3,-4.382542599220841,-2.8065621816712945,-3.139213888427875
1769251706796,124,-4,-5.097347096457807,-3.727462020681057,-3.850613852374595
1769251706800,123,-5,-6.0128972003600225,-4.735682291272556,-4.770565463187532
1769251706804,122,-6,-6.5830337694051595,-5.548021272495898,-5.35352052048102
1769251706808,122,-6,-6.4408606290809125,-5.852237209904656,-5.2254348968858055
1769251706812,123,-5,-5.564385198513973,-4.6348079161508515,-4.35431951876688
1769251706816,126,-2,-4.059653530454705,-1.905960591061295,-2.8421183274282864
1769251706820,128,0,-1.7353903481777386,0.4459624655440302,-0.5036701893661322
1769251706824,131,3,2.0367083218959303,3.2299312970143497,3.277518542118786
1769251706828,136,8,7.805271448649897,8.366703311692927,9.041558091887712
1769251706832,143,15,15.09423084470967,15.137118978137028,16.31258780864237
1769251706836,150,22,21.83036304280575,22.345121846191994,23.02459491864373
1769251706840,155,27,24.878524217672663,27.180002153510713,26.051145455914895
1769251706844,152,24,21.621138740963502,24.473195615715365,22.78124232581588
1769251706848,141,13,11.601060688197483,13.044085745627374,12.761516312785666
1769251706852,125,-3,-2.952450743042645,-2.558403795341321,-1.778966080459
1769251706856,110,-18,-18.119107292691677,-17.97633249910976,-16.926537066337392
1769251706860,98,-30,-30.105089087939135,-29.455605794082004,-28.89966534551107
1769251706864,93,-35,-36.69845900341147,-34.813566903484364,-35.49742088116208
1769251706868,92,-36,-37.63943498634208,-35.689771449651296,-36.461134740701624
1769251706872,95,-33,-34.06071379528682,-32.78918505965939,-32.912725178080805
1769251706876,101,-27,-27.665920063734067,-26.84294056809743,-26.540755346690148
1769251706880,108,-20,-20.163448353784062,-19.5486998822328,-19.04536055926596
1769251706884,116,-12,-13.006498906773228,-11.76969155030919,-11.883371118318315
1769251706888,122,-6,-7.231419237534427,-5.69607208506477,-6.102015087746326
1769251706892,126,-2,-3.298256679171815,-1.845894102655567,-2.170036338976572
1769251706896,128,0,-1.0569261430887802,0.1823903698242291,0.0620201381779268
1769251706900,128,0,0.0302776028878466,0.4213434827591449,1.1373448093523943
1769251706904,129,1,0.5060650353784695,1.24190251918123,1.6035954278209652
1769251706908,130,2,0.6581648742316912,2.370810294284655,1.7487086773035758
1769251706912,130,2,0.5646862570624731,2.0110704434642,1.6480916211263206
1769251706916,129,1,0.3275631036581679,1.3593920081458364,1.4023002971783356
1769251706920,129,1,0.2077211095632019,1.1754768321839235,1.2734570467855104
1769251706924,129,1,0.5101034406530442,1.512048748349302,1.5681105394797408
1769251706928,130,2,1.334252352874269,2.1301355883218713,2.385482700883937
1769251706932,131,3,2.4373506987658327,3.2181755214054517,3.480258878448786
1769251706936,133,5,3.3557339263961743,5.1727957451802276,4.386418845329603
1769251706940,133,5,3.697906697777829,5.279851467033776,4.713710036138567
1769251706944,131,3,3.365463733882971,3.4560864380644154,4.368899623873888
1769251706948,131,3,2.5458879061553903,3.1468500357306572,3.5434208137353944
1769251706952,131,3,1.5622746985009175,3.2383207335125657,2.5579187404395207
1769251706956,130,2,0.7578797308705489,2.100163072559051,1.7489000480907904
1769251706960,129,1,0.4415778131171026,1.3642121528853464,1.421419547583095
1769251706964,129,1,0.7903258830349906,1.3695236618109567,1.754732907411077
1769251706968,130,2,1.706690711155202,2.2132053487374277,2.6558602013508485
1769251706972,132,4,2.7941337979940517,4.201781632514091,3.730089230954854
1769251706976,133,5,3.564434579784336,5.087085502836775,4.488633938991249
1769251706980,132,4,3.756253069381459,4.396422262103784,4.670187459282423
1769251706984,132,4,3.507908790892498,4.3032753722592405,4.413980403531597
1769251706988,132,4,3.2510119446593553,4.274582532779961,4.15091141645151
1769251706992,132,4,3.42194316780464,4.137505113664888,4.314232409519267
1769251706996,133,5,4.195702860312873,5.151686293372816,5.075927918621729
1769251707000,134,6,5.389411882636613,6.34365748982889,6.253007126022134
1769251707004,135,7,6.562873051083853,7.321255812327896,7.408152656187448
1769251707008,136,8,7.246277712868595,8.262202796915147,8.075169213077608
1769251707012,136,8,7.177594928530814,8.11752824055511,7.994105149036763
1769251707016,135,7,6.436378951820672,7.184961550898995,7.244301564310666
1769251707020,134,6,5.412333490951443,6.297561277823391,6.213451344779806
1769251707024,133,5,4.628001038655619,5.359650697545494,5.421225580863566
1769251707028,133,5,4.504936862399883,5.205863711171912,5.286604121491662
1769251707032,134,6,5.182441052136076,6.189412761678119,5.947943571981903
1769251707036,135,7,6.463815121066286,7.096576252871452,7.210016116643638
1769251707040,136,8,7.908418537810783,8.4078328521673,8.635350402631554
1769251707044,138,10,9.036035428528535,10.20002841846238,9.746745411479466
1769251707048,138,10,9.56179895846815,10.379987343176822,10.26065249253978
1769251707052,138,10,9.544295533352017,9.969980531273608,10.23470362843035
1769251707056,138,10,9.35350158612376,10.355586443785354,10.035949311179271
1769251707060,138,10,9.461028342866674,10.115290088765065,10.132556737552216
1769251707064,138,10,10.158861709462276,10.48905660190034,10.81468980265825
1769251707068,140,12,11.361530699900598,12.105135991937145,11.997720535355024
1769251707072,141,13,12.618367877610472,13.193969157933187,13.233650156355496
1769251707076,142,14,13.35188459824439,14.196368270696215,13.947998759000347
1769251707080,142,14,13.18884356578812,14.194489280355588,13.769838802167293
1769251707084,140,12,12.172979427574678,12.450879844985485,12.743517787575769
1769251707088,139,11,10.72420702195024,11.075189243741043,11.28676895813773
1769251707092,138,10,9.385196945264171,10.258363322692947,9.937783494618095
1769251707096,137,9,8.521154317595133,9.124607028147082,9.058094100071
1769251707100,136,8,8.131868084462026,8.267118922217847,8.64765005137976
1769251707104,136,8,7.858196744289582,8.38667965656697,8.350885488507767
1769251707108,136,8,7.185043451740203,8.078136959300977,7.656758563440405
1769251707112,134,6,5.748436302663714,6.2936420376902475,6.203713745839575
1769251707116,132,4,3.571280789806504,4.048789354841167,4.014844437695812
1769251707120,129,1,1.077412838113792,1.374276718806169,1.5116835170485372
1769251707124,127,-1,-1.121328084816934,-0.7646887786837797,-0.6981132135724817
1769251707128,126,-2,-2.530584339781638,-1.7714989633051124,-2.123580755717651
1769251707132,125,-3,-3.0080972200090828,-2.8436811723122366,-2.622186559516142
1769251707136,125,-3,-2.8207424881099814,-2.825068464089814,-2.457323655418582
1769251707140,126,-2,-2.4931742275243653,-1.7209494864529185,-2.150447899048429
1769251707144,126,-2,-2.5117884258850043,-1.741774704466193,-2.1871437121827015
1769251707148,125,-3,-3.054956528724354,-2.7693068858189154,-2.7461147970226856
1769251707152,124,-4,-3.933987989475358,-3.88609689336882,-3.6387805596327905
1769251707156,123,-5,-4.774361098006946,-4.7482110391103305,-4.491571829111906
1769251707160,123,-5,-5.272319880924991,-4.828677382693575,-5.003625629232991
1769251707164,123,-5,-5.333774734914429,-4.621033003484515,-5.083739634941602
1769251707168,123,-5,-5.052340328152276,-4.917970132239576,-4.8251606739541915
1769251707172,123,-5,-4.618542806759423,-4.7286452946253945,-4.4146334535152025
1769251707176,124,-4,-4.237312485366861,-3.909528663338509,-4.0533560732562695
1769251707180,124,-4,-4.048827826471324,-3.6931278482271535,-3.880783429141851
1769251707184,124,-4,-4.0448468580544805,-3.739571288366556,-3.8905604304112913
1769251707188,124,-4,-4.038109689608403,-3.8381216657017463,-3.8978279740192856
1769251707192,124,-4,-3.750833475094895,-3.785256024033699,-3.626580882068465
1769251707196,125,-3,-2.999781494657081,-2.8807621207459024,-2.89459377116357
1769251707200,126,-2,-1.8614141266111477,-1.7130403276415471,-1.7781650671110776
1769251707204,127,-1,-0.6956343028047315,-0.7229303860352276,-0.6354436948260339
1769251707208,128,0,0.0087714919650578,0.1249377073381123,0.0473371964303037
1769251707212,128,0,-0.1068812070301252,0.2604147618855614,-0.0868786302276967
1769251707216,127,-1,-1.0561916823088175,-0.9641400202187757,-1.0519707734565822
1769251707220,125,-3,-2.4764244557256085,-2.6220539446509257,-2.4869162193305865
1769251707224,124,-4,-3.8129833507288424,-3.8151172023359514,-3.839120956522565
1769251707228,123,-5,-4.606237448471363,-4.8091450482815885,-4.650326913623729
1769251707232,123,-5,-4.6981286094267976,-4.759869234829729,-4.762779888233087
1769251707236,124,-4,-4.241090939482852,-4.00860874588462,-4.328062653573325
1769251707240,124,-4,-3.5378269742074155,-3.5160826507887406,-3.647077380915901
1769251707244,125,-3,-2.850700625956971,-2.996117075039374,-2.9802471905315095
1769251707248,125,-3,-2.308537118392079,-2.5852593447992627,-2.4557193054745072
1769251707252,126,-2,-1.9306219554949364,-2.0313078561743656,-2.0941670430642123
1769251707256,126,-2,-1.6955019783108036,-1.722789861136829,-1.8765627949323451
1769251707260,126,-2,-1.5823460417560145,-1.8030576787211736,-1.783403118646897
1769251707264,126,-2,-1.5703147779783122,-1.7339844719454702,-1.79295684901589
1769251707268,126,-2,-1.6204966932480005,-1.8296041566878276,-1.8640721102153848
1769251707272,126,-2,-1.6643055327226932,-1.8296204753349816,-1.9264625421002128
1769251707276,126,-2,-1.6088881076890371,-1.8938923883167305,-1.8875446260888684
1769251707280,126,-2,-1.361708840750451,-1.6579504668612943,-1.6570625021654315
1769251707284,127,-1,-0.8708286452838541,-0.8715597414735438,-1.1857677425209696
1769251707288,127,-1,-0.1694372341189706,-0.7032386302411091,-0.5076411079663177
1769251707292,128,0,0.6027781233224547,0.0225494475898593,0.2398198232739223
1769251707296,129,1,1.2426878458451136,1.271010318097051,0.8573815258591829
1769251707300,129,1,1.606200733741325,1.1554836219019968,1.2036957215408912
1769251707304,129,1,1.750569342661454,1.314755790126212,1.3350892620810546
1769251707308,130,2,1.978907473361062,2.1076364563536334,1.5501578779033482
1769251707312,130,2,2.6972457347662324,2.178616709875949,2.250288079439843
1769251707316,131,3,4.114969170370201,3.141201764057336,3.6440734492836944
1769251707320,133,5,5.975237361583461,5.271785292611391,5.478034862518421
1769251707324,135,7,7.563452275590289,7.195090522297675,7.041700416875215
1769251707328,136,8,8.082438694074972,8.2277497629592,7.539839777072913
1769251707332,135,7,7.1728348094905865,7.020677663247164,6.612865159706186
1769251707336,132,4,5.181877078249508,4.311552269926128,4.6069155046433155
1769251707340,130,2,2.952653343938929,2.0617064408743966,2.3634152694478345
1769251707344,128,0,1.2912019575070488,0.437343728073022,0.68597272580136
1769251707348,128,0,0.5175648633373887,-0.0404411693387115,-0.1075381014764311
1769251707352,128,0,0.4026669223512559,0.3303922040197851,-0.2461342227536549
1769251707356,128,0,0.4579395777651345,-0.0288486143937225,-0.2155779208998405
1769251707360,127,-1,0.292058978106577,-0.6141401438504026,-0.4038511517340448
1769251707364,127,-1,-0.2252712852616838,-0.889577831819587,-0.9402465622094476
1769251707368,126,-2,-1.0314098060483177,-1.7526693030011296,-1.763713575759291
1769251707372,125,-3,-2.024400215042138,-2.900057362006703,-2.7741100133362364
1769251707376,124,-4,-3.139040389274857,-3.850317937800236,-3.906586181274182
1769251707380,123,-5,-4.294936770322638,-4.763293354493765,-5.080378913101377
1769251707384,122,-6,-5.301402736872714,-5.795798849825363,-6.104994183654957
1769251707388,121,-7,-5.86177318988764,-6.818799990721241,-6.684405070077881
1769251707392,121,-7,-5.738733548123751,-6.843388187232304,-6.581500278628784
1769251707396,122,-6,-4.97311710709865,-5.894017784189108,-5.8366551273359395
1769251707400,123,-5,-3.954215708968594,-4.745201376877102,-4.838534247745077
1769251707404,124,-4,-3.2358244037890125,-3.8146155226593894,-4.140560709272969
1769251707408,124,-4,-3.206001002708033,-3.824836231790457,-4.130600386095991
1769251707412,123,-5,-3.853657888889504,-4.811949151388319,-4.797146442135302
1769251707416,122,-6,-4.805625467831125,-5.970780341799498,-5.76619901455258
1769251707420,121,-7,-5.593101459290141,-6.644507680168391,-6.568341164679428
1769251707424,121,-7,-5.93326848679045,-6.951886214434073,-6.921764934503888
1769251707428,121,-7,-5.824564521123618,-6.6620558836849675,-6.828442206178069
1769251707432,122,-6,-5.4290580253877785,-5.960809762730034,-6.454844669125007
1769251707436,122,-6,-4.890686228051019,-5.871084637842561,-5.945786822985451
1769251707440,122,-6,-4.254302030337307,-5.703728448702106,-5.340178260146956
1769251707444,123,-5,-3.4937226031493003,-4.985598171869225,-4.601795829123656
1769251707448,124,-4,-2.5019447284055136,-3.5350651608949004,-3.617766976768967
1769251707452,127,-1,-0.9560261699915492,-1.158071732261721,-2.069883124061083
1769251707456,129,1,1.7711744942540806,1.388893820119116,0.6561523820549902
1769251707460,133,5,6.329606189805743,4.9726959642963475,5.199229052259319
1769251707464,138,10,12.673860608747448,10.338633966587652,11.512750411468938
1769251707468,145,17,19.37868084555132,17.15716468561617,18.17946070059716
1769251707472,151,23,23.72752084346153,23.12529340142117,22.493078123485457
1769251707476,151,23,22.878059255852357,23.158653493643055,21.618237617754065
1769251707480,143,15,15.512330957425052,15.081269705213366,14.23949223101007
1769251707484,129,1,2.832016862565806,1.2517076942555962,1.5569909277709382
1769251707488,114,-14,-11.862176006048555,-13.863829072735404,-13.134277799007556
1769251707492,101,-27,-24.747440790877643,-26.739996187577837,-26.02023877485942
1769251707496,93,-35,-33.155932696854755,-34.97328546065647,-34.44096914395542
1769251707500,91,-37,-36.34219059893065,-36.69367495606664,-37.653454534547045
1769251707504,93,-35,-35.10325730680021,-35.03315565030234,-36.44922824504026
1769251707508,95,-33,-30.83777226678762,-32.58602496210942,-32.21589828188873
1769251707512,101,-27,-24.84445710320714,-27.061259783638548,-26.24320164908114
1769251707516,108,-20,-18.181776642214864,-19.614887445529583,-19.589733742808683
1769251707520,115,-13,-11.806744887048582,-13.08245183781331,-13.220819710016894
1769251707524,120,-8,-6.575316319786466,-7.632099231602853,-8.000488810767532
1769251707528,124,-4,-3.014500997385347,-4.049232268952435,-4.456679832733375
1769251707532,125,-3,-1.1079844434898645,-2.608077655644503,-2.5680222287665053
1769251707536,126,-2,-0.3462582824637694,-2.0664074029432338,-1.820566645108224
1769251707540,126,-2,-0.0453185242291107,-1.6174867405078586,-1.5311376903913012
1769251707544,127,-1,0.2895624248948669,-1.090571043822849,-1.2096328952631363
1769251707548,127,-1,0.7917358207657301,-0.6119252680133642,-0.725769728327325
1769251707552,128,0,1.317967525060509,-0.0467081720894587,-0.2206750835554954
1769251707556,128,0,1.6734855085863265,0.3526404479780058,0.1165419250262918
1769251707560,128,0,1.804034542261939,0.0100118735891395,0.2354092032831992
1769251707564,128,0,1.8520564851092471,0.2131242524077257,0.2761479358147374
1769251707568,129,1,2.0765941978395364,1.1493351721458795,0.4913620319240367
1769251707572,129,1,2.687538196307435,1.0849686900812638,1.0867675272762427
1769251707576,129,1,3.6644990881821777,1.325448190657919,2.044059898948629
1769251707580,131,3,4.677927692923942,2.959330486251769,3.0389575584698405
1769251707584,132,4,5.23704380579275,4.315418349302792,3.5835585664325977
1769251707588,132,4,5.0298131221094895,3.99670177908006,3.3652008124135646
1769251707592,130,2,4.193849954638397,2.231939165134125,2.52003234802987
1769251707596,129,1,3.254726120882524,1.1899762237000502,1.5723677280784587
1769251707600,129,1,2.7572497147998143,1.0632797076134055,1.0648040864546853
1769251707604,129,1,2.8946416960669357,1.2492746509399155,1.1880235219583002
1769251707608,130,2,3.4212470034623963,2.035084269978631,1.696542087834776
1769251707612,130,2,3.876097148415993,2.212470357292684,2.133462269807113
1769251707616,130,2,3.918391111913466,2.181107838240256,2.1627606734540383
1769251707620,130,2,3.542524520883368,2.0571873634472784,1.7798537564102763
1769251707624,129,1,3.0567646598370763,1.2616037150958164,1.2893069167719229
1769251707628,129,1,2.860853892995538,1.0087725170034776,1.0856833278277296
1769251707632,129,1,3.1701985717483483,1.265466049202955,1.381783321080179
1769251707636,130,2,3.867076615267064,2.0961903462650633,2.0615115961824593
1769251707640,131,3,4.5828740447265455,3.1443233216300444,2.760810388658489
1769251707644,131,3,4.959636742907917,3.1762036242152276,3.1260033870010675
1769251707648,131,3,4.912853734398671,3.0670172556253537,3.0733279961337203
1769251707652,131,3,4.71557771011846,3.243090385147535,2.8723676789731223
1769251707656,131,3,4.837441877497804,3.052015854051536,2.9880690557873297
1769251707660,131,3,5.624624198516231,3.2392748724297165,3.7645784361756114
1769251707664,133,5,7.0264633101456155,5.037681885439957,5.152683661748103
1769251707668,135,7,8.579989975002324,7.2474975073004355,6.6922146906362645
1769251707672,136,8,9.696439414421658,8.03395669813862,7.796603570162841
1769251707676,136,8,10.05139680782644,8.250078151022958,8.142579865321949
1769251707680,136,8,9.786307635513351,8.038232672923304,7.871722317669048
1769251707684,135,7,9.381882230406868,7.194631022024979,7.463716949459833
1769251707688,135,7,9.321533016969465,7.152942745081618,7.399720456928851
1769251707692,136,8,9.806327923083495,8.072292458525755,7.877967606040847
1769251707696,137,9,10.70742267492652,9.274602139437008,8.768124071800294
1769251707700,138,10,11.725788421377205,9.942381798367906,9.773024365892942
1769251707704,138,10,12.57654729499056,10.321103922446152,10.612299699969649
1769251707708,139,11,13.064997089770737,11.000141856629131,11.094462419553986
1769251707712,139,11,13.08338068565052,11.22278293153687,11.11046391117181
1769251707716,139,11,12.621903168701728,11.146640088492417,10.646213147237274
1769251707720,138,10,11.797593478652187,10.021147896783967,9.816053406168946
1769251707724,136,8,10.819225668733122,8.283924095961966,8.829905981069484
1769251707728,136,8,9.865267964176752,7.967639727877667,7.868877688564682
1769251707732,135,7,8.974416138831405,7.326235816317247,6.972564187858645
1769251707736,134,6,8.055927818783468,5.981344474279208,6.049121816572791
1769251707740,133,5,7.0039891921823925,5.246893963326079,4.9916416018428205
1769251707744,132,4,5.800471317964025,3.992702330307692,3.782316709369248
1769251707748,130,2,4.516165687288778,2.2686078233209095,2.493203215423544
1769251707752,129,1,3.2281735052711067,1.026459171510259,1.2019574025763204
1769251707756,128,0,1.952270139543975,0.270725473844253,-0.0767254411004429
1769251707760,127,-1,0.6634929985911908,-1.0053311488844678,-1.369329766661715
1769251707764,125,-3,-0.6291351773347063,-2.8180858128753847,-2.6668299658467323
1769251707768,124,-4,-1.849107853807142,-3.8826718346684257,-3.8911553067119007
1769251707772,123,-5,-2.896821902766532,-4.8829304917164995,-4.941529515571098
1769251707776,122,-6,-3.714819270346855,-5.75246767950217,-5.761022771393629
1769251707780,122,-6,-4.3052297952583745,-6.030041518195053,-6.353218925636259
1769251707784,121,-7,-4.696234607868526,-6.754552419404636,-6.747104241001549
1769251707788,121,-7,-4.906206760362333,-7.01627119244241,-6.960582359560121
1769251707792,121,-7,-4.942133282565719,-6.708205871080817,-6.999409541663939
1769251707796,121,-7,-4.823881804221343,-6.957133977809518,-6.882405438547996
1769251707800,121,-7,-4.599590770024754,-6.790358616722352,-6.657793040843016
1769251707804,122,-6,-4.3274267754086075,-6.020236837786117,-6.385208936775274
1769251707808,122,-6,-4.037453284340977,-5.769405461565762,-6.096243418033802
1769251707812,122,-6,-3.723971282328327,-5.957704433370734,-5.784954672381144
1769251707816,122,-6,-3.3965028959859356,-5.700585160687188,-5.459104915949206
1769251707820,123,-5,-3.135455837835423,-5.044513565843289,-5.19810455402761
1769251707824,123,-5,-3.0637770175857466,-4.76934241304991,-5.125730076304306
1769251707828,123,-5,-3.233750426093583,-5.04995463930905,-5.295279946152244
1769251707832,122,-6,-3.5415401941952456,-5.664270202684447,-5.602406317263321
1769251707836,122,-6,-3.7696425085948686,-6.014153445559229,-5.828440696092826
1769251707840,122,-6,-3.726205488387482,-5.699891149423744,-5.781850495108837
1769251707844,123,-5,-3.3570086885744677,-5.149464052293803,-5.410361542331309
1769251707848,123,-5,-2.7506163237162724,-4.647333884169933,-4.80380975638276
1769251707852,124,-4,-2.068121723972255,-4.0987574519349685,-4.122122857262106
1769251707856,124,-4,-1.474046710061136,-3.5646272596020134,-3.527343444670853
1769251707860,125,-3,-1.0983988353851653,-3.1534809926977996,-3.1483575332673923
1769251707864,125,-3,-1.008872801644409,-2.725902154035344,-3.0541042972671097
1769251707868,125,-3,-1.1845940530542434,-3.022766441806894,-3.2256630918995164
1769251707872,124,-4,-1.5215918614680772,-3.8148624045562327,-3.5596579146731653
1769251707876,124,-4,-1.8895402748186905,-3.73963275715373,-3.924839745453291
1769251707880,124,-4,-2.203106539265157,-4.105481031939919,-4.234836551075438
1769251707884,123,-5,-2.446941305267177,-4.652886208397583,-4.474259933762537
1769251707888,124,-4,-2.6363305849647185,-4.2070049447644,-4.659144587148449
1769251707892,123,-5,-2.7596724114447824,-4.5458880414071015,-4.7782768253141565
1769251707896,123,-5,-2.7690570995189443,-5.0853353616718975,-4.783210495754287
1769251707900,123,-5,-2.6327929582683023,-4.712061083780651,-4.641784467057105
1769251707904,124,-4,-2.3857864096129635,-4.082141113033913,-4.389510035358499
1769251707908,124,-4,-2.1097556149342047,-3.762940732063024,-4.1088088758634616
1769251707912,124,-4,-1.8611222312661289,-3.99099187288519,-3.855306787511717
1769251707916,124,-4,-1.6248418239085172,-3.663367523676053,-3.612367127757783
1769251707920,125,-3,-1.3311030352541375,-3.1184356852474404,-3.3101678099028
1769251707924,125,-3,-0.9039758585971456,-2.7135762896039095,-2.874840940411444
1769251707928,126,-2,-0.3073110079876406,-2.080094066897684,-2.2720385726258243
1769251707932,126,-2,0.4173069340136803,-1.7290976976504675,-1.5428407475385764
1769251707936,127,-1,1.1339305090353036,-0.8737772490780262,-0.8211681576690355
1769251707940,128,0,1.655656892231816,0.0117145702472739,-0.292565588524001
1769251707944,128,0,1.854853403770886,0.2257030099658442,-0.0847433230346449
1769251707948,128,0,1.766665164964049,-0.0839654463567557,-0.1632817138416609
1769251707952,127,-1,1.5887043440393651,-0.6597247064943521,-0.3314407836187072
1769251707956,128,0,1.5632781046799766,-0.0256917584655717,-0.3478741537519969
1769251707960,128,0,1.828363489170345,0.2236526731736073,-0.0748953205972761
1769251707964,128,0,2.3367162358050706,-0.0461795938482398,0.4412303204390932
1769251707968,129,1,2.886069630627852,1.259785300927836,0.9993214248093434
1769251707972,130,2,3.2389918554448305,1.9380126640459048,1.3616721416438893
1769251707976,129,1,3.2517153743233873,1.390008565703826,1.383509399474324
1769251707980,129,1,2.9119943498092837,0.7884083422652673,1.0524436128381345
1769251707984,128,0,2.266396051563225,0.3785729654576534,0.4158510101955271
1769251707988,128,0,1.3360470577708874,-0.1262618411263072,-0.5043709672162189
1769251707992,126,-2,0.1276318723707181,-1.725470462161327,-1.7012579563437895
1769251707996,125,-3,-1.2721922122809544,-2.89758439407912,-3.088387393887929
1769251708000,124,-4,-2.63464371824212,-4.002066276259769,-4.437839166703812
1769251708004,122,-6,-3.658161017772176,-5.764614603579059,-5.4493198263631735
1769251708008,122,-6,-4.152864810970732,-6.035547818542504,-5.9339055495171396
1769251708012,122,-6,-4.20507836872061,-5.763145660741196,-5.97781794413868
1769251708016,122,-6,-4.171760574578786,-5.899274596519158,-5.936573704791497
1769251708020,122,-6,-4.474250214491546,-6.00778323706243,-6.229352675696083
1769251708024,121,-7,-5.319583283449388,-6.7375452175358514,-7.061702703673882
1769251708028,120,-8,-6.5442738944645376,-8.12147620471074,-8.270378782478263
1769251708032,118,-10,-7.699371636965484,-9.601673594259651,-9.40835342886607
1769251708036,118,-10,-8.32780971597037,-10.148708695997415,-10.021225252185284
1769251708040,118,-10,-8.245747254143918,-9.6872277219547,-9.927095233373596
1769251708044,119,-9,-7.641955515861905,-9.108906719961682,-9.314591976192611
1769251708048,119,-9,-6.947485096583775,-8.712564887183627,-8.612524764581774
1769251708052,120,-8,-6.576949387468446,-8.029835655917172,-8.232606321144997
1769251708056,120,-8,-6.702318249118387,-7.744371260204558,-8.344473719895182
1769251708060,119,-9,-7.186545838419078,-9.077484019783434,-8.809930967128558
1769251708064,118,-10,-7.702433187429016,-9.760190860554909,-9.303328898468212
1769251708068,119,-9,-7.935699557231239,-8.988705749144742,-9.515963372352518
1769251708072,119,-9,-7.727337368596335,-8.841105984011417,-9.295617942227253
1769251708076,119,-9,-7.099402431059316,-8.834947839141215,-8.66581575726866
1769251708080,120,-8,-6.202230437368306,-8.10443253832688,-7.7695216819443695
1769251708084,121,-7,-5.198887906786238,-6.631566629434039,-6.75792031607075
1769251708088,123,-5,-4.06560765479918,-5.210593532461745,-5.599992987992573
1769251708092,124,-4,-2.386243332122046,-3.5448325017163302,-3.8835916722536785
1769251708096,128,0,0.6242538214994511,-0.1728981646490037,-0.8374594445387553
1769251708100,132,4,5.656120745329256,4.229048203773768,4.214515145648786
1769251708104,138,10,12.5018904996167,10.061978854795704,11.060885978641076
1769251708108,145,17,19.437831023543477,17.044780610511143,17.986570507998607
1769251708112,150,22,23.454322470070885,22.278835178185368,21.996101018810194
1769251708116,150,22,21.55448384487327,21.90215194698679,20.103152651374252
1769251708120,140,12,12.4943713384688,12.19758982966258,11.06678265935271
1769251708124,124,-4,-2.1998551879812895,-4.019625702798292,-3.5908849498427315
1769251708128,107,-21,-18.734084230094396,-20.847599292715884,-20.085125901424902
1769251708132,93,-35,-32.802415949540936,-34.81611654911205,-34.1214056286635
1769251708136,85,-43,-41.466285577759336,-42.952979503570795,-42.76858408087971
1769251708140,83,-45,-44.044179811440706,-44.84681344861547,-45.343972354342576
1769251708144,86,-42,-41.693863280745475,-42.03575754191779,-42.99659451086576
1769251708148,91,-37,-36.25805900152319,-36.80639842362535,-37.55865044709336
1769251708152,97,-31,-29.28691075838794,-30.941307099330167,-30.57393282742156
1769251708156,104,-24,-21.77984803144646,-23.80160969109765,-23.04265929823781
1769251708160,112,-16,-14.487305574250213,-15.982980971853276,-15.722196397466965
1769251708164,119,-9,-8.197193387821947,-8.944651004176022,-9.40869439245899
1769251708168,124,-4,-3.6212807674821943,-3.862111743780424,-4.817291071229198
1769251708172,126,-2,-1.022639398630914,-1.9873814168542745,-2.207112276154451
1769251708176,126,-2,-0.0228215737129549,-1.6751204005791909,-1.1927210296587258
1769251708180,127,-1,0.1699696340150573,-1.179735904119139,-0.9794149445338513
1769251708184,127,-1,0.2911760412776765,-0.6751802780686618,-0.8354160440582147
1769251708188,128,0,0.679772684329583,-0.177963649351728,-0.4275090718581286
1769251708192,128,0,1.2678984991162254,0.3551759669829486,0.1744829103473023
1769251708196,129,1,1.8098086623090135,0.9755378361293938,0.7278375263270336
1769251708200,129,1,2.1232135681792204,1.1491886037253791,1.0547880621988197
1769251708204,129,1,2.186018355702763,1.0223169393327876,1.1354415176134294
1769251708208,129,1,2.088624914349193,1.0832174614853836,1.0590391637792962
1769251708212,129,1,1.9458600044629104,1.12762793172991,0.9375639946703272
1769251708216,129,1,1.8567811180797813,1.1771790163765694,0.8679913889495265
1769251708220,129,1,1.90988294735057,0.9608032708058034,0.9385887540641142
1769251708224,129,1,2.1750771751190396,1.2029974719753098,1.220052194169421
1769251708228,130,2,2.6566268648329707,1.8953679613147243,1.7172051993341393
1769251708232,130,2,3.2476726981760993,2.317213992025839,2.323565878390826
1769251708236,131,3,3.7458911249546794,2.990197794518999,2.8377651033321145
1769251708240,131,3,3.948390380047604,3.1390331416848505,3.0581359191215896
1769251708244,131,3,3.783385156248423,3.029919424437406,2.9130092813819695
1769251708248,131,3,3.3942378103081303,3.039111088150181,2.544297311212408
1769251708252,130,2,3.095206487066324,2.2012155522147676,2.264572544537226
1769251708256,130,2,3.1909149288712397,2.075710889442693,2.377894553804763
1769251708260,131,3,3.7682013229866302,3.0900879494986624,2.9714398447922665
1769251708264,132,4,4.624355823072176,4.049598977479936,3.842949527965531
1769251708268,133,5,5.4022827636492545,5.023967035913046,4.636029480907283
1769251708272,133,5,5.829130946647253,5.229760332804719,5.079145637948223
1769251708276,133,5,5.873549983558532,5.004849467076444,5.142047203011383
1769251708280,133,5,5.722908888525526,5.197045265454015,5.011580541684634
1769251708284,133,5,5.6347245439212665,4.904361352537817,4.943138185956448
1769251708288,133,5,5.79174828467787,5.184733131910696,5.117652962442969
1769251708292,134,6,6.247484622832205,6.09473536114722,5.588991830037727
1769251708296,134,6,6.957814685150202,6.090239425184693,6.315186285879762
1769251708300,135,7,7.842409613934242,7.161493418415206,7.217345626523723
1769251708304,137,9,8.82926720326977,8.877169702405686,8.222564021543915
1769251708308,137,9,9.861244186402788,9.258667113436836,9.271825626018014
1769251708312,138,10,10.860870220519072,9.996867018263083,10.287128432850592
1769251708316,139,11,11.688695623463907,11.198785723716613,11.129994430348974
1769251708320,140,12,12.167214344380133,12.03412723553439,11.624093078213706
1769251708324,140,12,12.193889668264626,11.996930465304178,11.66777278725746
1769251708328,139,11,11.857624469912462,11.157441320634836,11.350403916929862
1769251708332,139,11,11.442694425340967,11.079227789539074,10.955410534555504
1769251708336,139,11,11.296349926034862,11.131782976263525,10.827671133006929
1769251708340,139,11,11.641377872409915,11.074820672884275,11.188022522748842
1769251708344,140,12,12.44441611320563,11.971895459737478,12.003722663112072
1769251708348,141,13,13.41879151018546,13.194994957257284,12.990937403598728
1769251708352,142,14,14.1728271095789,14.019272442380888,13.760557640913463
1769251708356,142,14,14.422412385838442,14.210970283218751,14.02865169183849
1769251708360,142,14,14.126879425350422,13.946559539504394,13.75230736245364
1769251708364,141,13,13.448553265348018,13.133931140825812,13.091084418753258
1769251708368,140,12,12.566426103228904,12.009814162807071,12.222932311235525
1769251708372,139,11,11.49593821238779,11.227751687738468,11.164701537712409
1769251708376,138,10,10.07566362307062,9.988683940461332,9.757557674344357
1769251708380,136,8,8.151199794397519,8.157586379414354,7.848859302417527
1769251708384,134,6,5.809358318091124,5.935891030890311,5.525233917052867
1769251708388,131,3,3.4464309518035914,3.1857839583625367,3.1811620709927473
1769251708392,129,1,1.5729786787699562,1.0786432007560287,1.3248469130712184
1769251708396,128,0,0.4813348569232314,0.1097370750080209,0.2468639854760722
1769251708400,128,0,0.0377479762673376,0.0602280979750136,-0.1865182657049016
1769251708404,128,0,-0.2250168580610752,0.0227221034392557,-0.4399958683914418
1769251708408,127,-1,-0.7787644587552447,-0.8895193415151685,-0.9815086556210344
1769251708412,126,-2,-1.777440161406706,-1.8650779951008625,-1.9631137115989696
1769251708416,125,-3,-2.9593128890111693,-2.958830886107676,-3.1254468319245836
1769251708420,124,-4,-3.820860440882649,-3.8754225169376215,-3.9695993294010874
1769251708424,124,-4,-3.9404237471020296,-4.029285662183884,-4.076176109533824
1769251708428,124,-4,-3.247584993645254,-3.8178804608366215,-3.372888944144648
1769251708432,126,-2,-2.0592241447056394,-1.9584094930871156,-2.1734841566255163
1769251708436,128,0,-0.8492885819940623,0.142665788676478,-0.950753906729404
1769251708440,128,0,0.0671542843395043,-0.0035699019378431,-0.0204424883908889
1769251708444,128,0,0.6626148847665023,0.114062104484247,0.5890680583041596
1769251708448,129,1,1.038814615771321,1.0432543645386376,0.978573727331992
1769251708452,129,1,1.1693067908215364,1.1474112583638358,1.1205756430702
1769251708456,129,1,0.820790985194292,1.063921156916491,0.781866855762954
1769251708460,128,0,-0.2599968515640745,0.0587451986112098,-0.2887728503760294
1769251708464,126,-2,-2.0592398395088214,-1.9399355671783465,-2.075203844426636
1769251708468,124,-4,-4.1591291577738145,-3.9033226299403534,-4.1595390309165605
1769251708472,122,-6,-5.882186488002468,-5.940407059668131,-5.8668150398257675
1769251708476,121,-7,-6.638220971906128,-6.812757380901202,-6.609780335750335
1769251708480,122,-6,-6.2445060831916965,-6.079587187971931,-6.206751755799349
1769251708484,123,-5,-5.0013337086160625,-4.758589067571034,-4.956696152128503
1769251708488,125,-3,-3.4764166655934057,-3.1236990346582374,-3.4248708323457535
1769251708492,126,-2,-2.1592827331917763,-1.7131635517101202,-2.098744698160518
1769251708496,127,-1,-1.230864694416446,-1.065022115093003,-1.1584547010574695
1769251708500,127,-1,-0.5876379224842212,-0.8235001653772195,-0.5013086190724498
1769251708504,128,0,-0.0503429828935981,0.0118898301808884,0.0495803197288629
1769251708508,129,1,0.4457951948834924,1.0639978158437224,0.5564008680776074
1769251708512,129,1,0.8235866874727236,1.1478812246679158,0.9414017966160344
1769251708516,129,1,0.9704245693899792,1.0022217106072857,1.0941714679433394
1769251708520,129,1,0.8500473676917573,1.1856198537766145,0.9813856592307668
1769251708524,129,1,0.5328455642357128,0.9289579334509162,0.6745537702390767
1769251708528,128,0,0.1486473542797732,0.2130575708360133,0.3021774536474381
1769251708532,128,0,-0.1851519436766462,-0.061156121533251,-0.0209300775084321
1769251708536,128,0,-0.4076256519841019,0.2537724246404207,-0.2357562577024354
1769251708540,128,0,-0.5136099499749516,-0.0975219366752278,-0.3366375945200779
1769251708544,127,-1,-0.5325313652955628,-0.7580285768657622,-0.3502142558869113
1769251708548,128,0,-0.5069894585462036,-0.128954378892033,-0.3166664239305872
1769251708552,128,0,-0.4577513021278672,0.3030824747651895,-0.2571267022718814
1769251708556,128,0,-0.3379317419189158,-0.1443338671084313,-0.1271530906686027
1769251708560,128,0,-0.0335516837029401,0.3367235558108011,0.1852798920317172
1769251708564,129,1,0.547099308411007,0.7881062832259954,0.7716499909433213
1769251708568,129,1,1.3527093873905465,1.3188161880760685,1.5814245763190615
1769251708572,131,3,2.1589298992779473,2.871884639160509,2.3912371245038897
1769251708576,131,3,2.689113723277922,3.258051015142363,2.925734468474343
1769251708580,131,3,2.8095094195491583,2.9691131360408516,3.052669136215191
1769251708584,131,3,2.6488732074356967,3.1258140356120525,2.901218628822841
1769251708588,131,3,2.548365276536889,2.9818677289019253,2.8108347977636856
1769251708592,131,3,2.866399911492844,3.2055900904600594,3.137104913438632
1769251708596,132,4,3.7496466577393224,3.933455379410303,4.0248656185769605
1769251708600,133,5,5.005091103047759,5.307880200232494,5.281231362690251
1769251708604,135,7,6.164219023505521,6.777402246828351,6.43942587044206
1769251708608,135,7,6.718157555026522,7.31629598350209,6.993457989054411
1769251708612,135,7,6.382329007457426,6.872000671747741,6.661896003789698
1769251708616,133,5,5.227733465569598,5.251103293733252,5.516788832786799
1769251708620,132,4,3.6210150888189574,4.019132084597372,3.9215512590976447
1769251708624,131,3,2.0390813208744003,3.030043088612026,2.347250983783903
1769251708628,129,1,0.8552635400897985,1.1020350713324223,1.1640536763226228
1769251708632,128,0,0.1673436540507467,0.0481391342494914,0.4723861717809622
1769251708636,128,0,-0.2535705160643526,0.1211085887315228,0.0489517807938986
1769251708640,128,0,-0.8147524114962361,0.1086177203746876,-0.5101690086644356
1769251708644,127,-1,-1.7979653126475537,-1.0271587121860069,-1.4874587189469708
1769251708648,125,-3,-3.1161414371708993,-2.871636454871638,-2.7987677184443513
1769251708652,124,-4,-4.348414823798517,-3.96897863079004,-4.026038409885937
1769251708656,123,-5,-5.049009080504435,-4.874487431877796,-4.724949959607407
1769251708660,123,-5,-5.08791243930058,-4.884178803558675,-4.765024852598323
1769251708664,124,-4,-4.75075483566037,-4.020970023920469,-4.429758674583915
1769251708668,124,-4,-4.520456357748995,-3.8760211153000785,-4.199682476066898
1769251708672,124,-4,-4.718349865680379,-3.9856348963174177,-4.395259718881213
1769251708676,123,-5,-5.29268637753214,-4.856749985157721,-4.966114917598524
1769251708680,122,-6,-5.916380597106662,-5.928103187195705,-5.5877704260384435
1769251708684,122,-6,-6.295216314969335,-5.937243341317702,-5.967667061368946
1769251708688,122,-6,-6.413707975993634,-5.973662038005956,-6.089199553574858
1769251708692,122,-6,-6.508964411389348,-5.875658505236075,-6.1859288283739975
1769251708696,122,-6,-6.804770498174391,-5.982040849764264,-6.478751924404023
1769251708700,121,-7,-7.246267454752969,-6.811633396008732,-6.914225214574722
1769251708704,121,-7,-7.4763645974232364,-7.048547108702377,-7.14129343946903
1769251708708,121,-7,-7.09173934621381,-6.854525504306091,-6.7625600445044345
1769251708712,122,-6,-5.97077033629909,-5.995218858750171,-5.655750169458047
1769251708716,124,-4,-4.3718046616413835,-3.8646250455318305,-4.07008348576491
1769251708720,126,-2,-2.6515601576911836,-1.9198390948622095,-2.3507397396606233
1769251708724,128,0,-0.7725915318040888,0.0358846820783131,-0.4565058353763017
1769251708728,131,3,1.9707203856087616,3.0942870789208596,2.308940483508086
1769251708732,135,7,6.615071717836832,7.020210479652763,6.965708777005521
1769251708736,141,13,13.588499094344243,13.1382278170981,13.930872823756232
1769251708740,149,21,21.731390535973965,21.08903897623151,22.04789366699176
1769251708744,156,28,28.122149251051493,28.014595470436003,28.40884283780437
1769251708748,159,31,29.186131450586544,31.135280829537567,29.45295194231815
1769251708752,153,25,22.64284130446973,24.93151505870011,22.906740350084853
1769251708756,137,9,9.04837412283808,9.173456868741242,9.32574382672716
1769251708760,119,-9,-8.199927172686756,-8.947830292371673,-7.899716576587773
1769251708764,103,-25,-24.461106516320463,-24.98421991754669,-24.140830368731542
1769251708768,92,-36,-35.97191249438314,-35.746751712901045,-35.64658787055438
1769251708772,88,-40,-41.167157730554294,-40.1577015714268,-40.85608699423243
1769251708776,88,-40,-40.62385023329927,-39.677203410252886,-40.33895642485459
1769251708780,93,-35,-36.0527942589038,-35.14441758867882,-35.792149591718136
1769251708784,99,-29,-29.231316181010506,-28.847028539589495,-28.982318493048233
1769251708788,106,-22,-21.511351445506232,-21.841311115337746,-21.26022896086136
1769251708792,114,-14,-13.909619350452065,-14.115750815851332,-13.650415736190382
1769251708796,121,-7,-7.3357147658551565,-6.613206802937787,-7.073127151492831
1769251708800,127,-1,-2.561547351533794,-1.3592529892257397,-2.3057199186761808
1769251708804,128,0,0.0548606008908247,0.4426213007129281,0.2978114271194084
1769251708808,129,1,0.7652943154611269,0.7740286998334767,0.998794792632525
1769251708812,128,0,0.3090828621299684,0.3623919139225778,0.5421216350736378
1769251708816,128,0,-0.4415445237672217,-0.1137236161581929,-0.2041542362440213
1769251708820,128,0,-0.8108199020981546,0.1475441126109029,-0.5739812351781738
1769251708824,128,0,-0.4786373248879807,-0.0674696705642746,-0.2526741266859938
1769251708828,128,0,0.4959320435883403,0.2691332466767346,0.7046949224735679
1769251708832,130,2,1.7339683859004715,1.90725117322822,1.9282151330021515
1769251708836,131,3,2.7115821703318947,3.331450939930306,2.8995823924106854
1769251708840,132,4,3.0582251261698605,3.6974700267319496,3.2464986522558608
1769251708844,131,3,2.8243672207084436,3.364767920516303,3.0133702225927133
1769251708848,131,3,2.4824026033052364,2.8371102476354273,2.6678845957597623
1769251708852,130,2,2.5872596996274906,2.3266043673254364,2.764530439340444
1769251708856,131,3,3.3231560954849453,2.9738992606222627,3.4897215642300807
1769251708860,133,5,4.315897356869516,4.983184368314146,4.471010014871319
1769251708864,134,6,4.903272830873927,6.169840986011483,5.047139034140773
1769251708868,133,5,4.65350661711832,4.922408007619071,4.7882546509834025
1769251708872,131,3,3.691424588293162,3.3285350373842726,3.821437582230872
1769251708876,131,3,2.580368630708431,2.897284312581327,2.709224574099947
1769251708880,130,2,1.907246880449278,2.0966903334726608,2.033766648252741
1769251708884,130,2,1.92140906438867,2.0691898429312205,2.039756076117048
1769251708888,131,3,2.4576058816874604,3.011352033986,2.56191474594975
1769251708892,131,3,3.1266174558522097,3.2804866353777635,3.2156427910936864
1769251708896,132,4,3.5986339832516663,3.86776780828051,3.676381131768683
1769251708900,132,4,3.794353959650313,4.190566564403032,3.8667845684206847
1769251708904,132,4,3.8902215966111497,3.9112071652797784,3.9609825234324454
1769251708908,132,4,4.164375480783831,4.242827089812873,4.232278947210822
1769251708912,133,5,4.7965825761312,5.0052193725752305,4.85616257191598
1769251708916,134,6,5.74489967390892,6.150833619622101,5.790129563287799
1769251708920,135,7,6.75518871949642,6.911185575176886,6.784313515299664
1769251708924,135,7,7.482895715544922,7.17948647037214,7.500145624196101
1769251708928,136,8,7.676242261062075,8.003536893462163,7.688041127153607
1769251708932,136,8,7.351412739839774,8.21528131946086,7.360552480129242
1769251708936,135,7,6.844486881328695,6.946082187699434,6.848298425065146
1769251708940,134,6,6.639232578554622,6.107118803291946,6.632953708425326
1769251708944,135,7,7.0372604449038905,6.998384230405647,7.018166019993941
1769251708948,136,8,7.926682305443249,8.18881305180474,7.895166060401149
1769251708952,137,9,8.870815599153628,9.039794276144049,8.82883144204195
1769251708956,138,10,9.46469056511699,10.111524733937182,9.413909256975398
1769251708960,138,10,9.65902143396208,9.939228669668395,9.600109824851035
1769251708964,137,9,9.771999380797508,9.146560399837655,9.704847536142868
1769251708968,138,10,10.184354916292524,10.056888964736316,10.108408405213144
1769251708972,139,11,10.994126840920638,11.178105332913724,10.908607485703904
1769251708976,140,12,11.932740634905551,11.975195784098414,11.83705725155146
1769251708980,141,13,12.595640071209594,13.0936530676148,12.489679631017792
1769251708984,141,13,12.762750230373957,12.952579458402107,12.646553277611115
1769251708988,140,12,12.523374264833045,12.266049245007927,12.3967236758119
1769251708992,140,12,12.10967076684981,11.9552794872168,11.972429607364644
1769251708996,139,11,11.6095089605242,11.221721641515598,11.46225247031864
1769251709000,139,11,10.84297108257012,10.842698185098143,10.68665479396949
1769251709004,138,10,9.53945637427505,10.209478885058974,9.37425738661679
1769251709008,136,8,7.660277920032881,7.99330794470573,7.4853973962545695
1769251709012,133,5,5.543761196536709,5.223319364728624,5.358752547425227
1769251709016,131,3,3.696718041900939,2.9770645469420134,3.5022195982371684
1769251709020,130,2,2.404988866184224,2.0531415127380988,2.2013176905163405
1769251709024,130,2,1.5300213387666712,2.0633076002458677,1.3157481621242957
1769251709028,129,1,0.6781284468310727,1.0795833037983875,0.4514489947769492
1769251709032,127,-1,-0.4344763036377679,-0.7970595456715355,-0.6730333209534196
1769251709036,126,-2,-1.7564906730530545,-2.077740879207302,-2.0041119778231735
1769251709040,125,-3,-2.9778299875007157,-2.8510313979627147,-3.2325234885625016
1769251709044,124,-4,-3.79615384710958,-4.059594810423443,-4.058796867357708
1769251709048,123,-5,-4.144764194810364,-4.757540960535588,-4.417821654742091
1769251709052,124,-4,-4.218793245246121,-3.958539838792443,-4.503899200885473
1769251709056,124,-4,-4.294983305700366,-3.93983808692814,-4.591929839624579
1769251709060,123,-5,-4.499310209443194,-4.983528622649462,-4.806587233706862
1769251709064,123,-5,-4.7194304630061765,-4.946248907072741,-5.035477793835257
1769251709068,123,-5,-4.7273349122420125,-4.828583569412759,-5.051643399931885
1769251709072,123,-5,-4.392039348916356,-4.917970103673202,-4.725250968515651
1769251709076,124,-4,-3.798344213551821,-3.948918755084783,-4.141454415146429
1769251709080,125,-3,-3.182329180776407,-3.012171017653152,-3.5359738956677553
1769251709084,125,-3,-2.7522410196598326,-2.8938874772077456,-3.116509117500311
1769251709088,125,-3,-2.5573654615185415,-2.882796980913454,-2.93189306605245
1769251709092,125,-3,-2.515228652342074,-2.863234001515397,-2.899478252462971
1769251709096,125,-3,-2.552075080335303,-3.009602352725485,-2.9457707554836654
1769251709100,125,-3,-2.703682592581868,-2.9578409730864808,-3.107008449631499
1769251709104,125,-3,-3.0695022853896266,-2.933915295732087,-3.482641972172242
1769251709108,124,-4,-3.665376336001706,-3.838291359664795,-4.0877553607443655
1769251709112,123,-5,-4.326433653138272,-4.904957769587223,-4.756820291943774
1769251709116,123,-5,-4.7664909545760406,-4.987885784215729,-5.204321823688377
1769251709120,123,-5,-4.756023441618429,-4.972044619748326,-5.202455233249982
1769251709124,123,-5,-4.282064360026851,-4.915029934948032,-4.739264363659443
1769251709128,124,-4,-3.5705986648533425,-3.830102992534345,-4.039975213355866
1769251709132,125,-3,-2.9478775608146552,-2.924234333130604,-3.4289753040995463
1769251709136,125,-3,-2.6286204500656853,-2.9888109616206706,-3.119273874992651
1769251709140,125,-3,-2.5790256311595208,-2.9679776125184816,-3.076433430005799
1769251709144,125,-3,-2.5531079166963817,-2.9235193389655993,-3.055434505627153
1769251709148,125,-3,-2.271133509718255,-2.790735798712283,-2.778907301410857
1769251709152,126,-2,-1.6102014511039002,-1.9778016723927143,-2.1263817318186913
1769251709156,127,-1,-0.6851615402039839,-0.928601540373826,-1.2132913331256754
1769251709160,128,0,0.2112862497356765,-0.0502610827031928,-0.3301272510453016
1769251709164,128,0,0.75121513349311,0.1868086751056062,0.1987058655847389
1769251709168,128,0,0.7167076241279875,0.0864831853557199,0.156931967117939
1769251709172,128,0,0.0985721502710496,0.156134698498405,-0.4664299794536779
1769251709176,127,-1,-0.882481260169826,-1.081565164170385,-1.4536481673298196
1769251709180,125,-3,-1.8618088602107283,-2.8980597890567794,-2.44091587179254
1769251709184,125,-3,-2.5025776982790435,-2.9489402590768754,-3.0898429155465386
1769251709188,125,-3,-2.645955594564616,-2.7716339156897285,-3.240247937156554
1769251709192,125,-3,-2.331874658050326,-2.982203643988645,-2.9328197078340694
1769251709196,126,-2,-1.6981980134423984,-1.94386296155767,-2.307545755054991
1769251709200,127,-1,-0.8716351218657851,-1.0413419192132631,-1.4920946397318566
1769251709204,127,-1,0.0497042510553673,-0.8111511133089092,-0.5824557447487534
1769251709208,128,0,0.9349719889727162,0.1100710568318475,0.2943928051966068
1769251709212,129,1,1.5989180481252,1.1248819008318207,0.9547195877039908
1769251709216,130,2,1.9131658667449485,1.9511236784961328,1.2671450138179003
1769251709220,130,2,1.9713172445043847,2.067613894070421,1.320749052260822
1769251709224,129,1,2.094310975518833,1.0677473283913692,1.4351254471314367
1769251709228,129,1,2.5787782292577166,1.247192900319937,1.9092615343432215
1769251709232,131,3,3.386217162589894,2.9799646746346347,2.707177683941321
1769251709236,132,4,4.099267459987478,4.102312043606256,3.412034729347437
1769251709240,132,4,4.237460139322943,3.9380020838051455,3.54325423206989
1769251709244,131,3,3.6656065292556104,3.173002497319134,2.966315815932973
1769251709248,130,2,2.730804045059225,2.1538648878721753,2.028656112234549
1769251709252,129,1,2.009814791710261,1.0296194873991484,1.305459204691791
1769251709256,129,1,1.8781448465978876,1.10145790782329,1.1693374465445616
1769251709260,130,2,2.2407465198475047,1.942693849947012,1.523475073866831
1769251709264,130,2,2.614864057858782,2.1828481073948818,1.8863557303575769
1769251709268,130,2,2.473749623790398,2.13586093725686,1.7349055666718454
1769251709272,129,1,1.5798704825223249,0.9998960390698044,0.8348982160219618
1769251709276,127,-1,0.0854784479311327,-0.8292615757904493,-0.6611818316784557
1769251709280,126,-2,-1.6185699475927302,-2.1498316783706937,-2.3654289030875058
1769251709284,124,-4,-3.1534037705118036,-3.6641381476819888,-3.902466969149741
1769251709288,123,-5,-4.327988715141505,-5.069061085282559,-5.082582329755529
1769251709292,122,-6,-5.161974618860725,-5.7711747238241395,-5.924333284764392
1769251709296,122,-6,-5.787905594341806,-6.0775691310417095,-6.5583738743966515
1769251709300,121,-7,-6.32773520993834,-6.876996941568043,-7.105127787900952
1769251709304,120,-8,-6.832547851083445,-7.916948359414327,-7.614782339383464
1769251709308,120,-8,-7.301373526141436,-7.851733016788119,-8.086372963159635
1769251709312,120,-8,-7.719550443055568,-7.973997479667675,-8.506165788347838
1769251709316,119,-9,-8.06472067166225,-8.900785125550986,-8.853092523409579
1769251709320,119,-9,-8.296339834067869,-9.004259179273076,-9.087927728329422
1769251709324,119,-9,-8.370776648414308,-8.800495024254406,-9.168143887373391
1769251709328,119,-9,-8.28783734392246,-8.971290976926557,-9.093101931927992
1769251709332,119,-9,-8.136122874360918,-8.8778668311917,-8.948225614368834
1769251709336,119,-9,-8.089856012276524,-8.969812620947486,-8.903895965573383
1769251709340,119,-9,-8.319163634125303,-8.950587256167347,-9.130410162326234
1769251709344,119,-9,-8.836998494329494,-8.801827753998316,-9.64659841664573
1769251709348,118,-10,-9.401915486992875,-10.029768321268936,-10.217658851393631
1769251709352,117,-11,-9.60554454517969,-10.80153231138704,-10.435175555056077
1769251709356,118,-10,-9.111762368958622,-10.043728373592554,-9.954429710784323
1769251709360,119,-9,-7.816088058705541,-8.880996900173821,-8.660605112282408
1769251709364,122,-6,-5.719468829567013,-5.803618982651286,-6.552328425088689
1769251709368,126,-2,-2.6220199674008104,-2.0959118595727744,-3.438685219379992
1769251709372,129,1,1.947351099863063,1.316038224105796,1.1381500026401117
1769251709376,135,7,8.2351746212298,6.767686455921289,7.417972379921219
1769251709380,141,13,15.42088440078225,13.384624480500277,14.584331026395828
1769251709384,148,20,21.197295148377567,19.89093191728771,20.33979930369919
1769251709388,151,23,22.459651519100255,23.250527824832055,21.58737883149184
1769251709392,146,18,16.950652528102125,17.922393212444447,16.073251945582804
1769251709396,132,4,4.792956908671416,4.111983666664606,3.9214128841450058
1769251709400,115,-13,-11.250649264065885,-12.959339191504505,-12.106088812196472
1769251709404,99,-29,-27.030977056082214,-28.792781720350064,-27.865870528660903
1769251709408,88,-40,-38.89607262408676,-39.97121841692376,-39.716875842809706
1769251709412,83,-45,-44.979001256581746,-44.81317702332134,-45.80166229452486
1769251709416,83,-45,-45.30611984914913,-45.09955388763266,-46.14666043266552
1769251709420,86,-42,-41.08006628150346,-41.788624092916905,-41.94384108482645
1769251709424,93,-35,-33.904170089175935,-34.97473202940441,-34.782768405114794
1769251709428,101,-27,-25.398393626325543,-26.823460111311892,-26.27685769331112
