timestamp_ms,ecg_u8_raw,ecg_counts_raw_int,ecg_counts_filt_monitor,ecg_counts_filt_diagnostic,ecg_counts_filt_st
1770453396412,122,-6,-0.5511776200878444,-5.934690758507104,0.6009365657883423
1770453396416,122,-6,0.1383946443011059,-5.261647829615574,1.313341915224863
1770453396420,123,-5,0.7766317229177608,-4.810938176607789,1.9734478714002783
1770453396424,123,-5,1.4161398374114906,-4.43164373623685,2.634104246130721
1770453396428,124,-4,2.0552644481468705,-3.6152281267697384,3.2947246388446327
1770453396432,125,-3,2.5955088143184564,-2.5464906641331684,3.856943250971173
1770453396436,125,-3,2.9016199908875677,-2.5600390731990035,4.184716219352414
1770453396440,125,-3,2.908694691365961,-2.5755284851642335,4.212785251317547
1770453396444,125,-3,2.668202384236217,-2.5896816453767246,3.993311325515682
1770453396448,124,-4,2.2911340401555567,-3.504657870675382,3.6381763798411626
1770453396452,124,-4,1.852211963042767,-3.620984204643951,3.2220328926272774
1770453396456,124,-4,1.3522557359612697,-3.4760346665131525,2.7447049733867237
1770453396460,123,-5,0.7648392783857295,-4.651564127392517,2.179060033053733
1770453396464,122,-6,0.0997886418858312,-5.491757368113487,1.5351694222160512
1770453396468,122,-6,-0.5910490562881215,-5.603431013500588,0.8654233785972334
1770453396472,121,-7,-1.2647415389076926,-6.536488156519363,0.2129864645768906
1770453396476,120,-8,-1.9353681004126952,-7.504508790626394,-0.4361151752303938
1770453396480,120,-8,-2.666650695733845,-7.656758238588627,-1.1455161185426077
1770453396484,119,-9,-3.5041748777218955,-8.411666782625147,-1.9609061280240372
1770453396488,118,-10,-4.399616237281262,-9.759313992376832,-2.8341153947863535
1770453396492,117,-11,-5.201731298760445,-10.30265610278423,-3.613861560977419
1770453396496,117,-11,-5.738197579036329,-10.785444990560311,-4.127743943709749
1770453396500,116,-12,-5.929461974764697,-11.31063639402081,-4.296468464013122
1770453396504,117,-11,-5.843652282962833,-10.764670526350791,-4.188884920237154
1770453396508,117,-11,-5.648879086316177,-10.409048278715934,-3.973757319159329
1770453396512,117,-11,-5.504015997491779,-10.62790255123254,-3.809524012758832
1770453396516,117,-11,-5.47667931418101,-10.48707675670345,-3.761905005717588
1770453396520,117,-11,-5.541654629227325,-10.538701786158024,-3.803481275113685
1770453396524,117,-11,-5.635409208495339,-10.592024003307635,-3.870249576657858
1770453396528,117,-11,-5.7065652498406205,-10.505782411280617,-3.9134699940354
1770453396532,117,-11,-5.730984170703305,-10.592996610078508,-3.914024652808569
1770453396536,117,-11,-5.702232706345376,-10.45644336803668,-3.869549589890541
1770453396540,117,-11,-5.611074885406522,-10.58133571595118,-3.769635699234981
1770453396544,117,-11,-5.390491895243621,-10.539884162659138,-3.539436623608501
1770453396548,118,-10,-4.781465008158798,-9.529200386558353,-2.9097083367018755
1770453396552,120,-8,-3.1408352441476346,-7.600055052382795,-1.2324929268485771
1770453396556,124,-4,0.6375627967753026,-3.3917943058101327,2.5925999156477797
1770453396560,131,3,7.827199774723677,3.3512979379487913,9.825010889947649
1770453396564,141,13,19.0973373976928,13.550191934342912,21.120387987446374
1770453396568,156,28,33.575953998218594,28.40396309361175,35.60267644366322
1770453396572,171,43,48.412683750867075,43.4496308093428,50.43046699640755
1770453396576,182,54,59.41613511779212,54.59999473061189,61.42910634757417
1770453396580,187,59,62.72553164775801,59.315059347422114,64.75174870218112
1770453396584,181,53,56.70889866521222,53.57793385248749,58.769679066056085
1770453396588,166,38,42.9317067290006,38.30658716679254,45.04109174761069
1770453396592,147,19,25.486485964984425,19.56259312112119,27.646027332385543
1770453396596,131,3,9.026220035785911,3.531020712790138,11.225103600378878
1770453396600,120,-8,-3.272406919997815,-7.552045353929407,-1.052649020158924
1770453396604,113,-15,-10.618415993914892,-14.455281289705336,-8.394968773760878
1770453396608,110,-18,-14.08986019808274,-17.6926120829254,-11.86909828566025
1770453396612,108,-20,-15.367116915253716,-19.399704564085848,-13.141054601475858
1770453396616,107,-21,-15.692956917257586,-20.58707989861538,-13.445047662309277
1770453396620,107,-21,-15.587116333620724,-20.378268448346688,-13.30352322071607
1770453396624,108,-20,-15.156955138472291,-19.622586500041663,-12.835011832164524
1770453396628,109,-19,-14.49336638970999,-18.523216573158997,-12.141258318342691
1770453396632,110,-18,-13.794524675604924,-17.53230024450552,-11.423269616721552
1770453396636,110,-18,-13.24120956216632,-17.538331594983905,-10.856015532586651
1770453396640,110,-18,-12.863702522681518,-17.32838054633966,-10.461628946155376
1770453396644,111,-17,-12.55714851660086,-16.7356271847369,-10.131832986228932
1770453396648,111,-17,-12.200341519633032,-16.309172307656624,-9.748314011489812
1770453396652,112,-16,-11.746234456013845,-15.81077799468502,-9.269023534894108
1770453396656,112,-16,-11.221438207101412,-15.22171855916532,-8.722703860364646
1770453396660,113,-15,-10.672287902850249,-14.653796656779958,-8.153780458535035
1770453396664,113,-15,-10.122354915479429,-14.395810731737734,-7.582667802001822
1770453396668,114,-14,-9.564322815089827,-13.596792615742457,-7.0010404090625125
1770453396672,115,-13,-8.967073292413353,-12.577346905089223,-6.379488818233629
1770453396676,115,-13,-8.285172329507311,-12.387287799617956,-5.674594000780033
1770453396680,116,-12,-7.48354193607938,-11.560951976268829,-4.8513560861878045
1770453396684,117,-11,-6.576458342058946,-10.380152671698031,-3.9226217669153143
1770453396688,118,-10,-5.641466938022325,-9.677146050437376,-2.965049607958459
1770453396692,119,-9,-4.774804571810371,-8.42920589883903,-2.0754637736638326
1770453396696,120,-8,-4.016148607940697,-7.575297152592176,-1.294446731421698
1770453396700,120,-8,-3.3164608118308165,-7.360116117591248,-0.5726726923641872
1770453396704,121,-7,-2.589042697911163,-6.539719002658593,0.1776831731427055
1770453396708,122,-6,-1.7945677300912015,-5.543651646114185,0.9960616864000098
1770453396712,123,-5,-0.9688553480742992,-4.503199000980404,1.845158091270444
1770453396716,124,-4,-0.1689554718120514,-3.557936638143835,2.6666945790766317
1770453396720,124,-4,0.5887823417859019,-3.3071215081536858,3.4451744745472963
1770453396724,125,-3,1.3232397050359743,-2.6453216651620397,4.201486518829111
1770453396728,126,-2,2.0365701340353146,-1.359339125878494,4.938428906334223
1770453396732,127,-1,2.6976646989135475,-0.738396901039788,5.623525109571697
1770453396736,127,-1,3.2866041768277725,-0.2722147656482669,6.235416977709566
1770453396740,128,0,3.835951078420384,0.3950583164803638,6.806875075123706
1770453396744,128,0,4.404861048503017,0.6546479548983029,7.39823329381454
1770453396748,129,1,5.006510395218766,1.381929826897478,8.022937223865474
1770453396752,130,2,5.568295568164835,2.480942273830666,8.60733966124322
1770453396756,130,2,5.968109331291801,2.5876518441423384,9.02860727087498
1770453396760,130,2,6.1082313874888,2.4596148918347738,9.18991289909172
1770453396764,130,2,5.962069556993443,2.685076856822972,9.066222206315912
1770453396768,130,2,5.575664842014372,2.2689708906602597,8.703893274591131
1770453396772,129,1,5.047758482839628,1.6823948123156498,8.200344595998548
1770453396776,129,1,4.504113727180249,1.350124162563206,7.679764713137475
1770453396780,128,0,4.061639779327593,0.7282353486826505,7.258736457312735
1770453396784,128,0,3.785351323622916,0.4238464879558705,7.003395590939122
1770453396788,128,0,3.6640101664079054,0.5147754238800601,6.903963754322188
1770453396792,128,0,3.631435549068031,0.4873225627752404,6.89474992167897
1770453396796,128,0,3.625098034821351,0.518816961660725,6.912381861409501
1770453396800,128,0,3.6321197972125,0.604184397922376,6.942645410191346
1770453396804,128,0,3.6730882671031466,0.5210982361875436,7.005555225578537
1770453396808,128,0,3.7280815839854777,0.4354668381444111,7.081821150506217
1770453396812,128,0,3.6744700433644706,0.5864048002677964,7.049799699654024
1770453396816,128,0,3.315699313756911,0.4186194126552358,6.7131935791918504
1770453396820,127,-1,2.5055705134159765,-0.2682019080096895,5.925407448931997
1770453396824,126,-2,1.272449690203616,-1.619949828444092,4.714740281232107
1770453396828,124,-4,-0.170687463285839,-3.4226410242979117,3.2946980560867356
1770453396832,123,-5,-1.5468882584971042,-4.523584378082476,1.9423678660148935
1770453396836,122,-6,-2.6644504101924755,-5.485958722803509,0.8484222672359705
1770453396840,121,-7,-3.477345666490362,-6.304005345484222,0.0575316943622468
1770453396844,121,-7,-4.036014973460376,-6.626990639240714,-0.4808056309630411
1770453396848,120,-8,-4.405168799599319,-7.367772829505043,-0.8296991493653927
1770453396852,120,-8,-4.627410583559425,-7.614099515304961,-1.0300463732234535
1770453396856,120,-8,-4.737396577213929,-7.346023672606608,-1.1164676179943769
1770453396860,120,-8,-4.777593415567539,-7.449333399039081,-1.1329778571029925
1770453396864,120,-8,-4.787839272597124,-7.471252691907914,-1.1208093349254282
1770453396868,120,-8,-4.789510829308382,-7.509111237356433,-1.1013205939700512
1770453396872,120,-8,-4.790495607751338,-7.497790160752297,-1.0813734599669864
1770453396876,120,-8,-4.802735373551547,-7.40950409286668,-1.072035986408847
1770453396880,120,-8,-4.844683547051908,-7.409108664730517,-1.0916413015349802
1770453396884,120,-8,-4.92012622631698,-7.464618988515371,-1.1444291886294398
1770453396888,120,-8,-4.995304082581855,-7.5495171204621645,-1.1971981972314625
1770453396892,120,-8,-5.004015209960355,-7.426465193876047,-1.1840104576423354
1770453396896,120,-8,-4.888394420067114,-7.487301149489744,-1.046868025920201
1770453396900,120,-8,-4.648723680074142,-7.2984493399793235,-0.785839237496802
1770453396904,121,-7,-4.357955140116116,-6.5736622522389965,-0.4738923937601305
1770453396908,121,-7,-4.120523177904913,-6.438007657562169,-0.2154537402865859
1770453396912,121,-7,-4.0065952835446295,-6.533500326869014,-0.0802863589811648
1770453396916,121,-7,-4.015947357725988,-6.372381364121052,-0.0677316717172882
1770453396920,121,-7,-4.093026768830288,-6.390855220488559,-0.1224571275485972
1770453396924,121,-7,-4.170223020933546,-6.482229498517504,-0.177610598548874
1770453396928,121,-7,-4.206344881573484,-6.512311612799557,-0.1924897732506219
1770453396932,121,-7,-4.202572246026799,-6.469395131340613,-0.1680919559360729
1770453396936,121,-7,-4.192334997611724,-6.409686114360412,-0.1373540202830101
1770453396940,121,-7,-4.212349586592403,-6.3546596765906465,-0.1366774705245204
1770453396944,121,-7,-4.272683091745319,-6.488120684777298,-0.1760907099065569
1770453396948,121,-7,-4.3448668393963175,-6.533404712541733,-0.2271687066968963
1770453396952,121,-7,-4.3737829946438325,-6.403939925537921,-0.234754288161592
1770453396956,121,-7,-4.302936806168922,-6.513470607899632,-0.1423283469605465
1770453396960,121,-7,-4.096443416850745,-6.1812856657767945,0.0856654865989545
1770453396964,122,-6,-3.746230501822685,-5.6972009599059605,0.4565550435103107
1770453396968,122,-6,-3.2664001395424775,-5.292363522595835,0.9557759022036674
1770453396972,123,-5,-2.688446824230524,-4.647083781197653,1.5525016699798655
1770453396976,123,-5,-2.063605439950986,-4.278595083425104,2.1969904096271176
1770453396980,124,-4,-1.4555071655408716,-3.361393773691983,2.8264305132344587
1770453396984,125,-3,-0.9049039652031852,-2.5614215640523437,3.3992433787388903
1770453396988,125,-3,-0.3880467234616835,-2.3638153825502517,3.9375216322822393
1770453396992,126,-2,0.1752916024639288,-1.6330939285292052,4.52065168118575
1770453396996,126,-2,0.8410422548569381,-1.2266884718296094,5.205133358371531
1770453397000,127,-1,1.546292050258606,-0.4473056009807976,5.929114786499171
1770453397004,128,0,2.0988431713400786,0.5707063295829884,6.500803990344704
1770453397008,128,0,2.2864931331839355,0.4985728619880905,6.707704806757355
1770453397012,128,0,2.028517223770082,0.4884779291492873,6.469017285087933
1770453397016,127,-1,1.440885498567804,-0.2947997816661782,5.901339890650931
1770453397020,126,-2,0.7566524809184605,-1.444028306850778,5.238201637907882
1770453397024,126,-2,0.1714991773636283,-1.3309873255780746,4.674406671713853
1770453397028,126,-2,-0.2564095776489969,-1.669087641049365,4.266287115825326
1770453397032,125,-3,-0.5923561394440346,-2.2740365520205192,3.9477221876410393
1770453397036,125,-3,-0.9488430414384794,-2.5598155946653103,3.607409972287848
1770453397040,124,-4,-1.4268942243282274,-3.16820380675114,3.1463090606066464
1770453397044,124,-4,-2.093132444637653,-3.5856770341764115,2.4986848514773294
1770453397048,123,-5,-2.961502062406133,-4.4248416729015085,1.6500574597718032
1770453397052,122,-6,-3.966196563249897,-5.481373298038786,0.6653287260149927
1770453397056,121,-7,-4.953264883790574,-6.37436163301049,-0.3020347911048757
1770453397060,120,-8,-5.72204102950271,-7.323319419398436,-1.0516009410919098
1770453397064,120,-8,-6.110354007962619,-7.446781138461553,-1.4215576903129614
1770453397068,120,-8,-6.079380433994663,-7.520812546102273,-1.3734659059918686
1770453397072,120,-8,-5.745583847553775,-7.397053462211668,-1.023865611092095
1770453397076,121,-7,-5.330887792046271,-6.435881237033255,-0.5941748628067725
1770453397080,121,-7,-5.049431594905961,-6.268635394407004,-0.2971652681321695
1770453397084,121,-7,-4.997312011394145,-6.501194850444897,-0.2269819953845111
1770453397088,121,-7,-5.116118345573943,-6.436287501659686,-0.3242651032441292
1770453397092,121,-7,-5.247583582858206,-6.494564683760048,-0.4325786072960929
1770453397096,121,-7,-5.238934835511179,-6.312604160159719,-0.4034018235804968
1770453397100,121,-7,-5.042901920110661,-6.395193618240745,-0.1933541747344911
1770453397104,121,-7,-4.75805450437427,-6.364798968328174,0.098464583961177
1770453397108,122,-6,-4.551099411397921,-5.5559570017431925,0.3094801538841807
1770453397112,122,-6,-4.439320517366005,-5.371668300516845,0.4301257289271056
1770453397116,122,-6,-4.019478041812539,-5.4283951860579345,0.870890007688649
1770453397120,124,-4,-2.3342038594197225,-3.268096956667117,2.5900443485285223
1770453397124,129,1,1.9319711388606589,1.5113829027127998,6.894755272524364
1770453397128,136,8,9.85955397446278,8.597073598867265,14.852195329797976
1770453397132,147,19,21.466863141637702,19.492094780715576,26.470879293433153
1770453397136,161,33,35.07814128311211,33.729819461492916,40.07521157150495
1770453397140,174,46,47.40889913139988,46.56318614091385,52.391349770721064
1770453397144,181,53,54.59589898249527,53.677075318771074,59.57169209039303
1770453397148,181,53,53.81774225783487,53.40515218513663,58.80640705793859
1770453397152,172,44,44.68625544988474,44.654884755759504,49.70782530539472
1770453397156,156,28,29.59166217876625,28.55094091734742,34.656031589852645
1770453397160,138,10,12.713200085307358,10.740084514947632,17.81629107096044
1770453397164,124,-4,-1.8085844994382487,-3.429175199345944,3.3185942657873237
1770453397168,115,-13,-11.5112142917426,-12.45317139554476,-6.377757720740897
1770453397172,111,-17,-16.18372743238138,-16.408825495392186,-11.056818228716342
1770453397176,110,-18,-17.241852237497223,-17.388017858893164,-12.12336869363735
1770453397180,110,-18,-16.527390020529488,-17.33298385833492,-11.407770173445218
1770453397184,111,-17,-15.359250647869814,-16.36750049064168,-10.22363025357308
1770453397188,112,-16,-14.269356823445133,-15.53639669783643,-9.106919059414018
1770453397192,113,-15,-13.284586002919594,-14.284616047398616,-8.09471492057352
1770453397196,115,-13,-12.325428990123308,-12.522681791411545,-7.116340544942516
1770453397200,115,-13,-11.406721459730491,-12.171171526491696,-6.188270927889011
1770453397204,116,-12,-10.615900600503892,-11.565165246893724,-5.392877567257305
1770453397208,117,-11,-10.01665219642575,-10.309621969491593,-4.787425661552392
1770453397212,117,-11,-9.60177827339973,-10.503087676564002,-4.36161953557561
1770453397216,117,-11,-9.314864325621668,-10.29893573675573,-4.0600514637431235
1770453397220,118,-10,-9.090559861352116,-9.343967626814711,-3.820458575145617
1770453397224,118,-10,-8.865264978234253,-9.47388603918342,-3.5818645456965585
1770453397228,118,-10,-8.56458349689052,-9.310094655244187,-3.2705228376231306
1770453397232,119,-9,-8.112242345714726,-8.560410581807734,-2.8090304085915108
1770453397236,119,-9,-7.476627002784858,-8.167069688795639,-2.164194429466929
1770453397240,120,-8,-6.713546616247918,-7.498683836824677,-1.3910471508508628
1770453397244,121,-7,-5.948489903429677,-6.330041305151724,-0.6153800722438447
1770453397248,122,-6,-5.29167008379651,-5.4125179250525095,0.0520476307143482
1770453397252,122,-6,-4.752168150799996,-5.504064734947275,0.60217226116968
1770453397256,122,-6,-4.230531329838195,-5.122537076930996,1.134492081545174
1770453397260,124,-4,-3.593949523220194,-3.640580576625416,1.78109464101665
1770453397264,124,-4,-2.764811260035339,-3.091158722384363,2.6189897638032393
1770453397268,125,-3,-1.7636246573021142,-2.7329427400597632,3.628435610492433
1770453397272,126,-2,-0.692424607865346,-1.0874988129352747,4.708550261361054
1770453397276,128,0,0.3338792072551229,0.4217469054043112,5.744163909927042
1770453397280,128,0,1.2698964867160387,0.831978613476704,6.688718650394579
1770453397284,129,1,2.1615107228801897,1.4489700816407889,7.587911251368265
1770453397288,130,2,3.075048561915776,2.6935534951243065,8.50902886573148
1770453397292,131,3,4.00741212641637,3.5630365077720754,9.449608792088906
1770453397296,132,4,4.880806123565031,4.712910003559701,10.331498197503452
1770453397300,133,5,5.6295663906803375,5.6251142497585995,11.0884219109357
1770453397304,133,5,6.280247181872441,5.578063928435757,11.746690648968809
1770453397308,134,6,6.933085585002648,6.6219622117822805,12.406442870317717
1770453397312,135,7,7.657093503771206,7.625270132905774,13.136623131282011
1770453397316,135,7,8.395499396049992,7.656971337680792,13.880763586525536
1770453397320,136,8,8.971337424429121,8.734615413954671,14.4623715402337
1770453397324,137,9,9.206472620489793,9.400562819307504,14.70334038559469
1770453397328,136,8,9.072461895679943,8.866759932123992,14.575118734614737
1770453397332,136,8,8.74449306030794,8.329543045161264,14.253393188552812
1770453397336,135,7,8.498018097815677,8.022204385526596,14.014130044983997
1770453397340,136,8,8.53178187032338,8.34012773428261,14.055226507679636
1770453397344,136,8,8.867401147426255,8.817043921209356,14.396368185953888
1770453397348,137,9,9.38700434758004,9.459073592417957,14.918900904578283
1770453397352,137,9,9.933270940948926,9.725597116051302,15.46720288321816
1770453397356,137,9,10.36589272094087,9.68133253279166,15.9033815523077
1770453397360,138,10,10.55988204290755,10.615782093425192,16.102699311409502
1770453397364,138,10,10.409628694967724,10.62761264400058,15.95755882896066
1770453397368,137,9,9.868188436859349,9.560727229005137,15.419649573300235
1770453397372,136,8,8.976275684584937,8.73897497248075,14.530587189760595
1770453397376,135,7,7.842219024510093,7.579618324199517,13.400195646544187
1770453397380,134,6,6.599505333660847,6.788851018742207,12.161928100066184
1770453397384,133,5,5.380531470880633,5.424734257336835,10.946941895370054
1770453397388,131,3,4.298149106319793,3.783855903816959,9.867241428378517
1770453397392,131,3,3.412323729477557,3.5506355247434955,8.9828659071397
1770453397396,130,2,2.6985216955588265,2.730342760098389,8.269833671971195
1770453397400,129,1,2.056105217254719,1.6852290340096785,7.628213254738644
1770453397404,129,1,1.36720077027854,1.4969638445393452,6.940769239754554
1770453397408,128,0,0.5761699725840623,0.7567490852143233,6.152130131620789
1770453397412,127,-1,-0.2622933293567966,-0.4369001784082922,5.316690047688284
1770453397416,126,-2,-1.0062768881519253,-1.272995326907714,4.575395591201631
1770453397420,126,-2,-1.5099404483851973,-1.296665042282369,4.072868842993042
1770453397424,126,-2,-1.711093448772105,-1.5437055605383163,3.8711096425225104
1770453397428,125,-3,-1.6729790924017658,-2.1327053750612692,3.9082916124008458
1770453397432,126,-2,-1.5589683584631278,-1.602618071324474,4.022402013025195
1770453397436,126,-2,-1.5418124413972658,-1.0465488059838974,4.040160536509128
1770453397440,126,-2,-1.6941399586101542,-1.5712333648455528,3.887542744420277
1770453397444,125,-3,-1.9526057745690504,-2.2363321876806097,3.628020363860738
1770453397448,125,-3,-2.201132000931161,-2.413925135558937,3.3791975561828114
1770453397452,125,-3,-2.391279051330548,-2.3624610562017656,3.189945441240928
1770453397456,125,-3,-2.5692591102761164,-2.213976421912907,3.012418536229629
1770453397460,125,-3,-2.7897405642978668,-2.4724713277178187,2.7903201099670127
1770453397464,124,-4,-3.0330494720573173,-3.254516624403823,2.5438153277977955
1770453397468,124,-4,-3.231337165808852,-3.4408732205475467,2.3425907448891854
1770453397472,124,-4,-3.366793935949382,-3.3069318341840974,2.205279869633295
1770453397476,124,-4,-3.513008827786625,-3.265415942430156,2.0575432765384836
1770453397480,124,-4,-3.760818834550504,-3.4254655916644516,1.8078878398397649
1770453397484,123,-5,-4.107575891997609,-4.253294568291026,1.4593876804615418
1770453397488,123,-5,-4.427408511438321,-4.49386269800882,1.138221808224035
1770453397492,123,-5,-4.552416633996204,-4.198215658605248,1.0113355335375305
1770453397496,123,-5,-4.397011071102362,-4.4195706195663105,1.1631495316505245
1770453397500,123,-5,-4.036114794565233,-4.203342326991834,1.5189822820157568
1770453397504,124,-4,-3.6815259060491776,-3.497889966854056,1.8683661163398917
1770453397508,124,-4,-3.5556214841779648,-3.23204651784331,1.989855212837642
1770453397512,124,-4,-3.735168671089001,-3.479814749944571,1.806861474728186
1770453397516,123,-5,-4.0843011686337976,-4.113239273144422,1.4552941066669431
1770453397520,123,-5,-4.340886820172785,-4.512997341073294,1.1970272244096858
1770453397524,123,-5,-4.290579425023971,-4.153149313118158,1.2450830375991329
1770453397528,124,-4,-3.8898933359120096,-3.5993085562855343,1.6410661207733137
1770453397532,124,-4,-3.260367591383987,-3.087816742720021,2.2629429823367824
1770453397536,125,-3,-2.59333557378665,-2.5090867519079256,2.9213085862655106
1770453397540,125,-3,-2.0522854888363025,-2.1011954371144723,3.455528101640361
1770453397544,126,-2,-1.7162399838600486,-1.558922483724177,3.7877984835479457
1770453397548,126,-2,-1.5575453172252125,-1.2018874579048229,3.94443498609289
1770453397552,126,-2,-1.449924028510858,-1.4630701889494326,4.049173514941445
1770453397556,126,-2,-1.2222837884206452,-1.1477013826477966,4.271392276690263
1770453397560,127,-1,-0.7555636513224766,-0.4198287626597072,4.730358848252254
1770453397564,127,-1,-0.0744478517518147,-0.2686422907476054,5.403051498328486
1770453397568,128,0,0.6364867063349142,0.5429325037419597,6.10632668615277
1770453397572,129,1,1.1295095733997198,1.7763834177822106,6.592483189044493
1770453397576,129,1,1.2536374728215716,1.631882145918368,6.710020351941135
1770453397580,128,0,1.0514242286297528,0.8034493419009685,6.501762343469924
1770453397584,128,0,0.7049889215170994,0.5143205261273645,6.15014784819489
1770453397588,128,0,0.3871759474740079,0.7511201698956578,5.826863087939645
1770453397592,128,0,0.1556057821547052,0.5968876478778071,5.587781587448426
1770453397596,127,-1,-0.0461776507616918,-0.1938348362509168,5.37650349746942
1770453397600,127,-1,-0.3264814174293863,-0.334397604832056,5.086673650708766
1770453397604,127,-1,-0.7832725877809434,-0.3827571689659494,4.621790317554541
1770453397608,126,-2,-1.4618196938757655,-1.3273714758218698,3.9361965476394856
1770453397612,125,-3,-2.340108953552126,-2.3335415856519113,3.0506742584208206
1770453397616,124,-4,-3.35104080383285,-3.226899848284734,2.031629656287641
1770453397620,123,-5,-4.424128446692625,-4.308792344408388,0.9496358910784036
1770453397624,122,-6,-5.507384920823793,-5.406021966137178,-0.1428424027298298
1770453397628,121,-7,-6.5512565753197105,-6.304686903347987,-1.1956712042168558
1770453397632,120,-8,-7.478393654271345,-7.339162145666115,-2.1310889543696447
1770453397636,119,-9,-8.178992095513166,-8.210618522978065,-2.8394869086111427
1770453397640,119,-9,-8.547256061651135,-8.305033586405662,-3.216049652982754
1770453397644,119,-9,-8.537216293157382,-8.439085371815576,-3.2159143701140556
1770453397648,119,-9,-8.199813593964462,-8.234506041563982,-2.8900994878906623
1770453397652,120,-8,-7.674101440502749,-7.433994214252907,-2.3761878851655176
1770453397656,120,-8,-7.131249865008547,-7.056704750103011,-1.8430885685500715
1770453397660,121,-7,-6.701335586181299,-6.503240948879032,-1.4195275816329076
1770453397664,121,-7,-6.432530422721562,-6.203421409159469,-1.1549839383468825
1770453397668,121,-7,-6.3144911075485,-6.50213277715343,-1.043506771357671
1770453397672,121,-7,-6.342969534338357,-6.141211444975575,-1.085958424440606
1770453397676,121,-7,-6.553383361115874,-6.312289089376061,-1.318799365812886
1770453397680,120,-8,-6.9514840535705025,-7.298228309465878,-1.7414762789433809
1770453397684,120,-8,-7.321502517820358,-7.32836951872102,-2.1273771542743685
1770453397688,121,-7,-6.981683281822859,-6.479310778786217,-1.7874779245668917
1770453397692,123,-5,-4.675386936052043,-4.037755075011372,0.5319011860688692
1770453397696,129,1,1.1457724104475258,1.5073170679157002,6.366562012523431
1770453397700,138,10,11.533475322456097,10.992866580333512,16.753284729919752
1770453397704,153,25,26.02617921965988,25.301392709867216,31.22236946460268
1770453397708,169,41,42.05310136458126,41.96377254348253,47.20736071154271
1770453397712,183,55,55.37286872481393,55.48270944561848,60.482497732709746
1770453397716,189,61,61.61383680947751,62.00532953846534,66.69420739504773
1770453397720,187,59,58.248785060111885,59.447692591407595,63.32449348981229
1770453397724,174,46,45.92115680275547,46.77427286732858,51.01206454791527
1770453397728,155,27,28.276792320451637,27.495516063294204,33.38846693247971
1770453397732,136,8,10.296118740273691,8.968405427298073,15.418856124446178
1770453397736,123,-5,-3.9278099125757784,-4.382626644267301,1.1866198979699414
1770453397740,115,-13,-12.668683299584629,-12.12358919838809,-7.582442267903797
1770453397744,112,-16,-16.576893103370605,-15.618475929479263,-11.529365698700824
1770453397748,110,-18,-17.52764563668911,-17.12012167558413,-12.51432731154854
1770453397752,110,-18,-17.274483506175052,-17.43587969566677,-12.27914970457017
1770453397756,110,-18,-16.733149111915772,-16.978103806299984,-11.738945159609129
1770453397760,111,-17,-16.065534569470998,-16.532090951081862,-11.065846918936511
1770453397764,112,-16,-15.169229398437766,-15.20632002424602,-10.170232260840862
1770453397768,114,-14,-14.068904767122516,-13.51039803401715,-9.082634078596897
1770453397772,114,-14,-12.978668772436803,-13.07139278697805,-8.013135160837678
1770453397776,115,-13,-12.133090703717096,-12.310807451786689,-7.187698529660274
1770453397780,116,-12,-11.610858589494926,-11.222949993877675,-6.679737436608072
1770453397784,116,-12,-11.295291702609358,-11.48418083589318,-6.373771591421274
1770453397788,116,-12,-10.97757599892109,-11.247024381674462,-6.065489635458335
1770453397792,117,-11,-10.512275595618918,-10.300446175337807,-5.612377629215504
1770453397796,117,-11,-9.908530566368595,-10.111278002980455,-5.02302847650543
1770453397800,118,-10,-9.292090577148365,-9.382572244851028,-4.4209581618911304
1770453397804,119,-9,-8.77260380989841,-8.342977269153637,-3.914589399402899
1770453397808,119,-9,-8.328620305671514,-8.360365454076607,-3.482969289217822
1770453397812,119,-9,-7.816797945161666,-8.203838012814845,-2.9837399850673885
1770453397816,120,-8,-7.107226735472795,-7.187045971259566,-2.2874051463170435
1770453397820,121,-7,-6.222190221478807,-6.3196045401026755,-1.4161435715557935
1770453397824,122,-6,-5.340164582069113,-5.374720997373647,-0.5481610176188658
1770453397828,123,-5,-4.650006042240137,-4.329351797116603,0.1281056437551404
1770453397832,123,-5,-4.183442242987198,-4.230699180583438,0.581502623649758
1770453397836,123,-5,-3.7778793992704913,-4.169641452335238,0.9748734145394664
1770453397840,124,-4,-3.203009751709823,-3.3259921939561155,1.5378414565077003
1770453397844,125,-3,-2.338210850193347,-2.3635163296161883,2.3897527908478455
1770453397848,126,-2,-1.2537915251213207,-1.3075722968120087,3.4597215290740557
1770453397852,127,-1,-0.1453713219334687,-0.2640827943636785,4.5529046939690545
1770453397856,128,0,0.8104305394220122,0.8678638869760795,5.494014011675287
1770453397860,129,1,1.5650642283835836,1.62665877852145,6.235243471682166
1770453397864,129,1,2.198442202994571,1.6985050272413265,6.856258776839317
1770453397868,130,2,2.8268231411763898,2.6507087389723605,7.472368269924461
1770453397872,131,3,3.5059767860822646,3.774245499564471,8.138451788670507
1770453397876,131,3,4.206345271964303,3.8406602044810674,8.824896070963229
1770453397880,132,4,4.860408151330675,4.631085525997768,9.464800833224814
1770453397884,133,5,5.42577504555538,5.737366775699978,10.016206404143142
1770453397888,133,5,5.908893177178982,5.5909072821331245,10.485565881507055
1770453397892,133,5,6.331518557699515,5.8643634033413035,10.894598772249347
1770453397896,134,6,6.674773255244889,6.740596450851972,11.224339745299524
1770453397900,134,6,6.866077012916263,6.715302992628299,11.40191722121997
1770453397904,134,6,6.8356256082964615,6.698390355691301,11.35742621410842
1770453397908,134,6,6.592879092444808,6.6065056349490785,11.100813955322208
1770453397912,133,5,6.247957029587132,5.885150835310886,10.742872817283672
1770453397916,133,5,5.954207483023442,5.688139268790609,10.436946258766724
1770453397920,133,5,5.81794792719563,5.784618565829675,10.288407074670934
1770453397924,133,5,5.842036177320801,5.645238657228724,10.298987924970898
1770453397928,133,5,5.93252671298743,5.661660799099241,10.374433155740997
1770453397932,133,5,5.95022387803837,5.863073325338558,10.376355393841724
1770453397936,133,5,5.771543988382869,5.652270938205942,10.182642561597085
1770453397940,132,4,5.332487231935185,4.880035860303549,9.730503219276333
1770453397944,132,4,4.648251847686767,4.499494484494638,9.035076019426429
1770453397948,131,3,3.8123505974276872,3.8892657633420047,8.18838265916039
1770453397952,130,2,2.9704967161303104,2.579074727352169,7.334350567659469
1770453397956,129,1,2.2578121235560857,1.9729839342426565,6.60739713652508
1770453397960,129,1,1.7171253997786324,1.5385394823533307,6.051081613387496
1770453397964,128,0,1.2573568052119746,0.8537868141700313,5.575813496269446
1770453397968,128,0,0.7034799762254744,0.5791628459279847,5.007811120148118
1770453397972,127,-1,-0.0766233227604074,-0.1505274768440769,4.215277386970566
1770453397976,126,-2,-1.0542609732470818,-1.258797158866109,3.226333844582274
1770453397980,125,-3,-2.0284271689774034,-2.2853862382136163,2.2410345997640855
1770453397984,124,-4,-2.7457932396618436,-3.2526131055866787,1.5117692463054937
1770453397988,124,-4,-3.07016490974552,-3.3503910351055906,1.174025372089292
1770453397992,124,-4,-3.0730992044685586,-3.1557719458029676,1.1561915478491454
1770453397996,124,-4,-2.979379506970131,-3.315640126909198,1.2344647130150754
1770453398000,124,-4,-3.014418465013092,-3.183985728207105,1.185046850929259
1770453398004,124,-4,-3.2662188282972138,-3.382672967297501,0.9210198940601312
1770453398008,123,-5,-3.650243750532268,-4.180966294642621,0.5265140778181854
1770453398012,123,-5,-3.98455647064925,-4.335370202808122,0.1817226618870764
1770453398016,123,-5,-4.109879506515673,-4.12826169831486,0.0442594035812229
1770453398020,123,-5,-3.976133798379427,-4.380499096201493,0.1641725250754699
1770453398024,123,-5,-3.657202366843255,-4.166725153973551,0.4690418286051789
1770453398028,124,-4,-3.298454824595988,-3.382109247533487,0.8146174965527218
1770453398032,124,-4,-3.0286367898724085,-3.1424421419511392,1.0718462643297917
1770453398036,124,-4,-2.892075791339284,-3.303570971259817,1.1957120833476216
1770453398040,124,-4,-2.853361961745046,-3.2416956990383365,1.2219295920879496
1770453398044,124,-4,-2.8659646311780635,-3.2497348200717746,1.1979147684679443
1770453398048,124,-4,-2.9303935866396147,-3.339412254261614,1.1230199314474083
1770453398052,124,-4,-3.0787489499196603,-3.121373136044002,0.9635337737070282
1770453398056,124,-4,-3.308666496565934,-3.376187499895645,0.7204377700181164
1770453398060,123,-5,-3.5555070474402917,-4.139237079781869,0.4591548634544296
1770453398064,123,-5,-3.751323613577942,-4.354450672863199,0.2500465117232009
1770453398068,123,-5,-3.905971229039628,-4.239415534530588,0.0845961247201989
1770453398072,123,-5,-4.099536400898918,-4.170080080205937,-0.1185291737406881
1770453398076,123,-5,-4.373455236129966,-4.384417503594204,-0.4029711215450913
1770453398080,122,-6,-4.64213316468876,-5.065364479687495,-0.6837545504480591
1770453398084,122,-6,-4.743945209654856,-5.494356357908362,-0.7981125040624564
1770453398088,122,-6,-4.5962505436831,-5.040419657838362,-0.6625241552047667
1770453398092,123,-5,-4.291153919005034,-4.376597948621146,-0.3695029741848801
1770453398096,123,-5,-4.022488009404002,-4.1824665126960365,-0.1132115183122444
1770453398100,123,-5,-3.909545789555707,-4.219714628568292,-0.011879635895891
1770453398104,123,-5,-3.8820754488075617,-4.422216694194892,0.0060634050641299
1770453398108,123,-5,-3.7223473815666344,-4.027445033517827,0.1577785653625278
1770453398112,124,-4,-3.2212693231256178,-3.448966079085695,0.6498686273121193
1770453398116,124,-4,-2.330912532393619,-3.0401420276048707,1.528196659887171
1770453398120,126,-2,-1.2149487175551288,-1.3839921666004775,2.629552855875925
1770453398124,127,-1,-0.1677098595543977,-0.267789200239537,3.6624198924869065
1770453398128,127,-1,0.5498827119589473,-0.1614524646213375,4.3687391563839215
1770453398132,128,0,0.8622183139684421,0.6593213643667366,4.673258172543567
1770453398136,128,0,0.9316979408614604,0.9084426649939026,4.736010866743902
1770453398140,128,0,1.0719037216954783,0.6239535704687453,4.868035905042619
1770453398144,128,0,1.5506338051539377,0.7544756197015507,5.336562425069998
1770453398148,129,1,2.399647641088788,1.8091597037379104,6.174060764667441
1770453398152,131,3,3.379196689760315,3.6782742094529177,7.141318544494281
1770453398156,131,3,4.134792181236703,3.9689753424436818,7.88453243056809
1770453398160,131,3,4.4141471747411005,3.470584116549641,8.152761856932312
1770453398164,131,3,4.177661380925594,3.999601514031885,7.907175464936609
1770453398168,131,3,3.561324097771711,3.4570478030400404,7.282991837666278
1770453398172,129,1,2.7662197639862187,2.1187056722756155,6.480176691965186
1770453398176,129,1,1.9582966389731025,1.5234821206487528,5.6643461976815725
1770453398180,128,0,1.2256145352708177,0.914444532970851,4.923213999868844
1770453398184,128,0,0.5994935985669511,0.5697923702740386,4.287137568751715
1770453398188,127,-1,0.0920853567675386,-0.1569648438284172,3.7680834912010592
1770453398192,126,-2,-0.3140732973482603,-1.2088581855560996,3.3502874710789063
1770453398196,126,-2,-0.7148220039648695,-1.163563944073334,2.939907108343692
1770453398200,126,-2,-1.2763762336506543,-1.3683600272841132,2.3707205472226542
1770453398204,125,-3,-2.1166584478574593,-2.186891998761072,1.5231649875719926
1770453398208,124,-4,-3.167674872907903,-3.380042140744852,0.4643362996441507
1770453398212,122,-6,-4.173082108838935,-4.988420897051042,-0.5488297389798795
1770453398216,122,-6,-4.853351686631759,-5.359809296515563,-1.236477296806085
1770453398220,122,-6,-5.098917715216802,-5.172157192226343,-1.4901628935700586
1770453398224,122,-6,-5.026937717932736,-5.381060296402533,-1.4282133679171487
1770453398228,122,-6,-4.872687183075621,-5.196218662220355,-1.2852233610518446
1770453398232,122,-6,-4.820710236188541,-5.133959983138266,-1.2434958842327235
1770453398236,122,-6,-4.898027137752252,-5.257155707738151,-1.3281126158750372
1770453398240,122,-6,-4.983930223088175,-5.214577111939444,-1.4179686140597934
1770453398244,122,-6,-4.9157836112771625,-5.401230526222989,-1.3518022718622529
1770453398248,122,-6,-4.6204510815578725,-5.116927091776153,-1.0596383822896067
1770453398252,123,-5,-4.186774843918837,-4.241150664584986,-0.6344710107427565
1770453398256,123,-5,-3.828080672268777,-4.118998723338253,-0.2919904398655264
1770453398260,123,-5,-3.744278604795989,-4.363859910850525,-0.2293040350890143
1770453398264,123,-5,-3.928468732430768,-4.253882104347727,-0.4312065015577611
1770453398268,123,-5,-3.9681149751137137,-4.259392948949829,-0.4759572243482903
1770453398272,124,-4,-2.922090710447571,-3.0976022261265244,0.5805375380912503
1770453398276,128,0,0.5799658896256945,0.7697719804977803,4.1011340670088945
1770453398280,135,7,7.868270030913438,7.744134022408682,11.401222358863766
1770453398284,146,18,19.4162361815526,18.6530778484121,22.94164535653677
1770453398288,160,32,34.01786789861847,32.8500351317745,37.51511655651968
1770453398292,175,47,48.54696062954359,47.78001332140383,52.00667347581143
1770453398296,186,58,58.75808129089943,58.923988057338725,62.18723695812775
1770453398300,189,61,61.00099418509471,61.522844870966544,64.4179942198115
1770453398304,182,54,54.008934499165555,54.85927705239154,57.43341683283322
1770453398308,167,39,39.662175982094695,39.589329715990715,43.1065482372682
1770453398312,147,19,22.153198478052825,20.037866214180024,25.618725452663547
1770453398316,132,4,6.01255120961064,4.729961879547513,9.488917760084618
1770453398320,122,-6,-5.783385592938714,-5.245436546857194,-2.3146251584287487
1770453398324,115,-13,-12.557033851520597,-12.285353662050694,-9.113444321143833
1770453398328,112,-16,-15.37898506949436,-15.292707657160443,-11.966441143957082
1770453398332,111,-17,-15.91779020201801,-16.05211938030241,-12.526874174184776
1770453398336,111,-17,-15.51953340250393,-16.267579542783686,-12.133161449035258
1770453398340,112,-16,-14.891303949225266,-15.188470743841878,-11.496904997102131
1770453398344,113,-15,-14.255162975767597,-14.360952549974412,-10.851184898167954
1770453398348,113,-15,-13.636792917569206,-14.19462067581483,-10.230169514017296
1770453398352,114,-14,-13.044898695824998,-13.163825096422512,-9.644257938647312
1770453398356,115,-13,-12.49394894556487,-12.192029273623666,-9.10433143217764
1770453398360,115,-13,-11.968280392850437,-12.236080934101372,-8.589304517557071
1770453398364,115,-13,-11.439735476946282,-12.283175350919707,-8.067100255794493
1770453398368,116,-12,-10.936255316963177,-11.281671874047635,-7.565813961619881
1770453398372,117,-11,-10.553420795266526,-10.058911498154451,-7.184660128912006
1770453398376,117,-11,-10.359992497740564,-10.36255419739459,-6.995232884801575
1770453398380,116,-12,-10.30077650990535,-10.989533544167696,-6.94131844795288
1770453398384,117,-11,-10.217845886064296,-10.5639149912778,-6.862360417655419
1770453398388,117,-11,-9.963256559842378,-9.952204382270466,-6.610213008069801
1770453398392,118,-10,-9.478644966735065,-9.42938599596573,-6.1286990717127905
1770453398396,118,-10,-8.788252737083642,-8.989870245744337,-5.4431574401296885
1770453398400,119,-9,-7.957931599121962,-8.324412591067388,-4.617974345080124
1770453398404,120,-8,-7.070664806949053,-7.264467092714032,-3.734414485641558
1770453398408,121,-7,-6.20668895765021,-6.176932021228481,-2.8730323555030655
1770453398412,122,-6,-5.410154724621865,-5.307853658905575,-2.079430296104743
1770453398416,122,-6,-4.670868374060651,-5.011397874734101,-1.3437444429192371
1770453398420,123,-5,-3.9525071578231272,-4.390139670635982,-0.6287327014496444
1770453398424,124,-4,-3.2376412496333287,-3.1017745440208246,0.083462323492963
1770453398428,125,-3,-2.530838690903048,-2.3981603107912615,0.7876556800585144
1770453398432,125,-3,-1.819384538358022,-2.061232511876603,1.496153602613
1770453398436,126,-2,-1.0526371083735926,-1.256380638475163,2.260063466001852
1770453398440,127,-1,-0.1755856437952236,-0.1719502327502606,3.1348304919715195
1770453398444,128,0,0.8168128330413191,0.7488150902956487,4.1250972798899666
1770453398448,129,1,1.8575970425526005,1.685304272201472,5.163122384455892
1770453398452,130,2,2.834541871501897,2.9302910341116304,6.136491185438203
1770453398456,131,3,3.641978782390935,3.672913850775045,6.940344752667646
1770453398460,131,3,4.221597482219709,3.9644767794487783,7.517590318766677
1770453398464,132,4,4.573301194947526,4.580325436160504,7.868525343020648
1770453398468,132,4,4.744138875711425,4.878869733748011,8.03914831468576
1770453398472,132,4,4.80852584696062,4.739245781345656,8.102276709855879
1770453398476,132,4,4.838015874588077,4.834820571461916,8.128872767917327
1770453398480,132,4,4.861028777073118,4.852479253924684,8.148277316858167
1770453398484,132,4,4.839338784154951,4.646866981299943,8.123677911116545
1770453398488,132,4,4.697357445276424,4.873002466158356,7.980053902648637
1770453398492,132,4,4.401353333962909,4.703447779409377,7.68319943954135
1770453398496,131,3,4.026937980564428,3.886912603835556,7.308123160126605
1770453398500,131,3,3.7429316334492535,3.803231349519194,7.023539613407133
1770453398504,131,3,3.707169029942984,3.692963523483387,6.9872626092761845
1770453398508,131,3,3.953169632436921,3.846261658692133,7.232273202235185
1770453398512,132,4,4.358380991217134,4.732820207865501,7.635286597156059
1770453398516,132,4,4.713001203391345,4.84386431857522,7.986663759471745
1770453398520,132,4,4.825719989515362,4.868788601882322,8.096562606750318
1770453398524,132,4,4.589032515618906,4.600384571633748,7.858987047520965
1770453398528,131,3,3.985557757760715,3.974237731766536,7.2563707329016545
1770453398532,131,3,3.070169228878841,3.5756484405176643,6.341791926819553
1770453398536,129,1,1.9516471693880892,2.0364438327134575,5.22264668816494
1770453398540,128,0,0.7610349864660729,0.6449915562752109,4.030384727496733
1770453398544,127,-1,-0.3974941733746742,-0.1421258786833683,2.870454170135968
1770453398548,126,-2,-1.4780975384764083,-1.3030964506696612,1.7891925701620135
1770453398552,125,-3,-2.475759053000177,-2.128188677546606,0.7911230823591628
1770453398556,124,-4,-3.381337303387924,-3.250360892216036,-0.1151329157831817
1770453398560,123,-5,-4.159311228273299,-4.089522018401994,-0.8940345666534188
1770453398564,123,-5,-4.7670058131578195,-4.377497926557409,-1.5025456018194498
1770453398568,122,-6,-5.18815974574821,-5.099280223396796,-1.924062912497365
1770453398572,122,-6,-5.4435321428145,-5.288272926555258,-2.17931645112677
1770453398576,122,-6,-5.566541429699544,-5.116881711219328,-2.3021162432039937
1770453398580,122,-6,-5.567705928472891,-5.1950995441848775,-2.3033811948868568
1770453398584,122,-6,-5.430463632397906,-5.307446580059667,-2.166461531040307
1770453398588,122,-6,-5.154505470349723,-5.125653847717734,-1.8907819319580603
1770453398592,123,-5,-4.805268425466956,-4.30244487005492,-1.5419586618749266
1770453398596,123,-5,-4.510491910234151,-4.04332581340683,-1.2480364036697082
1770453398600,123,-5,-4.397815661204694,-4.32296041379011,-1.1362919902717978
1770453398604,123,-5,-4.524327080369863,-4.135040530385105,-1.2630052750596494
1770453398608,123,-5,-4.846288166714231,-4.336222225695902,-1.5841748947733807
1770453398612,122,-6,-5.240061721481776,-5.063396741214673,-1.976746379227639
1770453398616,122,-6,-5.5583289050008124,-5.278758250906102,-2.2942191212267176
1770453398620,122,-6,-5.6920780677696134,-5.0932389227008965,-2.4279466099367566
1770453398624,122,-6,-5.607638108251186,-5.34719988580649,-2.3439830234907673
1770453398628,122,-6,-5.344523910098971,-5.154305936232438,-2.08135311592663
1770453398632,123,-5,-4.981313552659417,-4.197989550249117,-1.7184280059904369
1770453398636,123,-5,-4.593044582019157,-4.181703770239147,-1.3302021051513826
1770453398640,123,-5,-4.229972740103809,-4.148222813481688,-0.9667831281405884
1770453398644,124,-4,-3.926522854779582,-3.329267601568432,-0.6626840891683958
1770453398648,124,-4,-3.714062187474388,-3.1521614791893295,-0.4498149734059948
1770453398652,124,-4,-3.612521204358845,-3.205907709711179,-0.3483995355258553
1770453398656,124,-4,-3.612746351420362,-3.1531209925345256,-0.3487212209334158
1770453398660,124,-4,-3.6751725519656713,-3.1908253049000694,-0.4104251798522424
1770453398664,124,-4,-3.746710181456828,-3.2736711247979473,-0.4805268022104618
1770453398668,124,-4,-3.779401431731129,-3.235472476228272,-0.5121822259243594
1770453398672,124,-4,-3.742745734321662,-3.072438247851884,-0.4758833101044359
1770453398676,124,-4,-3.634096336927011,-3.3266445266975815,-0.3687082442663492
1770453398680,124,-4,-3.484890325658032,-2.965632053768707,-0.2206337265238662
1770453398684,125,-3,-3.3459960582677173,-2.5541366102328875,-0.0811319675573489
1770453398688,124,-4,-3.2444552183425173,-2.9202405313966384,0.02277347322714
1770453398692,125,-3,-3.137462609507474,-2.3905924244454644,0.1322870095342914
1770453398696,125,-3,-2.9106596131539564,-2.0111367830933844,0.3598529075675349
1770453398700,125,-3,-2.447138283653196,-2.246019963809129,0.8219850316120416
1770453398704,126,-2,-1.7323539346342791,-1.3452431313270354,1.5346983496490676
1770453398708,127,-1,-0.9016099414761136,-0.0360584073970566,2.364519695204301
1770453398712,128,0,-0.1590439532414729,0.6290765685379154,3.1080310485984066
1770453398716,128,0,0.3857606069233812,1.086877508602981,3.6550659347040058
1770453398720,129,1,0.8204420718405179,1.5589803647510951,4.0919476874948115
1770453398724,129,1,1.3667487299540393,1.8970999829952828,4.6391766045519685
1770453398728,130,2,2.188406743116196,2.6991670043504055,5.4601698048305005
1770453398732,131,3,3.222070380261708,3.901553575714793,6.492462765924122
1770453398736,132,4,4.176248078224821,4.8656713938561,7.445730424968135
1770453398740,133,5,4.7157589460055584,5.721613142238572,7.985119814897302
1770453398744,133,5,4.69448357936416,5.77743403423789,7.9641337119632
1770453398748,132,4,4.24453452674809,4.756233744274395,7.514843100814457
1770453398752,131,3,3.643230969078084,3.9019968382999264,6.914903261191797
1770453398756,131,3,3.0800691567925123,3.8536207317818,6.353372687034972
1770453398760,131,3,2.538384855439869,3.743225476895101,5.812226259160944
1770453398764,130,2,1.8826980678708596,2.7611839704388483,5.155305741913095
1770453398768,129,1,1.0359538797903656,1.7413965419397512,4.306638629277122
1770453398772,128,0,0.0651002414453566,0.9580781202426728,3.3349538260503335
1770453398776,127,-1,-0.8872084372247228,-0.2365157121435692,2.383571931305566
1770453398780,126,-2,-1.733379829809239,-1.1220835139269745,1.539022359714413
1770453398784,126,-2,-2.498799445036492,-1.4061240307928782,0.7741125633831301
1770453398788,125,-3,-3.2567068081002644,-2.072529791723583,0.014882101336302
1770453398792,124,-4,-4.016925611937475,-3.2320486237284167,-0.7470885936669367
1770453398796,123,-5,-4.688182871878409,-4.048953953428381,-1.4183362545232183
1770453398800,123,-5,-5.146339475517836,-4.287127402417557,-1.8744769189027233
1770453398804,123,-5,-5.327847404050869,-4.277733501903449,-2.054417065212536
1770453398808,123,-5,-5.260887202526664,-4.14951094318514,-1.9888675072483268
1770453398812,123,-5,-5.032397520461059,-4.200836366022003,-1.764291242189982
1770453398816,123,-5,-4.744356383199859,-4.029316631840284,-1.4792885666106237
1770453398820,124,-4,-4.485178029011403,-3.354610368693393,-1.2191275862291595
1770453398824,124,-4,-4.304388739296888,-3.179328231301006,-1.0333324589059512
1770453398828,124,-4,-4.195077158304091,-3.2615607441737864,-0.918556465683924
1770453398832,124,-4,-4.1163462112347045,-3.0750460580521253,-0.839085883535005
1770453398836,124,-4,-4.057958205263023,-3.1520026070199267,-0.7881121326623628
1770453398840,124,-4,-4.079035007359728,-3.253509574323754,-0.8230666487139544
1770453398844,124,-4,-4.223890433339999,-3.2547563421861745,-0.9806776064344448
1770453398848,124,-4,-4.28603044225603,-3.20251484170599,-1.0448211636598987
1770453398852,125,-3,-3.5397239871077124,-2.1101774770364914,-0.2850457859785411
1770453398856,128,0,-0.6951707947005601,0.8802326455235363,2.5832632626860645
1770453398860,134,6,5.6804091256900815,6.704071088134995,8.979296329994712
1770453398864,144,16,16.284489005301666,16.82598486842814,19.586467429491123
1770453398868,158,30,30.146742280200662,30.700217431759683,33.42936002874128
1770453398872,172,44,44.294541696786766,45.03850979861302,47.54359357708153
1770453398876,183,55,54.4941017076747,55.67572784503851,57.712522893557875
1770453398880,186,58,56.946102562867694,58.911339006750175,60.15231999026923
1770453398884,180,52,50.13277874683411,52.53498197469992,53.35025685827888
1770453398888,164,36,35.73500708047652,36.991648277882874,38.98035230104975
1770453398892,145,17,17.970015610156675,17.72702688953509,21.24559841143227
1770453398896,129,1,1.6639402551543032,2.0225155686642555,4.956996326595439
1770453398900,119,-9,-9.80874993216282,-8.3690205231586,-6.520013976369265
1770453398904,113,-15,-15.568774228904433,-14.161594966808815,-12.30348463570794
1770453398908,112,-16,-16.874614009916453,-15.2342673376714,-13.63835628904842
1770453398912,113,-15,-15.87128510657419,-14.116037070677834,-12.654069448213267
1770453398916,114,-14,-14.33911336831305,-13.128660350440668,-11.123590558627932
1770453398920,115,-13,-13.099892914434536,-12.269602282239171,-9.872920836708802
1770453398924,116,-12,-12.176911315572774,-11.238316923253478,-8.936109503575551
1770453398928,117,-11,-11.329962620390129,-10.137477247602096,-8.08222046766986
1770453398932,118,-10,-10.472614573297884,-9.23796320039427,-7.227634538275176
1770453398936,119,-9,-9.722454047276363,-7.990648608255272,-6.486543810523537
1770453398940,120,-8,-9.190393814584231,-7.447787094543658,-5.963772197316166
1770453398944,119,-9,-8.800332863632386,-8.016493286935315,-5.578475801042142
1770453398948,120,-8,-8.328819334399729,-7.366146169282407,-5.1066117976578
1770453398952,121,-7,-7.599079671033179,-6.009642268562921,-4.374902951327961
1770453398956,122,-6,-6.621390149023761,-5.214486571938343,-3.397862410705816
1770453398960,123,-5,-5.561735849244877,-4.25600756960639,-2.3427383777721893
1770453398964,124,-4,-4.598779293080026,-3.1380406197912576,-1.3859492138002016
1770453398968,125,-3,-3.804586346902904,-2.3177892616991844,-0.5962994623688314
1770453398972,125,-3,-3.130269251506239,-1.9824975475997788,0.076631167812625
1770453398976,126,-2,-2.4781086417458016,-1.3333211395375884,0.7292379001177434
1770453398980,127,-1,-1.778895989205785,-0.0630131014331027,1.4276631744545938
1770453398984,128,0,-1.0146987294301275,0.6374776694532662,2.187919359288716
1770453398988,128,0,-0.2041096846203739,0.933781675150279,2.9926547256596283
1770453398992,129,1,0.6032952330651975,1.7588226736438584,3.7951927978684186
1770453398996,130,2,1.33012858616368,2.8903587327297036,4.519336202911916
1770453399000,131,3,1.9133776036838384,3.749216745849397,5.1007145118518356
1770453399004,131,3,2.3681532050781646,3.812261114899844,5.552896665470637
1770453399008,131,3,2.795785546995047,3.792358072284596,5.977206885571237
1770453399012,132,4,3.309414013303697,4.862176849712982,6.487382657536986
1770453399016,133,5,3.9479139010528512,5.78893026469705,7.122310286262709
1770453399020,133,5,4.656836310017185,5.853470982255465,7.827341416326127
1770453399024,134,6,5.337902701153564,6.733363683291866,8.504320797864459
1770453399028,135,7,5.915451711534858,7.876340909606254,9.077750504275794
1770453399032,135,7,6.371896726082804,7.748235931908916,9.530141784626334
1770453399036,135,7,6.7311176920907,7.897525521798231,9.88558604695445
1770453399040,136,8,7.010867810130371,8.756117802074712,10.161847098148622
1770453399044,136,8,7.19829253863162,8.846583773482525,10.345635866883768
1770453399048,136,8,7.275905056512759,8.772936764282287,10.419105744187828
1770453399052,136,8,7.26358947945965,8.833146388198566,10.402311721627695
1770453399056,136,8,7.226040203331112,8.785490661117416,10.360382347826867
1770453399060,136,8,7.235312096290024,8.901600215690403,10.365643262431703
1770453399064,136,8,7.3199035668588,8.693961904608695,10.446465085741004
1770453399068,136,8,7.442947205894622,8.96480624067584,10.565341410355634
1770453399072,137,9,7.530427305261422,9.588663642219975,10.647605158821603
1770453399076,136,8,7.5240846972702595,9.045524847363126,10.635386240086028
1770453399080,136,8,7.406215205939071,8.622544412001776,10.512408605535228
1770453399084,136,8,7.17992218504898,9.01552387997954,10.282578856874988
1770453399088,136,8,6.845497755878751,8.636274293371908,9.945189108160804
1770453399092,135,7,6.406537934564762,7.895241249127154,9.502096823658349
1770453399096,135,7,5.882920509617568,7.749334880182829,8.972666004805061
1770453399100,134,6,5.2923614437530215,6.889979076468581,8.375789946943717
1770453399104,133,5,4.6107226374451,5.80670139700804,7.688691178492988
1770453399108,133,5,3.767208118749865,5.808299564879534,6.840519575671366
1770453399112,132,4,2.7066546399310623,4.754071457120015,5.7750714753301065
1770453399116,130,2,1.4696816724543678,2.8266974124187483,4.53273486759612
1770453399120,129,1,0.203296695100192,1.8754631222434288,3.2614511988197448
1770453399124,128,0,-0.916585142694588,0.7765486826275025,2.137597027486909
1770453399128,127,-1,-1.7765080090624463,-0.1031229227658336,1.2735734137137182
1770453399132,127,-1,-2.3555981254711904,-0.3802328629862981,0.6888386960665933
1770453399136,126,-2,-2.695267982571732,-1.0244111051974862,0.3420028882943571
1770453399140,126,-2,-2.860303950788692,-1.2808426392045165,0.1698983188625407
1770453399144,126,-2,-2.9227943226351853,-1.065024768668687,0.1019959289122951
1770453399148,126,-2,-2.954971702247653,-1.2285888210409082,0.065919292948454
1770453399152,126,-2,-3.008623031173408,-1.3132367025955582,0.0080958485059969
1770453399156,126,-2,-3.089917400152088,-1.0271452947394557,-0.0792366735565259
1770453399160,126,-2,-3.1636279178073408,-1.3651784712809047,-0.1603552945366333
1770453399164,125,-3,-3.200793076369598,-1.8852307617153907,-0.2041056254889346
1770453399168,126,-2,-3.2262723763182164,-1.4744020283437431,-0.2341984331657833
1770453399172,126,-2,-3.2983161786629016,-1.0279967214889694,-0.3103721363300051
1770453399176,126,-2,-3.4254846599719686,-1.3318245322583768,-0.4432290908363807
1770453399180,125,-3,-3.5255661456379945,-2.0788832136799833,-0.5503124412935252
1770453399184,125,-3,-3.5026636081764173,-2.1168556318451746,-0.5338924916786132
1770453399188,126,-2,-3.367769451258575,-1.317770022061998,-0.40452834460367
1770453399192,126,-2,-3.256375371215395,-1.0924928912602658,-0.2991249504327875
1770453399196,126,-2,-3.313766039432376,-1.3679358184104862,-0.363601244600586
1770453399200,125,-3,-3.571484057892274,-1.9410682081627464,-0.6280954680276913
1770453399204,125,-3,-3.932914013069209,-2.353226767791462,-0.9946992689363192
1770453399208,125,-3,-4.254520605457424,-2.0120019352835987,-1.3207409743726366
1770453399212,125,-3,-4.432162872891763,-2.437434476805497,-1.5038675802960508
1770453399216,124,-4,-4.44082602125122,-2.999807269256009,-1.5194179837515884
1770453399220,125,-3,-4.331019056293602,-2.2976572911059536,-1.416849570818874
1770453399224,125,-3,-4.191532960703172,-2.0374183470888623,-1.2841900740259158
1770453399228,125,-3,-4.093812200734998,-2.293234653698504,-1.1929448191087886
1770453399232,125,-3,-4.057273836386671,-2.187761484551064,-1.162697477277896
1770453399236,125,-3,-4.0630102124370255,-2.2048148626329827,-1.1745259731999695
1770453399240,125,-3,-4.091603373467099,-2.1405974022543077,-1.2091407648110677
1770453399244,125,-3,-4.138183938292283,-2.152273751981946,-1.2619561321990922
1770453399248,125,-3,-4.19185554777463,-2.2360093674526853,-1.3221222221845172
1770453399252,125,-3,-4.210223327759447,-2.174266343783255,-1.3469120874915754
1770453399256,125,-3,-4.124898241606278,-2.2812531399083587,-1.2676489593461024
1770453399260,125,-3,-3.880268705669092,-2.00182361358634,-1.0290207773206186
1770453399264,126,-2,-3.4724624002705333,-1.3637555983772047,-0.6279103250346028
1770453399268,126,-2,-2.954906005468787,-0.9596987158302028,-0.1180308251416102
1770453399272,127,-1,-2.4085547331452646,-0.5022073038354267,0.4204712259313874
1770453399276,127,-1,-1.8998507448869488,0.0995663635178123,0.9223797331247598
1770453399280,128,0,-1.4472563940215335,0.5722513981792825,1.369569086183061
1770453399284,128,0,-1.0088192844850383,1.0722298438700115,1.8031055337799025
1770453399288,129,1,-0.5044272022101871,1.6125390374384263,2.301954695726863
1770453399292,129,1,0.1229170239300305,1.9050281116203025,2.92263536993536
1770453399296,130,2,0.8376673339827756,2.741490598764004,3.629724138221486
1770453399300,131,3,1.4924225366110424,3.862688518796844,4.276168482240791
1770453399304,131,3,1.889053533487003,3.8449630589423314,4.6645150445273185
1770453399308,131,3,1.884336978179809,3.76672940999435,4.652513801192382
1770453399312,131,3,1.470181757951143,3.830911825092039,4.23264057259754
1770453399316,130,2,0.7821318304891557,2.741386947478025,3.5400261004393236
1770453399320,129,1,0.0340581653534075,1.9178972777022163,2.7874023911086088
1770453399324,129,1,-0.5863271700744158,1.742583287071539,2.161305006842145
1770453399328,128,0,-1.0060626633229497,0.9055870304008028,1.7340734607275747
1770453399332,128,0,-1.2933237542925302,0.6753666308038451,1.437812237540906
1770453399336,128,0,-1.6110266949731489,0.9153972056165391,1.1108192326249495
1770453399340,127,-1,-2.126735515360166,-0.2776592695087954,0.5871595174902753
1770453399344,126,-2,-2.926412078053326,-1.0654874269432908,-0.2182617563116524
1770453399348,126,-2,-3.9673183232654305,-1.2741236587816975,-1.2635044882338464
1770453399352,124,-4,-5.085155458146225,-3.1600516127023193,-2.3860919726108234
1770453399356,123,-5,-6.05981028200261,-4.229800598162436,-3.367110438852899
1770453399360,123,-5,-6.719877896348641,-4.1430997938842005,-4.034854094986182
1770453399364,122,-6,-7.028782912204849,-5.2118474776227846,-4.351508803954225
1770453399368,122,-6,-7.0929894278123555,-5.111181961132356,-4.422705693480306
1770453399372,123,-5,-7.082231913236077,-4.323724602996025,-4.4185951056228125
1770453399376,122,-6,-7.117910230746935,-5.068321900195283,-4.461569744563992
1770453399380,122,-6,-7.216320256986891,-5.310198461271327,-4.568077636753355
1770453399384,122,-6,-7.325503318172469,-5.055034335384658,-4.685023107948043
1770453399388,122,-6,-7.402902985896587,-5.265909931580486,-4.768217413518499
1770453399392,122,-6,-7.449936661962584,-5.16488285357925,-4.81826254967399
1770453399396,122,-6,-7.481567732433727,-5.201505943412813,-4.851513904738621
1770453399400,122,-6,-7.482868560851005,-5.23073418285661,-4.857009786541009
1770453399404,122,-6,-7.412301831399016,-5.084005490133837,-4.797457287116222
1770453399408,122,-6,-7.250205653280558,-5.303320223151809,-4.653435103375231
1770453399412,122,-6,-7.011344755280535,-5.058150352300671,-4.433603821274776
1770453399416,123,-5,-6.620031433614287,-4.339126083213271,-4.052840381095592
1770453399420,124,-4,-5.650979665583472,-3.0991708240701223,-3.0800627564137866
1770453399424,127,-1,-3.1362418597464146,-0.1909759019276364,-0.5505273536808701
1770453399428,132,4,2.246194673477053,4.747286624427151,4.8463879407596675
1770453399432,140,12,11.450160561963663,12.991698315217832,14.051466391829674
1770453399436,153,25,24.08549957133831,25.527120409077455,26.66781663895085
1770453399440,167,39,37.85132040251733,40.12778167830598,40.399071950185736
1770453399444,179,51,48.97657461766345,51.49002989530408,51.48866099638219
1770453399448,183,55,53.68648500458996,56.10482841074377,56.17791537777434
1770453399452,181,53,50.00008916560979,53.5599924357435,52.49319833189072
1770453399456,169,41,38.8260688953144,41.930949651837295,41.33769969397006
1770453399460,152,24,23.630109231140036,24.69975938467608,26.1637369571992
1770453399464,137,9,8.785882506461087,9.937652757761114,11.331658746560958
1770453399468,127,-1,-2.4173454247476567,-0.2818044843447325,0.122855139094975
1770453399472,121,-7,-8.923185591617274,-6.013297196531548,-6.405803110842168
1770453399476,119,-9,-11.678079476394675,-8.457248243451343,-9.19151670205632
1770453399480,117,-11,-12.460871795881308,-9.939881600752276,-9.99960163025406
1770453399484,117,-11,-12.707163550687351,-10.463879630452409,-10.256148013734244
1770453399488,116,-12,-13.005632121479447,-10.887142123294822,-10.55021424729919
1770453399492,116,-12,-13.303982520691358,-11.414998216409654,-10.838446910373724
1770453399496,116,-12,-13.394399510549556,-11.028103640186382,-10.923810577654692
1770453399500,117,-11,-13.2244972728098,-10.367460141779391,-10.7597730601254
1770453399504,117,-11,-12.889994637243596,-10.09016372526004,-10.44004176561644
1770453399508,117,-11,-12.484270423885173,-10.217804700223926,-10.050316069242852
1770453399512,117,-11,-12.035949725100158,-10.1430170962204,-9.612011139808022
1770453399516,118,-10,-11.57076791304273,-9.209759422725948,-9.149763064314088
1770453399520,119,-9,-11.156955764869458,-8.265293731640206,-8.736827106438932
1770453399524,119,-9,-10.842542009475835,-8.1361784414927,-8.426716501623368
1770453399528,119,-9,-10.569186780535103,-8.245658951118344,-8.16180738950938
1770453399532,119,-9,-10.19636164922232,-8.053936994694036,-7.798111870001688
1770453399536,120,-8,-9.62842221435487,-7.340076706028299,-7.237100584107553
1770453399540,121,-7,-8.900575101945135,-6.095105991655248,-6.5145000905387285
1770453399544,122,-6,-8.12620151422772,-5.3346218544910045,-5.7458259354661525
1770453399548,122,-6,-7.371630902171645,-5.051327525542559,-4.998080137446847
1770453399552,123,-5,-6.599339917731215,-4.237097660992129,-4.232673576039251
1770453399556,124,-4,-5.729846516402677,-3.1855525932211344,-3.369349694167913
1770453399560,125,-3,-4.743650831048951,-2.2085364744437763,-2.3891740249707656
1770453399564,126,-2,-3.7195960339815497,-1.2600467085433251,-1.3718955928717065
1770453399568,127,-1,-2.7811819863255987,-0.0963173705509106,-0.4409468036546209
1770453399572,128,0,-2.0049749994193875,0.772467249124184,0.3282206287538778
1770453399576,128,0,-1.3699146934633302,0.8245359593420454,0.9576391520686408
1770453399580,129,1,-0.7835116810203044,1.7639897753618494,1.5393291737370305
1770453399584,130,2,-0.1535398685389279,2.7890004982498557,2.163811597567617
1770453399588,130,2,0.551788645219861,2.8282500686621415,2.8617745951527063
1770453399592,131,3,1.285846586537366,3.86611067718408,3.5873928075922006
1770453399596,132,4,1.950887540152802,4.715367815051845,4.244714816992437
1770453399600,132,4,2.4621316438882044,4.870675211861481,4.749850188185299
1770453399604,133,5,2.818947714757005,5.6981286142071825,5.101512779788277
1770453399608,133,5,3.1301445216127135,5.891359261326675,5.407387715038761
1770453399612,133,5,3.55611681595917,5.827074669823379,5.82745219576547
1770453399616,134,6,4.1959838619568774,6.7187929789864,6.460943059729952
1770453399620,135,7,5.00885812216589,7.906362943503135,7.266872321375331
1770453399624,136,8,5.8382229735616065,8.623428979963467,8.088593277532329
1770453399628,136,8,6.51404314468104,9.00909550896631,8.756569476768389
1770453399632,137,9,6.9442337278131765,9.660491138027789,9.179568495313294
1770453399636,137,9,7.137468351105951,9.902445689336078,9.366630886427266
1770453399640,137,9,7.166857276545853,9.712727460249155,9.390578362189403
1770453399644,137,9,7.11772608487652,9.816615581907415,9.336172479812236
1770453399648,137,9,7.055860802526223,9.840470308871884,9.268567275526683
1770453399652,137,9,7.024646452570063,9.786000599644842,9.230626064157748
1770453399656,137,9,7.049373696186781,9.806398753401298,9.247670368220506
1770453399660,137,9,7.122768017639064,9.777233908606547,9.31319487635642
1770453399664,137,9,7.178364136993212,9.7782184264951,9.361611007545022
1770453399668,137,9,7.0920866776092435,9.87240359592656,9.26893345587201
1770453399672,137,9,6.7384825873676055,9.739184423191308,8.909029384731612
1770453399676,136,8,6.0691497161444445,8.857582177114331,8.233017930141997
1770453399680,135,7,5.14391799413983,7.711550949213415,7.300987092602803
1770453399684,134,6,4.084605984102209,6.851746538032672,6.235111150089862
1770453399688,133,5,2.9977744104790593,5.808518607604047,5.141715702192609
1770453399692,132,4,1.9369464621146515,4.771496217344065,4.073901217431331
1770453399696,131,3,0.9239496275393224,3.8653709827167337,3.053673469010242
1770453399700,130,2,-0.0099597382707152,2.648100163231762,2.1128634588257564
1770453399704,129,1,-0.8085145586397284,1.967228582635155,1.3077359662740773
1770453399708,129,1,-1.4103652464660037,1.6530048118156753,0.6989383318857194
1770453399712,128,0,-1.7866917893067336,0.9427874347716392,0.3150111866031255
1770453399716,128,0,-1.9730752568766483,0.6949252850857,0.1211032855102147
1770453399720,128,0,-2.069647115059026,0.7905295523927387,0.0177344671882448
1770453399724,128,0,-2.191996478285879,0.8638240399737933,-0.111201574820086
1770453399728,128,0,-2.399145942140223,0.7028064626519064,-0.3256544465732944
1770453399732,127,-1,-2.6666361068389963,-0.0511603647206375,-0.6010887370518123
1770453399736,127,-1,-2.9385526707408394,-0.3778809144926376,-0.8807431167960713
1770453399740,127,-1,-3.2006457119035217,-0.0870005099718789,-1.1500878023933216
1770453399744,127,-1,-3.4866353255356937,-0.3023499579807083,-1.4432480252700053
1770453399748,126,-2,-3.811488278124765,-1.0923777276214124,-1.7752716851590384
1770453399752,126,-2,-4.112839711236749,-1.285275104152637,-2.083506557648583
1770453399756,126,-2,-4.267405628286522,-1.1337139943194734,-2.2449199357559975
1770453399760,126,-2,-4.171009023130483,-1.3609251578838817,-2.1560705255930883
1770453399764,126,-2,-3.822089204304164,-0.9954464378769076,-1.815591252827471
1770453399768,127,-1,-3.3487045895175616,-0.4180348950696231,-1.3509714006217024
1770453399772,127,-1,-2.9492022304702132,0.0536158351942843,-0.9600193672029552
1770453399776,128,0,-2.7748651216730895,0.5037010642727784,-0.7938571250591959
1770453399780,127,-1,-2.8393864502076815,-0.0077110381972875,-0.8659956362540875
1770453399784,127,-1,-3.0292255396773196,-0.3330960328349733,-1.0627296694667323
1770453399788,127,-1,-3.2010377206316982,-0.0994628452551236,-1.241209820844829
1770453399792,127,-1,-3.276655171163392,-0.2344268769578539,-1.3243440825115744
1770453399796,127,-1,-3.264989874809496,-0.2596593742880581,-1.321592090395674
1770453399800,127,-1,-3.2197699276903093,-0.1974183207399112,-1.2860354991348402
1770453399804,127,-1,-3.1882265269981476,-0.1974839055623063,-1.263741978027512
1770453399808,127,-1,-3.1888016741315237,-0.1836786228187336,-1.2725904927974885
1770453399812,127,-1,-3.2172896378003784,-0.1979479359678939,-1.3087854695093846
1770453399816,127,-1,-3.26013215008229,-0.26541344006287,-1.359649634409191
1770453399820,127,-1,-3.2976438577339926,-0.2320715189776374,-1.4060242329401331
1770453399824,127,-1,-3.2978474067377435,-0.124739523565672,-1.4155528275637934
1770453399828,127,-1,-3.215866110005942,-0.2979325177888792,-1.3423595064281892
1770453399832,127,-1,-3.008108971971258,-0.0421580760101567,-1.1424069081308286
1770453399836,128,0,-2.650344136152348,0.5296216608436342,-0.7924389177448008
1770453399840,128,0,-2.1443901744943044,1.0009298678489176,-0.2958102187376301
1770453399844,129,1,-1.5193073625553315,1.6265575253213371,0.3182628195773023
1770453399848,129,1,-0.8414725466071229,1.9505782050824276,0.9850973518609822
1770453399852,130,2,-0.2171485297956269,2.7200319412946907,1.6000390843034098
1770453399856,131,3,0.2515429149983028,3.727084597004585,2.060647256340985
1770453399860,131,3,0.5494762169818852,3.842915183335138,2.350329711251294
1770453399864,131,3,0.7871578103526211,3.738627256433955,2.5790113209829464
1770453399868,131,3,1.1256263579468089,3.884294086666883,2.908167004495617
1770453399872,132,4,1.636651301542305,4.735088448944632,3.4094587336053026
1770453399876,133,5,2.228816681741928,5.737294186189827,3.990652438716099
1770453399880,133,5,2.704898677483607,5.824487684928722,4.45470691477305
1770453399884,133,5,2.887789612642228,5.753975685174028,4.626175107172293
1770453399888,133,5,2.713892184042004,5.876898733444119,4.442626191414367
1770453399892,133,5,2.2522218411713304,5.700904723348428,3.972346854292811
1770453399896,132,4,1.6584696963059755,4.794421633943218,3.369631733351711
1770453399900,131,3,1.0857982603890168,3.7622066065110857,2.7871004617486337
1770453399904,131,3,0.5987709275451878,3.816714861332362,2.28924246608208
1770453399908,131,3,0.1548603682603756,3.8236305668814694,1.8333352458494792
1770453399912,130,2,-0.3357073784761849,2.7066878697826136,1.3300746065680853
1770453399916,129,1,-0.938464339376241,1.8369356744839913,0.7153057855611293
1770453399920,129,1,-1.6688752202976624,1.6689140687895083,-0.0257118861475493
1770453399924,128,0,-2.497775324563081,0.9584846429357758,-0.864699785741732
1770453399928,127,-1,-3.3563588629908785,-0.3705196451724827,-1.7340558162640365
1770453399932,126,-2,-4.147985747847549,-1.0708179536333038,-2.537213158018408
1770453399936,126,-2,-4.780649900520283,-1.4091431588454784,-3.181454675449051
1770453399940,125,-3,-5.202936862058668,-2.079409570739794,-3.6150324731929233
1770453399944,125,-3,-5.418708729603324,-2.280911990182628,-3.8423207203361383
1770453399948,125,-3,-5.477017062269485,-2.1596849356657124,-3.913306782950203
1770453399952,125,-3,-5.44910467830537,-2.260479899264972,-3.899620837076774
1770453399956,125,-3,-5.405084385341511,-2.2583428605836504,-3.870310210815347
1770453399960,125,-3,-5.395904054127148,-2.1960392702051412,-3.874006234000381
1770453399964,125,-3,-5.438195289487211,-2.196039153005335,-3.925516605931549
1770453399968,125,-3,-5.503450577506222,-2.224031567291016,-3.9972260281564305
1770453399972,125,-3,-5.5281187860635255,-2.2256505937321984,-4.029875753154627
1770453399976,125,-3,-5.460571471260969,-2.2797332055934776,-3.977226644880008
1770453399980,125,-3,-5.323344874882741,-2.192342557614153,-3.863802511209939
1770453399984,125,-3,-5.215408398851782,-2.1784881982989917,-3.783886406850804
1770453399988,125,-3,-5.168309926290464,-2.271401520530693,-3.7592166467708408
1770453399992,126,-2,-4.858575098565421,-1.1637426313275954,-3.4576714928422136
1770453399996,128,0,-3.3567487242072236,0.6410709292932775,-1.948974147388178
1770453400000,131,3,0.7729185135546861,3.8929291285958714,2.19330469174734
1770453400004,139,11,8.81715774323417,11.75592495165347,10.240348114615712
1770453400008,151,23,20.88792328405593,23.774908610985097,22.29139884168061
1770453400012,165,37,35.12146274747136,37.81986170445213,36.482411158817754
1770453400016,178,50,47.76783922615553,50.630350057110434,49.07794832590651
1770453400020,185,57,54.433951080981736,57.906616668794406,55.705356805051146
1770453400024,184,56,52.04949098541488,56.673820781130246,53.30705217794292
1770453400028,172,44,40.53360377699102,44.81892497289497,41.800128081044264
1770453400032,153,25,23.100310363540473,25.73317950863433,24.38539290819466
1770453400036,134,6,4.859482612585976,6.734910629960163,6.156763662380218
1770453400040,120,-8,-9.5309445764994,-7.152054030269303,-8.239635798771943
1770453400044,113,-15,-17.759887933068192,-14.215976092634047,-16.49608927253276
1770453400048,111,-17,-20.268260468266572,-16.23794146773163,-19.046619474460933
1770453400052,112,-16,-19.20202702854603,-15.223746427539472,-18.022790370361136
1770453400056,114,-14,-16.854007226072163,-13.335098906074462,-15.703375105963053
1770453400060,115,-13,-14.627066160371552,-12.135175348048916,-13.486188778746545
1770453400064,117,-11,-12.92312727294647,-10.24120022685283,-11.780115009803898
1770453400068,119,-9,-11.631775076084311,-8.206823099957507,-10.488307192473524
1770453400072,120,-8,-10.6212553403726,-7.234016963253405,-9.489226914222089
1770453400076,121,-7,-9.892054242962995,-6.365565007300666,-8.783580725891607
1770453400080,121,-7,-9.465012660261737,-6.08619100952166,-8.384104127501624
1770453400084,121,-7,-9.2589908303435,-6.364357250088628,-8.20089073315739
1770453400088,121,-7,-9.104822078527947,-5.994891119532055,-8.062114107748819
1770453400092,122,-6,-8.847103329613905,-5.500062896186776,-7.816500554597589
1770453400096,122,-6,-8.413194397653779,-5.056380954225588,-7.397328849312789
1770453400100,123,-5,-7.806289993728851,-4.445224864747881,-6.80992911827795
1770453400104,123,-5,-7.072732269554479,-4.017563275162456,-6.097930195347812
1770453400108,124,-4,-6.289872087462152,-3.311142741670678,-5.334910489897279
1770453400112,125,-3,-5.554352266239794,-2.206363047341215,-4.616764440640505
1770453400116,126,-2,-4.935579745066525,-1.3173705979137391,-4.015112584690971
1770453400120,126,-2,-4.423481598476998,-1.2433993593925052,-3.5216808912460467
1770453400124,126,-2,-3.939744737394715,-1.2072476441859477,-3.057614574360549
1770453400128,127,-1,-3.4158597388162693,-0.1294151343298499,-2.5530964926767217
1770453400132,128,0,-2.8515931227558395,0.6241950282253617,-2.00784536793871
1770453400136,128,0,-2.287440631992877,0.8622872745314727,-1.463181390266299
1770453400140,129,1,-1.7305487856108976,1.542633708120786,-0.9264445155276152
1770453400144,129,1,-1.1233284724040162,2.002102232833964,-0.3394247941725328
1770453400148,130,2,-0.3866272020473842,2.6542219387262307,0.3774630149056275
1770453400152,131,3,0.5107850032981749,3.8459939089519466,1.255142188753878
1770453400156,132,4,1.5224053710785697,4.679304511596338,2.24647798115047
1770453400160,133,5,2.555365826331961,5.64024356945577,3.2582711394760784
1770453400164,134,6,3.5312212067125976,6.98082341605257,4.21234214542165
1770453400168,135,7,4.424601520658219,7.554876430770296,5.084128914358596
1770453400172,135,7,5.251238974548602,8.081868470984613,5.890106354365768
1770453400176,137,9,6.026093477760552,9.332562581717267,6.644955829609761
1770453400180,137,9,6.741222801982108,10.063703229012384,7.339390156906073
1770453400184,138,10,7.382654422782374,10.468347773928,7.958420185740381
1770453400188,138,10,7.952516214853865,11.110477046087798,8.504745798194953
1770453400192,139,11,8.461011690456418,11.519662467199575,8.990201783956612
1770453400196,139,11,8.902279480823982,11.887414184788298,9.409836291877657
1770453400200,140,12,9.256721780595422,12.52363303210598,9.743260433122032
1770453400204,140,12,9.528268831902848,12.943727252793538,9.99290130954452
1770453400208,140,12,9.768904945142229,12.69428943771571,10.210264389007357
1770453400212,140,12,10.042698547196862,12.87564924804562,10.46024213811644
1770453400216,141,13,10.352796185112163,13.60619479119077,10.746789794530851
1770453400220,141,13,10.610487957073715,13.710328271875802,10.981110213830142
1770453400224,141,13,10.68721865272253,13.82436192811519,11.034234876353713
1770453400228,141,13,10.502578031075814,13.735231282177288,10.82581916723894
1770453400232,140,12,10.067067694978244,12.910637698561162,10.366734696293465
1770453400236,140,12,9.447469345301544,12.49991318616007,9.723697021576994
1770453400240,139,11,8.695159414365623,11.862924010697414,8.94740798626051
1770453400244,138,10,7.804206633358024,10.615512489864797,8.031339494403419
1770453400248,137,9,6.732412123401183,9.968484542453426,6.933566292082272
1770453400252,136,8,5.462849484915054,8.690958878784969,5.638348452949822
1770453400256,134,6,4.052328310229544,6.6669429483797105,4.203592391206499
1770453400260,133,5,2.629330242009128,5.758394116705164,2.7574713411494858
1770453400264,132,4,1.3470427605141322,4.616978019756749,1.4514514569050267
1770453400268,130,2,0.3197205698790455,3.0647631308983208,0.3983684758420822
1770453400272,130,2,-0.4335288436737268,2.516073448544409,-0.3823613753583803
1770453400276,129,1,-1.0094332274652706,1.9090095048392628,-0.9859939334040232
1770453400280,129,1,-1.5746613870802904,1.4376036233003766,-1.5780629438802305
1770453400284,128,0,-2.2623374371171634,0.9767595040564322,-2.2914868449261125
1770453400288,127,-1,-3.0803302546481763,-0.3249413868622582,-3.134529904973314
1770453400292,126,-2,-3.905701350204648,-1.0828041728032234,-3.9849907021817534
1770453400296,126,-2,-4.570910857057688,-1.485190852410041,-4.676222433659596
1770453400300,125,-3,-4.974292863866389,-2.219932366804851,-5.107014042607016
1770453400304,125,-3,-5.136248908602357,-2.317581138080373,-5.297308493426811
1770453400308,125,-3,-5.167902140225109,-2.0854445497900187,-5.35725244543068
1770453400312,125,-3,-5.179953818189081,-2.2608217121345873,-5.396873097972891
1770453400316,125,-3,-5.202005200031371,-2.380212890793193,-5.445774603027136
1770453400320,125,-3,-5.175701216145268,-2.2790287673289487,-5.446124306784683
1770453400324,125,-3,-5.024854414786368,-2.32603563482637,-5.3224555367771
1770453400328,125,-3,-4.74030150579506,-2.0183097338997165,-5.066182296289486
1770453400332,126,-2,-4.4055241210728555,-1.3644270724872123,-4.760797200804449
1770453400336,126,-2,-4.142393097895351,-1.2650336572413572,-4.527354589192019
1770453400340,126,-2,-4.025364150450203,-1.4114230997445416,-4.4391835610121495
1770453400344,126,-2,-4.031657671688636,-1.2243125294228008,-4.473192516831229
1770453400348,126,-2,-4.056579013327184,-1.0805153139554595,-4.525521023918496
1770453400352,126,-2,-3.978779053296992,-1.344816805869565,-4.47580923941555
1770453400356,126,-2,-3.7385143677340977,-1.241622183785977,-4.264627111059475
1770453400360,127,-1,-3.381464392216583,-0.4919509550079145,-3.937591358851468
1770453400364,127,-1,-3.0332761669628865,-0.1289657481264123,-3.620227004104809
1770453400368,127,-1,-2.822490495798608,-0.1775508911162812,-3.4404929809255793
1770453400372,127,-1,-2.8141782313397905,-0.2596265227608711,-3.462418206100282
1770453400376,127,-1,-2.9954747983692127,-0.3053308844900705,-3.67262329019844
1770453400380,127,-1,-3.2983667978518874,-0.4923789766110398,-4.003810002910174
1770453400384,126,-2,-3.626963177195112,-1.0835311531525469,-4.361463096624832
1770453400388,126,-2,-3.879962872658928,-1.2674075357927526,-4.645132186408934
1770453400392,126,-2,-3.976055183683252,-1.1230376304811185,-4.773098424500657
1770453400396,126,-2,-3.8821437011767137,-1.4822838825865698,-4.710919464875994
1770453400400,126,-2,-3.6267210982241895,-1.3192355001883973,-4.48615200600557
1770453400404,127,-1,-3.2748702229036017,-0.2633933390241512,-4.164382833171576
1770453400408,127,-1,-2.871127206216141,-0.088729035902962,-3.7913040925373886
1770453400412,127,-1,-2.404222128129964,-0.2940861647114524,-3.3558964174961603
1770453400416,128,0,-1.8390702506218888,0.6791127204824163,-2.8224201743285953
1770453400420,129,1,-1.1832162690272665,1.486266084414924,-2.1980827735859525
1770453400424,129,1,-0.5102169910296621,1.9431843401628288,-1.5567079792461396
1770453400428,130,2,0.085600899512117,2.6949339112226305,-0.9927399812798836
1770453400432,130,2,0.5539643222347528,2.948696920342885,-0.556186532648296
1770453400436,131,3,0.9127918162510444,3.3869242183806945,-0.228986644253331
1770453400440,131,3,1.2146588625932753,3.794444168278269,0.0412070451141641
1770453400444,131,3,1.4850997657353977,3.5902834951893574,0.279529953491773
1770453400448,131,3,1.684320141680396,4.099251033521531,0.4458247003156868
1770453400452,132,4,1.7289034391850755,4.515282245384946,0.4567355070019725
1770453400456,131,3,1.55749428711322,3.825589113357942,0.2518683430920858
1770453400460,131,3,1.1800505822058582,3.3149948185547173,-0.1575860737864092
1770453400464,130,2,0.6713563291886538,3.081370428241072,-0.6970627464359631
1770453400468,130,2,0.1285333084545861,2.600667337333716,-1.271476788609729
1770453400472,129,1,-0.3720562037777646,2.0336121838167944,-1.8060856878660896
1770453400476,129,1,-0.8112489660088634,1.293102805196898,-2.2807812567285324
1770453400480,128,0,-1.2506812797681817,0.8023518911356983,-2.7546859653357325
1770453400484,128,0,-1.80868384274724,0.6323330375110858,-3.345020304548652
1770453400488,127,-1,-2.571834066141471,-0.0125358660562686,-4.139785557868379
1770453400492,126,-2,-3.5040987870399047,-1.2493846364162893,-5.105068082011348
1770453400496,125,-3,-4.450365589269935,-2.55267268505298,-6.08645403725601
1770453400500,124,-4,-5.245840236949266,-3.261060253881088,-6.918208138846543
1770453400504,124,-4,-5.823873382695208,-3.429050942797695,-7.531857851769047
1770453400508,123,-5,-6.213502177493403,-3.8272089844456665,-7.954322264797039
1770453400512,123,-5,-6.44161656996053,-4.507511697000576,-8.211441681819997
1770453400516,123,-5,-6.456942734793637,-4.252603570000001,-8.254155525333184
1770453400520,124,-4,-6.171963651045,-3.639847208490624,-8.000389036515553
1770453400524,123,-5,-5.613048176331521,-4.0193874987605955,-7.481117685916433
1770453400528,124,-4,-5.0559552996401225,-3.26992569499467,-6.971326701199018
1770453400532,124,-4,-4.96260741019179,-2.966045861781037,-6.926584143945798
1770453400536,124,-4,-5.609877504195886,-3.942223440164791,-7.615668579835978
1770453400540,124,-4,-6.554433839190956,-2.8415575029461846,-8.589110443291814
1770453400544,124,-4,-6.355743524201003,-3.960662798778548,-8.404658238874754
1770453400548,123,-5,-2.9698800572902684,-3.2067945994759093,-5.024744905080611
1770453400552,136,8,5.204039301456971,7.938919689930616,3.135301102167852
1770453400556,148,20,18.16277648958121,21.16283212990384,16.054768273997873
1770453400560,162,34,33.69064776292623,34.067946752746536,31.515291142484877
1770453400564,176,48,47.695271942044585,49.070286423573194,45.44239811434178
1770453400568,185,57,55.51389140885073,57.83278409486439,53.19860448586866
1770453400572,184,56,53.82175058388731,56.68819573339993,51.47313926218444
1770453400576,173,45,42.30767980206009,45.57049560258045,39.95077684665823
1770453400580,153,25,24.10481854615186,25.41255216345447,21.749096973550746
1770453400584,132,4,4.515410948422867,4.906258817740314,2.153246905449839
1770453400588,117,-11,-11.360291799634602,-10.08971661498008,-13.748321398622714
1770453400592,108,-20,-20.72285460330227,-19.277738864181053,-23.1588977926857
1770453400596,106,-22,-23.739486496066093,-21.407520971131856,-26.238242304553815
1770453400600,108,-20,-22.61967831217082,-19.623923043203597,-25.181471934759923
1770453400604,109,-19,-19.94452588519659,-18.08309039722149,-22.55586832760086
1770453400608,111,-17,-17.38242451323199,-16.169258911936932,-20.024413660619963
1770453400612,113,-15,-15.405051594062066,-14.21950361890654,-18.064733459311224
1770453400616,115,-13,-13.80428897538465,-12.446230662421325,-16.48155018996652
1770453400620,117,-11,-12.352533389615576,-10.578877153673217,-15.058101812116746
1770453400624,118,-10,-11.089670625774694,-9.140686596822816,-13.836430490217827
1770453400628,119,-9,-10.187362653664882,-8.146981426349395,-12.981636194190088
1770453400632,119,-9,-9.691167472714,-8.264405117119074,-12.529751269906106
1770453400636,119,-9,-9.437263097672382,-8.368114227510024,-12.311588538564424
1770453400640,120,-8,-9.182515936219051,-7.674211321211731,-12.086313717922362
1770453400644,120,-8,-8.769593949797263,-7.0193254597120855,-11.703720461990796
1770453400648,121,-7,-8.171389104839829,-6.336070532853399,-11.141791727342016
1770453400652,121,-7,-7.434192347770108,-6.047166587573464,-10.445477176847913
1770453400656,122,-6,-6.629995230110669,-5.606758165039747,-9.681407358912038
1770453400660,123,-5,-5.851469354187998,-4.415163379901873,-8.939016711742761
1770453400664,124,-4,-5.189110473776999,-3.291877170882937,-8.310392329807746
1770453400668,124,-4,-4.666713518207851,-3.09588953515127,-7.822616867699473
1770453400672,124,-4,-4.208792554384633,-3.2809419055537155,-7.401191234648169
1770453400676,125,-3,-3.7024253097827744,-2.3898888198641357,-6.931910410839284
1770453400680,126,-2,-3.0986585348242146,-1.6110737999507978,-6.364840020183408
1770453400684,126,-2,-2.4443287438613277,-1.12311608465282,-5.747064115798122
1770453400688,127,-1,-1.8173709495419992,-0.2560453109787898,-5.156802561752847
1770453400692,127,-1,-1.2423666171617291,-0.1564908098085908,-4.618267390417356
1770453400696,128,0,-0.6682618987137579,0.4996585193607743,-4.08017181588137
1770453400700,129,1,-0.015797490513121,1.4866177554151183,-3.4637623763407617
1770453400704,129,1,0.7570069772952452,1.7833790230619582,-2.727578630667363
1770453400708,130,2,1.6226681824523357,2.8188881824855665,-1.8988167528544977
1770453400712,131,3,2.504874252722316,3.767427966767944,-1.0531404435491174
1770453400716,132,4,3.3375126649881155,4.5517375779142055,-0.2566001323579718
1770453400720,133,5,4.117573899073667,5.452150089309133,0.4872736024911552
1770453400724,133,5,4.902555328156145,5.801495224604567,1.235658885483244
1770453400728,134,6,5.747085908422232,6.787487740384379,2.0434167045070137
1770453400732,135,7,6.6357115057290805,7.800307979803501,2.895474022917049
1770453400736,136,8,7.479787036023653,8.48993666159601,3.703313364410823
1770453400740,137,9,8.18491938208938,9.540709358135844,4.3724753363151825
1770453400744,137,9,8.72295334714902,9.692042753515596,4.874687481331301
1770453400748,137,9,9.136440446672683,9.87982613806895,5.252192994183618
1770453400752,138,10,9.471149631403732,10.707179652204044,5.550250481811547
1770453400756,138,10,9.702703012199905,10.56051263389857,5.744320565795449
1770453400760,138,10,9.728884663064996,10.488315383612797,5.732845461556619
1770453400764,138,10,9.443995969274953,10.74084129795646,5.411195919415599
1770453400768,137,9,8.844502491249273,9.796307484636262,4.776453983008965
1770453400772,136,8,8.080293801010468,8.800224449365812,3.9781883565231073
1770453400776,136,8,7.3952654300070515,8.430612775221523,3.2591140377536703
1770453400780,135,7,6.984788045047672,7.663977737002112,2.813134457004813
1770453400784,135,7,6.867861596551956,7.516293903697206,2.6584477080089592
1770453400788,135,7,6.866829483686367,8.060765780558707,2.618117595711742
1770453400792,135,7,6.71112437982283,7.467816208443971,2.423779197632896
1770453400796,134,6,6.194667847122674,6.7905706450870875,1.8715184554622433
1770453400800,134,6,5.288131040650142,6.295892572879769,0.9320333569314728
1770453400804,132,4,4.146835018868584,4.855066859987476,-0.2417977645615514
1770453400808,131,3,3.013857928172978,3.755569182629168,-1.4095290726235978
1770453400812,130,2,2.067243737389976,2.703799415205334,-2.3934856044992308
1770453400816,129,1,1.301753311856262,1.6044507414276843,-3.1971722260787487
1770453400820,129,1,0.5394168176645497,1.4447733788200068,-3.996891438530347
1770453400824,128,0,-0.4165201872726616,0.7180616623844154,-4.988987739169452
1770453400828,126,-2,-1.5979113528422082,-1.108521654458853,-6.205413292814185
1770453400832,125,-3,-2.8182555488782413,-2.494951723947952,-7.459659646278448
1770453400836,124,-4,-3.797932089198603,-3.1344565843873085,-8.472663862815507
1770453400840,124,-4,-4.354483227630228,-3.8991461750984504,-9.063417689750386
1770453400844,123,-5,-4.502195127579255,-3.8572862310006983,-9.24733801663616
1770453400848,124,-4,-4.406254094967515,-3.5810204456042607,-9.189079780122851
1770453400852,123,-5,-4.258275523141299,-4.05433350532486,-9.078414248029365
1770453400856,124,-4,-4.175476199216711,-3.529061101365635,-9.031129665177192
1770453400860,124,-4,-4.175754720605052,-3.608408589016762,-9.065256116367696
1770453400864,123,-5,-4.215042098021416,-4.024745411034775,-9.137918672882218
1770453400868,124,-4,-4.242639624841085,-3.5361234762223783,-9.199500588437123
1770453400872,123,-5,-4.235024267150246,-4.019037356036316,-9.226867798774345
1770453400876,124,-4,-4.193714493912006,-3.6556658663944823,-9.221259954407168
1770453400880,124,-4,-4.124526553204459,-3.4354881757242532,-9.18773072700202
1770453400884,123,-5,-4.028717244315688,-4.207141606537638,-9.126800856274048
1770453400888,124,-4,-3.913670593535125,-3.3832556181823072,-9.045914702454644
1770453400892,124,-4,-3.7997703660759146,-3.136307715842545,-8.966251394763908
1770453400896,124,-4,-3.7083116591398793,-3.6326950702206,-8.909477440379856
1770453400900,124,-4,-3.648385461302737,-3.3743100306356,-8.884108368191077
1770453400904,124,-4,-3.619277579889604,-3.3313018634993576,-8.888939900386667
1770453400908,124,-4,-3.615605546044513,-3.2382078059724058,-8.919050934202989
1770453400912,124,-4,-3.623209477061794,-3.292332685391947,-8.960966521478287
1770453400916,124,-4,-3.620078097158561,-3.5246592193002293,-8.99248599182594
1770453400920,124,-4,-3.594246822860522,-3.436262459357154,-9.000830267663435
1770453400924,124,-4,-3.5591290302898178,-3.3125914382792256,-8.999123530685674
1770453400928,124,-4,-3.540119772333106,-3.2349281389514335,-9.013338336266228
1770453400932,124,-4,-3.5426502308527645,-3.325751994737475,-9.04949789956329
1770453400936,124,-4,-3.541823751718493,-3.5039581877592174,-9.08258519622061
1770453400940,124,-4,-3.5114164010843756,-3.4553113464766603,-9.085903346209976
1770453400944,124,-4,-3.4602752947958004,-3.299799917247134,-9.068224324452451
1770453400948,124,-4,-3.4309230467765808,-3.2500856309574497,-9.072387872562008
1770453400952,124,-4,-3.45614247481684,-3.3263098774637,-9.131228602871202
1770453400956,124,-4,-3.5147480325567293,-3.5174301647568464,-9.223082064081243
1770453400960,124,-4,-3.527546682283657,-3.451597391307099,-9.268267896722042
1770453400964,124,-4,-3.396346043229766,-3.297387395823248,-9.168768927932744
1770453400968,124,-4,-3.055369546663764,-3.2636544910111507,-8.85974870958119
1770453400972,125,-3,-2.5005848152250705,-2.322931677388554,-8.338162570372928
1770453400976,126,-2,-1.7852557328700125,-1.5273742139729038,-7.657161098961417
1770453400980,126,-2,-0.9976232540281602,-1.4672784032068815,-6.903487400849359
1770453400984,127,-1,-0.2375576025645387,-0.2596712894852652,-6.175589153751511
1770453400988,128,0,0.4135125456838628,0.6710124284072743,-5.5552366932238435
1770453400992,128,0,0.9316150297879826,0.7369629202378658,-5.068116160648189
1770453400996,129,1,1.3639222190855618,1.4078342842988556,-4.668084674490483
1770453401000,129,1,1.781141967172839,1.5678947071586231,-4.283722166417165
1770453401004,129,1,2.195005081867024,1.733006615984949,-3.902025683182347
1770453401008,130,2,2.5222070687000784,2.6316629496941175,-3.6061923316946394
1770453401012,130,2,2.643295988956331,2.8188924909576416,-3.516647517030657
1770453401016,130,2,2.5042619061364952,2.2521646617157507,-3.687792763797208
1770453401020,129,1,2.155253355678997,1.7786206203833754,-4.068611149823306
1770453401024,129,1,1.6887774334173071,1.4514554345736743,-4.565792961376001
1770453401028,128,0,1.1507868607369507,0.954777465887462,-5.133926688321719
1770453401032,128,0,0.5182697035729478,0.4659154812381197,-5.797270868829202
1770453401036,127,-1,-0.2465800401921132,-0.3976237070837189,-6.593986182362993
1770453401040,126,-2,-1.1343251710903115,-1.5710229905982305,-7.513655868087355
1770453401044,125,-3,-2.0796926906170112,-2.242909347261506,-8.489819193839859
1770453401048,124,-4,-3.002205559016651,-3.312763248712523,-9.44188396726004
1770453401052,123,-5,-3.8469071725163864,-4.321982259071775,-10.315991482823332
1770453401056,123,-5,-4.588386303536758,-4.556818680967563,-11.08794396812132
1770453401060,122,-6,-5.2070930040807575,-5.478512923650106,-11.73813234019295
1770453401064,121,-7,-5.676808823710114,-6.310031933644584,-12.23884625329369
1770453401068,121,-7,-5.981649796449688,-6.274937321745766,-12.57290227471688
1770453401072,121,-7,-6.135366640584912,-6.356970953837402,-12.754647163253471
1770453401076,121,-7,-6.171160423965345,-6.520847283109605,-12.819425235151432
1770453401080,121,-7,-6.114543505453015,-6.534575245637431,-12.79422968328543
1770453401084,121,-7,-5.978040769860189,-6.265665125897792,-12.690472255731011
1770453401088,121,-7,-5.787632035928312,-6.326308429753323,-12.530762530700196
1770453401092,121,-7,-5.604607778945809,-6.32337324755215,-12.37369740691885
1770453401096,122,-6,-5.49979447884817,-5.5301514831168594,-12.291326526763644
1770453401100,122,-6,-5.491664338469792,-5.571702907805931,-12.30731297646314
1770453401104,121,-7,-5.524983677646624,-6.208276743452867,-12.371798173454144
1770453401108,121,-7,-5.538337875704213,-6.427510746186728,-12.424557184863396
1770453401112,121,-7,-5.533448686567608,-6.206393392218663,-12.462558503703802
1770453401116,122,-6,-5.479146201889073,-5.659172425833486,-12.445557186448262
1770453401120,122,-6,-5.0125900391839435,-5.442867059617919,-12.002138416125945
1770453401124,124,-4,-3.1578377405264524,-3.350764728824237,-10.154873664202835
1770453401128,129,1,1.581350121801913,1.706282923111711,-5.416805005238797
1770453401132,137,9,10.545846509112694,9.64751269023382,3.5368878885166986
1770453401136,150,22,23.849622686603883,22.519658730509935,16.80761243067005
1770453401140,166,38,39.52085581255813,38.36008054299521,32.42352063206146
1770453401144,180,52,53.5781437512625,52.86129907431015,46.41678818309422
1770453401148,189,61,61.34660926756322,61.41871686862275,54.13193372286017
1770453401152,187,59,59.531694707370335,59.92253244268311,52.288149601194434
1770453401156,176,48,47.940087176876425,48.1513666204075,40.69258483534319
1770453401160,156,28,29.778538806289287,28.734547789644992,22.539726734004567
1770453401164,136,8,10.249732021198938,8.450468230857023,3.0144831519658553
1770453401168,120,-8,-5.783037802440443,-7.111785392161069,-13.034125496034656
1770453401172,111,-17,-15.718868503667476,-16.49558470472761,-23.00926824176197
1770453401176,108,-20,-19.726017828789733,-19.401548851570443,-27.07111482488429
1770453401180,108,-20,-19.8100021114271,-19.674788311833332,-27.209142897634106
1770453401184,108,-20,-18.287234712540716,-19.248261976038425,-25.725084076488248
1770453401188,110,-18,-16.662614002897733,-17.38617290691586,-24.119503903363572
1770453401192,111,-17,-15.384798278415447,-16.3212917260849,-22.84890717328967
1770453401196,112,-16,-14.278635992984968,-15.490698751959403,-21.75145809774787
1770453401200,114,-14,-13.119763340828255,-13.650858591088593,-20.612258942293703
1770453401204,115,-13,-11.92813284656327,-12.233068875924292,-19.4518773547158
1770453401208,116,-12,-10.905194949209564,-11.496426955952998,-18.465069315890304
1770453401212,116,-12,-10.220332506670228,-11.153178926713151,-17.813036708414735
1770453401216,117,-11,-9.880309702988724,-10.711781042743516,-17.498571464410453
1770453401220,117,-11,-9.751639601613082,-10.37725389614762,-17.390046765557365
1770453401224,117,-11,-9.657231539812331,-10.563639093455752,-17.31521994826861
1770453401228,117,-11,-9.451507477665947,-10.17448916905192,-17.132245008879984
1770453401232,118,-10,-9.045276063516082,-9.480794377568968,-16.752343914596928
1770453401236,118,-10,-8.409913936484603,-9.383747096430882,-16.144553512546693
1770453401240,119,-9,-7.589740511031733,-8.696568446380004,-15.350597134061552
1770453401244,120,-8,-6.704584918706125,-7.267021376789386,-14.489744412055805
1770453401248,121,-7,-5.903351550485181,-6.507562031065253,-13.712190951019233
1770453401252,121,-7,-5.280042072439706,-6.138023270522199,-13.112889064005511
1770453401256,122,-6,-4.820439798095153,-5.733727836395603,-12.67709299838963
1770453401260,122,-6,-4.423346296669258,-5.3430708973809615,-12.302821205984278
1770453401264,123,-5,-3.966374110457346,-4.644871338366366,-11.868098710823386
1770453401268,123,-5,-3.3598217795426715,-4.156686630416585,-11.284419378416509
1770453401272,124,-4,-2.5693734195476923,-3.4782069340023627,-10.517979933492766
1770453401276,125,-3,-1.6224938725563995,-2.4042348365996165,-9.595605581192515
1770453401280,126,-2,-0.6049948264685221,-1.6533249081067511,-8.602238831650997
1770453401284,127,-1,0.3658767086761532,-0.3971059296451974,-7.654901800987883
1770453401288,128,0,1.195123643656037,0.6247177739355213,-6.848728704882963
1770453401292,128,0,1.8605666301876225,0.678855837693352,-6.205716321195698
1770453401296,129,1,2.422336653088337,1.503203809780174,-5.665478738793248
1770453401300,130,2,2.9878149487851138,2.377582638974894,-5.121088113678282
1770453401304,130,2,3.660586518779443,2.590932842969824,-4.469990469751258
1770453401308,131,3,4.497006641923279,3.588156203428504,-3.656398074628912
1770453401312,132,4,5.478519591344489,4.740966456426583,-2.6983351938668863
1770453401316,133,5,6.507944576729728,5.420632228314158,-1.6918457417977946
1770453401320,134,6,7.439506995805859,6.470069268885116,-0.7821169967005821
1770453401324,135,7,8.139128698006887,7.463691727667349,-0.1037615046697291
1770453401328,135,7,8.54521341158454,7.696207897095823,0.2808131716253181
1770453401332,135,7,8.683680604695757,7.640106284110396,0.3976367142468273
1770453401336,135,7,8.620442763988724,7.506439052939502,0.3133474020629008
1770453401340,135,7,8.398870511831813,7.3963360690006,0.0712370079033437
1770453401344,135,7,8.030053795850904,7.488721404322031,-0.3186189715955521
1770453401348,134,6,7.538236858722448,6.69315190169102,-0.8322870789788162
1770453401352,133,5,6.992051672194035,5.596023179414233,-1.399962804498177
1770453401356,133,5,6.474835596242407,5.598636659397864,-1.9372732511618191
1770453401360,133,5,6.031767696626881,5.245625169132511,-2.3997948309800416
1770453401364,132,4,5.655523152030579,4.656034755892536,-2.796478006397502
1770453401368,132,4,5.31171030990242,4.501362122258286,-3.1619922242056027
1770453401372,131,3,4.959681057284719,3.777542823111536,-3.5355244066174407
1770453401376,131,3,4.5521792612336665,3.4303446915752436,-3.963021926409622
1770453401380,131,3,4.041948456553381,3.370615498636353,-4.492136568159344
1770453401384,130,2,3.411813265743544,2.5551796751281595,-5.14138285059812
1770453401388,129,1,2.6948953468266685,1.5466423126246145,-5.878187560452529
1770453401392,128,0,1.9466327802203036,0.7771162744067595,-6.646615233565038
1770453401396,128,0,1.1897408072266462,0.3657024391051162,-7.423497433733868
1770453401400,127,-1,0.3938073011857921,-0.5197575107914276,-8.239295738800088
1770453401404,126,-2,-0.4857990919353749,-1.6148229819930693,-9.138640387033696
1770453401408,125,-3,-1.447714953191042,-2.2531547188949848,-10.119829335120675
1770453401412,124,-4,-2.4169151755391143,-3.46034652667169,-11.107581200846454
1770453401416,123,-5,-3.27142436223854,-4.398356204694544,-11.980146561654855
1770453401420,123,-5,-3.9040588604413338,-4.755891469102003,-12.630954000550144
1770453401424,122,-6,-4.277279185750609,-5.4070593928634505,-13.023047813254252
1770453401428,122,-6,-4.436320487301905,-5.445339979805731,-13.201817861181093
1770453401432,122,-6,-4.4755568953741305,-5.301098163665028,-13.261143232841864
1770453401436,122,-6,-4.484033486648626,-5.553310615401425,-13.289040416837672
1770453401440,122,-6,-4.505865296791004,-5.622356213869116,-13.328765379200862
1770453401444,122,-6,-4.5320447865546045,-5.543912419296882,-13.371537367575828
1770453401448,122,-6,-4.515270743160958,-5.324451605859409,-13.371344276895632
1770453401452,122,-6,-4.398431888884595,-5.426574123237292,-13.272225008558424
1770453401456,122,-6,-4.155781424173175,-5.4403457301586755,-13.0485091030931
1770453401460,123,-5,-3.8299107337333185,-4.746758413324801,-12.742092681096578
1770453401464,123,-5,-3.527560017890771,-4.427970211004829,-12.458897423066247
1770453401468,123,-5,-3.3608008363537105,-4.4514161399721335,-12.310203340446524
1770453401472,123,-5,-3.3720234737644637,-4.312250557432919,-12.337876281165537
1770453401476,123,-5,-3.499534190444186,-4.55257335513483,-12.480678074540814
1770453401480,123,-5,-3.608909373348135,-4.68085419949987,-12.60578310767638
1770453401484,123,-5,-3.571578134263064,-4.453460956364994,-12.58611215889789
1770453401488,123,-5,-3.347270981648561,-4.489916563146223,-12.381166508585029
1770453401492,123,-5,-3.0217043874657796,-4.223874078351761,-12.074754102461052
1770453401496,124,-4,-2.763362611319157,-3.6997501347736264,-11.833707894282034
1770453401500,124,-4,-2.7072395094275055,-3.5221342733955083,-11.793178709387886
1770453401504,124,-4,-2.842370221841983,-3.630139787405369,-11.943531244165044
1770453401508,123,-5,-3.0074023391471836,-4.327916170824995,-12.124319790619335
1770453401512,123,-5,-3.02018578738227,-4.380807594094733,-12.15351751237238
1770453401516,124,-4,-2.8368172452494855,-3.5753354322264896,-11.987246617227385
1770453401520,124,-4,-2.595991242672924,-3.6346391123322657,-11.764207921401082
1770453401524,124,-4,-2.508946278211326,-3.543793570169023,-11.695069899397634
1770453401528,124,-4,-2.6923842700043217,-3.4049440780448528,-11.895461948715717
1770453401532,123,-5,-3.07965957856861,-4.333281807852849,-12.298048335160866
1770453401536,123,-5,-3.4695068640668634,-4.646915038503914,-12.701980448879826
1770453401540,123,-5,-3.660610243053685,-4.5385360645473645,-12.907281914759327
1770453401544,123,-5,-3.5645970054825855,-4.69478926513572,-12.826846845487824
1770453401548,123,-5,-3.225528739097582,-4.189923841467934,-12.504974805851962
1770453401552,124,-4,-2.7558680423347295,-3.634540753344127,-12.053206340750178
1770453401556,124,-4,-2.253748849662081,-3.309752128525945,-11.5682636988533
1770453401560,125,-3,-1.7606156717600336,-2.920051158197116,-11.090661078461396
1770453401564,125,-3,-1.2696550219919955,-2.3086543056107622,-10.613792552996143
1770453401568,126,-2,-0.7535283104311581,-1.5635216255672164,-10.111411614507045
1770453401572,126,-2,-0.1836955334258592,-1.3172398603652586,-9.55598421395464
1770453401576,127,-1,0.4557167393926575,-0.588095872235116,-8.931922970901455
1770453401580,128,0,1.147507636612798,0.2795730608652921,-8.256189424891932
1770453401584,128,0,1.8217075715837752,0.5614147409136252,-7.59839173209301
1770453401588,129,1,2.3584979299103064,1.484728090500595,-7.077917590167897
1770453401592,129,1,2.626345581807497,1.6971542461029194,-6.825717620620759
1770453401596,129,1,2.54282188321894,1.302320213931695,-6.923725810103051
1770453401600,129,1,2.124637758336559,1.4369871234010565,-7.355335126581203
1770453401604,128,0,1.492848767283863,0.3671066257130543,-8.000351844226357
1770453401608,127,-1,0.82057072790281,-0.332541652963621,-8.686700484164012
1770453401612,127,-1,0.2446283278913242,-0.4505810182199532,-9.27792010250569
1770453401616,126,-2,-0.2083889105517827,-1.6433303917230246,-9.746847176403904
1770453401620,126,-2,-0.6300265927299202,-1.546802894346424,-10.184130853830949
1770453401624,126,-2,-1.157872699152697,-1.7168761966557464,-10.726877660897369
1770453401628,124,-4,-1.8697558933490988,-3.221363025642912,-11.452943738622414
1770453401632,124,-4,-2.7240656424154115,-3.58171264200491,-12.320991663803351
1770453401636,123,-5,-3.5900455285097195,-4.548510666909968,-13.200644263947376
1770453401640,122,-6,-4.3356910862334175,-5.630970314079734,-13.960222874441609
1770453401644,122,-6,-4.8990175717600595,-5.65592575049824,-14.537782297951589
1770453401648,121,-7,-5.292504695909965,-6.260374366285884,-14.94554847073709
1770453401652,121,-7,-5.551554970123705,-6.584373890929269,-15.218682717605049
1770453401656,121,-7,-5.682982637582134,-6.542597797074834,-15.364081327952473
1770453401660,121,-7,-5.662559124148478,-6.669296328296981,-15.357847554186064
1770453401664,121,-7,-5.481355408233538,-6.616176334186006,-15.191257394267252
1770453401668,121,-7,-5.191647368355175,-6.286642009410897,-14.916404874298347
1770453401672,122,-6,-4.897454594518925,-5.60394253608366,-14.636585451349244
1770453401676,122,-6,-4.687963610000365,-5.507865231028828,-14.439695338447404
1770453401680,122,-6,-4.578537277900976,-5.7515142026734924,-14.340229554517071
1770453401684,122,-6,-4.523585356232552,-5.519259459349645,-14.294219548840529
1770453401688,122,-6,-4.488626462317633,-5.389286485246758,-14.271912538534163
1770453401692,122,-6,-4.500998394543204,-5.5295924986481655,-14.305129289671282
1770453401696,122,-6,-4.60597124085702,-5.575333178157263,-14.43784482146927
1770453401700,122,-6,-4.714206460761016,-5.722049472186194,-14.571609476011693
1770453401704,122,-6,-4.39119838500282,-5.540927704676737,-14.260415117747096
1770453401708,124,-4,-2.702830524097034,-3.374273704763727,-12.566188534391635
1770453401712,129,1,1.7070008903813507,1.4448338824214713,-8.142052174297907
1770453401716,137,9,10.1330937992231,9.44835718398246,0.289463975667978
1770453401720,149,21,22.92992091731062,21.256382373386167,13.06973760121635
1770453401724,164,36,38.623526008150385,36.46129552918035,28.72516071560242
1770453401728,180,52,53.702687517822675,52.64471327623573,43.75760511538691
1770453401732,191,63,63.59851810128255,63.360409770910515,53.61546725248602
1770453401736,192,64,64.6251957508849,64.52912444547579,54.62472382860366
1770453401740,184,56,55.85709489035909,56.07380019972377,45.8608032707022
1770453401744,166,38,39.74895787132954,38.62540128492126,29.76961166054854
1770453401748,146,18,21.014369293437195,18.437841161703016,11.050825640382774
1770453401752,130,2,4.409708336079278,2.6241798166118686,-5.552372234875059
1770453401756,120,-8,-7.221661129532061,-7.680869718941747,-17.203310119792093
1770453401760,114,-14,-13.570728616983567,-13.687686419178997,-23.588771773184614
1770453401764,111,-17,-16.08737781748275,-16.596824797671108,-26.144807962682417
1770453401768,110,-18,-16.628246953439934,-17.419429529338853,-26.71317803078678
1770453401772,110,-18,-16.47068239399488,-17.530812996728425,-26.56511394622318
1770453401776,110,-18,-16.10393281146158,-17.555753975535097,-26.19546102362959
1770453401780,111,-17,-15.577409590914405,-16.79438468389619,-25.665640750832186
1770453401784,112,-16,-14.908469441309512,-15.503231043623837,-25.002934552524604
1770453401788,113,-15,-14.217278340575394,-14.54977778835499,-24.329286873438317
1770453401792,113,-15,-13.621165918508368,-14.430911740298283,-23.75549348119395
1770453401796,113,-15,-13.12895584497077,-14.644239683837313,-23.28159430363525
1770453401800,114,-14,-12.674613744811282,-13.729163204254304,-22.8381877342504
1770453401804,115,-13,-12.212721948461134,-12.5320325974535,-22.38393374014339
1770453401808,115,-13,-11.747939960036122,-12.598257556635035,-21.929542395690746
1770453401812,115,-13,-11.29758671008739,-12.354708216173512,-21.49395180311014
1770453401816,116,-12,-10.869863874741585,-11.763917544122132,-21.082133473693855
1770453401820,116,-12,-10.478770240166533,-11.592191013764918,-20.70463122555451
1770453401824,117,-11,-10.139763509878213,-10.682908727990762,-20.376722786485445
1770453401828,117,-11,-9.820742584004735,-10.456589578726312,-20.0684907943155
1770453401832,117,-11,-9.407301454086632,-10.539964950413273,-19.667095030063756
1770453401836,118,-10,-8.750831577332812,-9.55115795077731,-19.023642070850407
1770453401840,119,-9,-7.779111227721063,-8.859077434338175,-18.064984321597496
1770453401844,120,-8,-6.568884444453825,-7.36743056411007,-16.86770609309138
1770453401848,122,-6,-5.306649915447734,-5.826870036550938,-15.618760835230564
1770453401852,122,-6,-4.169309287712288,-5.1674920042107,-14.495017430924747
1770453401856,124,-4,-3.227933395867372,-3.94765262714768,-13.566694185023746
1770453401860,124,-4,-2.4458489721714827,-3.4785268355840233,-12.796427690917358
1770453401864,125,-3,-1.7483237946725758,-2.735850490882032,-12.109987830181982
1770453401868,126,-2,-1.085614830568903,-1.494842254525334,-11.458976520666
1770453401872,126,-2,-0.4415951392410336,-1.4800914486180108,-10.828042698106188
1770453401876,127,-1,0.1933629491451785,-0.6982614088570265,-10.206982901428484
1770453401880,128,0,0.841262223145745,0.3148375999555545,-9.57252330276762
1770453401884,128,0,1.5296716816632996,0.4186292239434186,-8.896368700415952
1770453401888,129,1,2.2746262360091944,1.363217038914715,-8.162962854996316
1770453401892,130,2,3.0755962275105864,2.660760068926415,-7.373989321094962
1770453401896,131,3,3.923574834657488,3.0896824905408597,-6.538952973166486
1770453401900,131,3,4.800227145930732,3.603666076620615,-5.675526150530702
1770453401904,133,5,5.661321840243122,5.0163953692851475,-4.827216225999352
1770453401908,133,5,6.433354294622814,5.863770299141697,-4.067722953191978
1770453401912,134,6,7.043251243588909,6.04385258357737,-3.4706209373219563
1770453401916,134,6,7.454821941592265,6.773071488547432,-3.0719299720851234
1770453401920,135,7,7.675505424354926,6.858587517431506,-2.863625106565134
1770453401924,134,6,7.734360022444711,6.75554152058298,-2.816623561695728
1770453401928,135,7,7.660071071216215,7.15836872245224,-2.902996010147804
1770453401932,134,6,7.475795647282475,6.651485648898068,-3.100258313471658
1770453401936,134,6,7.2013486702532905,6.269815734595622,-3.3883461724740496
1770453401940,134,6,6.849671650312742,6.207292713984724,-3.753378400513101
1770453401944,133,5,6.423741385459615,5.548644790029149,-4.191726983750987
1770453401948,133,5,5.9275892953726546,5.198189295495871,-4.699615099281107
1770453401952,132,4,5.386263067238477,4.757042369688904,-5.25285847579368
1770453401956,132,4,4.849779852629739,4.006735991770999,-5.802065642172243
1770453401960,131,3,4.363836890935591,3.5701827077174735,-6.301374698331523
1770453401964,131,3,3.924145776756419,3.0989880239341048,-6.754401449615364
1770453401968,130,2,3.4585157217756306,2.6693134715938496,-7.232901164734109
1770453401972,130,2,2.8652790134397135,2.290987807073019,-7.838680282902126
1770453401976,129,1,2.0843107627017186,1.4061364499140478,-8.632236821428844
1770453401980,128,0,1.14051853908445,0.2291214423996301,-9.58885361911613
1770453401984,127,-1,0.1229291580464182,-0.6624697932306369,-10.619459028455983
1770453401988,126,-2,-0.8770571668484681,-1.4859404486557342,-11.632405735579225
1770453401992,125,-3,-1.8119977665308264,-2.6481371595623058,-12.579881352538472
1770453401996,124,-4,-2.673797855629399,-3.588715779287776,-13.453821031330405
1770453402000,124,-4,-3.4470022516338537,-3.8582208438215457,-14.239541754769936
1770453402004,123,-5,-4.067263779130182,-4.540779529736389,-14.873290052609573
1770453402008,122,-6,-4.440289941014795,-5.647943134783351,-15.26008178043118
1770453402012,122,-6,-4.522214057435232,-5.481750410242687,-15.354884282807086
1770453402015,123,-5,-4.379781891643095,-4.759554007187655,-15.224592607146976
1770453402020,123,-5,-4.150960853187637,-4.73245196181602,-15.008470439975929
1770453402024,123,-5,-3.9382885740217626,-4.633956214261485,-14.809524508828732
1770453402027,123,-5,-3.748954436357423,-4.615987152985443,-14.63390397818065
1770453402032,123,-5,-3.537776336458425,-4.48383090146233,-14.4354451977147
1770453402036,124,-4,-3.2912016320916084,-3.809623439034472,-14.201026693309542
1770453402040,124,-4,-3.058213214713394,-3.66358092718219,-13.98075047715388
1770453402044,124,-4,-2.907785754711742,-3.730027672997837,-13.843901373890311
1770453402047,124,-4,-2.8687680926487413,-3.5228224819690404,-13.81865960801844
1770453402052,124,-4,-2.909447484816584,-3.5983285838504964,-13.87265776308896
1770453402056,124,-4,-2.965953508076578,-3.7195694830906314,-13.941974586280594
1770453402059,124,-4,-2.9898816333913394,-3.741357388545071,-13.978532077899388
1770453402064,124,-4,-2.976964679294542,-3.683142971523779,-13.978447312633683
1770453402068,124,-4,-2.9563243791455855,-3.5584920742674693,-13.971146969061172
1770453402072,124,-4,-2.9538991714320257,-3.6026886362664063,-13.982581757078451
1770453402076,124,-4,-2.9674941678384705,-3.717674622122457,-14.01012124371942
1770453402079,124,-4,-2.977072730476743,-3.7570514470370737,-14.033156568684342
1770453402084,124,-4,-2.97371677488215,-3.6755325524046754,-14.042643356464003
1770453402088,124,-4,-2.9703303334204905,-3.574788403461815,-14.051936941678754
1770453402091,124,-4,-2.9817764819383403,-3.609821640658522,-14.076415310083382
1770453402096,124,-4,-3.0012747196107648,-3.72105967597394,-14.109402051734175
1770453402100,124,-4,-3.004780749322487,-3.767142844373625,-14.126683678449355
1770453402104,124,-4,-2.980483067014204,-3.672843362711726,-14.116373827854172
1770453402108,124,-4,-2.94966894830886,-3.588236771702406,-14.09969687251886
1770453402111,124,-4,-2.953363914179296,-3.616765371437616,-14.11728228065006
1770453402116,124,-4,-3.0130549325060194,-3.722890036837174,-14.190083282860426
1770453402120,124,-4,-3.096284874791374,-3.785858356908664,-14.285697384429334
1770453402123,124,-4,-3.1148894170266797,-3.6541967336102488,-14.316798603743022
1770453402128,124,-4,-2.9661831172312123,-3.6270041395766905,-14.1815521867647
1770453402132,124,-4,-2.600687397214675,-3.586350775757955,-13.830646088904723
1770453402136,125,-3,-2.068274769556397,-2.77081354174849,-13.313551020626845
1770453402140,126,-2,-1.4928130684617524,-1.7525610979991275,-12.75332137530152
1770453402143,126,-2,-0.983040518909313,-1.6857067926757752,-12.257419327790078
1770453402148,126,-2,-0.5525001097827923,-1.6274590760498306,-11.838625612558296
1770453402152,127,-1,-0.1112096903489978,-0.577876001636203,-11.408273638277286
1770453402155,128,0,0.4728886690356733,0.1703059950863095,-10.836993356313512
1770453402160,128,0,1.2775992303128505,0.3316086948960691,-10.047933483565846
1770453402164,129,1,2.234684400619814,1.1997780039565478,-9.107298144062792
1770453402168,130,2,3.108619866401769,2.4889382330443364,-8.248278259288877
1770453402172,131,3,3.607506307548994,3.278771172448281,-7.762887745720698
1770453402175,131,3,3.578958835099916,3.287449915182049,-7.8050429392649425
1770453402180,130,2,3.1248428056224693,2.2328578930313965,-8.273093602798022
1770453402184,129,1,2.514324779745743,1.2448910820213623,-8.896717314264631
1770453402187,129,1,1.9719875272074912,1.4745701174866288,-9.451211090220433
1770453402192,129,1,1.5417951301311974,1.2342849011836066,-9.894314885168246
1770453402196,128,0,1.130810184920103,0.3600142177390564,-10.320381883957406
1770453402200,128,0,0.6452661240210624,0.1412395182610886,-10.82244241577622
1770453402204,127,-1,0.067140740447028,-0.6886384559949921,-11.416447366698236
1770453402207,126,-2,-0.5795833282083138,-1.60201302033868,-12.077194377664682
1770453402212,126,-2,-1.2986141052134257,-1.7240702967527803,-12.809006799223267
1770453402216,125,-3,-2.1314430769572574,-2.652867599461492,-13.65485464835276
1770453402219,124,-4,-3.0948235940323494,-3.8847218913383994,-14.6323270564261
1770453402224,123,-5,-4.117254405387495,-4.648878139657504,-15.669669178389697
1770453402228,122,-6,-5.046352430192944,-5.702893148261927,-16.613701835551357
1770453402232,121,-7,-5.7294695769868005,-6.612458842853888,-17.311066097869812
1770453402236,121,-7,-6.103627769511521,-6.771397890093657,-17.698651948473614
1770453402239,121,-7,-6.220572445034424,-6.76659591978384,-17.828975720646614
1770453402244,121,-7,-6.1875167958254265,-6.787038087194036,-17.810516278503904
1770453402248,121,-7,-6.0811253499273334,-6.595374793085061,-17.720468102364915
1770453402251,121,-7,-5.915964907512105,-6.7361938799846435,-17.572256872274863
1770453402256,121,-7,-5.687878012146154,-6.647900775906804,-17.359465921587535
1770453402260,122,-6,-5.429537049248875,-5.891924380676414,-17.113154370881027
1770453402264,122,-6,-5.206245455897573,-5.68278828322048,-16.899171202445338
1770453402268,122,-6,-5.0598807542793,-5.725857840372084,-16.762387651484534
1770453402271,122,-6,-4.9790871396002245,-5.619793157834781,-16.695802428044665
1770453402276,122,-6,-4.940313134057038,-5.774499808241834,-16.678968081983676
1770453402280,122,-6,-4.958700746885322,-5.761756546580795,-16.7254731384351
1770453402283,122,-6,-5.027954262403096,-5.838810047069557,-16.82147853232184
1770453402288,122,-6,-4.8937886275152085,-5.57874686766272,-16.702731980750713
1770453402292,124,-4,-3.777546471956394,-3.807138351240646,-15.58543055015941
1770453402296,127,-1,-0.3321774386933476,-0.5486453874102095,-12.12778957444035
1770453402300,134,6,6.896285380842274,5.961010364483776,-4.890511894971667
1770453402303,145,17,18.515256141331843,17.494645100511818,6.717928526258284
1770453402308,160,32,33.294141805934146,32.0174139762337,21.460727167948352
1770453402312,174,46,47.84751694167283,46.62083483444552,35.96186530317083
1770453402315,185,57,57.49802751854776,57.00184760754552,45.564265234535874
1770453402320,186,58,58.17341086879969,58.33499110486253,46.21385899285488
1770453402324,177,49,48.4527552263363,49.11475064040405,36.49476706842587
1770453402328,158,30,30.56008333947067,30.248758868242895,18.62161601163887
1770453402332,135,7,9.562567646427445,7.466649128586,-2.355336866268342
1770453402335,117,-11,-8.890779725367963,-10.904184799465192,-20.80317496179847
1770453402340,106,-22,-20.987477225940424,-21.616721529575297,-32.918215371806156
1770453402344,102,-26,-25.95142110117382,-25.947193909178832,-37.92153630970407
1770453402347,102,-26,-25.54511324588325,-25.659194997865303,-37.56167351333514
1770453402352,105,-23,-22.51016648087663,-22.65510084636487,-34.56287532094525
1770453402356,108,-20,-19.069778474627732,-19.87954485273176,-31.138480486160223
1770453402360,110,-18,-16.272096918139326,-17.60803520415315,-28.33985152512043
1770453402364,113,-15,-14.215440997608445,-15.043022201298967,-26.27779143754192
1770453402367,114,-14,-12.653503976473946,-13.491298568189244,-24.718454623363893
1770453402372,116,-12,-11.432461958979024,-11.917818390205934,-23.512895660132138
1770453402376,117,-11,-10.549989376735844,-10.58213927061,-22.65471198374998
1770453402379,117,-11,-9.995300787342632,-10.95996785956538,-22.124512205868697
1770453402384,117,-11,-9.641100998237434,-10.685885803573129,-21.788438257049712
1770453402388,118,-10,-9.297885185756437,-9.82656706083641,-21.45659177465893
1770453402392,118,-10,-8.834144546475702,-9.659863141810987,-21.0021715246581
1770453402396,119,-9,-8.225300638323311,-8.779649567240845,-20.4056354114432
1770453402400,120,-8,-7.508070604771192,-7.860941130775064,-19.70499412239644
1770453402404,120,-8,-6.721295745438709,-7.709598094117211,-18.9364709973562
1770453402408,121,-7,-5.901024391750974,-6.891684548565982,-18.132831090729994
1770453402412,122,-6,-5.106791444086286,-5.54340098342822,-17.352808446145254
1770453402416,123,-5,-4.411169910964156,-4.977719574003711,-16.6705949486971
1770453402420,123,-5,-3.841982267824955,-4.622994555301595,-16.115554237224337
1770453402424,124,-4,-3.3403898481802816,-3.98745611478602,-15.628777901292676
1770453402428,124,-4,-2.7871642506079137,-3.6192419232384583,-15.0901954997446
1770453402432,125,-3,-2.0767694268493555,-2.82947214243413,-14.394087184060968
1770453402436,126,-2,-1.1768853229297815,-1.7223631519453744,-13.508711542694384
1770453402440,127,-1,-0.1355076539645143,-0.8619031045781813,-12.482439948141431
1770453402444,128,0,0.9527275397945836,0.2160751315224358,-11.409624138383933
1770453402448,129,1,1.9888928887415216,1.187493563435828,-10.388842827156624
1770453402452,130,2,2.9028479528936773,2.3081870498414645,-9.490249179385764
1770453402456,131,3,3.672062881146005,3.1605949112844436,-8.736159333938529
1770453402460,131,3,4.320317937860868,3.2145354032880076,-8.102002657708397
1770453402464,132,4,4.900384542125668,4.159569675155999,-7.534722767220045
1770453402468,133,5,5.481741926715858,5.20097645446226,-6.966092368783091
1770453402472,133,5,6.147971419510427,5.2940287637119985,-6.314296610409854
1770453402476,134,6,6.973105946275589,6.1427051560328465,-5.505542169853559
1770453402480,135,7,7.961973117156472,7.254111856559782,-4.53331072849526
1770453402484,136,8,9.00417150912611,8.069804186016825,-3.506122986954221
1770453402488,137,9,9.912153855477408,9.312769597049227,-2.611348199072854
1770453402492,138,10,10.542942182067048,10.13189109807265,-1.9934664922831873
1770453402496,138,10,10.905075601625416,10.304114119212617,-1.6452400038401516
1770453402500,138,10,11.138485543235047,10.0906773494342,-1.4264803752310842
1770453402504,138,10,11.368001590213757,10.188350423629483,-1.21146711617991
1770453402508,139,11,11.569539741231925,11.218999763259266,-1.0243162651385944
1770453402512,139,11,11.5872270144913,11.173111844750784,-1.0214742153973528
1770453402516,138,10,11.283781548933469,10.284503783950475,-1.33985992134821
1770453402520,138,10,10.67396050649589,10.080880115393128,-1.9635652058642492
1770453402524,137,9,9.923167966486634,9.170052703910397,-2.7268791981586906
1770453402528,136,8,9.226408871587084,8.240239247972807,-3.435948764144337
1770453402532,136,8,8.67314104662745,8.109346780736157,-4.002765258004493
1770453402536,135,7,8.196584649105647,7.402258284074929,-4.49447933030389
1770453402540,135,7,7.633966320389266,6.869057760381354,-5.072904586576476
1770453402544,134,6,6.844534175219016,6.449733288456892,-5.877278938255874
1770453402548,133,5,5.7973627022776295,4.845205700529673,-6.937569947295492
1770453402552,131,3,4.5739449781113315,3.5709725729376327,-8.172726567606768
1770453402556,131,3,3.3028620885112336,2.895199290576692,-9.455787360056265
1770453402560,129,1,2.0872028858239,1.3615953371987168,-10.68488085226641
1770453402564,128,0,0.9660353719039604,-0.0248861764167322,-11.8204480815225
1770453402568,127,-1,-0.0847231922970244,-0.7658448744451549,-12.88519446884659
1770453402572,126,-2,-1.1167311738268917,-1.7475191916753854,-13.930395796608256
1770453402576,125,-3,-2.1538321222175805,-2.8757864507079463,-14.980766912357712
