timestamp_ms,ecg_u8_raw,ecg_counts_raw_int,ecg_counts_filt_monitor,ecg_counts_filt_diagnostic,ecg_counts_filt_st
1769238014268,120,-8,-8.348808714867795,-6.790610496990936,-6.85350777904677
1769238014272,120,-8,-7.916023857764204,-6.609444544687502,-6.433339497396576
1769238014276,121,-7,-7.302778187964257,-5.667190245735954,-5.833109639972695
1769238014280,122,-6,-6.7043036559681966,-4.594297923612623,-5.247333223384435
1769238014284,122,-6,-6.226212638623721,-4.775024060836598,-4.780935736151662
1769238014288,122,-6,-5.834644053722727,-4.601776124276617,-4.399451914393099
1769238014292,123,-5,-5.431743204684103,-3.807714965821644,-4.00564232345471
1769238014296,123,-5,-4.972451987717574,-3.4822371097477913,-3.5566848176142303
1769238014300,124,-4,-4.5127819889276015,-2.794742085316848,-3.1104526112680855
1769238014304,124,-4,-4.166215531542992,-2.591835939721549,-2.7794538798375967
1769238014308,124,-4,-4.025570926922585,-2.798474255776329,-2.653085103824242
1769238014312,124,-4,-4.1030852491863925,-2.607816716789281,-2.741071552938708
1769238014316,124,-4,-4.297792559073293,-2.7003525092891225,-2.943465834727734
1769238014320,124,-4,-4.3976463132347945,-2.599346058765473,-3.0515471596268333
1769238014324,124,-4,-4.153877646640183,-2.7815775081353413,-2.818723119310741
1769238014328,124,-4,-3.4371087347995593,-2.644149733981086,-2.115204766140695
1769238014332,126,-2,-2.382999620891429,-0.7397553781195945,-1.0752572051205058
1769238014336,127,-1,-1.3863135205754544,0.4019571340117103,-0.0928385305765004
1769238014340,127,-1,-0.9074623933632018,0.2861286679781685,0.3721671062262686
1769238014344,127,-1,-1.2186151651143344,0.3282809731055085,0.0484132543339481
1769238014348,126,-2,-2.262062472680063,-0.7948027615635591,-1.0057669025782152
1769238014352,124,-4,-3.695276710715788,-2.5841226741917573,-2.44806636584938
1769238014356,123,-5,-5.066595086234898,-3.7693100514827726,-3.827856752196413
1769238014360,122,-6,-5.999829724033314,-4.545699345905234,-4.770337589665282
1769238014364,122,-6,-6.294139215636708,-4.844081195210626,-5.07580446346232
1769238014368,122,-6,-5.931581258952483,-4.644575184399926,-4.726660627220834
1769238014372,123,-5,-5.046161553919764,-3.735208480798095,-3.8562584165467313
1769238014376,124,-4,-3.89403889087236,-2.6452093813194866,-2.7192609579516756
1769238014380,125,-3,-2.81104597167687,-1.658915309519424,-1.6497135203494513
1769238014384,126,-2,-2.121402546087479,-0.7729216018111624,-0.9707965647822046
1769238014388,126,-2,-2.000084484329813,-0.6968474727204428,-0.8580770894439786
1769238014392,126,-2,-2.361602154774658,-0.7473130036041971,-1.22786424648453
1769238014396,125,-3,-2.880188154421374,-1.5879924285581295,-1.755928524542681
1769238014400,124,-4,-3.176597053759051,-2.783786475159901,-2.0635948567937774
1769238014404,125,-3,-3.0612067918215766,-1.6085680029273717,-1.9613024245711688
1769238014408,126,-2,-2.6458935428431376,-0.8957566447300873,-1.5604202465653785
1769238014412,125,-3,-2.236971947187934,-1.5639548854077627,-1.1655765319072129
1769238014416,126,-2,-2.10252186098896,-0.748605112503991,-1.042884537150942
1769238014420,126,-2,-2.2875325670309103,-0.692689942905045,-1.2370384337194835
1769238014424,125,-3,-2.595495301220726,-1.671015208088026,-1.5531127321598543
1769238014428,125,-3,-2.7432099797484977,-1.8779180402548803,-1.7097926283971634
1769238014432,125,-3,-2.5786673129608335,-1.561967347226103,-1.5562002497779228
1769238014436,126,-2,-2.1952229555894744,-0.7755595120030898,-1.1858931164155315
1769238014440,126,-2,-1.854038292637671,-0.668500736286816,-0.8590361751767068
1769238014444,126,-2,-1.7878084722931948,-0.7213167305754966,-0.8062515941691222
1769238014448,126,-2,-2.0443844266698425,-0.8346513158684603,-1.0735554199082966
1769238014452,125,-3,-2.471227939311581,-1.6279894883325536,-1.508368030081539
1769238014456,125,-3,-2.822102722214476,-1.7093386380189537,-1.866384308912245
1769238014460,125,-3,-2.8949529292722462,-1.7532603321875058,-1.9480009397984477
1769238014464,125,-3,-2.620215785377652,-1.6375628572421066,-1.6848122175363582
1769238014468,126,-2,-2.0742177890897,-0.941431697834668,-1.1523183448916152
1769238014472,126,-2,-1.435601328614069,-0.5242389680703257,-0.5271896138509542
1769238014476,127,-1,-0.9122828288934828,0.1642413586530053,-0.0156867180617108
1769238014480,127,-1,-0.6616980911177301,0.3670061247527252,0.2251757727168875
1769238014484,127,-1,-0.7286055016160478,0.2303284359971065,0.149903921486473
1769238014488,127,-1,-1.028505151331017,0.1603357457250078,-0.1581836877275857
1769238014492,126,-2,-1.3931739468682836,-0.6094732004047405,-0.5318470757267848
1769238014496,126,-2,-1.6609813092009704,-0.8056301328373956,-0.810019313870435
1769238014500,126,-2,-1.759280337482031,-0.6203416618689155,-0.9200482066314156
1769238014504,126,-2,-1.7264680050265058,-0.8401554596191763,-0.8994231488157793
1769238014508,126,-2,-1.664446896939999,-0.7507785018845903,-0.8484425499509807
1769238014512,126,-2,-1.6575975598033283,-0.7199037011031324,-0.8504760468597219
1769238014516,126,-2,-1.7081157597630394,-0.7321907905749951,-0.9084824197419245
1769238014520,126,-2,-1.7276750412731423,-0.6599943946057809,-0.9361090708793368
1769238014524,126,-2,-1.6010705267239158,-0.8677414123284208,-0.8194741961380843
1769238014528,126,-2,-1.2899054982056142,-0.6763128636319908,-0.5197788543051007
1769238014532,127,-1,-0.8949813831956939,0.1375300631426732,-0.1363214223041573
1769238014536,127,-1,-0.6072747287331031,0.4390462504737729,0.1412359430661651
1769238014540,127,-1,-0.5671545698600742,0.1313328349253637,0.1728256283614095
1769238014544,127,-1,-0.7407123590590876,0.3401143912501021,-0.008361578518431
1769238014548,127,-1,-0.9216147751652586,0.1023185190149937,-0.1969630351525522
1769238014552,126,-2,-0.8741624903378196,-0.6739600526763003,-0.1577746647313549
1769238014556,127,-1,-0.5161797638513017,0.2611545441528902,0.191146090546983
1769238014560,128,0,0.0075757185224558,1.2949351431064435,0.704705449564351
1769238014564,128,0,0.4258598718643602,1.1563548051081936,1.1118521539438886
1769238014568,128,0,0.5264912455515334,1.301578725007599,1.201718420212882
1769238014572,128,0,0.2760019900739676,1.0546375096051788,0.9424039380200768
1769238014576,127,-1,-0.1963627083276462,0.5653132935058245,0.4635249316712209
1769238014580,127,-1,-0.7029518536027772,-0.0539726333719345,-0.0485609879224335
1769238014584,126,-2,-1.0959376637934322,-0.4749231179050546,-0.4482415726284037
1769238014588,127,-1,-1.2996090882641766,-0.0799997329314523,-0.6613590282483186
1769238014592,126,-2,-1.2897699742173525,-0.6096969901395335,-0.6629826068685909
1769238014596,126,-2,-1.0768176438790018,-0.7413553884264668,-0.4606299671482738
1769238014600,127,-1,-0.7152019956225131,0.1807927171094272,-0.1063569435298623
1769238014604,127,-1,-0.2990911249004269,0.3677436787283616,0.3049331451033634
1769238014608,128,0,0.0889183815963396,0.966191758347543,0.6872771992132158
1769238014612,128,0,0.4333659912050536,1.431036937960345,1.0226634405660056
1769238014616,128,0,0.769112252079377,1.092123625452198,1.3469971447612925
1769238014620,128,0,1.090719384378953,1.425203343324985,1.6584133321496926
1769238014624,129,1,1.2959579178381055,2.0574526017623955,1.856921427646648
1769238014628,129,1,1.2677321899800322,2.29700983133357,1.8241571955165927
1769238014632,129,1,1.044612507688372,2.0806129567544236,1.595870611107733
1769238014636,128,0,0.888437772321903,1.4071555671427836,1.4327896432780316
1769238014640,128,0,1.122406510051733,1.1144960927630352,1.6590648397214256
1769238014644,129,1,1.8513063476139835,2.33746649144988,2.3801681526717435
1769238014648,131,3,2.825990157914535,4.041752786370514,3.34634574857353
1769238014652,131,3,3.5918918842023255,4.302105540792873,4.102820635039851
1769238014656,131,3,3.795829593531713,4.190339782763177,4.2978202119342015
1769238014660,131,3,3.40117505934599,4.270419875402685,3.8963963901519874
1769238014664,130,2,2.6706250705826458,3.1933045221769367,3.1614416973798023
1769238014668,129,1,1.9671944631626352,2.154304991656236,2.4546814453982257
1769238014672,129,1,1.5368480767174575,2.2260981913056797,2.0202514701162
1769238014676,129,1,1.4191416415276168,2.2247281400410417,1.896175374042031
1769238014680,129,1,1.5106498403050974,2.2184766692293936,1.978707228498005
1769238014684,129,1,1.6784579769020134,2.2405120791411637,2.13641381979605
1769238014688,129,1,1.8088831987169984,2.069272298072007,2.2580975505817458
1769238014692,129,1,1.7843060585824868,2.3508220545570477,2.2276814755201526
1769238014696,129,1,1.4768183701765607,2.041341888174893,1.9164980127299345
1769238014700,128,0,0.8211147698072131,1.4035068477776025,1.2568715549009546
1769238014704,128,0,-0.0856620974274678,1.0322284609015082,0.3443556851338056
1769238014708,126,-2,-0.9799400288504264,-0.7417513006366738,-0.5566224205528587
1769238014712,125,-3,-1.5761677841757875,-1.8162318479088044,-1.1585861981214742
1769238014716,126,-2,-1.7531349403414325,-0.8441769323326249,-1.3402346978815562
1769238014720,126,-2,-1.6110522382403416,-0.6827694927012815,-1.2036917011784491
1769238014724,126,-2,-1.359379188158893,-0.945142772248496,-0.9592906991033612
1769238014728,126,-2,-1.1692421339990613,-0.7163163772340151,-0.7764212994765893
1769238014732,126,-2,-1.1258306473952482,-0.9045140683515732,-0.7383512459029489
1769238014736,126,-2,-1.2709150055037848,-0.7608643477365289,-0.8875459192060642
1769238014740,126,-2,-1.6362568701660192,-0.7646517012778697,-1.2581162487944937
1769238014744,125,-3,-2.2208288871470163,-1.9137291570784256,-1.8496572314106592
1769238014748,124,-4,-2.9517151912384914,-2.6921684512587225,-2.5869818770564224
1769238014752,124,-4,-3.6779173579626687,-3.0133090070173156,-3.3164180627885766
1769238014756,123,-5,-4.203241786553869,-3.627949679713129,-3.8417515058325895
1769238014760,123,-5,-4.347623340440661,-3.9275067494496354,-3.9862126763916415
1769238014764,123,-5,-4.029025353460099,-3.755096480632385,-3.672511471305625
1769238014768,124,-4,-3.3321595665122183,-2.833743168003603,-2.9880795333475665
1769238014772,125,-3,-2.499046129014045,-1.9382854253781536,-2.1720639240403496
1769238014776,125,-3,-1.7967467768730288,-1.6733232275032002,-1.4829035659342584
1769238014780,126,-2,-1.286517589657629,-0.9464069675903763,-0.973344902856076
1769238014784,127,-1,-0.6015325222040216,0.3026863359184546,-0.2763023292925401
1769238014788,129,1,1.0829454067684223,2.068524846624778,1.422937200446143
1769238014792,132,4,4.701977050424239,5.152562974975473,5.046546483134828
1769238014796,137,9,10.587890235820126,10.233636030506762,10.92120081618676
1769238014800,144,16,17.773400486191044,17.110743894707646,18.08434793263012
1769238014804,151,23,23.921206308298206,24.27957416171776,24.20845909187821
1769238014808,155,27,26.218278363737404,28.036641927843338,26.488714875087386
1769238014812,151,23,22.856722258791716,24.181307513493117,23.121791889787687
1769238014816,141,13,14.15044369481331,14.116445900464925,14.422771480239216
1769238014820,129,1,2.4982114119913557,2.217961710317031,2.786846763880092
1769238014824,118,-10,-8.778380726747418,-8.864229815247146,-8.473533795102293
1769238014828,110,-18,-16.933131622832835,-16.732745692392502,-16.62288123096179
1769238014832,107,-21,-20.744325270117635,-20.05934617262656,-20.444592497341112
1769238014836,107,-21,-20.5501969473408,-19.59118692544495,-20.272456656560877
1769238014840,110,-18,-17.63226721457671,-17.176889140362995,-17.376877907007874
1769238014844,113,-15,-13.482506282702314,-13.457766600368537,-13.23954842657577
1769238014848,118,-10,-9.328928345276148,-9.168484784471062,-9.085587728929184
1769238014852,121,-7,-5.958861939082539,-5.634468297799019,-5.707694300045722
1769238014856,124,-4,-3.6948086049339848,-2.988292791256307,-3.436909339283741
1769238014860,125,-3,-2.432843252907947,-1.9172097488667592,-2.1744408927607677
1769238014864,125,-3,-1.7723307449896448,-1.63020776275322,-1.5187930892124502
1769238014868,126,-2,-1.2572487662943477,-1.1243965127756632,-1.0099700177299606
1769238014872,126,-2,-0.62698370629285,-0.5322408208919891,-0.3849046849011646
1769238014876,128,0,0.0875157945584774,0.7875714774411414,0.3249185250939208
1769238014880,128,0,0.6802067480143753,1.3582236362003912,0.912443125034828
1769238014884,128,0,0.9805162321359092,1.0138770647464257,1.2081117920405813
1769238014888,128,0,0.9817371799760622,1.2299980435590947,1.2072129963807243
1769238014892,128,0,0.8206890305188151,1.1571041048151878,1.0465361088233187
1769238014896,128,0,0.6767707280314993,1.015001508006312,0.9027928430223132
1769238014900,128,0,0.6823787221641764,1.2000820559307892,0.905776479334951
1769238014904,128,0,0.876899709989654,1.0439547829700568,1.095044559139492
1769238014908,128,0,1.1984313158727569,1.2782727598482166,1.4111578652535284
1769238014912,129,1,1.5179670391461362,2.04921530443803,1.7271583793871623
1769238014916,129,1,1.719469871294462,2.1543713998911427,1.9270053963586276
1769238014920,129,1,1.7845220417724048,2.009906718963995,1.991017961414414
1769238014924,129,1,1.809502523610146,2.216909333592839,2.0146702550834332
1769238014928,129,1,1.926399736609076,2.0846327626288166,2.129907030319013
1769238014932,129,1,2.1844352193671033,2.2527715532882935,2.3859511732058905
1769238014936,130,2,2.49327442793471,2.9434978247238597,2.6917756506259733
1769238014940,130,2,2.681521765704209,3.1991677177948157,2.875362110277547
1769238014944,130,2,2.622024210045386,2.9901292673088427,2.81061340847727
1769238014948,129,1,2.31861743653938,2.3081738252372164,2.503994225467377
1769238014952,129,1,1.9009880696834232,2.009733119762522,2.0867709559092567
1769238014956,129,1,1.5683902456236256,2.200702289926573,1.7565665869460227
1769238014960,129,1,1.538072052145699,1.9121103511142192,1.727118727536514
1769238014964,129,1,1.988751805844608,2.244865032065236,2.1752271999589072
1769238014968,130,2,2.9647442876180228,3.074184587624067,3.14639811962185
1769238014972,131,3,4.279765745353402,4.171977142897227,4.456751706946398
1769238014976,133,5,5.529607594649687,6.127550032526358,5.70314546996652
1769238014980,134,6,6.26713609039111,6.856035773265025,6.438031793658836
1769238014984,133,5,6.242976178634821,6.387685571750817,6.41184835748777
1769238014988,133,5,5.535448073307155,5.797969915114239,5.703620867654337
1769238014992,131,3,4.481309954306935,4.530438080700638,4.6504401756855245
1769238014996,131,3,3.482043475374053,3.6928204892739025,3.6525853483652666
1769238015000,130,2,2.834889070662271,3.3300361912856262,3.0052485633097947
1769238015004,130,2,2.675589156686173,2.887843356505024,2.843073760211551
1769238015008,130,2,3.011410925716555,3.242850591355591,3.1741712508413937
1769238015012,131,3,3.774180402541768,4.146984858462085,3.93256943854667
1769238015016,132,4,4.851775999484608,4.961517047739058,5.0081685656981145
1769238015020,133,5,6.107834029624975,6.174264354375574,6.264907864739167
1769238015024,135,7,7.417778824280193,7.906925331513287,7.576403523317475
1769238015028,136,8,8.716695934932421,9.293820686573817,8.875369477024446
1769238015032,137,9,10.008252526089873,10.019454051066903,10.16471450084942
1769238015036,138,10,11.300537123737874,11.106113961596511,11.45367095177402
1769238015040,140,12,12.52360601758867,13.02330460884063,12.673766466423809
1769238015044,141,13,13.53027788190816,14.014579338515176,13.67865180039299
1769238015048,141,13,14.202100708164076,14.20264859780364,14.350347304100945
1769238015052,142,14,14.564962533098228,15.058974486904845,14.714734561308
1769238015056,142,14,14.799981368298344,15.084923980642378,14.951730280771212
1769238015060,142,14,15.121648482330103,15.002840589644403,15.273735109929143
1769238015064,143,15,15.59923614563772,16.043820842080244,15.748736107142433
1769238015068,143,15,16.047593860918205,16.152819170496926,16.19250025298286
1769238015072,143,15,16.080238628868674,16.08103094928348,16.221111857656673
1769238015076,143,15,15.3164017347115,16.07949007061167,15.455914490877875
1769238015080,141,13,13.622176129298316,13.943258084063087,13.76308634867578
1769238015084,138,10,11.220798832981444,11.132980938006384,11.364190825734733
1769238015088,136,8,8.582350053996365,9.004399456278879,8.727396834487015
1769238015092,133,5,6.161013236416463,6.253801028775703,6.306099615066389
1769238015096,131,3,4.163054639446107,3.86695056563668,4.306930714358769
1769238015100,130,2,2.5067071801141787,3.178720713397869,2.648638225411168
1769238015104,129,1,0.9865052936730434,1.8573731727060052,1.1261625767371084
1769238015108,126,-2,-0.5146829360080019,-0.7242533981206316,-0.3766659776493566
1769238015112,125,-3,-1.9543079051792311,-2.043072065653347,-1.8162557013120264
1769238015116,124,-4,-3.2307246453635567,-2.854650064703703,-3.0913933358544243
1769238015120,123,-5,-4.313742903530417,-4.105184008550309,-4.17361862078013
1769238015124,122,-6,-5.266762051437614,-4.871779106901733,-5.127180238313175
1769238015128,121,-7,-6.161364977895873,-5.995254733350952,-6.022642632821486
1769238015132,120,-8,-6.983461183803716,-6.826556692895412,-6.844589946463024
1769238015136,120,-8,-7.61703185072463,-7.05081767012282,-7.477041379496491
1769238015140,119,-9,-7.922193987463951,-7.965907078843367,-7.781228072375564
1769238015144,119,-9,-7.855181266611519,-7.9658502295225535,-7.714322607921305
1769238015148,120,-8,-7.537428569889555,-6.95676490573179,-7.397853702381194
1769238015152,120,-8,-7.207259038648117,-6.857258921378331,-7.069321154350629
1769238015156,120,-8,-7.081515854651528,-7.070424202150738,-6.944271437357466
1769238015160,120,-8,-7.22920875260111,-6.928779816359171,-7.091020971913958
1769238015164,120,-8,-7.542244744538784,-7.04189851436197,-7.40202631551544
1769238015168,119,-9,-7.814458115360932,-7.870191515740776,-7.672258275683512
1769238015172,119,-9,-7.87297261972329,-7.983282794066065,-7.729659334983118
1769238015176,120,-8,-7.672720335883514,-6.95512338411925,-7.529408956938834
1769238015180,120,-8,-7.293329657142005,-7.040298293520212,-7.150724279511143
1769238015184,120,-8,-6.860786886485042,-6.97235002189585,-6.718677368215715
1769238015188,121,-7,-6.4700833276329135,-5.900489671731413,-6.327714629673585
1769238015192,121,-7,-6.157854021135542,-6.051521513904496,-6.014856660198752
1769238015196,121,-7,-5.919567839152186,-5.833588200064927,-5.776088652478195
1769238015200,122,-6,-5.740893181162423,-5.231679324412576,-5.596691479306521
1769238015204,121,-7,-5.613728742106309,-5.734400329507038,-5.467710171594998
1769238015208,122,-6,-5.522209447883807,-5.206139571118924,-5.373461116515425
1769238015212,122,-6,-5.414087573873901,-4.7189776940541535,-5.2632750057313675
1769238015216,122,-6,-5.202802942990778,-5.239891486410065,-5.051911720026073
1769238015220,122,-6,-4.832413865642329,-4.78083856874562,-4.682892933580089
1769238015224,123,-5,-4.363630204878508,-4.225644159353069,-4.215117333197334
1769238015228,123,-5,-3.979135590192163,-3.728752042322038,-3.830007276361576
1769238015232,124,-4,-3.8594131895803305,-3.1965084768804184,-3.708107887918741
1769238015236,123,-5,-4.016449240928371,-3.823457188684656,-3.86214925960892
1769238015240,123,-5,-4.242006051288122,-4.154331552118281,-4.084605288008827
1769238015244,123,-5,-4.2411666991354,-3.924617280650827,-4.081166807459088
1769238015248,123,-5,-3.858640836699831,-3.980487316016702,-3.6972008591750942
1769238015252,124,-4,-3.217156215116927,-3.0360520218836187,-3.0560124051301165
1769238015256,125,-3,-2.6507490925442077,-1.9061059933850475,-2.491492803794856
1769238015260,125,-3,-2.47981046483189,-2.1848337712507604,-2.322422597252908
1769238015264,124,-4,-2.801290878500229,-2.8134821367420573,-2.643183168940013
1769238015268,124,-4,-3.440982593939835,-3.2045665481984047,-3.2782136493011818
1769238015272,123,-5,-4.0702018964661075,-3.766340254244075,-3.9004385156035104
1769238015276,123,-5,-4.379340301603918,-4.219172558290596,-4.203945919683642
1769238015280,123,-5,-4.208044452089101,-3.864334758743345,-4.031286899169124
1769238015284,124,-4,-3.599029289101217,-3.135069294610945,-3.4249525690125924
1769238015288,124,-4,-2.7844014279868636,-2.939051304940071,-2.613922045642858
1769238015292,125,-3,-2.108319396567585,-2.016957934922218,-1.9389173885079565
1769238015296,126,-2,-1.8832052654565865,-1.0154198422890248,-1.7110841111943795
1769238015300,125,-3,-2.222004296509221,-2.0450453130712205,-2.0445000242173132
1769238015304,124,-4,-2.951579080628237,-2.9966991054849053,-2.768309070254644
1769238015308,124,-4,-3.690728790786416,-3.086271809055284,-3.5034412734173728
1769238015312,123,-5,-4.0622947620342735,-3.9079645449969007,-3.8735321802389473
1769238015316,123,-5,-3.908967908611394,-4.114923887374397,-3.7202331357059704
1769238015320,124,-4,-3.3713893597532403,-2.9486579755076483,-3.182514811452053
1769238015324,125,-3,-2.7683456946712974,-2.1036783084608737,-2.578509500732655
1769238015328,125,-3,-2.361737767702248,-2.024910024576022,-2.170385670362871
1769238015332,125,-3,-2.1918645593475077,-1.971857990081055,-1.9983811411466064
1769238015336,125,-3,-2.111449198334659,-2.0968656237246375,-1.914682770576952
1769238015340,125,-3,-1.9630954949935608,-1.9314602552330016,-1.762039716722691
1769238015344,126,-2,-1.7205388584959098,-1.1658103142174294,-1.5155303984551238
1769238015348,126,-2,-1.4743129174913383,-0.9596237711024354,-1.267060341662338
1769238015352,126,-2,-1.3117634628628656,-1.07766903189689,-1.1038759548863168
1769238015356,126,-2,-1.2363127294506675,-0.9998924631624218,-1.0278593393594164
1769238015360,126,-2,-1.2042852178784849,-1.0347029599121012,-0.993863982091154
1769238015364,126,-2,-1.2201580169618538,-1.0859640667546149,-1.0063320262879452
1769238015368,126,-2,-1.3708102740493864,-1.038213877291151,-1.1534965392215963
1769238015372,126,-2,-1.7480782029198854,-1.0475158485066616,-1.5284689154223154
1769238015376,125,-3,-2.3319275023491173,-2.013710685999217,-2.110883227988263
1769238015380,124,-4,-2.9562579199984027,-3.069947625175818,-2.7329765640253
1769238015384,124,-4,-3.397561506229275,-3.0269752882757657,-3.1703072507146315
1769238015388,124,-4,-3.502905848033853,-3.1483750737673946,-3.271044438079566
1769238015392,124,-4,-3.249149196218016,-2.9280917806197495,-3.0139841410800825
1769238015396,125,-3,-2.7132562603536092,-2.153717337169528,-2.476701793084948
1769238015400,125,-3,-2.01598829186105,-1.9492661928958197,-1.7787610965663962
1769238015404,126,-2,-1.2928149490942609,-1.1536476197877712,-1.0541318482002349
1769238015408,127,-1,-0.6840112910018277,-0.064325919067071,-0.4426533597184727
1769238015412,127,-1,-0.3098410158683737,0.0017555046111397,-0.064977904943978
1769238015416,127,-1,-0.2292145184245144,-0.1305421006063225,0.0195428616045785
1769238015420,127,-1,-0.4118591597826453,0.0529194192169188,-0.1593383310807119
1769238015424,127,-1,-0.7467542714985356,-0.2226902735507907,-0.4912732316684429
1769238015428,126,-2,-1.0891516279925937,-0.9742702685655148,-0.8316172785905573
1769238015432,126,-2,-1.3297128159641654,-1.126947577075298,-1.0701560284717802
1769238015436,126,-2,-1.444323248142051,-0.995561021134153,-1.1817998177815634
1769238015440,126,-2,-1.4814851894729,-1.1031463096942904,-1.2151335611911618
1769238015444,126,-2,-1.4944679121961255,-1.0909764136540083,-1.2245913761708704
1769238015448,126,-2,-1.4824065501777934,-1.1143456731486625,-1.21035881192316
1769238015452,126,-2,-1.4004812979872732,-1.0177989735106827,-1.127222514227198
1769238015456,126,-2,-1.2321448521390748,-1.0962149909819785,-0.9568965767147146
1769238015460,126,-2,-1.0455283015058885,-1.040240057633326,-0.7664170080772834
1769238015464,127,-1,-0.953003386343019,-0.1515810537244353,-0.6693234595360924
1769238015468,127,-1,-0.988259362786533,-0.0890305941546338,-0.7013166629948957
1769238015472,126,-2,-1.0312409406460186,-1.0453055465712089,-0.7423244398066995
1769238015476,126,-2,-0.8930944775305398,-1.0924467744930784,-0.6015351442140968
1769238015480,127,-1,-0.4972948564223127,-0.0565627167554572,-0.2016772190807891
1769238015484,128,0,0.0336040434266977,0.8406098286644108,0.3329177163992208
1769238015488,128,0,0.4773022038356951,0.9237353574497856,0.7782222780014877
1769238015492,128,0,0.6861829226132112,0.9119340933548946,0.9874476274936902
1769238015496,128,0,0.669773632103619,0.9437576990947888,0.972504618730283
1769238015500,128,0,0.5447552553614536,0.8538215859790477,0.8513537420645826
1769238015504,128,0,0.4409319307329435,0.9475578994826128,0.7530344913439869
1769238015508,128,0,0.4539683843267097,0.7897370578183058,0.7714266143500358
1769238015512,128,0,0.6546012205313618,1.057340902647955,0.975707036845938
1769238015516,129,1,1.1021638550108062,1.756035804544149,1.4246902776517645
1769238015520,129,1,1.814363854531184,2.017407857106172,2.13707425652527
1769238015524,130,2,2.7033809730462757,2.7762789755405985,3.0269659059424434
1769238015528,131,3,3.552670630341427,3.952813832382114,3.8789907421472183
1769238015532,132,4,4.103246679582008,4.891584366389891,4.433626697745815
1769238015536,132,4,4.213237770624584,4.88053021555042,4.547742904426295
1769238015540,131,3,3.953221288192873,3.877995236365617,4.291191646970985
1769238015544,131,3,3.539942676794798,3.876155379696246,3.8805013305693334
1769238015548,131,3,3.1638357655107554,3.880880452770236,3.5061857878155456
1769238015552,130,2,2.8586669990623954,2.9236221005486245,3.202812635863518
1769238015556,130,2,2.5115576591592776,2.863624149258327,2.8585935732616337
1769238015560,130,2,1.9949127408841796,2.8362288217638714,2.345807790699806
1769238015564,129,1,1.3083515312438658,1.911428884112804,1.6626203756541964
1769238015568,128,0,0.5976327606329804,0.836550379111196,0.9538745893044271
1769238015572,127,-1,0.012233342744278,-0.0397779373320401,0.3696797170218482
1769238015576,127,-1,-0.4698769667562367,-0.1920210279687069,-0.1110240777241402
1769238015580,127,-1,-1.0572581471249105,-0.1380604190126051,-0.6965589472972256
1769238015584,126,-2,-1.95459405360302,-1.1284326881393358,-1.591438438424964
1769238015588,124,-4,-3.139408032189584,-3.1269419052717193,-2.7726817967335515
1769238015592,123,-5,-4.318824598273832,-4.099645614784155,-3.9477911069008007
1769238015596,123,-5,-5.106177995082445,-4.146989177463227,-4.731709449324074
1769238015600,122,-6,-5.274179727530331,-5.222028009071051,-4.898009404820152
1769238015604,122,-6,-4.902484823343807,-5.028552247702539,-4.525381213349933
1769238015608,124,-4,-4.315271334713511,-3.242371649186782,-3.9370876922809455
1769238015612,124,-4,-3.8420932584838825,-3.0009969362438405,-3.4631723817021394
1769238015616,124,-4,-3.58404768382763,-3.276199052466253,-3.2047925271112696
1769238015620,124,-4,-3.3909436696044475,-3.126025414738971,-3.009641950015465
1769238015624,124,-4,-3.068470786394112,-3.121304844732065,-2.681228459209761
1769238015628,125,-3,-2.603846294583444,-2.1811443005290627,-2.208441321103592
1769238015632,126,-2,-2.1840516457777475,-1.0277241688154657,-1.7840784121681263
1769238015636,126,-2,-2.007096087001572,-1.3246751287171907,-1.6110286558896334
1769238015640,125,-3,-2.098201249241127,-2.061274738525301,-1.7127147071911195
1769238015644,125,-3,-2.2970330403763173,-2.2381747119870923,-1.9201200979313744
1769238015648,125,-3,-2.3459300958468896,-2.069174366605558,-1.966324097062147
1769238015652,126,-2,-1.8903645430543048,-1.120482260161524,-1.4947672695849692
1769238015656,128,0,-0.3704852526306788,0.722465818577838,0.046377375415513
1769238015660,131,3,2.9510188621412716,3.907927704008635,3.38152738967702
1769238015664,136,8,8.559741643009431,8.730821272320487,8.988224186929719
1769238015668,142,14,15.956033469169077,14.97778290852536,16.369381035388084
1769238015672,150,22,23.1886769288912,22.816326259562796,23.583529192455075
1769238015676,156,28,27.299883133985652,28.77618969543031,27.681793112487625
1769238015680,155,27,25.7272308898768,27.82012989742252,26.106010383053235
1769238015684,146,18,17.843230912420623,18.751074410548547,18.22987470167911
1769238015688,132,4,5.517357239961285,4.9174125921352925,5.92163635030502
1769238015692,119,-9,-7.749918222084659,-8.160452576814244,-7.324163497238109
1769238015696,109,-19,-18.510912575380832,-18.203014667794967,-18.07001645435182
1769238015700,103,-25,-24.754970542810483,-24.17015668739732,-24.31331827140933
1769238015704,102,-26,-26.272139018710316,-25.219902675154763,-25.8435406574199
1769238015708,104,-24,-24.09389719028828,-23.163036933195293,-23.68322403869756
1769238015712,108,-20,-19.64794222999444,-19.119055174101035,-19.24926777572439
1769238015716,113,-15,-14.21393860323719,-14.28271191065478,-13.815713775792595
1769238015720,118,-10,-8.816964517891014,-9.074771106011074,-8.410135663843265
1769238015724,124,-4,-4.288768662771147,-3.3436163024021903,-3.87217520061572
1769238015728,127,-1,-1.201461566152512,-0.0507158720639782,-0.7805507453695736
1769238015732,128,0,0.3212781213100998,0.6772509176534054,0.7409686150021365
1769238015736,128,0,0.6682605735013112,0.9427849783951928,1.0862545063275566
1769238015740,128,0,0.5239324545491225,0.663205780086668,0.9435898656450789
1769238015744,128,0,0.4963288956472831,0.9480293357320548,0.919508077978818
1769238015748,129,1,0.8523585023398605,1.6399686766796011,1.276464332057327
1769238015752,129,1,1.5005539921836737,1.938701181596844,1.92100620174624
1769238015756,130,2,2.155182915446866,2.683994159932804,2.5700500449342405
1769238015760,130,2,2.5292846370657145,2.887980841809374,2.9409393053897346
1769238015764,130,2,2.46225922157897,2.7383599685370585,2.8747053142981516
1769238015768,130,2,1.973697388378775,2.8125638384501475,2.388927344874655
1769238015772,129,1,1.2571431739480805,1.7510792910452877,1.674411845316286
1769238015776,128,0,0.6086119285460616,0.823227553455173,1.026620908751045
1769238015780,128,0,0.300698269687352,0.7790539692861737,0.7192446071123675
1769238015784,128,0,0.4663473059555436,0.8022778588269659,0.8852815038635344
1769238015788,129,1,1.0652802234047285,1.7753580297538103,1.4827325762709032
1769238015792,130,2,1.9349561263981223,2.727160077632124,2.348065498018248
1769238015796,130,2,2.857934060382401,2.8448865923560387,3.2658466651372824
1769238015800,131,3,3.602040957930127,3.725522597850966,4.007426568855396
1769238015804,132,4,3.971219648703282,4.8632225812287455,4.378142681313713
1769238015808,132,4,3.906436068390058,4.680581377473246,4.316937138907917
1769238015812,131,3,3.5704843611469124,3.816330328991245,3.9832830544320874
1769238015816,131,3,3.293715704275466,3.713263692152086,3.7055471039833536
1769238015820,131,3,3.3626697792942704,3.848889418540538,3.770612784716451
1769238015824,131,3,3.7975353096506055,3.7363008535093742,4.200666096704283
1769238015828,132,4,4.311641723878549,4.789664748361496,4.711030492357169
1769238015832,133,5,4.5204404679001176,5.71246360961004,4.91791563484154
1769238015836,132,4,4.255983228731347,4.746144757236234,4.653185497461034
1769238015840,131,3,3.725728316920791,3.83479296365452,4.1238607980307584
1769238015844,131,3,3.3702873293312416,3.697607415093861,3.7695828325816048
1769238015848,131,3,3.53683594025465,3.8507580045188856,3.935783755090262
1769238015852,132,4,4.237653905072772,4.6281585254710045,4.633357580510742
1769238015856,133,5,5.17299848896096,5.810362408268552,5.563050124118529
1769238015860,134,6,5.97334171597188,6.759373807169834,6.357800497089131
1769238015864,134,6,6.455926180793187,6.7267891342293735,6.837580848968488
1769238015868,134,6,6.709518834575245,6.836183872522123,7.091816006669179
1769238015872,135,7,6.981533100925275,7.592940646206557,7.365700590390561
1769238015876,135,7,7.489608787591044,7.865558893994656,7.873693735461941
1769238015880,136,8,8.29674825759081,8.6506445901805,8.677521153978734
1769238015884,137,9,9.305312310431887,9.85716332005932,9.680928930174234
1769238015888,138,10,10.34178631817985,10.652592403364588,10.71261596756756
1769238015892,139,11,11.266869011072774,11.787645088698309,11.634359121840752
1769238015896,140,12,12.044853323270248,12.632217156839468,12.41027719940991
1769238015900,140,12,12.735148353479811,12.87480649332511,13.09930437990432
1769238015904,141,13,13.423731879954842,13.613418171677926,13.786886885960492
1769238015908,142,14,14.158811252219586,14.874471076402594,14.520363747268082
1769238015912,143,15,14.938670460832574,15.564073954160635,15.297355194144778
1769238015916,143,15,15.731033127018256,15.815225988861204,16.08589874410906
1769238015920,144,16,16.475065632210367,16.715091627004213,16.825882684192848
1769238015924,145,17,17.067180208434493,17.686700919518636,17.41384757732993
1769238015928,145,17,17.37296596734089,17.86660900959219,17.71544455113378
1769238015932,145,17,17.275722948820096,17.463329469814465,17.6149725562231
1769238015936,144,16,16.72804769942915,17.00216112576866,17.066025376698228
1769238015940,144,16,15.777472165079574,16.40312903381344,16.11522307344579
1769238015944,142,14,14.554114586464422,15.06293097991597,14.890179058714542
1769238015948,141,13,13.206682934761664,13.414010950764666,13.538133960656031
1769238015952,139,11,11.79779202921603,11.94185932247058,12.122856496004824
1769238015956,138,10,10.23414524461366,10.500727877972253,10.553474743695483
1769238015960,136,8,8.324855128739276,8.856270003065534,8.640446050912422
1769238015964,134,6,5.96374021090596,6.640562033959171,6.277226175627183
1769238015968,131,3,3.29468635236801,3.752988937100522,3.606754555894077
1769238015972,128,0,0.6981958444782741,0.6680430977274745,1.0088027111010838
1769238015976,126,-2,-1.4173165846704778,-1.332120192380228,-1.1090559869987069
1769238015980,125,-3,-2.8586982314528147,-2.244423072880906,-2.5545725491133595
1769238015984,124,-4,-3.7372841152686247,-3.345950072510883,-3.43892318914829
1769238015988,123,-5,-4.3551129855921245,-4.201062270521359,-4.062596287799186
1769238015992,123,-5,-4.992825510242968,-4.453523344015368,-4.704842370669594
1769238015996,122,-6,-5.749718049766302,-5.202620546965219,-5.465008718708527
1769238016000,121,-7,-6.53204225923984,-6.425377457083395,-6.250069402010479
1769238016004,120,-8,-7.180567643327287,-7.1601911643452105,-6.9010776469206965
1769238016008,120,-8,-7.621767807961531,-7.394700770143292,-7.344788166754788
1769238016012,120,-8,-7.905840432163782,-7.290233515948284,-7.632289261273457
1769238016016,120,-8,-8.109778037557057,-7.369617720713755,-7.841066398411219
1769238016020,119,-9,-8.229807747137631,-8.303326827392276,-7.966307495251851
1769238016024,119,-9,-8.191773935387516,-8.284748751854618,-7.932340121642221
1769238016028,120,-8,-7.96147169241484,-7.2801309384289965,-7.704971179872799
1769238016032,120,-8,-7.622960458022052,-7.438610931851262,-7.369789552230306
1769238016036,120,-8,-7.338952898575671,-7.211007282705951,-7.090621338349632
1769238016040,121,-7,-7.232764136812684,-6.514854273879673,-6.990118717366744
1769238016044,120,-8,-7.297189213228858,-7.070369205141285,-7.059099192433194
1769238016048,120,-8,-7.403355033773496,-7.530519498514234,-7.167321329671955
1769238016052,120,-8,-7.3920573488644195,-7.186580418377965,-7.15675987431706
1769238016056,121,-7,-7.161988676738922,-6.487884823548166,-6.929260334759229
1769238016060,121,-7,-6.698511356254564,-6.256457578560086,-6.471828664284516
1769238016064,121,-7,-6.069181843146311,-6.3347041270159306,-5.849885535235999
1769238016068,122,-6,-5.420204815666677,-5.310649951054479,-5.206162436726648
1769238016072,123,-5,-4.940637257278156,-4.392547103413414,-4.729075253505238
1769238016076,123,-5,-4.760235162118081,-4.333036108592529,-4.550867955584769
1769238016080,123,-5,-4.848417381011379,-4.397552690728839,-4.642927808534349
1769238016084,122,-6,-5.0315872160907755,-5.229153060676308,-4.830813003442781
1769238016088,122,-6,-5.136030785245237,-5.44754397620362,-4.939065678751207
1769238016092,123,-5,-5.115293098899961,-4.254172896979245,-4.921324568431327
1769238016096,123,-5,-5.033516102998746,-4.495677982212468,-4.843148287984949
1769238016100,122,-6,-4.944808135202143,-5.236486501331698,-4.759034506878664
1769238016104,123,-5,-4.817517845499295,-4.407886592561295,-4.636370611858955
1769238016108,123,-5,-4.578033003921133,-4.325802695729653,-4.400815808548826
1769238016112,123,-5,-4.212472851840518,-4.370572327938432,-4.038715296366183
1769238016116,124,-4,-3.8199242289377513,-3.3939373572416205,-3.649746867952326
1769238016120,124,-4,-3.5653980801334955,-3.335277059792243,-3.3993210871467276
1769238016124,124,-4,-3.5673825181985896,-3.3506758340775713,-3.4059318855568845
1769238016128,124,-4,-3.8119107342487144,-3.407337481825941,-3.655056568964741
1769238016132,123,-5,-4.1659552871525705,-4.321735575568165,-4.0127534017757265
1769238016136,123,-5,-4.475442445827026,-4.436965817049858,-4.324586781249976
1769238016140,123,-5,-4.656399099967002,-4.2869118875446075,-4.507528141071049
1769238016144,123,-5,-4.703012885459048,-4.451473367796763,-4.5573377478222
1769238016148,123,-5,-4.631344814430668,-4.3049122539203495,-4.490605874246991
1769238016152,123,-5,-4.44336434776431,-4.478666619116396,-4.308165781579615
1769238016156,123,-5,-4.154677619774568,-4.263415518975136,-4.024103589943547
1769238016160,124,-4,-3.836478640285657,-3.4706569975520263,-3.709230070622365
1769238016164,124,-4,-3.5980374257189536,-3.30583476778854,-3.473501081951798
1769238016168,124,-4,-3.509188929930376,-3.454891574678721,-3.3874160963185704
1769238016172,124,-4,-3.53710765281732,-3.389348861166092,-3.418366629764779
1769238016176,124,-4,-3.561455624309313,-3.318274641768717,-3.446093209743456
1769238016180,124,-4,-3.46074254388699,-3.468972141115366,-3.349108202268263
1769238016184,124,-4,-3.2039899263511016,-3.281538002982704,-3.0962292402743277
1769238016188,125,-3,-2.874546285432313,-2.5475849488021827,-2.770563752802049
1769238016192,125,-3,-2.603191295041569,-2.2921989000517,-2.502741174962103
1769238016196,125,-3,-2.466853101398936,-2.4369182795579944,-2.369506657242944
1769238016200,125,-3,-2.4437711616990385,-2.3653447642243126,-2.3490484934363813
1769238016204,125,-3,-2.461122137878461,-2.386634562351333,-2.3690423542578247
1769238016208,125,-3,-2.482300705462753,-2.50776281742055,-2.3937100288917166
1769238016212,125,-3,-2.549715776776734,-2.309641792564361,-2.4655820138522846
1769238016216,125,-3,-2.7472079600510875,-2.464316175386161,-2.6673234979173595
1769238016220,124,-4,-3.117509298457802,-3.3203548568220285,-3.0402646899679997
1769238016224,124,-4,-3.59908599433641,-3.471996080143927,-3.5230605857095902
1769238016228,124,-4,-4.02603522667504,-3.454749301317662,-3.951574236788953
1769238016232,123,-5,-4.20239563909656,-4.365139672102831,-4.130991022335408
1769238016236,123,-5,-4.023490802545352,-4.439603206571402,-3.955961687726451
1769238016240,124,-4,-3.5608004541085885,-3.316384703787315,-3.49696137569845
1769238016244,125,-3,-3.019402441597339,-2.5469182832922224,-2.9590911893319087
1769238016248,125,-3,-2.5846491069546467,-2.3661185042957027,-2.527758826166462
1769238016252,125,-3,-2.298177565589489,-2.50582803018633,-2.243698060560474
1769238016256,125,-3,-2.0765365930000144,-2.2899080189627443,-2.0229594903798818
1769238016260,126,-2,-1.832644466264734,-1.49531827468845,-1.779868727226587
1769238016264,126,-2,-1.5715523790549857,-1.375945115505174,-1.5214849946913576
1769238016268,126,-2,-1.3910111483801058,-1.5748357476141337,-1.3456391507867738
1769238016272,126,-2,-1.4141281041557314,-1.2909970049269188,-1.3734391741879763
1769238016276,126,-2,-1.709023266475766,-1.5546155990114054,-1.6711789916789792
1769238016280,125,-3,-2.232971397419903,-2.216854567899208,-2.1960913043208654
1769238016284,125,-3,-2.8287747878712577,-2.6969057660204334,-2.7921905024689453
1769238016288,124,-4,-3.287204473403319,-3.2601698333190625,-3.2513777764466485
1769238016292,124,-4,-3.4498306463087514,-3.62322520928813,-3.415788759766572
1769238016296,124,-4,-3.2880246800782142,-3.256679629029003,-3.257065692761239
1769238016300,125,-3,-2.9029067823884342,-2.4925709848019206,-2.876126780362424
1769238016304,125,-3,-2.453073090919011,-2.4893228591353704,-2.430367664271798
1769238016308,125,-3,-2.070231230972496,-2.428798808186338,-2.049980608559595
1769238016312,126,-2,-1.8085811509154075,-1.5452291271147842,-1.7890092796093524
1769238016316,126,-2,-1.6300184357076046,-1.290570529453691,-1.6106610095677991
1769238016320,126,-2,-1.425371985066858,-1.5285653034061044,-1.406708384082804
1769238016324,126,-2,-1.0825002141410835,-1.416908446593845,-1.0648671014314552
1769238016328,127,-1,-0.5699980343488447,-0.5639041214091747,-0.5539502588499862
1769238016332,128,0,0.0364439554906834,0.5881976152302167,0.0493065240136453
1769238016336,128,0,0.608474615498829,0.5567577011592098,0.6166767252240671
1769238016340,128,0,1.0389850992322596,0.6023899420755621,1.0434089153350028
1769238016344,129,1,1.2792783864062538,1.4535544206420978,1.2830548205816226
1769238016348,129,1,1.353973162905168,1.5108654326025976,1.359622013898866
1769238016352,129,1,1.3755770278088078,1.51051593055124,1.3827806462831909
1769238016356,129,1,1.5211040184231956,1.6207576442888385,1.5274725265480904
1769238016360,129,1,1.9296103879466195,1.5211170621650512,1.9330037802919389
1769238016364,130,2,2.5709272698522088,2.5181528069364765,2.5706546778625023
1769238016368,131,3,3.208565870065491,3.423058402624857,3.204952832779783
1769238016372,131,3,3.523499664720481,3.562702344128131,3.517326660818994
1769238016376,131,3,3.3214231870253412,3.590382580668888,3.314068815662571
1769238016380,130,2,2.663121050803852,2.4937646551728183,2.656473272447524
1769238016384,129,1,1.8209040584519265,1.5485472270050025,1.8161360759794989
1769238016388,129,1,1.106163095017693,1.344712388905817,1.1023866358829328
1769238016392,128,0,0.698137123648396,0.6452150581927425,0.6928449331055183
1769238016396,128,0,0.5742555119110255,0.498308769963064,0.5655027849739831
1769238016400,128,0,0.5586810206708768,0.57553553495753,0.5466065446243318
1769238016404,128,0,0.4448972289684767,0.4255641650367516,0.4310248643754306
1769238016408,128,0,0.1201163454746454,0.4413358047157855,0.1057962222490225
1769238016412,127,-1,-0.3852708348395774,-0.4565333154772826,-0.3992999509692978
1769238016416,126,-2,-0.9564407783095676,-1.4252787493308323,-0.9697331268907528
1769238016420,126,-2,-1.5043752765910734,-1.4864746513566165,-1.5171739138370186
1769238016424,126,-2,-2.021116312335372,-1.586903295209575,-2.0349008656351684
1769238016428,125,-3,-2.5388508908984826,-2.522766548623233,-2.555355299108194
1769238016432,124,-4,-3.058857525499158,-3.5448580385414705,-3.078217176981915
1769238016436,124,-4,-3.5283763011198475,-3.312658259537786,-3.548738670591666
1769238016440,124,-4,-3.8672745962210575,-3.64315600470346,-3.886251427871943
1769238016444,123,-5,-4.003622198578838,-4.453743394277209,-4.020004466082485
1769238016448,124,-4,-3.899575578394816,-3.6651405701877415,-3.914323346583201
1769238016452,124,-4,-3.571274642620069,-3.428099499473027,-3.5874239088207185
1769238016456,124,-4,-3.104222725004715,-3.4314258934379267,-3.125160059898863
1769238016460,125,-3,-2.6547690074558106,-2.549046925520422,-2.681361900759741
1769238016464,125,-3,-2.4140900628178965,-2.580134685193722,-2.442935333778298
1769238016468,125,-3,-2.5160819811250184,-2.558882217534135,-2.5410691433557164
1769238016472,125,-3,-2.9213543341999415,-2.543282143086578,-2.9382269397177954
1769238016476,124,-4,-3.372882370671525,-3.3346174976879595,-3.3835167180730927
1769238016480,124,-4,-3.5125892447625184,-3.6647110224193513,-3.52511774617007
1769238016484,124,-4,-3.128309594765839,-3.4885622550882296,-3.1519917304255887
1769238016488,125,-3,-2.3421245635884276,-2.6781310715547586,-2.3800173310911936
1769238016492,126,-2,-1.5191550185442482,-1.4191453433591168,-1.564057799691498
1769238016496,127,-1,-0.8659270980889961,-0.4751771693072162,-0.9036850111628196
1769238016500,128,0,0.0094476475481131,0.446958196577304,-0.0096241036020136
1769238016504,130,2,2.145033966201763,2.3759577032122623,2.1445892124766717
1769238016508,134,6,6.634921650393123,6.418679904014315,6.640670286141745
1769238016512,140,12,13.631795877773245,12.506877738397002,13.627296465119924
1769238016516,148,20,21.6249508558269,20.58275692702087,21.599901269837577
1769238016520,156,28,27.694815229943615,28.38504337210075,27.649273643571476
1769238016524,158,30,28.85130478755777,30.380981361688875,28.793830392772264
1769238016528,152,24,23.70543727553223,24.356834242736717,23.64956829791071
1769238016532,140,12,13.340844336733806,12.531820568880867,13.300837465777398
1769238016536,127,-1,0.7821945058320083,-0.4850062319840855,0.7661881199231284
1769238016540,117,-11,-10.518740654486049,-10.529593722890612,-10.51516969737356
1769238016544,110,-18,-18.14887635334593,-17.681579664923404,-18.14156194217762
1769238016548,106,-22,-21.368664077336497,-21.553570001024916,-21.374783371867608
1769238016552,107,-21,-20.845265065691088,-20.563212588203445,-20.872503124897275
1769238016556,110,-18,-17.933154971386386,-17.44712915263633,-17.97655569115211
1769238016560,113,-15,-14.012127419089824,-14.59822689947285,-14.059232980645346
1769238016564,117,-11,-10.13873211749337,-10.637966390256995,-10.17799451685752
1769238016568,121,-7,-6.96548858987752,-6.58219953821799,-6.9926205677366795
1769238016572,123,-5,-4.756555226553005,-4.596147734362495,-4.775400488823756
1769238016576,124,-4,-3.424505859473111,-3.4284582933951717,-3.442487203672586
1769238016580,125,-3,-2.6425267837866606,-2.673366309102028,-2.664723809831977
1769238016584,125,-3,-2.057957675009883,-2.558361777732509,-2.0845607687013814
1769238016588,126,-2,-1.4960630916914894,-1.6471297539747694,-1.5243298650051704
1769238016592,127,-1,-0.9973594806332106,-0.5687419503010838,-1.0250364850364446
1769238016596,127,-1,-0.6651788312834588,-0.4591760152280495,-0.6918510005612396
1769238016600,127,-1,-0.4808133987126916,-0.7164535547051516,-0.5069100806019764
1769238016604,127,-1,-0.2696989161279417,-0.4839079312854335,-0.2954842207799509
1769238016608,128,0,0.1558970620328705,0.2309572211231612,0.1301947115611358
1769238016612,128,0,0.8196505483301375,0.5839518605155253,0.793538162137231
1769238016616,129,1,1.532099672043706,1.3241892296480993,1.5050281059124584
1769238016620,130,2,2.017196763044752,2.4910693099342116,1.9889215509411189
1769238016624,130,2,2.115452976325268,2.28190080811663,2.086396238703804
1769238016628,129,1,1.895305509957581,1.449468063812298,1.8666968427068935
1769238016632,129,1,1.581583570620666,1.3738687334043869,1.5546445342502104
1769238016636,129,1,1.3769041919734364,1.4679485335398632,1.3514649448811769
1769238016640,129,1,1.3375817179227198,1.362069110519722,1.3119571137383814
1769238016644,129,1,1.388160244373843,1.3617625885939657,1.3607833134105625
1769238016648,129,1,1.4261162918434227,1.4015263975535572,1.396981329357146
1769238016652,129,1,1.4157914168769756,1.365081224791073,1.3860848511405663
1769238016656,129,1,1.4085264321862991,1.4706170836051422,1.3792684288485075
1769238016660,129,1,1.4903058384054737,1.3138855051078395,1.4616714129670707
1769238016664,129,1,1.706863382751954,1.412791247731685,1.6784617056191131
1769238016668,130,2,2.0298945710573597,2.3416820826880125,2.001265842583123
1769238016672,130,2,2.3907284703254215,2.404832691859806,2.3616531735269923
1769238016676,130,2,2.742970084521354,2.393564246591162,2.7135014707146237
1769238016680,131,3,3.0903876636893104,3.370985628008887,3.0605852973487253
1769238016684,131,3,3.456543402422746,3.338166533480267,3.4262602300056626
1769238016688,131,3,3.8299243764143256,3.4089276972507703,3.798891927355614
1769238016692,132,4,4.143349721393921,4.332908425347111,4.111273739075591
1769238016696,132,4,4.322619025652816,4.4090350793921225,4.289326571920064
1769238016700,132,4,4.373500018344667,4.351617207372446,4.3395046118837985
1769238016704,132,4,4.424684285159684,4.330467330115173,4.3915268610778275
1769238016708,132,4,4.674783936558228,4.4133530613329945,4.6439687397378755
1769238016712,133,5,5.2787930509274,5.315664971331009,5.24985921150269
1769238016716,134,6,6.255479857500618,6.384271872417053,6.225565271721441
1769238016720,135,7,7.4630526166586,7.372014379536926,7.429075805659536
1769238016724,136,8,8.63911838500454,8.276451071380086,8.600505512763071
1769238016728,137,9,9.49236543368466,9.476801885533227,9.451454977146424
1769238016732,138,10,9.835059280237484,10.20446958626848,9.795078844106598
1769238016736,137,9,9.704749471927723,9.489160209057095,9.667600748552008
1769238016740,137,9,9.3842365202284,9.221631288407131,9.3496312485734
1769238016744,137,9,9.273734516543607,9.433251168965436,9.239688544179277
1769238016748,137,9,9.67828617777976,9.293521334192889,9.642458049629182
1769238016752,138,10,10.6454827433324,10.382212801862533,10.60653079489678
1769238016756,140,12,11.963221214201466,12.28827375904615,11.921325601089022
1769238016760,141,13,13.31753660241468,13.393948091102176,13.274024971057942
1769238016764,142,14,14.489142873892083,14.24600717772048,14.445645296683484
1769238016768,143,15,15.439471654945455,15.464453807916126,15.396938013042703
1769238016772,144,16,16.234899434361367,16.179875761507624,16.193046811992716
1769238016776,144,16,16.889613210088285,16.477829708660696,16.847249407390162
1769238016780,145,17,17.26524216787073,17.18180455970672,17.221028240371297
1769238016784,145,17,17.1159954857987,17.43515193932718,17.0691044234871
1769238016788,144,16,16.2462219836649,16.280082442702273,16.196916130678503
1769238016792,142,14,14.648086150540244,14.300299593225308,14.597828065350578
1769238016796,140,12,12.509893209336967,12.383239562576009,12.46029873122142
1769238016800,138,10,10.107524828768316,10.194439784622087,10.058874603619625
1769238016804,135,7,7.678734423948896,7.473861823161583,7.629734386474178
1769238016808,133,5,5.362878283195689,5.181886438389267,5.311897134031069
1769238016812,131,3,3.2203105571744612,3.4086241908121533,3.16670084728072
1769238016816,129,1,1.291031845165216,1.237822423317415,1.235497920484718
1769238016820,127,-1,-0.3668290125670888,-0.6961658676481735,-0.4228617406887149
1769238016824,126,-2,-1.6921927045221534,-1.615417733268791,-1.7477889158523985
1769238016828,125,-3,-2.670662024596078,-2.7747539059848125,-2.726326681024053
1769238016832,124,-4,-3.3707954506297497,-3.635707163618604,-3.428267521787241
1769238016836,124,-4,-3.9355197177619887,-3.74239241225594,-3.996403485001016
1769238016840,123,-5,-4.5308262342835794,-4.770018225463558,-4.595128120902563
1769238016844,122,-6,-5.276302190586176,-5.502991783131276,-5.342186016768754
1769238016848,122,-6,-6.1869449388157,-5.9672651903818705,-6.252096618303756
1769238016852,120,-8,-7.152467684431093,-7.395350073236369,-7.215996868068812
1769238016856,120,-8,-7.974568446506764,-8.079212485485728,-8.037797642233583
1769238016860,119,-9,-8.461574323031993,-8.392109098635785,-8.526974858402694
1769238016864,119,-9,-8.539683122827098,-8.937087801061113,-8.608841937335004
1769238016868,119,-9,-8.308976693106723,-8.527844847923596,-8.38148836995369
1769238016872,120,-8,-7.987567719743,-7.837455974378637,-8.06185569240763
1769238016876,120,-8,-7.762181960996517,-7.717929970249734,-7.837084839181371
1769238016880,120,-8,-7.653909031620496,-7.701627694139624,-7.729192807261652
1769238016884,120,-8,-7.518789992521284,-7.727302017317792,-7.5945039360474365
1769238016888,120,-8,-7.193154045947065,-7.676724331387534,-7.269344671760844
1769238016892,121,-7,-6.656362438030075,-6.768016420614516,-6.733776264738928
1769238016896,122,-6,-6.062855940866364,-5.7675915978085035,-6.143216070156632
1769238016900,122,-6,-5.62202532457066,-5.693874863903014,-5.706576087287781
1769238016904,122,-6,-5.446623810726555,-5.745911980705589,-5.534292470627384
1769238016908,122,-6,-5.498179194923747,-5.679585046908334,-5.5860090324993354
1769238016912,122,-6,-5.6431386275614805,-5.793993736247399,-5.729131750497518
1769238016916,122,-6,-5.741632753304277,-5.760551489829358,-5.8269638214258865
1769238016920,122,-6,-5.704829678551699,-5.69808699895435,-5.7928356215401395
1769238016924,122,-6,-5.517321749577674,-5.789781391874697,-5.610266601939107
1769238016928,122,-6,-5.238079794993772,-5.614043811499002,-5.335139768150365
1769238016932,123,-5,-4.967506112322499,-4.940606399912364,-5.06588624862626
1769238016936,123,-5,-4.771527321109884,-4.577153178211613,-4.869139009857332
1769238016940,123,-5,-4.6101248953311496,-4.933901396048895,-4.707095894037014
1769238016944,123,-5,-4.348964073697729,-4.5564871276780785,-4.447098768297044
1769238016948,124,-4,-3.8716413816708255,-3.859497606697746,-3.9727956023461126
1769238016952,124,-4,-3.2098151080202046,-3.769006772042472,-3.3145512210960724
1769238016956,125,-3,-2.573854591948022,-2.68815684762184,-2.6813749623319767
1769238016960,126,-2,-2.235118736893594,-1.914020753574763,-2.3443634529747928
1769238016964,125,-3,-2.335423728110747,-2.522668821807176,-2.446024489425271
1769238016968,125,-3,-2.7771498778637738,-2.9867844973480144,-2.8893319662647636
1769238016972,124,-4,-3.290042844478133,-3.629179880724029,-3.4039404850362764
1769238016976,124,-4,-3.6165189593805063,-3.8641728534838617,-3.7317428349654183
1769238016980,124,-4,-3.6574472157942095,-3.7359272936143992,-3.773295229089369
1769238016984,124,-4,-3.468591060448105,-3.698087969406691,-3.584898456897992
1769238016988,125,-3,-3.138687520410714,-2.8777191657312495,-3.2565970222627634
1769238016992,125,-3,-2.6857000392093813,-2.718811020472131,-2.8071512377519894
1769238016996,125,-3,-2.0849013538114898,-2.8555084437040317,-2.210912549260766
1769238017000,126,-2,-1.3987634679580836,-1.6890633846270902,-1.528370248956452
1769238017004,127,-1,-0.8473658471700505,-0.8080402906708833,-0.9784773201668866
1769238017008,127,-1,-0.6961396110659934,-0.7646362934469875,-0.8272809920065847
1769238017012,127,-1,-1.0308383472677565,-0.8756807441564867,-1.1619790386866051
1769238017016,126,-2,-1.6348256262219645,-1.719963039686114,-1.7667990830261568
1769238017020,125,-3,-2.1166609172114734,-2.8366744893702194,-2.2502104401586607
1769238017024,125,-3,-2.208077456677218,-2.672927419868137,-2.3437615128652114
1769238017028,126,-2,-1.9787694057639371,-1.916658531680292,-2.1175391622884336
1769238017032,126,-2,-1.7733233110882811,-1.7496548457257632,-1.916336052278328
1769238017036,126,-2,-1.9233988622288165,-1.8577076512667563,-2.070674176785303
1769238017040,125,-3,-2.4839722881744746,-2.7321541453029763,-2.63356446569844
1769238017044,124,-4,-3.2018227830584407,-3.791742512145265,-3.3510375928086846
1769238017048,124,-4,-3.7096051022802374,-3.8309035320736458,-3.857278569983108
1769238017052,124,-4,-3.76650212772031,-3.8364888126431422,-3.91390946391266
1769238017056,124,-4,-3.372162649978452,-3.795611348364108,-3.5218392242457943
1769238017060,125,-3,-2.711476684100925,-2.7932731686889793,-2.8655217767849197
1769238017064,126,-2,-2.0110444041662814,-1.7775176371061463,-2.1701491369757324
1769238017068,126,-2,-1.4288304269053371,-1.8570128999598463,-1.591969031136896
1769238017072,126,-2,-1.0436248145679927,-1.8412409019753673,-1.208657218559127
1769238017076,127,-1,-0.899994623487373,-0.7969553754915943,-1.0653359368245434
1769238017080,127,-1,-1.011964839751332,-0.8105764360397045,-1.1776912724253092
1769238017084,126,-2,-1.3082727434330204,-1.79270389680602,-1.4752089575664034
1769238017088,126,-2,-1.606554423751472,-1.84685791327481,-1.7748364742936198
1769238017092,126,-2,-1.6851820543153833,-1.9004911216318592,-1.8545162225841647
1769238017096,126,-2,-1.4137626214379246,-1.7216956841202695,-1.5847493738429344
1769238017100,127,-1,-0.84645259566496,-0.9258345207401129,-1.020766246628056
1769238017104,127,-1,-0.2154244568517895,-0.664586021314003,-0.3945050388954628
1769238017108,128,0,0.1753196606330092,-0.039599775687005,-0.0084883435975198
1769238017112,128,0,0.1048404027724076,0.3007911395615254,-0.0820176007851176
1769238017116,127,-1,-0.4433483720067754,-0.96931623752604,-0.6307325533651604
1769238017120,126,-2,-1.265318404083497,-1.6834293842533277,-1.4513003834900822
1769238017124,126,-2,-2.0342606694122902,-1.9034744717515912,-2.2189505649822845
1769238017128,125,-3,-2.452465287709402,-2.8810640282813944,-2.6381397529754778
1769238017132,125,-3,-2.3830271325975874,-2.799560471413166,-2.572527895321093
1769238017136,126,-2,-1.9069679786225493,-1.966816995969473,-2.1017717433854703
1769238017140,126,-2,-1.278827818354043,-1.6181541168833484,-1.4783741733651197
1769238017144,127,-1,-0.7962825902785826,-1.0617039317679833,-0.9987812010130026
1769238017148,127,-1,-0.6497616761404827,-0.6951368564658849,-0.8535139908527087
1769238017152,127,-1,-0.8377075820435957,-1.0537792969460549,-1.041822138717606
1769238017156,126,-2,-1.1981784915340052,-1.703745770711154,-1.4025203608903505
1769238017160,126,-2,-1.5299852567393517,-1.9018800210773248,-1.7351223379929854
1769238017164,126,-2,-1.7105316482869417,-1.8054708277422264,-1.917844534675222
1769238017168,126,-2,-1.7293479769591271,-1.9523221881230917,-1.9404518346218609
1769238017172,126,-2,-1.639315488797244,-1.8487173158473984,-1.8547033278053675
1769238017176,126,-2,-1.4909498323946395,-1.8903644037045697,-1.7093829576911166
1769238017180,126,-2,-1.2990807021354884,-1.7704226661266826,-1.5187975863732175
1769238017184,127,-1,-1.0408896489810868,-0.9253553718265642,-1.2612721041210553
1769238017188,127,-1,-0.6721346581090011,-0.8756755768515483,-0.8937342052309222
1769238017192,127,-1,-0.1655490113015554,-0.9377734372306336,-0.3888968460204154
1769238017196,128,0,0.4401593541412965,0.1854094233502668,0.2147398858174675
1769238017200,129,1,1.0282534205946774,1.1193602506478617,0.7997807712574991
1769238017204,129,1,1.453988419447438,1.182067274790255,1.2211233531575827
1769238017208,129,1,1.6135322429156609,0.9866271590622532,1.376311246411007
1769238017212,129,1,1.4789292048650722,1.1779537876125523,1.2394211396351156
1769238017216,129,1,1.104466839467053,1.0499467950184296,0.8650925908566155
1769238017220,128,0,0.6321513581664505,0.2269236557611508,0.3934908822742964
1769238017224,128,0,0.2802917166301181,0.07646825398415,0.0406615764717522
1769238017228,128,0,0.2741573633177985,0.0599187416852624,0.0312585058331814
1769238017232,128,0,0.7239479243424034,0.0897852539529778,0.4769329140249226
1769238017236,129,1,1.5275866839938257,1.107978026101339,1.2774093579431585
1769238017240,130,2,2.394115259932641,2.1660402000874868,2.1417707626934734
1769238017244,131,3,3.003617887124029,3.103342568768298,2.748570175521853
1769238017248,131,3,3.191233654292014,3.042018550150331,2.9323022901993627
1769238017252,130,2,3.0024703469013603,2.0347669369080177,2.740020675532938
1769238017256,130,2,2.5887078196732256,2.176293839010788,2.324951669937766
1769238017260,130,2,2.072904314433214,2.0488312910019792,1.8097201470575144
1769238017264,129,1,1.52232985049127,1.2393487326078971,1.2593498329919242
1769238017268,129,1,1.013924480272905,0.8820272899044729,0.7489522174239939
1769238017272,128,0,0.6639801141580833,0.165024717988886,0.3948327409836923
1769238017276,128,0,0.5485504444983191,0.0059667927481947,0.2744028889245368
1769238017280,128,0,0.5850209216587459,0.2160884646713413,0.3065162659967606
1769238017284,128,0,0.5143587108450213,0.0579230942766171,0.2328915560721089
1769238017288,128,0,0.0458348619912675,0.0630190077966247,-0.2373098035659393
1769238017292,127,-1,-0.9276259454817692,-1.05773732924418,-1.2117844293912488
1769238017296,125,-3,-2.221097926778242,-2.8202809547646748,-2.506346924928081
1769238017300,124,-4,-3.4600101339195337,-3.956585550508711,-3.7471327793425218
1769238017304,123,-5,-4.319170351212367,-4.793821447952045,-4.6093445189473545
1769238017308,123,-5,-4.708251888211791,-5.059793901878138,-5.002161906997587
1769238017312,123,-5,-4.7664084144524885,-4.993048516578348,-5.063397711650305
1769238017316,123,-5,-4.69295928807102,-4.892372598937749,-4.991553584376026
1769238017320,123,-5,-4.568616259926583,-4.942339182370771,-4.868491275068399
1769238017324,123,-5,-4.315413938889604,-4.777644830534611,-4.618633387744048
1769238017328,124,-4,-3.821349823419552,-4.123500241579078,-4.130609182084132
1769238017332,124,-4,-3.116349428531505,-3.9132182504210418,-3.431323417929602
1769238017336,125,-3,-2.4310171410384647,-3.054363793698278,-2.7471580921916208
1769238017340,126,-2,-2.050556681018832,-1.753289647890277,-2.3628372775226247
1769238017344,126,-2,-2.0636217443147293,-2.0204349672670667,-2.3720423245902844
1769238017348,125,-3,-2.2508092621050393,-2.8538014035645425,-2.562046330470286
1769238017352,125,-3,-2.271527166620608,-3.2356557703141164,-2.594650133256606
1769238017356,125,-3,-2.005692622891611,-2.7724909407521174,-2.3449140441230316
1769238017360,126,-2,-1.6854923347190074,-2.0247418580842425,-2.03532505262394
1769238017364,126,-2,-1.5883102712373351,-1.7868565470048656,-1.93561332367723
1769238017368,127,-1,-1.482202063245234,-1.037485528451027,-1.815042655976292
1769238017372,128,0,-0.3534584496464275,-0.1557866172838242,-0.670358548271641
1769238017376,130,2,3.1372410634413077,2.159415245053667,2.825703118178453
1769238017380,136,8,9.565699666031282,7.987726579457829,9.244175774741134
1769238017384,144,16,17.759570610829925,16.251491513075802,17.417125823693546
1769238017388,153,25,24.819614281680614,24.915855486163665,24.45387560336581
1769238017392,157,29,27.425985349354555,28.8423105747967,27.042500641423864
1769238017396,152,24,23.68854373529596,24.09991223871844,23.299174976274855
1769238017400,141,13,14.268177373711698,12.947455481102262,13.888227376612967
1769238017404,128,0,2.003688845020311,0.3088865058355496,1.6447520037414871
1769238017408,118,-10,-9.595796740753745,-10.1612949689647,-9.934531230642706
1769238017412,110,-18,-17.903008822839144,-18.01548239943702,-18.236383444502252
1769238017416,106,-22,-21.896390728834135,-22.052648670271193,-22.24402049647749
1769238017420,106,-22,-21.958927520464357,-21.91746351856842,-22.33205444456945
1769238017424,108,-20,-19.234594045325508,-19.85839992240883,-19.62974839913651
1769238017428,112,-16,-15.05270418297406,-16.03010973051255,-15.45631410895846
1769238017432,117,-11,-10.603304820047768,-11.13875880104614,-11.002416650483289
1769238017436,121,-7,-6.766078344293377,-6.9644839054871746,-7.1564573279054855
1769238017440,124,-4,-3.984832276932627,-4.045862463791318,-4.3709576323245685
1769238017444,125,-3,-2.2329547194792303,-2.765944793373137,-2.6217517267204205
1769238017448,126,-2,-1.166969859968562,-2.160830829760613,-1.5620093245601114
1769238017452,127,-1,-0.4219291176061438,-0.9995661468823044,-0.8227488980988454
1769238017456,128,0,0.1544605613492611,-0.1015047393861749,-0.2506571882552374
1769238017460,128,0,0.4943513406640282,0.04086452608726,0.0851229234078368
1769238017464,128,0,0.4930083107567509,0.1613836611399406,0.0789452656271283
1769238017468,128,0,0.1932015943474166,-0.1773521546323835,-0.2256366260754498
1769238017472,127,-1,-0.1904250460268182,-0.9343984258207958,-0.6124104996227903
1769238017476,127,-1,-0.4085685702685311,-1.2197966703226828,-0.8316784575626202
1769238017480,127,-1,-0.3358674808448803,-0.8311249233031328,-0.759897437045973
1769238017484,128,0,-0.0106078790672184,-0.0056509016708864,-0.4379252740298084
1769238017488,128,0,0.447870112222297,-0.0409929276951566,0.0144056350315144
1769238017492,128,0,0.927032740137963,-0.0689384021399166,0.4868447585990036
1769238017496,129,1,1.3312354053255464,0.8816583990859131,0.886215569866232
1769238017500,129,1,1.5568393618618457,1.062687693548877,1.1089795743629076
1769238017504,129,1,1.516484498305079,1.0532870926649969,1.066087277760904
1769238017508,129,1,1.2129052471563768,0.9001889651211146,0.7591719619637907
1769238017512,128,0,0.7820032409439854,-0.0455193019144208,0.3245453004708746
1769238017516,128,0,0.447451924097365,-0.1451663422438429,-0.0133805630001557
1769238017520,128,0,0.4139456990752606,0.058780485010057,-0.0500259327742292
1769238017524,128,0,0.7736312375921197,0.0449771677892084,0.3060542876688839
1769238017528,129,1,1.4770403236474046,0.8764677437882521,1.0049698501201176
1769238017532,130,2,2.370114707537883,1.9941040630650897,1.8928461424434528
1769238017536,131,3,3.2635654645025474,2.7410504830151945,2.781053701223367
1769238017540,131,3,3.990749610361518,3.2161071256232048,3.503697013742109
1769238017544,132,4,4.432834665457575,3.78948621519282,3.942096457827654
1769238017548,132,4,4.5278503339325455,4.178670317888033,4.03358390202704
1769238017552,132,4,4.286207294793611,3.6294366251089514,3.787822070287775
1769238017556,131,3,3.804503067632067,3.1018982311022176,3.30156930399482
1769238017560,131,3,3.252781601218244,2.852120285754796,2.745799756974406
1769238017564,130,2,2.830278380894818,2.074275454356071,2.3203382187396744
1769238017568,130,2,2.7100850596661235,1.96287648072947,2.197619937575101
1769238017572,131,3,2.9965409107618006,2.7282470378255845,2.4804616160620783
1769238017576,131,3,3.701439303056229,3.1010388227179098,3.1798084309400907
1769238017580,132,4,4.731019230567053,3.711424584381232,4.202673402340142
1769238017584,133,5,5.893318787317572,5.299150857934617,5.358615181992605
1769238017588,135,7,6.958581767567569,6.62565243591238,6.418816158926777
1769238017592,135,7,7.771601134554307,7.116995245374844,7.228307934573657
1769238017596,136,8,8.34458558007595,7.658281440066152,7.79913763320047
1769238017600,136,8,8.850909416300428,8.134759455927357,8.303707146483854
1769238017604,137,9,9.516159139912933,8.857850011958664,8.965821212650535
1769238017608,138,10,10.476796050608431,10.031140749633796,9.920874294907607
1769238017612,139,11,11.68746351292305,10.732048686559075,11.124477837066888
1769238017616,140,12,12.929629304380857,11.997873366261327,12.360051293784815
1769238017620,142,14,13.932031238484225,13.791333001956032,13.35720711537863
1769238017624,142,14,14.542161402555822,14.14808670211587,13.963143348501852
1769238017628,142,14,14.821623076226206,13.738248449960658,14.23934472512749
1769238017632,142,14,14.97814384271399,14.006924981993594,14.393504198028994
1769238017636,143,15,15.193726481477956,14.708089586510212,14.606526389748051
1769238017640,143,15,15.497706631019776,15.044782984329483,14.906181369876906
1769238017644,143,15,15.762916641020896,14.898657097238232,15.16514456277332
1769238017648,143,15,15.783834217786284,14.932688384220617,15.179220758987992
1769238017652,143,15,15.365871723685627,14.845295469642233,14.75490178684873
1769238017656,142,14,14.39195571545676,13.786083340697092,13.775342232664832
1769238017660,140,12,12.853659164361346,11.998732994571592,12.232493357472856
1769238017664,138,10,10.843037758957196,9.880416483896555,10.21905532863678
1769238017668,136,8,8.525927651729354,7.958065480327118,7.900425163348805
1769238017672,134,6,6.120416934242014,5.798532200858701,5.492740807412632
1769238017676,131,3,3.863230648906109,2.804839236877985,3.2308062937225035
1769238017680,129,1,1.931757809620633,0.9743100235100312,1.2917762833539244
1769238017684,128,0,0.350562241760282,-0.1267868398064768,-0.2980898587729381
1769238017688,126,-2,-1.0283863714953658,-2.0535329516477305,-1.6841952502710171
1769238017692,125,-3,-2.416784355606091,-3.1909409327051383,-3.0764660411934246
1769238017696,124,-4,-3.9032284677472937,-4.245867207203255,-4.56412920062766
1769238017700,122,-6,-5.326037131767382,-5.979976257027163,-5.9880336491603385
1769238017704,121,-7,-6.33697381488013,-7.222524693358285,-7.002036697853996
1769238017708,120,-8,-6.6569882619689515,-7.94683486123946,-7.327371492230715
1769238017712,121,-7,-6.34221717692723,-7.336887610052468,-7.019537878508053
1769238017716,122,-6,-5.822475960097514,-6.090968025978067,-6.507798113475913
1769238017720,122,-6,-5.6473304535712,-6.1668234342232005,-6.340640837765973
1769238017724,121,-7,-6.1318881266076435,-7.0763033216258515,-6.831098904465771
1769238017728,120,-8,-7.1758519838758925,-8.091210853718794,-7.877435468530715
1769238017732,119,-9,-8.364149380380354,-9.266259795103773,-9.06579315653506
1769238017736,118,-10,-9.23277449767708,-10.11007347925077,-9.935410790727492
1769238017740,118,-10,-9.501897367041613,-10.217764175938406,-10.208814749584564
1769238017744,118,-10,-9.156861296972329,-9.984237438077866,-9.870915842753572
1769238017748,119,-9,-8.382808676429825,-9.267060792217377,-9.104603119400725
1769238017752,120,-8,-7.434952345724194,-8.066457327369637,-8.163265128401651
1769238017756,121,-7,-6.533385664014277,-7.367668055066782,-7.266654265379435
1769238017760,121,-7,-5.828213671324645,-6.940353445487359,-6.565546645422794
1769238017764,122,-6,-5.4156598613586375,-6.305732437759361,-6.157062568171631
1769238017768,122,-6,-5.345787604130408,-5.971409213269902,-6.091747793167659
1769238017772,122,-6,-5.591110563221595,-6.375350511085551,-6.341694080260805
1769238017776,121,-7,-6.012063795525698,-7.096443863700782,-6.766413033936933
1769238017780,121,-7,-6.375728714746082,-7.184497245846825,-7.132898263356782
1769238017784,121,-7,-6.438963101066154,-7.134120608938509,-7.1992804536234996
1769238017788,121,-7,-6.05835634677216,-7.114341019907571,-6.823514803121783
1769238017792,122,-6,-5.273645303327875,-6.305778926944195,-6.0453461466602825
1769238017796,123,-5,-4.3141986088745305,-5.126203728359551,-5.092861820161483
1769238017800,124,-4,-3.505047525680987,-4.216769595636812,-4.289667885605862
1769238017804,124,-4,-3.1107073982320497,-4.0887386368630985,-3.8997337735814
1769238017808,124,-4,-3.206382190002152,-4.221841696365953,-3.998886309323479
1769238017812,124,-4,-3.6529367996459294,-4.200106164178619,-4.44897448473905
1769238017816,123,-5,-4.187723954838206,-5.2606147558162535,-4.987428295191856
1769238017820,122,-6,-4.573207095438942,-6.08031415803015,-5.376067187206496
1769238017824,123,-5,-4.702186433973553,-5.261399244758025,-5.50803492269482
1769238017828,123,-5,-4.588669023140209,-5.047589208555073,-5.398970587946723
1769238017832,123,-5,-4.284834915680121,-5.440428924681246,-5.101780675002781
1769238017836,123,-5,-3.839644710277621,-4.971833642478485,-4.663795912441681
1769238017840,124,-4,-3.341414446313234,-4.455774460674505,-4.1710188348302015
1769238017844,124,-4,-2.954751308886276,-3.8538860709420257,-3.787596695116709
1769238017848,125,-3,-2.8540604190272805,-3.511328673261163,-3.689511126347118
1769238017852,124,-4,-3.0859168700177197,-3.990454842558293,-3.924910361144988
1769238017856,124,-4,-3.498245748920245,-4.415210624578223,-4.3416486801247425
1769238017860,123,-5,-3.8283410891575658,-5.084109750457293,-4.675840930003555
1769238017864,123,-5,-3.8888765355132855,-5.18576298188861,-4.739754672846462
1769238017868,124,-4,-3.690204190770861,-4.267381817170585,-4.5448699408556354
1769238017872,124,-4,-3.3975998602150677,-4.166969618908433,-4.257626225620141
1769238017876,124,-4,-3.1820887518693644,-4.33348030537736,-4.0484560232246105
1769238017880,124,-4,-3.109515366312263,-4.1256401394812094,-3.981297772110847
1769238017884,124,-4,-3.143714428932858,-4.230554481358966,-4.0188758541846585
1769238017888,124,-4,-3.2175431099841356,-4.210775402276831,-4.094820219527472
1769238017892,124,-4,-3.284566122055118,-4.227581855407207,-4.164399342293879
1769238017896,124,-4,-3.316570776990513,-4.31304796873845,-4.200409014159352
1769238017900,124,-4,-3.2789549683729837,-4.135159354781864,-4.167819508009306
1769238017904,124,-4,-3.132681981469569,-4.2973457750883775,-4.026340344293187
1769238017908,124,-4,-2.8715263082985927,-4.126973897749728,-3.769040694342321
1769238017912,125,-3,-2.5524488845178936,-3.3353156830826376,-3.4534776274896464
1769238017916,125,-3,-2.2756429179263296,-3.211120630156872,-3.180902754419358
1769238017920,125,-3,-2.124680936063383,-3.269201252242956,-3.0349712179052566
1769238017924,125,-3,-2.1182135159532276,-3.193954781551359,-3.033284681853807
1769238017928,125,-3,-2.2038885726161768,-3.2628493181955665,-3.1224874546038808
1769238017932,125,-3,-2.282407883169304,-3.1856346915383513,-3.2032178393582225
1769238017936,125,-3,-2.2412001371734744,-3.3908429413102104,-3.163696921198549
1769238017940,125,-3,-1.9930155216507328,-3.0991781034962917,-2.917889936180109
1769238017944,126,-2,-1.5176030895238029,-2.4090149675377277,-2.4466324583424592
1769238017948,126,-2,-0.8941614271942195,-2.068756101916934,-1.8291992509964223
1769238017952,127,-1,-0.3058446962577303,-1.3729020640460694,-1.2473494617639185
1769238017956,127,-1,0.0038546754443999,-1.233068118078945,-0.9427290596259832
1769238017960,127,-1,-0.1668372918655956,-1.2628458209919922,-1.116501975633884
1769238017964,127,-1,-0.8497348711305812,-1.3177441541967814,-1.8013215117130374
1769238017968,125,-3,-1.8413151538843833,-3.1332059573890985,-2.7945566349629036
1769238017972,124,-4,-2.7802773593910204,-4.376068971618532,-3.7352053767384232
1769238017976,124,-4,-3.3372222886305916,-4.163505189317023,-4.294471071393351
1769238017980,124,-4,-3.3788370934161236,-4.436924018142797,-4.340144915295818
1769238017984,124,-4,-2.9958311577213492,-4.105519796910299,-3.9630458521934497
1769238017988,125,-3,-2.407820955451623,-3.4025451671112656,-3.381051061279899
1769238017992,125,-3,-1.836374745656015,-3.106678159988145,-2.8136485316958235
1769238017996,126,-2,-1.419397766057015,-2.4407908488744847,-2.3984911853551396
1769238018000,126,-2,-1.1882801076112384,-2.212111384544247,-2.168755317619209
1769238018004,126,-2,-1.0978049096936158,-2.331865593126614,-2.0811280817201445
1769238018008,126,-2,-1.0842124789926593,-2.217930936222164,-2.071998515006879
1769238018012,126,-2,-1.1136016075925446,-2.278024147000188,-2.105906183555679
1769238018016,126,-2,-1.1839383530069656,-2.3106807730796763,-2.179277831771595
1769238018020,126,-2,-1.2777821771421474,-2.3409282895831045,-2.2747349040743763
1769238018024,126,-2,-1.3127586248200611,-2.25997193963832,-2.3113879898271983
1769238018028,126,-2,-1.1561765580284933,-2.274858558871151,-2.1577834689355373
1769238018032,126,-2,-0.7235370519649806,-2.265547276137333,-1.7292890318796958
1769238018036,127,-1,-0.0895198348219428,-1.3074906883358322,-1.0997567935126404
1769238018040,128,0,0.5055704736917188,-0.3988598949159375,-0.5090963966988551
1769238018044,128,0,0.7953156223612332,-0.2000019241291228,-0.2235510866368414
1769238018048,128,0,0.6726926080766511,-0.3790185672145555,-0.3493549401677746
1769238018052,127,-1,0.2665979992444351,-1.1536294102417517,-0.756708463213229
1769238018056,127,-1,-0.1490201802201127,-1.4699146260800904,-1.1721991731533363
1769238018060,127,-1,-0.32949189162283,-1.2298559851363824,-1.3533378463351098
1769238018064,127,-1,-0.1879684427246684,-1.4088115847347344,-1.2151814106426448
1769238018068,127,-1,0.1853584931415506,-1.1669197224292915,-0.847749263216703
1769238018072,128,0,0.5963987215880877,-0.3876696224895862,-0.443189478738107
1769238018076,128,0,0.861678346898417,-0.2715863621467817,-0.182871154083482
1769238018080,128,0,0.9093841302630166,-0.4380025465831186,-0.1375213078350467
1769238018084,128,0,0.8217926011672001,-0.2378573638834557,-0.225121341274734
1769238018088,128,0,0.8009513909796357,-0.3288387230934265,-0.2449970254138498
1769238018092,128,0,1.0721544346289975,-0.271922866157584,0.0262398045438524
1769238018096,129,1,1.7638908564710345,0.6232760586222437,0.7154195156222025
1769238018100,130,2,2.8168727120971395,1.6101698212388325,1.7627535797880198
1769238018104,131,3,3.9701386326352335,2.7301196035633604,2.908653024567169
1769238018108,132,4,4.84298965661825,3.663461927991059,3.7752210379714386
1769238018112,132,4,5.091439444497235,3.7289018686898094,4.02073634700178
1769238018116,132,4,4.580418097692828,3.5842843330530787,3.509983459421703
1769238018120,131,3,3.4829196006944017,2.6277059499096445,2.413740836883978
1769238018124,129,1,2.2215182881343245,0.6957596846311443,1.152432145118476
1769238018128,128,0,1.2486282905194948,-0.3166333651393819,0.1776932335421246
1769238018132,128,0,0.7923336289127467,-0.301147417340451,-0.2823081705044868
1769238018136,128,0,0.748205191775428,-0.4149044068147278,-0.3316898255102085
1769238018140,128,0,0.7918324401596346,-0.3833715466994727,-0.2939549854531968
1769238018144,128,0,0.6125972692465524,-0.3137680225698347,-0.4779289242566551
1769238018148,127,-1,0.0908097719994376,-1.3319616957932583,-1.0016526775609524
1769238018152,126,-2,-0.6853429068365245,-2.3103326499308783,-1.77719523269767
1769238018156,126,-2,-1.5261216670736049,-2.4303009074470108,-2.6173478607913463
1769238018160,125,-3,-2.259273120826425,-3.378314367937323,-3.352493272349936
1769238018164,124,-4,-2.790744089799936,-4.336648769381637,-3.888702418550898
1769238018168,124,-4,-3.107195196526966,-4.314099126033172,-4.210264435530318
1769238018172,124,-4,-3.24294604303078,-4.377086303538591,-4.349037391001715
1769238018176,124,-4,-3.2328646349021626,-4.36716650268653,-4.339333506878291
1769238018180,124,-4,-3.0852679118583426,-4.465945987655413,-4.1911604326914915
1769238018184,124,-4,-2.801619012694532,-4.257865557073906,-3.9090453485168193
1769238018188,125,-3,-2.424562353847024,-3.413114323992729,-3.537850139263301
1769238018192,125,-3,-2.065657909872269,-3.3130740065700075,-3.187559567701205
1769238018196,125,-3,-1.88137591454036,-3.447407861953505,-3.0090067974208616
1769238018200,125,-3,-1.9937496664903689,-3.398706312891634,-3.1193522231245563
1769238018204,125,-3,-2.3755069409277465,-3.3456537901243637,-3.4931957132343876
1769238018208,125,-3,-2.7744108248662283,-3.344870913510608,-3.8868414309156214
1769238018212,124,-4,-2.799793295122599,-4.403366128637323,-3.917542890357236
1769238018216,124,-4,-2.2023458569018657,-4.387433865001779,-3.335849405393085
1769238018220,126,-2,-1.1436109744843552,-2.45604906144576,-2.294459382888967
1769238018224,127,-1,-0.1316645172870374,-1.316139382716042,-1.2901773083953798
1769238018228,128,0,0.4707331890970316,-0.3843588704001892,-0.6803340459341432
1769238018232,129,1,1.0198659629300422,0.6208508661202827,-0.1135917541088269
1769238018236,130,2,2.6733122630005908,1.5290629160651528,1.5552369383466775
1769238018240,133,5,6.676389748469107,4.636266734794863,5.560343966477668
1769238018244,139,11,13.19272850340851,10.566707337265656,12.062820136460031
1769238018248,147,19,20.551125238843102,18.74318392835275,19.397783675373347
1769238018252,154,26,25.674917022974736,25.492447714020937,24.498729899270668
1769238018256,154,26,25.644419234334254,25.58180155924864,24.4550951533614
1769238018260,147,19,19.41826103573555,18.561060595374503,18.230788536952748
1769238018264,135,7,8.523562464904781,6.535302401778484,7.352096888714053
1769238018268,122,-6,-3.742414933383168,-6.195073026680427,-4.891935386701776
1769238018272,113,-15,-13.989617696631251,-15.600421786593628,-15.123967450444797
1769238018276,107,-21,-20.165402091549204,-21.22969554406211,-21.301107631625015
1769238018280,106,-22,-21.98134674601703,-22.675968644606805,-23.134843030790293
1769238018284,107,-21,-20.40113565782778,-21.199012046608622,-21.57871022899767
1769238018288,110,-18,-16.81360023333645,-18.559250080201323,-18.008478479305506
1769238018292,114,-14,-12.465391325105475,-14.23055326426363,-13.663720208408124
1769238018296,119,-9,-8.289121968922057,-9.622076731274383,-9.47976836081868
1769238018300,122,-6,-4.91182438602575,-6.2998415522460105,-6.092639205108426
1769238018304,125,-3,-2.6293861119898927,-3.599607807816635,-3.806200315253279
1769238018308,126,-2,-1.3565721959669286,-2.218416616645431,-2.53693890547187
1769238018312,126,-2,-0.7042277172224483,-2.5909145181078586,-1.8914845093259376
1769238018316,126,-2,-0.2355480693941006,-2.2619696890500363,-1.4279277552115015
1769238018320,128,0,0.2629971437147621,-0.6611677878345996,-0.9314796250920384
1769238018324,128,0,0.7202464118874597,-0.2538272669272126,-0.4756714762063208
1769238018328,128,0,0.9598249382421166,-0.6038291284523344,-0.2390308718108927
1769238018332,128,0,0.925749723115527,-0.2295990199461035,-0.2771527458914308
1769238018336,128,0,0.747695315568234,-0.6378375029100433,-0.4585323738552413
1769238018340,127,-1,0.6194439650231945,-1.2998935488254,-0.588321323966503
1769238018344,128,0,0.6344485521057309,-0.611627358789096,-0.5737737234063767
1769238018348,128,0,0.7399896689434539,-0.2972966092584678,-0.469331451154414
1769238018352,128,0,0.8383347663077059,-0.5413617766273789,-0.3737356414686426
1769238018356,128,0,0.9124899678274244,-0.3584008132713301,-0.3033532469174542
1769238018360,128,0,1.0399407920432235,-0.5739755940843256,-0.1793403000636265
1769238018364,128,0,1.2885129285958266,-0.3797551188829772,0.0666725186658153
1769238018368,129,1,1.615449458518419,0.4762482856397233,0.3913936299258715
1769238018372,129,1,1.881769120690175,0.6258514074282095,0.6553746781786653
1769238018376,129,1,1.9710423156025507,0.5000018296959313,0.7424919865697432
1769238018380,129,1,1.9011508098447047,0.517596784491688,0.670904074344917
1769238018384,129,1,1.8308226122399451,0.5313608341670659,0.5987877391992311
1769238018388,129,1,1.9530001868060245,0.5178254437851386,0.7184529816750314
1769238018392,129,1,2.3512787796719024,0.5854465228884389,1.1138071207739493
1769238018396,130,2,2.929124145402018,1.515152961799625,1.6890212186183522
1769238018400,131,3,3.4794588077871222,2.5018530510006785,2.2369658861710167
1769238018404,131,3,3.846778668642554,2.5105092221548317,2.601626179885058
1769238018408,131,3,4.0368120072096385,2.5191960739386348,2.7889125900561096
1769238018412,131,3,4.169633221360508,2.554511239780931,2.91961477812548
1769238018416,131,3,4.330995620841219,2.5408600053845443,3.07936488422949
1769238018420,132,4,4.482167412994902,3.448421475794931,3.228305330848922
1769238018424,132,4,4.518375837514973,3.5802103485111716,3.261276747697714
1769238018428,131,3,4.402131263034337,2.3763910111579043,3.142061963666984
1769238018432,131,3,4.231735329693573,2.720132233373897,2.9700872577003383
1769238018436,132,4,4.193343883744047,3.313158129706506,2.930693536536893
1769238018440,131,3,4.450986318994486,2.6914781125881304,3.1863971895151795
1769238018444,132,4,5.0496388318899195,3.329218854082928,3.782089505940589
1769238018448,133,5,5.88718555590718,4.5830394023544985,4.616616385652055
1769238018452,134,6,6.784232027927759,5.514661818012183,5.510961447083321
1769238018456,135,7,7.61077972566076,6.450863950989237,6.334954009031816
1769238018460,135,7,8.360341558487729,6.612838656612526,7.082360148893679
1769238018464,136,8,9.10250353994424,7.307248485843401,7.823071319119352
1769238018468,137,9,9.873024719434998,8.675921695779783,8.592179504371058
1769238018472,138,10,10.622013308420648,9.290772690374643,9.33873300407736
1769238018476,138,10,11.26340273882243,9.75403129072648,9.976805517452071
1769238018480,139,11,11.760711576467465,10.23552776974003,10.471225021508584
1769238018484,139,11,12.168451355518444,10.69811330815921,10.87722330406112
1769238018488,140,12,12.607750029497495,11.252957478270904,11.315237241046626
1769238018492,140,12,13.20138412297185,11.661328965745,11.907166536242157
1769238018496,141,13,14.003377854257383,12.427355970121798,12.707241075436178
1769238018500,142,14,14.958207142075585,13.4845787650601,13.660657776909323
1769238018504,143,15,15.915015019471996,14.508379381953423,14.616320959677664
1769238018508,144,16,16.68650158662989,15.329082011809216,15.385590125808143
1769238018512,144,16,17.102750050124595,15.636332681088776,15.797748251087013
1769238018516,144,16,17.017822977520897,15.377169277707,15.7080219318214
1769238018520,143,15,16.28926762869743,14.56376743735007,14.976273188297144
1769238018524,142,14,14.801857726688334,13.39159450933932,13.4883512383202
1769238018528,140,12,12.569830467317589,11.409595322899666,11.257220901812977
1769238018532,137,9,9.84042551513716,8.559957933162472,8.528098452831781
1769238018536,134,6,7.06045411028448,5.402960847395308,5.747150230283342
1769238018540,131,3,4.6637009556882365,2.5704426316421176,3.348689661475814
1769238018544,130,2,2.822455554312234,1.323299450772792,1.5049563827635637
1769238018548,129,1,1.3745634795044408,0.4982385239034175,0.0531499911482438
1769238018552,127,-1,-0.0124587804675422,-1.575727688383493,-1.338575017997799
1769238018556,125,-3,-1.5881876990123684,-3.455060113884407,-2.917615745628201
1769238018560,124,-4,-3.369740965446817,-4.611246932283082,-4.699705106344442
1769238018564,122,-6,-5.165321091951566,-6.516085751154933,-6.493933901037312
1769238018568,120,-8,-6.714302430964876,-8.683253663436147,-8.041639511457516
1769238018572,119,-9,-7.840610333496093,-9.396474235673214,-9.168196180394062
1769238018576,119,-9,-8.526440560803502,-9.650333753937463,-9.856363776301036
1769238018580,118,-10,-8.875348714080626,-10.4447637223206,-10.209313324373664
1769238018584,118,-10,-9.020546445157642,-10.692209594808316,-10.358873089780042
1769238018588,118,-10,-9.059830887511769,-10.552185599795894,-10.401111519670495
1769238018592,118,-10,-9.042342940043175,-10.50886009943314,-10.384114669464886
1769238018596,118,-10,-8.977697152218221,-10.590518504451872,-10.317782348478516
1769238018600,118,-10,-8.839708156445894,-10.485567050870534,-10.17772604882422
1769238018604,119,-9,-8.569243875999785,-9.716817723921148,-9.907249319435293
1769238018608,119,-9,-8.105910449337358,-9.510473026523544,-9.446944245797008
1769238018612,119,-9,-7.4655222277323166,-9.59045827953993,-8.811007080110631
1769238018616,120,-8,-6.8126408172723405,-8.511188566941751,-8.161548085105668
1769238018620,121,-7,-6.422815465771074,-7.5796974457340145,-7.773361746207321
1769238018624,121,-7,-6.501960019408555,-7.676564518311231,-7.853034219282079
1769238018628,120,-8,-6.995942798455456,-8.522207888623644,-8.346468861214106
1769238018632,119,-9,-7.577865834060277,-9.648392961118027,-8.926257012001855
1769238018636,119,-9,-7.846230082409304,-9.432387164788432,-9.192042474618846
1769238018640,120,-8,-7.574272987977372,-8.696726123937598,-8.919967598854829
1769238018644,120,-8,-6.8305457765274475,-8.571811544503246,-8.180134185861315
1769238018648,121,-7,-5.922787243460847,-7.614945552043873,-7.27831687073659
1769238018652,122,-6,-5.229298956482506,-6.615207596762038,-6.5890906132278255
1769238018656,122,-6,-5.007592305971797,-6.460813500313078,-6.367730019796727
1769238018660,122,-6,-5.265620341248069,-6.722685548792847,-6.6227185388915455
1769238018664,121,-7,-5.763392685496758,-7.527531602156643,-7.116475350559416
1769238018668,121,-7,-6.149436900194707,-7.697780384219649,-7.500233750205616
1769238018672,121,-7,-6.153681276704277,-7.532652185398046,-7.505361735574582
1769238018676,121,-7,-5.72645493523534,-7.580199975329683,-7.081489877662527
1769238018680,122,-6,-5.049670087790181,-6.6130280253455345,-6.408398179963405
1769238018684,123,-5,-4.416213670360822,-5.64180392051911,-5.777119342752074
1769238018688,123,-5,-4.048666887222099,-5.616685161769078,-5.409652202821287
1769238018692,123,-5,-3.973485556890833,-5.6235866013075,-5.332911265549473
1769238018696,123,-5,-4.033036776329967,-5.5275483438109285,-5.390175861568718
1769238018700,123,-5,-4.016712992856315,-5.684259020384402,-5.371843729825438
1769238018704,123,-5,-3.8089066341161497,-5.562439079411363,-5.163226442301917
1769238018708,124,-4,-3.4519642595552886,-4.734120054234891,-4.8072355622804395
1769238018712,124,-4,-3.0975512890225874,-4.4918022301978535,-4.4552233368762
1769238018716,124,-4,-2.905247386112205,-4.7324089034468155,-4.265355982584367
1769238018720,124,-4,-2.968441518326533,-4.455608717282798,-4.329323389454745
1769238018724,124,-4,-3.2951398241457475,-4.839017499666024,-4.654453506106915
1769238018728,123,-5,-3.817526238454898,-5.452356936499885,-5.173781673005256
1769238018732,123,-5,-4.405694522169479,-5.785556112357909,-5.759157685063319
1769238018736,122,-6,-4.892873381668112,-6.497272411337063,-6.245305001989517
1769238018740,122,-6,-5.129875550952821,-6.662151542253249,-6.4832512447398996
1769238018744,122,-6,-5.059532239458568,-6.697274174472541,-6.414592583246623
1769238018748,122,-6,-4.762349475464457,-6.5524487528762805,-6.1181811056668405
1769238018752,123,-5,-4.418656366666786,-5.74599606865514,-5.773680657842192
1769238018756,123,-5,-4.1889431581807965,-5.538019986800264,-5.542218270158609
1769238018760,123,-5,-4.096860775462515,-5.6537001646543805,-5.44839527359517
1769238018764,123,-5,-4.0187017094948425,-5.727808361419201,-5.368875333651524
1769238018768,123,-5,-3.796454330980757,-5.510525055996667,-5.145560231214305
1769238018772,124,-4,-3.3770578515432677,-4.843776262130335,-4.7253104432815
1769238018776,124,-4,-2.857668198259082,-4.416100472443215,-4.2052390030275255
1769238018780,125,-3,-2.4058956556018383,-3.837278371396247,-3.7527934058008854
1769238018784,125,-3,-2.1330140046191985,-3.528631168325255,-3.479056029366666
1769238018788,125,-3,-2.0301185608731687,-3.7406138617400506,-3.375074492931657
1769238018792,125,-3,-2.0133430644355284,-3.646848435484319,-3.357070358742781
1769238018796,125,-3,-2.0245186826817023,-3.5975376313243,-3.3669843060878284
1769238018800,125,-3,-2.0857153154586245,-3.7247338685840647,-3.426935482435818
1769238018804,125,-3,-2.253285897009562,-3.593676904754104,-3.593150848219871
1769238018808,125,-3,-2.517961690339893,-3.747943379146493,-3.855950252001621
1769238018812,124,-4,-2.757806331969646,-4.620945320846538,-4.0930976036876725
1769238018816,124,-4,-2.804387216927459,-4.670797966436815,-4.136861773589489
1769238018820,125,-3,-2.5697746055223813,-3.659599835144196,-3.900871641362964
1769238018824,125,-3,-2.1253665764091725,-3.6596876986971374,-3.4570478996438947
1769238018828,125,-3,-1.6745265346733855,-3.7143079253239217,-3.0070585832794405
1769238018832,126,-2,-1.4394265376861584,-2.653276877584251,-2.7708306570717376
1769238018836,126,-2,-1.5231409865805157,-2.692968553593022,-2.851020083661956
1769238018840,125,-3,-1.8298747825392288,-3.6419532308778977,-3.1533191681590447
1769238018844,125,-3,-2.115368520649405,-3.683037789731327,-3.435252068339617
1769238018848,125,-3,-2.152270978085355,-3.719095970851606,-3.470378995173732
1769238018852,125,-3,-1.8904602204026209,-3.648416490478198,-3.2083304116701727
1769238018856,126,-2,-1.4858824255016063,-2.749646822447711,-2.8038323329477635
1769238018860,126,-2,-1.1773662054321106,-2.560499903847661,-2.494237405142507
1769238018864,126,-2,-1.1110298635971048,-2.8260704448504494,-2.4250452138999403
1769238018868,126,-2,-1.24671786927927,-2.5370260749812834,-2.5568776689198787
1769238018872,126,-2,-1.4121636839258056,-2.919387615948651,-2.71883551069703
1769238018876,125,-3,-1.4583967949991872,-3.446430243158982,-2.7626767627289595
1769238018880,126,-2,-1.390588603617751,-2.9106482734711165,-2.693499481136322
1769238018884,126,-2,-1.3598458394440036,-2.4655249131940056,-2.6620235506790224
1769238018888,126,-2,-1.5167525971976734,-2.913610737455017,-2.8180642828646856
1769238018892,125,-3,-1.8571268254444944,-3.5929796725179948,-3.1562856429624393
1769238018896,125,-3,-2.1966657411761603,-3.757255328678244,-3.49184090802565
1769238018900,125,-3,-2.2869414348480586,-3.676690568570821,-3.577178208369034
1769238018904,125,-3,-1.970903795609651,-3.623052521225896,-3.2568798044435088
1769238018908,126,-2,-1.2689875430102522,-2.8556721629139408,-2.552542090652052
1769238018912,127,-1,-0.3550058153516955,-1.5844245010017048,-1.638112595978684
1769238018916,128,0,0.5430493097989237,-0.8816845788971683,-0.7406283621358036
1769238018920,128,0,1.242099477367739,-0.4997830056918762,-0.0413882698375123
1769238018924,129,1,1.6506274935316567,0.1450284670513172,0.3696946858631021
1769238018928,129,1,1.7722479402038862,0.3838092572538693,0.4964116416780032
1769238018932,129,1,1.7021557786682908,0.1546308329967147,0.4324472432335819
1769238018936,129,1,1.6171792900513138,0.3260759311093135,0.3525163814333657
1769238018940,129,1,1.722775589020661,0.3238915846387536,0.4608598390291967
1769238018944,129,1,2.143002463228728,0.2575453026395278,0.8818522701760902
1769238018948,130,2,2.8112772892874127,1.3163042024100935,1.5501141702437242
1769238018952,131,3,3.462307151561216,2.156642904187796,2.2015078805181543
1769238018956,131,3,3.7689584590669822,2.316264194674628,2.5098227122748975
1769238018960,131,3,3.5447448002707285,2.3246906689554447,2.28932301843084
1769238018964,130,2,2.864564633654024,1.2167407017604863,1.614822743106186
1769238018968,129,1,2.015720867351789,0.3686893171984062,0.771960607709521
1769238018972,129,1,1.3198680855549951,0.0644996659889834,0.0800010809604077
1769238018976,128,0,0.9488511319871756,-0.6108189418249528,-0.290009113897819
1769238018980,128,0,0.8435853094537349,-0.7333167420617305,-0.3953309022026098
1769238018984,128,0,0.7763250899593344,-0.7772665777138325,-0.461277458637704
1769238018988,128,0,0.5201783936523985,-0.6100173915793172,-0.7143131322059723
1769238018992,128,0,0.0178741988304635,-1.0283872742400693,-1.2129988864995231
1769238018996,126,-2,-0.5828213616264131,-2.504623953728069,-1.8102224198939385
1769238019000,126,-2,-1.0680319708070611,-2.867204971538281,-2.291540594531683
1769238019004,126,-2,-1.3477010770865216,-2.665241335428804,-2.5669130631514383
1769238019008,126,-2,-1.5142916680729803,-2.703811884829082,-2.730261105375978
1769238019012,126,-2,-1.7242795360617558,-3.003091602096529,-2.9392160757825403
1769238019016,125,-3,-2.0391301730893545,-3.487787867557961,-3.254174052225015
1769238019020,125,-3,-2.386079387831498,-3.968625282556369,-3.5997015499881475
1769238019024,124,-4,-2.6535164763365255,-4.53384319706441,-3.86258344169135
1769238019028,125,-3,-2.795308106368223,-3.874117414934516,-3.997916683840404
1769238019032,125,-3,-2.8328717156512035,-3.8361461019345606,-4.030140479756174
1769238019036,124,-4,-2.7804288876343293,-4.6596650834318645,-3.975692230575938
1769238019040,125,-3,-2.6069332809244026,-3.848753960939355,-3.8032663093685457
1769238019044,125,-3,-2.2901650721271047,-3.643067730488625,-3.4879012120294988
1769238019048,125,-3,-1.9006815829147468,-3.811891377647141,-3.0963741993695164
1769238019052,126,-2,-1.6084217159856522,-2.8783593312407296,-2.796771038923416
1769238019056,126,-2,-1.569678791790536,-2.635161012991337,-2.7481921801091613
1769238019060,126,-2,-1.7771510556743375,-2.9331505488276117,-2.9497939442283947
1769238019064,125,-3,-2.030027206926767,-3.523322660943191,-3.205540242442179
1769238019068,125,-3,-2.0920220825281817,-4.02155333023443,-3.2770164973368687
1769238019072,125,-3,-1.8931981505095048,-3.6043994430943,-3.085489758616173
1769238019076,126,-2,-1.518737802344178,-2.9634034835808474,-2.7072193589878584
1769238019080,127,-1,-0.8959518550482288,-1.6192710787409972,-2.0681524005272753
1769238019084,129,1,0.5539443589232325,0.1751004586870623,-0.5975287716225837
1769238019088,131,3,3.834190581976075,2.197351346809135,2.6964298773759756
1769238019092,136,8,9.649931468789203,7.2440210543767485,8.512172261628455
1769238019096,144,16,17.44013261220545,15.10760201424199,16.290198534754847
1769238019100,152,24,24.986272750756072,23.35673209126647,23.819271254798753
1769238019104,158,30,29.16219699666668,29.142954737382787,27.98192066753546
1769238019108,156,28,27.535095008128767,27.21912781987526,26.35231089299114
1769238019112,147,19,19.78437652932301,18.14000510701773,18.612666042795528
1769238019116,135,7,7.958500897664217,6.179249497390992,6.807934528338889
1769238019120,122,-6,-4.5788295823285186,-6.748285442272639,-5.707386083317998
1769238019124,112,-16,-14.75871603096585,-16.70526310431831,-15.874408797154992
1769238019128,107,-21,-20.95098181770133,-21.888223952885465,-22.06777368172429
1769238019132,105,-23,-23.101442712333423,-23.754057985846124,-24.23027815132863
1769238019136,106,-22,-22.090564211032245,-22.9652419328024,-23.233676232288293
1769238019140,108,-20,-18.98778099080493,-20.641361817894847,-20.138337239586072
1769238019144,112,-16,-14.714433951932044,-16.84036151925008,-15.861752820524586
1769238019148,117,-11,-10.10357667237328,-11.732120758973844,-11.240574543091851
1769238019152,122,-6,-5.985304772698496,-6.940387822968944,-7.112654673985588
1769238019156,125,-3,-3.0334085900044214,-3.814916814103827,-4.157067170346641
1769238019160,126,-2,-1.4851842256797654,-2.829202427566739,-2.60984316176963
1769238019164,126,-2,-1.047619104238854,-2.6933411123676003,-2.1725767681696517
1769238019168,126,-2,-1.1310596640145816,-2.845327335647341,-2.252385567477102
1769238019172,126,-2,-1.2284542364453277,-2.867531709823714,-2.344593160070172
1769238019176,127,-1,-1.1374490406757898,-1.8644304017933304,-2.2516820928326498
1769238019180,127,-1,-0.905167764449918,-1.8397158998508991,-2.0219335645305607
1769238019184,126,-2,-0.6360425462253123,-2.6782195289941573,-1.7555782097146668
1769238019188,127,-1,-0.3641777724115236,-1.8827004971854264,-1.4822287541514834
1769238019192,128,0,-0.0464246039237049,-0.835187099975974,-1.159220158460447
1769238019196,128,0,0.3876885601447,-0.9175087481119,-0.7203778650479903
1769238019200,128,0,0.9739544269591632,-0.8030891830873408,-0.1328892493218147
1769238019204,129,1,1.6513292694662214,0.2625553677650107,0.5428614753738852
1769238019208,130,2,2.2460311110579676,1.1600205026860009,1.1356126754962894
1769238019212,130,2,2.552090961717284,1.1121929787004148,1.4414291748433037
1769238019216,130,2,2.475485511842185,1.1271430657742882,1.3669205630497268
1769238019220,130,2,2.1338343250966507,1.1182745208889728,1.0290585768114309
1769238019224,129,1,1.821546100998351,0.3306325124305869,0.7208862373774014
1769238019228,129,1,1.8438267068779468,0.0595056658008603,0.7460457671935621
1769238019232,130,2,2.3246052098755055,1.224820441443789,1.2271448050092817
1769238019236,131,3,3.122547657946366,2.002477005463319,2.0226649916597377
1769238019240,131,3,3.909598709007671,2.2133110572176853,2.806251106706819
1769238019244,132,4,4.35187581444153,3.2304136524522717,3.2467289653888796
1769238019248,132,4,4.283651809406213,3.1080177608944557,3.1800205516688473
1769238019252,131,3,3.787955992955866,2.188044620418249,2.688557414315526
1769238019256,131,3,3.1491540337500727,2.0214134884696993,2.054384328421448
1769238019260,130,2,2.70592822554949,1.1803387068908728,1.6136324170979215
1769238019264,130,2,2.68567629671057,1.2354507174278655,1.5925183176483344
1769238019268,131,3,3.1078184265082833,2.1003582299160786,2.011566634622432
1769238019272,131,3,3.7994555164200823,2.1660676985237575,2.7005520644330065
1769238019276,132,4,4.507343071704426,3.065411728584647,3.408174826086448
1769238019280,133,5,5.047268163536123,4.0853303263750185,3.9497649599159983
1769238019284,133,5,5.407025091314095,4.322758568527262,4.311336676888019
1769238019288,133,5,5.725924544964499,3.982296930017002,4.6313269939498305
1769238019292,133,5,6.155088352921769,4.280428818657729,5.060994261704157
1769238019296,135,7,6.720510859454021,5.945876838316406,5.626069301077334
1769238019300,135,7,7.319542859584983,6.183975470135788,6.223513967622152
1769238019304,135,7,7.8404728463254,6.204026010370832,6.742617842930346
1769238019308,136,8,8.273331635069354,7.086430341492198,7.175269081741385
1769238019312,136,8,8.717387315986407,7.146556525449178,7.621032399763088
1769238019316,137,9,9.306332784088523,8.085805409705314,8.211664495244884
1769238019320,138,10,10.122554079882212,9.020700955692892,9.02762098557765
1769238019324,138,10,11.146285203550146,9.36257333471496,10.049310773730967
1769238019328,140,12,12.257616956245611,10.892011147093518,11.158453671306546
1769238019332,141,13,13.298512474353888,12.3373504158258,12.198147365146372
1769238019336,142,14,14.16782679745602,12.87271676915112,13.067350184624626
1769238019340,142,14,14.877304570845462,13.225052035742223,13.777492726174858
1769238019344,143,15,15.516425380684852,14.15826504167068,14.41741577089376
1769238019348,144,16,16.15801481789537,15.024208259989194,15.058946099612374
1769238019352,144,16,16.78423973109639,15.25894028722846,15.683698718858697
1769238019356,145,17,17.280147012412613,15.868054946869844,16.17729146273778
1769238019360,145,17,17.487987462863,16.296549211613847,16.383141581238327
1769238019364,145,17,17.284635814828388,16.000731055725325,16.17891614355151
1769238019368,144,16,16.633396744426935,15.18976878454644,15.527872082498938
1769238019372,143,15,15.57824031313631,14.07690495501609,14.473088507728503
1769238019376,142,14,14.19377635957469,13.01226956672176,13.08796467541973
1769238019380,140,12,12.535547928963837,11.204105717631805,11.427612444547222
1769238019384,138,10,10.623985696328138,8.996913007486366,9.513406459504534
1769238019388,136,8,8.468146368013684,7.244897398216657,7.355854425027196
1769238019392,134,6,6.115281942907875,4.944377270975832,5.002768170525328
1769238019396,131,3,3.691199912870129,2.174670705088438,2.5792182613664534
1769238019400,129,1,1.3876158174881563,0.032320599965612,0.2756028715547984
1769238019404,127,-1,-0.6143367640654098,-1.880915271729941,-1.7278058472281637
1769238019408,125,-3,-2.239126949981249,-3.846689632465455,-3.355291258600515
1769238019412,124,-4,-3.5575871187725125,-5.0516109503393185,-4.676757150522781
1769238019416,123,-5,-4.728975561442326,-5.74565860034301,-5.8505511014725835
1769238019420,122,-6,-5.873997033832447,-7.1478149034266405,-6.996849488933208
1769238019424,120,-8,-6.974501573378225,-8.638569458789858,-8.097467576121616
1769238019428,120,-8,-7.881408464428006,-9.189601710710216,-9.004039307431938
1769238019432,119,-9,-8.422411355331679,-9.67254148547336,-9.545446200631208
1769238019436,119,-9,-8.527082903572754,-10.152357659768317,-9.65189651016822
1769238019440,119,-9,-8.285493926825563,-9.741569880161824,-9.41308025817996
1769238019444,120,-8,-7.90414979830069,-9.044462835542848,-9.03473900825407
1769238019448,120,-8,-7.589276428530848,-8.861820385596697,-8.722491792560872
1769238019452,120,-8,-7.442163132198316,-8.954062517471165,-8.57711529260225
1769238019456,120,-8,-7.441458127964568,-8.9453813496127,-8.57702952366236
1769238019460,120,-8,-7.50733088869465,-8.888934481180147,-8.642996391134826
1769238019464,120,-8,-7.574081360276336,-8.96942547837535,-8.710568465934422
1769238019468,120,-8,-7.610876072055238,-8.934513117939158,-8.749698272970283
1769238019472,120,-8,-7.596377886904952,-8.895269710843415,-8.738419676920172
1769238019476,120,-8,-7.494960956018868,-9.0367207880479,-8.639487388777443
1769238019480,120,-8,-7.264889208891637,-8.75532236034873,-8.410171405915055
1769238019484,121,-7,-6.884608290112106,-8.185875764872481,-8.029725166317107
1769238019488,121,-7,-6.368070711772424,-7.681012206069459,-7.514019071481496
1769238019492,122,-6,-5.7653509352976275,-7.209539217330171,-6.914213184349273
1769238019496,122,-6,-5.164287643171951,-6.704010266373169,-6.317298628025803
1769238019500,123,-5,-4.689459610416552,-6.0926750663857705,-5.845908535617641
1769238019504,123,-5,-4.469864034448268,-5.90860548450008,-5.627794950211675
1769238019508,123,-5,-4.565563608708441,-5.916038310492237,-5.7234728595073605
1769238019512,123,-5,-4.897883519643006,-6.0725384957433315,-6.055751747474579
1769238019516,122,-6,-5.256797605554632,-6.7538978883045555,-6.415612000070294
1769238019520,122,-6,-5.414014899452868,-7.143994042929325,-6.574683783220351
1769238019524,122,-6,-5.272559212511841,-6.799305877368501,-6.435628451213841
1769238019528,123,-5,-4.929320735019454,-6.10132690553265,-6.095354200968666
1769238019532,123,-5,-4.5925448723724935,-5.862389907922327,-5.761910422294865
1769238019536,123,-5,-4.426473453416629,-5.98135995490475,-5.598560346047458
1769238019540,123,-5,-4.451095623361092,-5.941432183731291,-5.624414606436007
1769238019544,123,-5,-4.557264278035818,-6.010058437079815,-5.730732260700024
1769238019548,123,-5,-4.59819952211129,-5.933582604251681,-5.7719933880503635
1769238019552,123,-5,-4.482775280616553,-6.006462455288148,-5.657753687106803
1769238019556,123,-5,-4.219219377301135,-5.864161151391592,-5.396058414762191
1769238019560,124,-4,-3.893735379772192,-5.058345667048516,-5.072994146351046
1769238019564,124,-4,-3.606192492462527,-4.92838284192934,-4.788575287908775
1769238019568,124,-4,-3.417491576013021,-5.037871156739747,-4.6031892272902475
1769238019572,124,-4,-3.350433229144066,-4.890857786602116,-4.538324755125212
1769238019576,124,-4,-3.4214277197837566,-5.011105317887503,-4.609713324380202
1769238019580,124,-4,-3.640054801817647,-4.901737792785226,-4.8279843420302315
1769238019584,124,-4,-3.960914820580722,-5.131888764032557,-5.149501242732707
1769238019588,123,-5,-4.254210693857543,-5.833072107056654,-5.444970123029102
1769238019592,123,-5,-4.363995071775702,-6.113138701720285,-5.557367725025175
1769238019596,123,-5,-4.224152261315486,-5.7928062655870995,-5.419562694091617
1769238019600,124,-4,-3.918856735882851,-5.131808140102548,-5.115905763843296
1769238019604,124,-4,-3.61921152920964,-4.929179327855824,-4.818042491336082
1769238019608,124,-4,-3.4543228082224697,-5.034533323285852,-4.654876453091997
1769238019612,124,-4,-3.434510313371399,-4.948974316082691,-4.636223399156471
1769238019616,124,-4,-3.480169504245824,-4.943629436931288,-4.682735051666915
1769238019620,124,-4,-3.510374759004754,-5.022498314984937,-4.714308656514605
1769238019624,124,-4,-3.508809862402491,-5.026066096279575,-4.7148718093200515
1769238019628,124,-4,-3.518053650947756,-4.969855106600627,-4.726317758885486
1769238019632,124,-4,-3.5719333558127686,-5.012596136976282,-4.781674171146613
1769238019636,124,-4,-3.623992676632529,-4.910718964803602,-4.834283371512948
1769238019640,124,-4,-3.5419022361959205,-5.045693924178036,-4.75212873052728
1769238019644,124,-4,-3.192330057471003,-5.051626882077384,-4.402514778479767
1769238019648,125,-3,-2.5592911040949513,-3.908477237294551,-3.770454858203927
1769238019652,126,-2,-1.796865734643848,-3.1411086615404624,-3.010854022226426
1769238019656,126,-2,-1.167813522610157,-2.7408759895232357,-2.385980431268062
1769238019660,127,-1,-0.9130995720887618,-2.2743953972311397,-2.1348010709326424
1769238019664,126,-2,-1.137730516308978,-2.811314826082973,-2.360389558669178
1769238019668,126,-2,-1.7659062059591122,-3.185833718443024,-2.986898819820199
1769238019672,125,-3,-2.5712926702031096,-3.866137417491041,-3.789926920899662
1769238019676,124,-4,-3.2661191544645463,-5.0216497846775185,-4.483964733934187
1769238019680,124,-4,-3.6208149717803098,-5.017454746904855,-4.840339513009495
1769238019684,124,-4,-3.5658811530616865,-5.058037104829603,-4.788717315810407
1769238019688,124,-4,-3.21916273332567,-4.988431232625002,-4.4453296116937295
1769238019692,125,-3,-2.8115485131357225,-4.038377912248501,-4.03994526210117
1769238019696,125,-3,-2.546177560110624,-3.884313622019072,-3.775518735149432
1769238019700,125,-3,-2.480077586602539,-4.161647571894051,-3.709321153008083
1769238019704,125,-3,-2.510674792379098,-3.931065473588165,-3.739025844536444
1769238019708,125,-3,-2.4716874044187143,-4.1359274601686105,-3.698859949851168
1769238019712,125,-3,-2.2583637160324743,-3.909339472465529,-3.485095638131629
1769238019716,126,-2,-1.8899179319613828,-2.9840421294348016,-3.117920721736589
1769238019720,126,-2,-1.482065588537136,-3.1257495379806706,-2.712996836735939
1769238019724,126,-2,-1.173307639242974,-2.9277165254400535,-2.4075588886669155
1769238019728,127,-1,-1.059959975755681,-2.216151045833972,-2.296288995697103
1769238019732,126,-2,-1.1609953573579956,-2.7971143798128164,-2.397119133258964
1769238019736,126,-2,-1.4096995946387638,-3.1284548007721407,-2.643544467569311
1769238019740,126,-2,-1.667386144600752,-2.975691883738193,-2.8985857456718924
1769238019744,126,-2,-1.7602553418075475,-3.101850670889674,-2.990641881686413
1769238019748,126,-2,-1.5489967145403445,-3.070427206228256,-2.781057896468045
1769238019752,126,-2,-1.025557770116092,-2.925538718437475,-2.260293176050916
1769238019756,127,-1,-0.3750492769575952,-2.040435936914246,-1.611813267040198
1769238019760,128,0,0.0863114041775046,-1.0331631708365976,-1.151857358385734
1769238019764,128,0,0.099385253855128,-1.1043779522543165,-1.1402061513363608
1769238019768,127,-1,-0.358143107758238,-2.057091744829488,-1.598400616101617
1769238019772,126,-2,-1.0504789342716594,-2.972268292242686,-2.2890548721326835
1769238019776,126,-2,-1.6265326901392425,-2.998761194718007,-2.861285741903909
1769238019780,126,-2,-1.796795607662936,-3.071437649876654,-3.028233831985
1769238019784,126,-2,-1.432665043466154,-3.089680189407026,-2.663961954633589
1769238019788,127,-1,-0.5834936625188818,-2.0648358497360197,-1.8180630281104504
1769238019792,128,0,0.5449203818322377,-1.002817165884825,-0.6941279662294313
1769238019796,129,1,1.638233063872292,0.0300367674622897,0.3963758743644854
1769238019800,130,2,2.365391016006488,0.8865461233783309,1.123933420633337
1769238019804,130,2,2.511847673565102,0.9456152248967244,1.273081141236175
1769238019808,130,2,2.100940620141907,0.873032382485035,0.864573823584652
1769238019812,129,1,1.4164463062468855,0.0548962408647917,0.1805218442061777
1769238019816,128,0,0.8728681973875041,-1.0675033623483112,-0.3634912005147308
1769238019820,128,0,0.7912418214829051,-0.9854738011457344,-0.4441273219062814
1769238019824,129,1,1.2409279036569707,-0.2143636735353864,0.0081056489855335
1769238019828,130,2,2.070240045927224,1.036685648340128,0.8387887497274669
1769238019832,131,3,3.0686210589198257,1.881468615764338,1.8351721703803787
1769238019836,131,3,4.071482558334673,2.0581444631585093,2.834148324983095
1769238019840,132,4,4.908716671427657,2.9217414130062673,3.6692380786114094
1769238019844,133,5,5.317196197620564,3.8084116565462023,4.078850931175113
1769238019848,133,5,5.007823520420023,4.0660079131167155,3.7720964329632007
1769238019852,132,4,3.88851201261048,2.7909001602230044,2.654803773914244
1769238019856,129,1,2.2218245588217487,0.1665910010343287,0.989658844006323
1769238019860,128,0,0.5242071163303533,-1.2319114658110686,-0.7059715529801962
1769238019864,127,-1,-0.7342119446401878,-2.0456523703340226,-1.9626196723831812
1769238019868,126,-2,-1.3863863245721206,-3.0574856508468526,-2.6149031887323053
1769238019872,126,-2,-1.5985302230298173,-3.1134102793059033,-2.829318941385755
1769238019876,126,-2,-1.6866881970043228,-2.896373767538685,-2.920081370311527
1769238019880,126,-2,-1.8782713820000685,-3.265840653803736,-3.112151886386341
1769238019884,125,-3,-2.1896313856008405,-3.969857554535544,-3.4208241947573157
1769238019888,125,-3,-2.4831930038303787,-4.180205007510379,-3.7099453092549832
1769238019892,125,-3,-2.624321912250336,-3.9612455849148223,-3.8479571248693247
1769238019896,125,-3,-2.6000482458844565,-4.059068305897717,-3.824003468004932
1769238019900,125,-3,-2.525881342138766,-4.162448566339514,-3.752661184143432
1769238019904,125,-3,-2.563410974947847,-4.037469625237884,-3.792346190274043
1769238019908,125,-3,-2.8130692041372725,-4.1843501514324455,-4.041065252034597
1769238019912,124,-4,-3.239130777775731,-4.881197494420975,-4.463654488236511
1769238019916,124,-4,-3.6632206428785903,-5.221932577368496,-4.884654707904442
1769238019920,124,-4,-3.8363730491121304,-4.971386540064309,-5.05719666256829
1769238019924,124,-4,-3.568148463606388,-5.278189977757945,-4.7894450178087125
1769238019928,124,-4,-2.8536634762873563,-4.936465695970197,-4.073092280509997
1769238019932,126,-2,-1.9089533184222132,-3.101839686833117,-3.1235638735539526
1769238019936,127,-1,-1.0618117174785402,-2.063323939466557,-2.2730844573942983
1769238019940,127,-1,-0.5702073182726971,-2.091998216034405,-1.7849099857364847
1769238019944,127,-1,-0.5228541034928514,-2.2542820753027497,-1.7474449484952668
1769238019948,126,-2,-0.8756615096574212,-2.8880109507887224,-2.1092611031239117
1769238019952,126,-2,-1.4884827459608518,-3.2357322245339635,-2.7214267743269462
1769238019956,126,-2,-2.0068687417936113,-2.849689449889531,-3.2267732760505705
1769238019960,127,-1,-1.669798400552663,-2.397676298747542,-2.870348330483245
1769238019964,128,0,0.6256489155960328,-0.8995057643857509,-0.5599550522179502
1769238019968,133,5,5.7511369173186715,3.703473370237095,4.567902673060963
1769238019972,140,12,13.469143792342608,11.200771179311731,12.274845594772154
1769238019976,149,21,21.902003670262285,19.71095740517165,20.689165009083418
1769238019980,156,28,27.9617290076153,27.01526653972303,26.731471593623496
1769238019984,158,30,28.733315653735826,28.689667835324425,27.494155823026347
1769238019988,151,23,23.038561896993127,22.005516557175437,21.803536379114103
1769238019992,139,11,12.154464689273556,9.925577051811509,10.936804910703325
1769238019996,126,-2,-0.7923778295597304,-3.10982713550134,-1.985629102138441
1769238020000,115,-13,-12.31308663114017,-14.066444219786508,-13.486489523070372
1769238020004,108,-20,-19.96440462638106,-21.250750211831644,-21.1329905195126
1769238020008,105,-23,-22.959535879439617,-23.977163547840945,-24.13996294747376
1769238020012,106,-22,-21.928148988676128,-23.129356040799465,-23.128354518317806
1769238020016,109,-19,-18.258077053211167,-20.08737812392588,-19.473421222125285
1769238020020,114,-14,-13.477462580608387,-15.095533904826205,-14.69562575828926
1769238020024,119,-9,-8.86839686780073,-10.254198866507815,-10.07820784199056
1769238020028,122,-6,-5.2709902050575375,-6.94421818230712,-6.468508964749953
1769238020032,125,-3,-2.9999030010776413,-4.224498594308816,-4.188609296571499
1769238020036,126,-2,-1.874402846641113,-3.0058467315559585,-3.0607062742182243
1769238020040,126,-2,-1.4025802800696947,-3.21610498254159,-2.590439697851777
1769238020044,126,-2,-1.0839317237450476,-3.1087147965762294,-2.2728336363027006
1769238020048,127,-1,-0.6670263512235483,-2.077941017764387,-1.854717032765452
1769238020052,128,0,-0.1872047322664312,-1.1109731998454089,-1.3735987848754705
1769238020056,128,0,0.2124571591720162,-1.1331706392790857,-0.9749392312431608
1769238020060,128,0,0.4754046219626056,-1.1289174544033382,-0.7141548847451866
1769238020064,128,0,0.6554085589245583,-1.1697951144322032,-0.5339371328190132
1769238020068,128,0,0.7984958527014518,-1.0459782138818317,-0.3868800636021973
1769238020072,129,1,0.8672006116065911,-0.1151159994342205,-0.3133282651044632
1769238020076,129,1,0.8102017598313705,-0.1887567397744636,-0.3685064272565084
1769238020080,128,0,0.6762110518512615,-1.0538180993431023,-0.5040355437052947
1769238020084,128,0,0.6070191399144701,-1.2826918727181964,-0.5747718021721056
1769238020088,128,0,0.702701291073254,-0.9137868732579356,-0.4779029510102807
1769238020092,129,1,0.9220286810809216,-0.2639423785239667,-0.2555206373463037
1769238020096,129,1,1.140564711017638,-0.0558875832162821,-0.0347570652122766
1769238020100,129,1,1.2966800245142642,-0.1741320871467798,0.1217746238315774
1769238020104,129,1,1.4558521958903938,-0.2271588361560629,0.2810193662590831
1769238020108,129,1,1.724814704412264,0.0899910071650054,0.5512514754930502
1769238020112,130,2,2.114951321592416,0.6440329899809645,0.943397891338088
1769238020116,130,2,2.5012476530628103,1.1204490428141127,1.3306829283018775
1769238020120,131,3,2.7162398080670744,1.5583898151178674,1.5449663162149512
1769238020124,130,2,2.6846770432763423,1.0899080824058758,1.5125320102235105
1769238020128,130,2,2.4793602626146027,0.7068531404407141,1.3083639075301687
1769238020132,130,2,2.269446752370933,1.0469749169282432,1.101988419783743
1769238020136,130,2,2.226167743809018,0.7152232872613502,1.0626916754589604
1769238020140,130,2,2.455150884443917,0.9357660689725388,1.2937198695025658
1769238020144,131,3,2.969385502245214,1.7474147544375611,1.8073306015679536
1769238020148,131,3,3.684941151700736,1.9660553222920676,2.5208956622323258
1769238020152,132,4,4.436238156978506,2.847985330866567,3.2708858980914908
1769238020156,133,5,5.028451409795155,3.849667363336772,3.863734133231332
1769238020160,133,5,5.327845936044528,3.847966221584351,4.165585828282137
1769238020164,133,5,5.344736495630616,3.778530513195967,4.185580519050995
1769238020168,133,5,5.246024965045999,3.946678955066392,4.08914010030272
1769238020172,133,5,5.274472112483157,3.832209296291661,4.118324966042614
1769238020176,133,5,5.615473546426177,3.885731394490739,4.459301157857612
1769238020180,134,6,6.294727538327318,4.802989949444436,5.139122147930922
1769238020184,135,7,7.183312299857439,5.814712096928577,6.0290438479682
1769238020188,136,8,8.112748646113904,6.888490910791588,6.959398998523339
1769238020192,137,9,9.001182067699405,7.881329396415991,7.847687234196677
1769238020196,137,9,9.869815233081528,7.83447689412063,8.716201590101168
1769238020200,138,10,10.741701745891408,8.841851496369504,9.589252391544523
1769238020204,140,12,11.553542169560968,10.779227048363673,10.403006063801932
1769238020208,140,12,12.198176932758336,10.884027051792826,11.048859167240357
1769238020212,140,12,12.652325156893284,10.912040051528734,11.503454452300446
1769238020216,141,13,13.038465131849696,11.764704675705683,11.89057242049169
1769238020220,141,13,13.54704138921752,11.935060051692933,12.401259169459234
1769238020224,142,14,14.29012519723776,12.63100909471166,13.146479968640898
1769238020228,143,15,15.209264498221788,14.079508478510686,14.06624367140062
1769238020232,144,16,16.0977836751999,14.661628684299268,14.953730520412028
1769238020236,144,16,16.703460547316315,15.048996190307092,15.558226717484091
1769238020240,145,17,16.83378454074348,15.611910597047553,15.688861286190114
1769238020244,144,16,16.40974674219697,14.932250529945495,15.266872379382171
1769238020248,143,15,15.459942019287132,13.802604036661537,14.319702769849831
1769238020252,142,14,14.07616324482349,12.886632667962562,12.93781286995166
1769238020256,140,12,12.360944073364372,10.88745434027362,11.2233355136915
1769238020260,138,10,10.39292221464835,8.672652427629535,9.25539980247308
1769238020264,136,8,8.225799526342158,6.954488029660176,7.088193280874847
1769238020268,134,6,5.920269338211826,4.680712748293702,4.782602840807007
1769238020272,131,3,3.5794825613715195,2.089506825307722,2.4423152969613646
1769238020276,129,1,1.3469657675696958,-0.3723490455269365,0.2116361693951631
1769238020280,127,-1,-0.6355534517639256,-2.0693721669341274,-1.7679787154601598
1769238020284,126,-2,-2.268966376981407,-3.295356961334304,-3.3990821907941693
1769238020288,124,-4,-3.5119048167015103,-5.119398364525939,-4.641685212493105
1769238020292,123,-5,-4.3897743616104234,-6.042003371355075,-5.520801934896813
1769238020296,123,-5,-5.007229509361017,-6.31785065912214,-6.139533528868137
1769238020300,122,-6,-5.529151787361271,-7.085841379063345,-6.661560556510909
1769238020304,122,-6,-6.103528923263655,-7.335900140702135,-7.234539711680245
1769238020308,121,-7,-6.766105081297154,-8.04893866086916,-7.894415235547225
1769238020312,120,-8,-7.40690506951209,-9.128609792857524,-8.531913385302019
1769238020316,120,-8,-7.838539765006902,-9.243423201527518,-8.961027497492031
1769238020320,120,-8,-7.925216470722633,-9.163297843045276,-9.047271959418463
1769238020324,120,-8,-7.687796232593869,-9.29229651801749,-8.81134529539496
1769238020328,120,-8,-7.317270038841404,-9.054630175637502,-8.442560266804742
1769238020332,121,-7,-7.076221698476777,-8.157559986467653,-8.201928278622232
1769238020336,121,-7,-7.133006658459292,-8.204844817184927,-8.257414351755061
1769238020340,120,-8,-7.4393034387652195,-9.237738136036524,-8.561044152802555
1769238020344,120,-8,-7.75402266528315,-9.22376347503472,-8.872331437014456
1769238020348,120,-8,-7.80483286755771,-9.110651394633312,-8.919962707177355
1769238020352,120,-8,-7.466529537960605,-9.124755031057768,-8.58000490180948
1769238020356,121,-7,-6.833122135632594,-8.205947945368521,-7.947233923731462
1769238020360,122,-6,-6.150576004311724,-7.297682806428079,-7.267179678631276
1769238020364,122,-6,-5.672748739750958,-7.1316904180840535,-6.791931080082135
1769238020368,122,-6,-5.538450618781745,-7.247673991633384,-6.658011021360144
1769238020372,122,-6,-5.726436494973375,-6.958283255537671,-6.842944599773077
1769238020376,122,-6,-6.078217994496863,-7.399879771746258,-7.1892079362285095
1769238020380,121,-7,-6.355254437886342,-8.115140918405451,-7.461080123734533
1769238020384,122,-6,-6.317313269315311,-7.306494941137321,-7.421169297281064
1769238020388,122,-6,-5.8225005049418375,-7.101143060831523,-6.928123335180547
1769238020392,122,-6,-4.928246652159414,-7.071368561357142,-6.037016636174203
1769238020396,124,-4,-3.9250963836122086,-5.328477454511168,-5.0354867566942465
1769238020400,125,-3,-3.223804473056759,-4.167878675591297,-4.33349922830717
1769238020404,125,-3,-3.1165083785717647,-4.2974543279208115,-4.224161088289509
1769238020408,124,-4,-3.580029023950051,-5.085340435573596,-4.684922222256276
1769238020412,123,-5,-4.293531136526888,-6.110720166115328,-5.39500402239624
1769238020416,123,-5,-4.859047506774789,-6.305666599372342,-5.9573158135349775
1769238020420,123,-5,-5.039788580833084,-6.173003516004831,-6.136607163927
1769238020424,123,-5,-4.847914988622198,-6.326032198934078,-5.9453338180700905
