timestamp_ms,ecg_u8_raw,ecg_counts_raw_int,ecg_counts_filt_monitor,ecg_counts_filt_diagnostic,ecg_counts_filt_st
1770453632356,129,1,0.177796516971886,1.2545127346318234,1.3479529678897526
1770453632360,129,1,-0.0389623408106594,1.0615113119745223,1.1499107195474636
1770453632364,129,1,-0.3762546172875112,1.0589779107069626,0.8311689121630244
1770453632368,128,0,-0.8660737939953622,0.2973765475870149,0.3605806896321281
1770453632372,128,0,-1.5277462651520752,0.1075158248260608,-0.2811083880003061
1770453632376,127,-1,-2.295011599500744,-0.7503241046965186,-1.0278964927155816
1770453632380,126,-2,-2.991933743195513,-1.9748637837052303,-1.7041011590367168
1770453632384,126,-2,-3.401090461861271,-1.862820112736271,-2.092799032341477
1770453632388,126,-2,-3.3832233853794524,-1.8054566381151345,-2.0554145810188813
1770453632392,126,-2,-2.9636578389675563,-1.8011363214388716,-1.6174952211626858
1770453632396,127,-1,-2.3276244507757333,-0.8117286207520755,-0.9638207966662052
1770453632400,128,0,-1.7255077561603935,0.0580469214699088,-0.3441055845400961
1770453632404,128,0,-1.344898803557968,0.1374744386108128,0.0547114071140075
1770453632408,128,0,-1.231692351514925,0.1576532971633193,0.1873416368144037
1770453632412,128,0,-1.3053571960247867,0.2425984686119338,0.1344014520066688
1770453632416,128,0,-1.4375809364166263,0.1399895571773048,0.023296641404892
1770453632420,128,0,-1.526570313200985,0.115649433534949,-0.0456408838909195
1770453632424,128,0,-1.5296287448802552,0.0966632202122109,-0.0306433005515081
1770453632428,128,0,-1.463051765017945,0.1678228047815801,0.0523212669734765
1770453632432,128,0,-1.3907049867634875,0.2532733201152629,0.1407680706431249
1770453632436,128,0,-1.4038506051979067,0.0949025953601114,0.1449046177482648
1770453632440,128,0,-1.5796838877411954,0.2048012701417978,-0.0119219189873258
1770453632444,128,0,-1.9219521267237236,-0.012072988058964,-0.3340814987401203
1770453632448,127,-1,-2.323652893905625,-0.7257368964657223,-0.715720194313348
1770453632452,127,-1,-2.6013531781129733,-0.8501487395281727,-0.9743092462323724
1770453632456,127,-1,-2.603027177721031,-0.8350428708181014,-0.9581797355282968
1770453632460,127,-1,-2.3228876337659266,-0.7974692776039995,-0.661472580496884
1770453632464,128,0,-1.9339557063867268,-0.0734321728141234,-0.2568896336611247
1770453632468,128,0,-1.699965974596375,0.4088458227209695,-0.0074989714315391
1770453632472,128,0,-1.819088949922836,-0.077118044466939,-0.1103189406729111
1770453632476,127,-1,-2.306792774590563,-0.5516404854377641,-0.5797998095189463
1770453632480,127,-1,-2.990373770884374,-1.0971621609969346,-1.243540259925518
1770453632484,126,-2,-3.600829740104138,-1.789400045745474,-1.8343148148602433
1770453632488,126,-2,-3.895643223160765,-1.8082090294087336,-2.111321304729892
1770453632492,126,-2,-3.755096239215691,-1.9697571374611849,-1.9549981281753483
1770453632496,126,-2,-3.2207642388451196,-1.5407024088817982,-1.4058900759582462
1770453632500,128,0,-2.4603723601726637,-0.2152268629540701,-0.6309054178565812
1770453632504,128,0,-1.6714260195906203,0.4282066160172437,0.1728222966154921
1770453632508,129,1,-0.9815324056422888,0.9062156300243048,0.8784314032086022
1770453632512,129,1,-0.4101614647098619,1.3348423058400791,1.4672751787069234
1770453632516,130,2,0.1031763476257299,2.150765259046372,1.9992663240684063
1770453632520,131,3,0.6529417584604911,3.0712296302240087,2.5667927366777032
1770453632524,131,3,1.3309239213460349,3.20361607593968,3.260115490764946
1770453632528,132,4,2.1819131337432225,4.067884439401002,4.124580989714407
1770453632532,133,5,3.1524297504638508,5.227043560730416,5.108478100796904
1770453632536,134,6,4.082186160352875,6.186936608190847,6.052704068045725
1770453632540,135,7,4.774161082365543,7.102421505988805,6.760226767196385
1770453632544,135,7,5.102928564613215,7.136600482648997,7.104900150026455
1770453632548,135,7,5.075828298826185,7.169335482780076,7.093179339536294
1770453632552,135,7,4.799632199572441,7.069620904772873,6.831293813812851
1770453632556,134,6,4.382780759811584,6.3824373821588845,6.428006842923575
1770453632560,134,6,3.852229696198107,5.867815970932371,5.911211227687222
1770453632564,133,5,3.154661877228456,5.449693763883296,5.2279985757673915
1770453632568,133,5,2.245571422832219,4.787629438039005,4.333252103817276
1770453632572,131,3,1.1834459750106412,3.485446605273055,3.2847954414430243
1770453632576,130,2,0.125429698123574,1.935547502470199,2.239888218030819
1770453632580,129,1,-0.7845830012227165,1.3116916287561984,1.3427543570177942
1770453632584,129,1,-1.5242358201172252,1.0770810036114733,0.6156592663913942
1770453632588,128,0,-2.185354649950981,0.0722449859492422,-0.0332093310219003
1770453632592,127,-1,-2.859217199338196,-0.7037216116796863,-0.694595978284855
1770453632596,127,-1,-3.5218658194758707,-0.9966336753619174,-1.3442196701402156
1770453632600,126,-2,-4.017065185506453,-1.6566485817143453,-1.8262273010212808
1770453632604,126,-2,-4.15563665499346,-2.0088915260701463,-1.9518900747196997
1770453632608,126,-2,-3.8643182152824553,-1.7928338054464017,-1.6481155097410267
1770453632612,127,-1,-3.267948002129682,-0.868622401717763,-1.04026259238804
1770453632616,128,0,-2.627496295877703,0.1561176330770219,-0.3901076391612079
1770453632620,128,0,-2.1802159180046456,0.2121802937837195,0.0654886000499613
1770453632624,128,0,-2.01957936923099,0.1108844426794926,0.235321004522275
1770453632628,128,0,-2.101976634678377,0.1081606620919519,0.1653103442123993
1770453632632,128,0,-2.333368565966218,0.1969843975211743,-0.0506166341502739
1770453632636,128,0,-2.63381896775828,0.0943990458518547,-0.335401265410627
1770453632640,127,-1,-2.9452964075442156,-0.7074269827154381,-0.634993642115447
1770453632644,127,-1,-3.2193159115008614,-0.9757207783809868,-0.9039558412346084
1770453632648,127,-1,-3.402677986473108,-0.7817916815668454,-1.0888880293540186
1770453632652,127,-1,-3.3876710447466336,-0.9631226749077082,-1.0764335580979083
1770453632656,127,-1,-2.899326984194923,-0.7099246379803223,-0.5819226301478804
1770453632660,129,1,-1.3560526980174483,1.0807672684319958,0.9827394498919756
1770453632664,133,5,2.182389286061536,5.275149778306838,4.553309895477973
1770453632668,140,12,8.806225489774231,11.94502580948604,11.205431105740711
1770453632672,149,21,19.16295020800279,21.32981495507269,21.57273423238795
1770453632676,162,34,32.63128767461869,33.97626490991304,35.03168208797504
1770453632680,176,48,46.803223455322595,48.434803066682385,49.1844458682914
1770453632684,189,61,57.91198305251254,60.88988627336592,60.27851044500457
1770453632688,194,66,62.3274666530349,66.3384056712781,64.69355797991525
1770453632692,190,62,58.37758232196068,61.86830128768297,60.75991473341386
1770453632696,177,49,47.303865437507355,49.400513039468706,49.714986270231535
1770453632700,162,34,32.64361481854911,34.00298275014745,35.08657624837079
1770453632704,148,20,18.42732701343123,20.32449878802508,20.893033769388985
1770453632708,138,10,7.376709918762337,10.024971997615063,9.847451748047204
1770453632712,131,3,0.1558486604181785,3.1591239849179904,2.615090747678669
1770453632716,127,-1,-4.127209238309408,-0.8000472100014087,-1.6849475766813735
1770453632720,124,-4,-6.8019931795512925,-3.926171034998138,-4.368597716979057
1770453632724,121,-7,-8.755210918469423,-6.677349793853421,-6.315571541583068
1770453632728,120,-8,-10.234775292909054,-8.041790696436417,-7.777396201790856
1770453632732,119,-9,-11.181237239788947,-8.689592526167024,-8.705207516871933
1770453632736,119,-9,-11.616313493479147,-8.996517768889136,-9.130190570306787
1770453632740,119,-9,-11.751965717920474,-8.730875311795003,-9.266198263653385
1770453632744,119,-9,-11.834936031203071,-8.885219666536381,-9.353923545492282
1770453632748,118,-10,-11.965471483054603,-9.843425213754127,-9.485398657457996
1770453632752,118,-10,-12.071165836257114,-9.838965514750452,-9.585107105332114
1770453632756,119,-9,-12.011383725854792,-8.881234403818283,-9.516551439280729
1770453632760,119,-9,-11.684403139417707,-8.833286140600407,-9.18416998611882
1770453632764,119,-9,-11.079280726025752,-8.807666252538802,-8.578583001995732
1770453632768,120,-8,-10.29366514264869,-7.897389228189435,-7.793982423704695
1770453632772,121,-7,-9.512645179544853,-6.781387072392981,-7.012123184216344
1770453632776,122,-6,-8.915822345014362,-5.9387114098610105,-6.412799179018131
1770453632780,122,-6,-8.553459415743692,-5.781479667351112,-6.048101412902176
1770453632784,122,-6,-8.309740773282137,-5.877633140013221,-5.802520184355811
1770453632788,122,-6,-8.008676601707727,-5.806019551805118,-5.499151928625015
1770453632792,123,-5,-7.5649021303768915,-4.88765535841233,-5.053058258324789
1770453632796,124,-4,-7.029524062167491,-3.7953451600309056,-4.517315140308133
1770453632800,124,-4,-6.504431487096976,-3.957422634138488,-3.9944688712403744
1770453632804,124,-4,-6.042087796917297,-3.6867322474195823,-3.534752780669868
1770453632808,125,-3,-5.633547990746482,-3.009141411599328,-3.126458880441501
1770453632812,125,-3,-5.257421519077845,-2.694450506493566,-2.7481479453806235
1770453632816,126,-2,-4.902034122116787,-1.94068422561106,-2.390813706576676
1770453632820,126,-2,-4.542453766945915,-1.8588858604784104,-2.031960946939257
1770453632824,126,-2,-4.132904602119307,-1.7381314243752408,-1.6257535960374416
1770453632828,127,-1,-3.652829412918238,-1.022648621750896,-1.1496350513725198
1770453632832,127,-1,-3.1596922086955925,-0.6285562523903567,-0.6592508568414285
1770453632836,128,0,-2.771459294567126,-0.0263372497038969,-0.2722693287344049
1770453632840,128,0,-2.5701478445461796,0.2510676273309775,-0.0716759043450917
1770453632844,128,0,-2.5096736214689948,0.1421251722721235,-0.0125700817480947
1770453632848,128,0,-2.4251477370698185,0.0602553003527334,0.0693300730725505
1770453632852,128,0,-2.155014337343367,0.3327165696013069,0.335698066855108
1770453632856,129,1,-1.6803953377287717,0.9809608078830712,0.8059577305448433
1770453632860,129,1,-1.1601109570252448,1.303759202459223,1.3217873117647487
1770453632864,130,2,-0.8220920286480338,2.040566401180241,1.6553931115129463
1770453632868,130,2,-0.7938615322307031,2.1699269676149444,1.6792578761412482
1770453632872,129,1,-1.0131248637467565,1.2147151141681576,1.4559171009452887
1770453632876,129,1,-1.2933393236907085,1.1015907267355145,1.1719991782868315
1770453632880,129,1,-1.4770237711374856,1.2205389358995782,0.984237877005392
1770453632884,129,1,-1.5327302964930112,1.0831504157210794,0.9229861639139564
1770453632888,129,1,-1.520735549481971,1.156123954953958,0.9279492529846364
1770453632892,129,1,-1.4840778360189766,1.1993272352564055,0.9575823204253828
1770453632896,129,1,-1.378219207724679,1.1421783529376544,1.0579850440517728
1770453632900,129,1,-1.0977076985693883,1.1819235554613337,1.3343157092128226
1770453632904,130,2,-0.5638684258316844,2.116242773598368,1.8630224779746611
1770453632908,131,3,0.2033492429055194,3.1181732725755316,2.622400343693873
1770453632912,131,3,1.070531743802674,3.247778859339122,3.4799773834387286
1770453632916,132,4,1.8284805431183844,4.080320867916919,4.22911399990056
1770453632920,133,5,2.272846320601384,5.279784405470424,4.66650720576609
1770453632924,133,5,2.3072120423668867,4.9702939491030325,4.694385953135559
1770453632928,132,4,2.001280970877275,4.298475810434576,4.380911660319343
1770453632932,132,4,1.5362724676312849,4.043280928322307,3.907393556332517
1770453632936,131,3,1.0672908122264368,3.2991909790366236,3.4298481188257575
1770453632940,131,3,0.6263065560783583,3.070468864482657,2.9802751615849927
1770453632944,131,3,0.1560942922978833,3.1687823188027995,2.5006094699798176
1770453632948,130,2,-0.3700637638682508,2.118711853231063,1.9640167550478072
1770453632952,129,1,-0.8773163219623115,1.195302426074503,1.4465188277793763
1770453632956,129,1,-1.2403742735964558,1.1774393184179983,1.0742786421612656
1770453632960,129,1,-1.391734339612633,1.1617827205888651,0.9139940729478336
1770453632964,129,1,-1.3714923148039952,1.1161980191860676,0.9240693915840678
1770453632968,129,1,-1.2835629330568994,1.152350540136187,1.0003000875377563
1770453632972,129,1,-1.2170603144416756,1.1709293166704602,1.054707626172776
1770453632976,129,1,-1.2019127899003328,1.1875769716076072,1.0584757066564916
1770453632980,129,1,-1.2175297425377785,1.1564676194714942,1.032186071542461
1770453632984,129,1,-1.2295914539213126,1.1292205749956736,1.0093302185032464
1770453632988,129,1,-1.220936538844232,1.1468479812034944,1.006387084145266
1770453632992,129,1,-1.1981328751457268,1.1702412581345982,1.0167741752790336
1770453632996,129,1,-1.1772145123943092,1.1830015055944392,1.0248976277527713
1770453633000,129,1,-1.1659777824708646,1.1625372760952677,1.0233392989420484
1770453633004,129,1,-1.1587145049366518,1.1322065605069986,1.0178122010030113
1770453633008,129,1,-1.145451654624198,1.149503580684831,1.0180196867662887
1770453633012,129,1,-1.1243861860451971,1.1638775194346067,1.0255909366243685
1770453633016,129,1,-1.1047872391978344,1.1808484715122969,1.0314497924108823
1770453633020,129,1,-1.0977207934348328,1.1712307640546396,1.024927052298862
1770453633024,129,1,-1.1029958307398222,1.1276909187884143,1.0062962975075118
1770453633028,129,1,-1.1040222683817802,1.162295721221608,0.9916186511243776
1770453633032,129,1,-1.077629605346352,1.1483415386163958,1.0033607836427836
1770453633036,129,1,-1.0168154563064324,1.181077843670974,1.048504998018764
1770453633040,129,1,-0.9526877425513912,1.192800630286449,1.0968382357300468
1770453633044,129,1,-0.9527411237575452,1.0874547304112858,1.081756121224783
1770453633048,129,1,-1.0806939356212315,1.239480522713534,0.9393570264011358
1770453633052,129,1,-1.3376826472108627,1.036161218374387,0.6674780956255694
1770453633056,128,0,-1.6394508576633895,0.3094375001258731,0.3497967732778566
1770453633060,128,0,-1.867345066006315,0.0584100498619212,0.1054464747857474
1770453633064,128,0,-1.958754250025456,0.2191511817453248,-0.0021846046329191
1770453633068,128,0,-1.9529755379406133,0.1470012983436509,-0.0123159493111103
1770453633072,128,0,-1.9466916882845564,0.0760769572270616,-0.0223459927787513
1770453633076,128,0,-2.00109633771892,0.331698884962287,-0.0941393763906681
1770453633080,128,0,-2.0896120911889744,-0.0397888439752753,-0.2007966990510975
1770453633084,127,-1,-2.135863857840281,-0.6106738027117788,-0.2647768332432406
1770453633088,128,0,-2.098221426921821,-0.0649669456046629,-0.2438251804734121
1770453633092,128,0,-2.0035765381906248,0.3117239660722816,-0.1655622488907391
1770453633096,128,0,-1.8915591498091888,0.1047253674862013,-0.0707010085396918
1770453633100,128,0,-1.7408013799095836,0.1406019742539205,0.0619418305491302
1770453633104,128,0,-1.4716322553583754,0.2934732262305378,0.3124865040140515
1770453633108,129,1,-1.0282855233221797,0.915093798764914,0.7368833337988556
1770453633112,129,1,-0.4557778640403138,1.4797392221950223,1.2900820914183526
1770453633116,130,2,0.1061847754703115,1.7889062873142634,1.8326605099381328
1770453633120,130,2,0.5152000903683908,2.591550434827071,2.222659929646997
1770453633124,131,3,0.7368361125357072,2.741210406281838,2.4257381148111934
1770453633128,130,2,0.8852460143969823,2.5106942132654786,2.555791493741372
1770453633132,131,3,1.1502943290285068,2.9067859026079423,2.80236822047916
1770453633136,131,3,1.6587796979440093,3.291763827570985,3.291893659944731
1770453633140,132,4,2.3775134883012212,4.205721547102701,3.9907029355170938
1770453633144,133,5,3.132043037645814,4.99454017805988,4.724075362280795
1770453633148,133,5,3.7169880389202663,5.392299937829472,5.287046720284294
1770453633152,134,6,4.004466161180163,5.907216101047149,5.55290650122647
1770453633156,133,5,3.9739804291925873,5.380237845732843,5.502314740867513
1770453633160,133,5,3.667835329337801,5.059275412724844,5.177462298837887
1770453633164,133,5,3.1410380407124903,5.167560729028075,4.631714803299319
1770453633168,132,4,2.456014220886472,4.233452685447733,3.9259541634499344
1770453633172,131,3,1.696631933879872,3.0329660629814015,3.144312706397179
1770453633176,130,2,0.9494096335041632,2.307213920201346,2.374808134385042
1770453633180,130,2,0.2586763244809948,2.0709582322161406,1.662566508332029
1770453633184,129,1,-0.3893588982435234,1.210504741889668,0.993330835588351
1770453633188,128,0,-1.0325446592643277,0.1700966283269708,0.3285659261708691
1770453633192,128,0,-1.6843752840213695,0.1034982152770056,-0.3452945862183154
1770453633196,127,-1,-2.3146727071995623,-0.749433351514809,-0.9976118685285364
1770453633200,126,-2,-2.871732317571714,-1.9163334298399557,-1.576314684890407
1770453633204,126,-2,-3.321728649212381,-1.7460814330297811,-2.047943797077223
1770453633208,126,-2,-3.665145719087005,-1.908520734871836,-2.4137769100945823
1770453633212,125,-3,-3.9190235023878017,-2.783382780488527,-2.6908726729337613
1770453633216,125,-3,-4.0959919233324795,-2.8830804516125896,-2.8909076157377407
1770453633220,125,-3,-4.202352621950809,-2.783200886384121,-3.0196815704550497
1770453633224,125,-3,-4.238732238684375,-2.8794421563865025,-3.0785446995232153
1770453633228,125,-3,-4.190763381944482,-2.7550597808677098,-3.053801841777707
1770453633232,125,-3,-4.03186586125425,-2.939600550317929,-2.918151901617781
1770453633236,125,-3,-3.754764618297111,-2.730927901868211,-2.663015776625347
1770453633240,126,-2,-3.404257738039093,-1.937749935204988,-2.333263032974831
1770453633244,126,-2,-3.072747076847821,-1.7352551622028176,-2.0232494477611724
1770453633248,126,-2,-2.86169725313642,-1.8577973408912345,-1.8368648275041
1770453633252,126,-2,-2.8377064055966055,-1.8659562557463023,-1.841843093361773
1770453633256,126,-2,-2.9808200849134807,-1.7834467809637948,-2.016778433118924
1770453633260,126,-2,-3.097287950344316,-1.9227489845908776,-2.163259095983278
1770453633264,126,-2,-2.711720948266396,-1.7195558474877692,-1.7996427690118897
1770453633268,128,0,-1.02604049077017,0.1402186520347759,-0.1248761989930737
1770453633272,132,4,2.943075520293674,4.132931044206705,3.839277454254108
1770453633276,139,11,9.987054181080373,11.236511964872545,10.872294132167626
1770453633280,149,21,20.146687657175583,21.030708029218346,21.00455893122662
1770453633284,160,32,32.20455395397586,32.371301788302844,33.01865358448343
1770453633288,172,44,43.60722093306285,44.03697025826645,44.372296616210456
1770453633292,180,52,51.128930386347584,52.234649514193144,51.85366737562886
1770453633296,182,54,52.18659094585644,54.09773194163997,52.88692917147388
1770453633300,176,48,46.163119095046,48.127051988946434,46.85298707029202
1770453633304,163,35,34.86815330517205,35.28066837935604,35.55408834196499
1770453633308,149,21,21.711348103813418,21.1064042721935,22.39129340712441
1770453633312,138,10,10.050856999942452,10.21931514511676,10.714922310332677
1770453633316,131,3,1.774051316006374,3.1296207964276284,2.4079946323937005
1770453633320,126,-2,-3.0696308202063856,-1.8443108781541917,-2.4771052899635535
1770453633324,123,-5,-5.593431897227898,-4.732422986413943,-5.043659387683066
1770453633328,122,-6,-7.038561190153441,-5.918628460297626,-6.5225364409492945
1770453633332,120,-8,-8.104270698463063,-7.764065552923343,-7.609530759086214
1770453633336,119,-9,-8.913827951558156,-8.929487057278607,-8.432683209147527
1770453633340,119,-9,-9.383057302348206,-8.709357049558104,-8.91622493181812
1770453633344,119,-9,-9.554372657955774,-8.894522578035815,-9.108667491146011
1770453633348,119,-9,-9.631358045729469,-8.740753216437424,-9.214154888923888
1770453633352,119,-9,-9.785277562399015,-8.970123183092275,-9.399738095584068
1770453633356,118,-10,-9.994901471793568,-9.753549740465669,-9.638733125259384
1770453633360,118,-10,-10.090564952269093,-9.81232064875062,-9.75865745005759
1770453633364,118,-10,-9.9365980464013,-9.827639023117898,-9.62547566385176
1770453633368,119,-9,-9.55120007720254,-8.767075606382242,-9.261754460950034
1770453633372,120,-8,-9.054573680090286,-7.989439245216774,-8.790609230405536
1770453633376,119,-9,-8.535531725692426,-8.72757344456678,-8.299666020582489
1770453633380,120,-8,-7.998675476993604,-7.817584388755513,-7.790086650433927
1770453633384,121,-7,-7.429462373547702,-6.814486721791426,-7.245577244145965
1770453633388,121,-7,-6.871645967186381,-6.7881788446962865,-6.711120201678228
1770453633392,122,-6,-6.419774533712756,-5.970276680998721,-6.283400821574257
1770453633396,122,-6,-6.140180893465752,-5.752457508654069,-6.0294707104001715
1770453633400,122,-6,-6.005797728394773,-5.78529388981508,-5.92117965121225
1770453633404,122,-6,-5.908916947670688,-5.820815766663063,-5.849309118334984
1770453633408,122,-6,-5.73790289893339,-5.8100233790899045,-5.702010820430307
1770453633412,123,-5,-5.443778691560389,-4.929882699504255,-5.431696195863137
1770453633416,123,-5,-5.04279221552153,-4.8112152671831865,-5.055959765222484
1770453633420,123,-5,-4.5767058499898505,-4.695956121154167,-4.616226035205387
1770453633424,124,-4,-4.087230846405242,-3.917870152734181,-4.152692975773511
1770453633428,124,-4,-3.618605952385368,-3.700856724853542,-3.7088121502429137
1770453633432,125,-3,-3.2157073280774067,-3.0783268988521417,-3.3300947996588426
1770453633436,125,-3,-2.900145697485569,-2.6135139443303856,-3.038968279390609
1770453633440,125,-3,-2.6513859617005937,-2.927643774061764,-2.814749914521838
1770453633444,125,-3,-2.4222847000884187,-2.640508502616412,-2.609860545113881
1770453633448,126,-2,-2.173712345505635,-2.0101541143006125,-2.385636550688509
1770453633452,126,-2,-1.8910593172643828,-1.7744646044128844,-2.128240929927657
1770453633456,126,-2,-1.5797907970734468,-1.887616347746476,-1.8426503689077545
1770453633460,126,-2,-1.264137810455536,-1.6700467680050977,-1.5516488012649186
1770453633464,127,-1,-0.9857789278236992,-0.868516693331402,-1.2965605859829492
1770453633468,127,-1,-0.7786499285092608,-0.8086603506643939,-1.1127200989545294
1770453633472,127,-1,-0.6345041240305112,-0.9783516825054018,-0.993242365300298
1770453633476,127,-1,-0.5085896370704792,-0.6574675420858095,-0.8929894220921574
1770453633480,127,-1,-0.3743009781335064,-0.9146933253470966,-0.7837780255608323
1770453633484,127,-1,-0.2656767731494551,-0.6047016734706293,-0.6987829224626705
1770453633488,128,0,-0.2456781378083253,-0.0798139432573523,-0.7016384975633482
1770453633492,127,-1,-0.3213604602927168,-0.7260927386674758,-0.8005494375149682
1770453633496,127,-1,-0.4002368079131642,-0.8645837294226792,-0.903356197201256
1770453633500,127,-1,-0.349850862600284,-0.7491516873779344,-0.8771752873543837
1770453633504,127,-1,-0.1125232964601918,-0.7201997341674629,-0.6640061797943155
1770453633508,128,0,0.2357560638424386,-0.0139015552599194,-0.3398601701584848
1770453633512,128,0,0.5411196656792225,0.2554350893450806,-0.0584999946810708
1770453633516,128,0,0.6933669411447844,0.1291549116596828,0.0702755495826813
1770453633520,128,0,0.7080533575379122,0.2716526067881134,0.0622403166690553
1770453633524,128,0,0.7029855950575769,0.2644536060522675,0.0348646600973719
1770453633528,128,0,0.7917323543608725,-0.0331455627073362,0.1010768146384659
1770453633532,128,0,0.9815042438645571,0.3340815320256237,0.267612725921954
1770453633536,129,1,1.1581624685806822,1.0039716228465805,0.4203654436211796
1770453633540,128,0,1.1678016147284866,0.4486874485232124,0.406057646041522
1770453633544,128,0,0.923525478980758,0.0488124195089144,0.1385262577225353
1770453633548,128,0,0.4554501028466473,0.1874248362124877,-0.3519538498133017
1770453633552,127,-1,-0.1206962513121274,-0.8648397998717219,-0.9499614271264613
1770453633556,126,-2,-0.6816928923834396,-1.828443080554903,-1.5325498967007465
1770453633560,126,-2,-1.1595887198644157,-1.6483971401905646,-2.0321080021279307
1770453633564,126,-2,-1.541784911085551,-1.9308818980010665,-2.436489307680004
1770453633568,125,-3,-1.8241298569131448,-2.770948414964386,-2.741470944360081
1770453633572,125,-3,-1.9848994292358328,-2.9443493108456265,-2.9246429131130784
1770453633576,125,-3,-2.0142787920388803,-2.7229424842552836,-2.975868016437032
1770453633580,125,-3,-1.9578882633891073,-2.743395271894439,-2.9412622302841407
1770453633584,125,-3,-1.916504419311501,-2.8644751359806713,-2.9220813310508915
1770453633588,125,-3,-1.9936786268964497,-2.7973153739375123,-3.02154424727196
1770453633592,125,-3,-2.2293353235957336,-2.9639784544598227,-3.2787100925664685
1770453633596,124,-4,-2.565811407033059,-3.648673698874451,-3.6354219074319047
1770453633600,124,-4,-2.870021969032646,-3.8592288055011617,-3.9590757019230303
1770453633604,124,-4,-2.9991677410456186,-3.7097024133708985,-4.10799572961323
1770453633608,124,-4,-2.8742684973906214,-3.980645870617884,-4.003955066155477
1770453633612,124,-4,-2.5265157259977737,-3.755360389736619,-3.678009823197211
1770453633616,125,-3,-2.0913292896677387,-2.861452958906047,-3.2649650403140655
1770453633620,125,-3,-1.745462923167992,-2.641152844825171,-2.9408838232676207
1770453633624,125,-3,-1.6203114030027412,-2.928271396814492,-2.836436060360257
1770453633628,125,-3,-1.7446730061342572,-2.766493363538881,-2.9800099873577044
1770453633632,125,-3,-2.04390177717812,-2.961466841490457,-3.297361456139273
1770453633636,124,-4,-2.384309466884667,-3.662506752273077,-3.65584836632902
1770453633640,124,-4,-2.6373702210337635,-3.8129224807108546,-3.927973091441089
1770453633644,124,-4,-2.7359786482364576,-3.7806310568035566,-4.047091113881094
1770453633648,124,-4,-2.69702068705459,-3.887709786636216,-4.029608973274981
1770453633652,124,-4,-2.601229948042688,-3.86051605302336,-3.95487902753714
1770453633656,124,-4,-2.542398092076465,-3.740618559188933,-3.915306132083028
1770453633660,124,-4,-2.568173700544146,-3.7399683166355167,-3.958361265037813
1770453633664,124,-4,-2.640860808824246,-3.8543834426590142,-4.047614255206158
1770453633668,124,-4,-2.6497483668684216,-3.807058109371879,-4.073948046920781
1770453633672,124,-4,-2.4854364769918234,-3.9468837952050246,-3.9285709681405
1770453633676,124,-4,-2.13634615231645,-3.6439118275243167,-3.599304361422792
1770453633680,125,-3,-1.7295023886283851,-2.824113551062736,-3.2121468755012628
1770453633684,125,-3,-1.4653334204631878,-2.7894159197691804,-2.966806824236222
1770453633688,125,-3,-1.482356046392768,-2.840345534493019,-3.001571084879725
1770453633692,125,-3,-1.753107516759571,-2.9532384675977132,-3.289099762894521
1770453633696,124,-4,-2.0934473163309075,-3.594917890216873,-3.64553150763296
1770453633700,124,-4,-2.2804865978011972,-3.905948865414837,-3.848415102861533
1770453633704,124,-4,-2.1899427980694286,-3.670284265259613,-3.7742372100828687
1770453633708,125,-3,-1.8507625079771537,-2.975918367392242,-3.452724042564894
1770453633712,125,-3,-1.3904576369596626,-2.80651581104507,-3.011274012901289
1770453633716,125,-3,-0.9369109439527435,-2.733869355896208,-2.576495868478456
1770453633720,126,-2,-0.557101745231839,-1.7872912646759958,-2.2139114231911465
1770453633724,126,-2,-0.2537542355149462,-1.758302665867968,-1.9257411287062003
1770453633728,126,-2,0.0104015770515333,-1.9157955183455744,-1.675495148452098
1770453633732,127,-1,0.2933875966666452,-0.8363509721262755,-1.4067226368723884
1770453633736,127,-1,0.6641271419684878,-0.7055899678562897,-1.0516834685899588
1770453633740,127,-1,1.178769870112358,-0.8407557637412254,-0.5539756071278376
1770453633744,128,0,1.8312173781822825,0.3491559074545829,0.0815898341138043
1770453633748,129,1,2.516248352492441,0.9187501109531476,0.7506630650337109
1770453633752,129,1,3.060680812657178,1.3859717540520786,1.2799048812749922
1770453633756,130,2,3.318658517992534,2.051388947650082,1.5230163718103715
1770453633760,129,1,3.2570097019331845,1.3929677698343528,1.4468426467750306
1770453633764,129,1,2.9601076722493977,1.1462995889259535,1.135970364568403
1770453633768,129,1,2.556627092148053,1.072645374254483,0.7188637930180308
1770453633772,128,0,2.1339355444886747,0.3051982387938806,0.2823654806406971
1770453633776,128,0,1.7013706302034386,0.0652288607949067,-0.1644357230590689
1770453633780,127,-1,1.2134849842478928,-0.5307335540721707,-0.6668468849935605
1770453633784,127,-1,0.6224514009051795,-1.0370899608624744,-1.2724376320736963
1770453633788,126,-2,-0.0836007746598651,-1.633988005346763,-1.9927188580870616
1770453633792,125,-3,-0.8823255836130729,-3.0820915086896012,-2.8049341535078125
1770453633796,124,-4,-1.743857667903809,-3.4596346735069456,-3.6792323069373287
1770453633800,124,-4,-2.6395605028339313,-4.051260109638805,-4.587508779579502
1770453633804,122,-6,-3.5176877433949088,-5.512953020183679,-5.478309735749944
1770453633808,122,-6,-4.283131637688767,-6.1247522250793045,-6.2562011298003934
1770453633812,121,-7,-4.819744479607862,-6.640397808268511,-6.8048154255039455
1770453633816,121,-7,-5.044740857255006,-6.824967396446106,-7.041779483456498
1770453633820,121,-7,-4.955577479671426,-6.758760584922103,-6.965012354327515
1770453633824,121,-7,-4.642337084399507,-6.726710575274022,-6.664514656421637
1770453633828,122,-6,-4.258040971056074,-5.988004517829852,-6.292991225637484
1770453633832,122,-6,-3.954483483203581,-5.699166990382718,-6.002080236494852
1770453633836,122,-6,-3.814223185874116,-5.827524544148347,-5.874026139120723
1770453633840,122,-6,-3.8217614755034055,-5.702974381789048,-5.892507570981202
1770453633844,122,-6,-3.8920697371057793,-5.8156941428751825,-5.971679421794705
1770453633848,122,-6,-3.932838160508462,-5.88734003505496,-6.019567240297799
1770453633852,122,-6,-3.8998430863843088,-5.786393352748194,-5.994177934581488
1770453633856,122,-6,-3.8183198184127902,-5.745972432821695,-5.924148085799872
1770453633860,122,-6,-3.7621612901546713,-5.770351191234864,-5.885406936469002
1770453633864,122,-6,-3.789719231387849,-5.75481824149643,-5.934023354321672
1770453633868,122,-6,-3.835239156093069,-5.954320418297145,-5.997265117568404
1770453633872,122,-6,-3.570160802561951,-5.699089128894103,-5.739055198556774
1770453633876,124,-4,-2.2986990427366756,-3.8429200100962184,-4.462009133725976
1770453633880,127,-1,0.978636977853138,-0.6435400472465751,-1.1740955827551545
1770453633884,133,5,7.1947680316483,5.1004983368364165,5.044981153670357
1770453633888,142,14,16.559829344588366,14.22021096838452,14.396223524399383
1770453633892,153,25,27.933067657547284,25.12232260797156,25.740054822712167
1770453633896,164,36,38.7299735214109,36.34196457677291,36.50302392379464
1770453633900,172,44,45.70048558547195,44.18423514591828,43.44869747027816
1770453633904,173,45,46.36759885351681,45.20874172949733,44.10790519786396
1770453633908,167,39,40.3453343557731,39.127551273752374,38.093234200555926
1770453633912,155,27,29.655279811259646,27.14060209747187,27.417854236387484
1770453633916,142,14,17.736628339244238,14.373105679090877,15.510216833241357
1770453633920,133,5,7.734000161041912,5.163484582964684,5.506257837740284
1770453633924,127,-1,1.1466184350546331,-0.7056663353449162,-1.097636940258891
1770453633928,124,-4,-2.3900044369799573,-3.9201099743484304,-4.660875191086507
1770453633932,122,-6,-4.265545881846091,-5.824640645903024,-6.56234650435836
1770453633936,120,-8,-5.751491340166032,-7.669564892813106,-8.063384815169602
1770453633940,118,-10,-7.33653178492235,-9.842175687648709,-9.649376734520995
1770453633944,116,-12,-8.809706775580159,-11.664270649725838,-11.11466330500792
1770453633948,116,-12,-9.777623309822443,-11.963191915961474,-12.07608320752296
1770453633952,116,-12,-10.092817127768289,-11.754785483529972,-12.39444551165525
1770453633956,116,-12,-9.915345809377076,-11.750163594483803,-12.230461424878769
1770453633960,116,-12,-9.520066452537565,-11.786507539613789,-11.85209799592125
1770453633964,116,-12,-9.119478003269784,-11.68874078872165,-11.463520629255038
1770453633968,117,-11,-8.827134225048425,-10.967376663387917,-11.17519334018438
1770453633972,117,-11,-8.688570051787332,-10.689527810203732,-11.036135389100355
1770453633976,117,-11,-8.680747175994068,-10.866324465992562,-11.029080266952109
1770453633980,117,-11,-8.69112897259728,-10.644169038507217,-11.044471700731822
1770453633984,117,-11,-8.55485031407422,-10.844499963275844,-10.91611750451628
1770453633988,117,-11,-8.168951034411506,-10.81542171511072,-10.53790184422836
1770453633992,118,-10,-7.592771331014943,-9.781008507945357,-9.96764452765376
1770453633996,119,-9,-7.02040657552578,-8.837754147498172,-9.400344419636808
1770453634000,119,-9,-6.625916823318328,-8.608828533925479,-9.01104585938147
1770453634004,119,-9,-6.419517367343007,-8.946407177596136,-8.809146007451211
1770453634008,119,-9,-6.247176457444757,-8.665803914740847,-8.639352603967662
1770453634012,120,-8,-5.92009423111379,-7.9362726363379,-8.313643258476816
1770453634016,120,-8,-5.34876331368922,-7.685529776154334,-7.745159606701105
1770453634020,121,-7,-4.586565718362053,-6.7269888741853086,-6.988993150460208
1770453634024,122,-6,-3.786384984147308,-5.873795874689353,-6.196703029317824
1770453634028,122,-6,-3.124373910258789,-5.693154582990346,-5.541093755008522
1770453634032,123,-5,-2.726860311679977,-4.943386906648981,-5.146283023103546
1770453634036,123,-5,-2.6073996868458877,-4.639481290386098,-5.026834803365305
1770453634040,123,-5,-2.6323499622345645,-4.7933200637856865,-5.052117697260779
1770453634044,123,-5,-2.5617190345246517,-4.7999842935691825,-4.984068581954368
1770453634048,123,-5,-2.183466081181976,-4.757206859667943,-4.610044933782593
1770453634052,124,-4,-1.4660223271375443,-3.898262883999799,-3.896823948546229
1770453634056,125,-3,-0.5988035951786393,-2.634252022063599,-3.0331966127225907
1770453634060,126,-2,0.133420587855403,-1.8370461336146984,-2.3043784697817333
1770453634064,126,-2,0.5445261172955815,-1.718960272023137,-1.8965292365764777
1770453634068,126,-2,0.645855104478045,-1.8720158899189088,-1.797470083324837
1770453634072,126,-2,0.5835021445347105,-1.77547680445029,-1.8606172687097635
1770453634076,126,-2,0.4997272461974729,-1.7374051321974793,-1.944520193515387
1770453634080,126,-2,0.4506936108838736,-1.743219030843285,-1.99442677570364
1770453634084,126,-2,0.4282256527282944,-1.7747507462310896,-2.019191126618538
1770453634088,126,-2,0.4282057456945699,-1.862000036792714,-2.0224243037433585
1770453634092,126,-2,0.4827584197602965,-1.7509055247543477,-1.97083950678156
1770453634096,126,-2,0.6287401457744495,-1.789161523051135,-1.8265958557466084
1770453634100,126,-2,0.8568452619932352,-1.642609621899079,-1.5989158754132653
1770453634104,127,-1,1.1082807357497513,-0.9043920022570544,-1.347516887731982
1770453634108,127,-1,1.334656663822004,-0.701250727617368,-1.1217765350791074
1770453634112,127,-1,1.558426311029193,-0.958961216558922,-0.8991873972408073
1770453634116,127,-1,1.858650958654501,-0.5283239520553129,-0.5998213183568766
1770453634120,128,0,2.28589524031193,0.0655898647471858,-0.1727231413366425
1770453634124,128,0,2.7889525724906568,0.4269475982292228,0.3302119775595299
1770453634128,129,1,3.2247331736145193,0.9485058376323146,0.7649120156616888
1770453634132,129,1,3.442935630447491,1.3864087835268195,0.9811000521240326
1770453634136,129,1,3.3726371970926805,1.14758585260432,0.909365104734176
1770453634140,128,0,3.0434714195612615,0.3654160095418274,0.5810431951284676
1770453634144,128,0,2.543050793076797,0.174131321351453,0.0834201566553484
1770453634148,128,0,1.9711072632746232,0.1574305878968878,-0.4863692066926584
1770453634152,127,-1,1.4249898051019896,-0.7844116710977946,-1.0329953398439835
1770453634156,126,-2,0.9833056257123828,-1.6984372773909449,-1.4767980717980485
1770453634160,126,-2,0.6614865300792763,-1.7759023929024007,-1.7995780883595869
1770453634164,126,-2,0.3897133921415648,-1.667895878664532,-2.070011129394562
1770453634168,126,-2,0.073036037620991,-2.033383382410226,-2.3844222576054364
1770453634172,125,-3,-0.3051263534626572,-2.537936415264216,-2.761130889956687
1770453634176,125,-3,-0.6475537149470043,-2.99923493268715,-3.103077009968042
1770453634180,124,-4,-0.8252682897272039,-3.42243590394796,-3.2802719400126548
1770453634184,125,-3,-0.798704878143839,-3.055455321192697,-3.252506807988053
1770453634188,125,-3,-0.6554564739434658,-2.628382715895391,-3.107626557610579
1770453634192,125,-3,-0.5292616945372364,-2.905977902927814,-2.9798418274066196
1770453634196,125,-3,-0.4836827540553719,-2.7011935760549566,-2.9328617511987685
1770453634200,125,-3,-0.4708113628457778,-2.6110602532482137,-2.9186905442872497
1770453634204,125,-3,-0.3974121308902845,-3.0180630586557227,-2.8438997490799283
1770453634208,125,-3,-0.2323217444526846,-2.4907703280288165,-2.67703690172454
1770453634212,126,-2,-0.0531310430690284,-2.1833331736962687,-2.4955450600801585
1770453634216,125,-3,0.0153091446558588,-2.305048263302773,-2.4245873484277016
1770453634220,126,-2,-0.0826989102835533,-2.075557724475207,-2.520477753469605
1770453634224,125,-3,-0.2721506500264768,-2.5525234988160244,-2.7083998985319164
1770453634228,125,-3,-0.4059999668015415,-2.902361452712401,-2.8405982944049755
1770453634232,125,-3,-0.3967799740390625,-2.8449988564188367,-2.828712739890277
1770453634236,125,-3,-0.2949179212690904,-2.5262929600927384,-2.723318485121409
1770453634240,126,-2,-0.2313368579789459,-1.9753226677116815,-2.656476962007574
1770453634244,125,-3,-0.2818233161952678,-2.541927047072148,-2.7046838956390564
1770453634248,125,-3,-0.3975457451506399,-3.001515839627554,-2.8186354626321664
1770453634252,125,-3,-0.4731029527552788,-2.6795379940272737,-2.892098184584502
1770453634256,125,-3,-0.4728231062159721,-2.7085496728137146,-2.889069610012996
1770453634260,125,-3,-0.4799561197431229,-2.80417828499317,-2.8928173636052468
1770453634264,125,-3,-0.6188011859886164,-2.6654593673259006,-3.027739107689939
1770453634268,125,-3,-0.9232266129349092,-2.9350755090385454,-3.3281054316332237
1770453634272,124,-4,-1.2753832196465156,-3.687980241371618,-3.6767381761360136
1770453634276,124,-4,-1.481484916043062,-3.7416297980916777,-3.880115008205949
1770453634280,124,-4,-1.4314694877542766,-3.733962591768417,-3.8275792390855856
1770453634284,124,-4,-1.2043831518482997,-3.749822401247021,-3.5973416087783896
1770453634288,125,-3,-1.0133589486234895,-2.8313116037610415,-3.4024785416023726
1770453634292,125,-3,-1.02216588359815,-2.799993393274668,-3.407356535702183
1770453634296,124,-4,-1.196066509783156,-3.6220120396407194,-3.577360722682979
1770453634300,124,-4,-1.334748196555802,-3.860376545875535,-3.711696122596401
1770453634304,124,-4,-1.2612272777080389,-3.614088528213824,-3.633513901474326
1770453634308,125,-3,-0.9827049125779408,-2.964836717534444,-3.3510714505179253
1770453634312,125,-3,-0.673878545821059,-2.6513680619481788,-3.039504945954452
1770453634316,125,-3,-0.5144989282151042,-2.761132339995524,-2.8773335727753753
1770453634320,125,-3,-0.5388557274096396,-2.746628137319481,-2.8972300974878875
1770453634324,125,-3,-0.6182970390813478,-2.703715608186791,-2.970522667367782
1770453634328,125,-3,-0.5726301366280161,-2.9025552234653196,-2.918697920315238
1770453634332,125,-3,-0.3129088806857758,-2.664591450545733,-2.6544570186701253
1770453634336,126,-2,0.0918018516073703,-1.7591959368202923,-2.2469477629978396
1770453634340,126,-2,0.4683394687776,-1.7522691920844182,-1.8679197962145595
1770453634344,126,-2,0.6703008145261886,-1.6890783577692972,-1.662251907574413
1770453634348,127,-1,0.6908734856539235,-0.943007259252294,-1.636272593139163
1770453634352,126,-2,0.6770694953562006,-1.567702729459341,-1.6433902222153525
1770453634356,126,-2,0.8304705871747786,-1.900105488323836,-1.482848333538628
1770453634360,127,-1,1.2651376750902874,-0.5626089085075076,-1.0418815782124886
1770453634364,128,0,1.932404246249791,0.0771818632475553,-0.3704449459327531
1770453634368,128,0,2.658561593393988,0.3185677435314162,0.3579565694332756
1770453634372,129,1,3.2399637443497475,1.192425932675803,0.9417599451177356
1770453634376,129,1,3.5199207386715456,1.3154703553024156,1.2263566830826738
1770453634380,129,1,3.428429351685997,1.239421498037388,1.1418198498299126
1770453634384,129,1,2.9999557781478803,1.2541748901138967,0.7209541459151257
1770453634388,128,0,2.364112619219735,0.1588315851908011,0.0919132735557992
1770453634392,127,-1,1.6887901998119457,-0.6276226634522204,-0.5775679703841359
1770453634396,127,-1,1.0901531462300218,-0.8731382181916127,-1.170908301120106
1770453634400,126,-2,0.5697301831730659,-1.5690878143383953,-1.6865753033332749
1770453634404,126,-2,0.027811500620092,-1.94379685043963,-2.2244055586644205
1770453634408,125,-3,-0.6604806933928904,-2.6242359311017815,-2.9086720747167107
1770453634412,124,-4,-1.5642293473713966,-3.8314979961216538,-3.807264958775237
1770453634416,123,-5,-2.654710531013323,-4.690414982856568,-4.890899790209152
1770453634420,122,-6,-3.80616371728909,-5.7205786465115205,-6.034591391697177
1770453634424,121,-7,-4.827325453407654,-6.852848785560285,-7.04835694314918
1770453634428,120,-8,-5.520881299391305,-7.613301661495531,-7.735394989047074
1770453634432,120,-8,-5.761992802658362,-7.924216278424504,-7.9705233910116915
1770453634436,120,-8,-5.559019485470227,-7.510915223980508,-7.761824922875125
1770453634440,121,-7,-5.053752963300203,-6.977763216885214,-7.251346682453685
1770453634444,121,-7,-4.457402679589594,-6.5480938097422285,-6.650525478916249
1770453634448,122,-6,-3.963411414736048,-5.915289078887403,-6.152213783095801
1770453634452,122,-6,-3.684914563886197,-5.637285757657315,-5.868054646892716
1770453634456,122,-6,-3.6373291883793826,-5.75482743548151,-5.812047621826622
1770453634460,122,-6,-3.7564704955563464,-5.810892424788718,-5.920231197136544
1770453634464,122,-6,-3.932814614289782,-5.625089656818292,-6.085640573032381
1770453634468,122,-6,-4.055967039084493,-5.91105970342751,-6.2014668211782835
1770453634472,121,-7,-4.069706651627326,-6.543786564480229,-6.213619605748587
1770453634476,122,-6,-4.00311080718636,-5.936660909211567,-6.1499261165702235
1770453634480,122,-6,-3.9068952409843463,-5.561107460407852,-6.056016690265298
1770453634484,122,-6,-3.670903244272395,-5.930152523794841,-5.814726678129755
1770453634488,123,-5,-2.8200010478052793,-4.543960136323322,-4.946787724599769
1770453634492,126,-2,-0.4722261272166212,-1.9180254538547523,-2.5737693474257015
1770453634496,130,2,4.38517309154547,2.414873202130712,2.3062922590929604
1770453634500,138,10,12.30283981932596,10.143167521738476,10.232944721350137
1770453634504,148,20,22.70814746856795,20.306223507932263,20.630570816113064
1770453634508,159,31,33.619180507070865,31.32511827509952,31.52521773857446
1770453634512,168,40,42.10864231765176,40.128687533515745,40.00308434688184
1770453634516,172,44,45.48648188507042,44.40822140183362,43.38391558154914
1770453634520,170,42,42.63157662218266,42.06563183601491,40.54737600228096
1770453634524,160,32,34.63838951923957,32.394761704218254,32.581274655623936
1770453634528,149,21,24.274375557997732,21.22992680060121,22.24353984561581
1770453634532,140,12,14.538930107593425,12.252125665800218,12.52494645920124
1770453634536,133,5,7.257508527613348,5.3200927652833165,5.246585552251169
1770453634540,129,1,2.572240454178107,1.186975678759108,0.5533310339349018
1770453634544,126,-2,-0.5167756651243858,-1.699339748536972,-2.545561588380666
1770453634548,123,-5,-3.1268440293117674,-4.694622327728764,-5.15731335214694
1770453634552,120,-8,-5.750132034176499,-7.848998768154688,-7.769690898032331
1770453634556,117,-11,-8.1881503110119,-10.578457400917523,-10.188107329099928
1770453634560,116,-12,-9.994663170954974,-11.913518678460628,-11.975239151261896
1770453634564,115,-13,-10.950284315979172,-12.552087714141598,-12.919024880929497
1770453634568,115,-13,-11.211681791493822,-12.848035666650858,-13.177100708567895
1770453634572,115,-13,-11.128826986006567,-12.717516154199991,-13.094545312922426
1770453634576,115,-13,-10.974496603718478,-12.692527458568446,-12.937912788896409
1770453634580,115,-13,-10.82028824181959,-12.842768829055936,-12.7756489420459
1770453634584,115,-13,-10.606637018666076,-12.53226674718101,-12.549469536250786
1770453634588,116,-12,-10.282849708957269,-11.93312397696036,-12.212721664924295
1770453634592,116,-12,-9.871313511959896,-11.579707690716392,-11.791506099249938
1770453634596,117,-11,-9.424331961852848,-10.886439631429807,-11.338882184685003
1770453634600,117,-11,-8.960617605965423,-10.610149229337702,-10.870877631788492
1770453634604,117,-11,-8.470690289963159,-10.753885801904412,-10.374328209306436
1770453634608,118,-10,-7.974669827686287,-9.718433844207176,-9.86830319677277
1770453634612,119,-9,-7.53634641298635,-8.77466491355528,-9.419139262134756
1770453634616,119,-9,-7.195100740895768,-8.736704500786429,-9.069159513911773
1770453634620,119,-9,-6.901551364383663,-8.704960497389056,-8.768824975128197
1770453634624,119,-9,-6.5540581679053735,-8.676525721387922,-8.413970474876763
1770453634628,120,-8,-6.102625035306219,-7.785860521812611,-7.953350484792347
1770453634632,121,-7,-5.5944010409918095,-6.6989514266529016,-7.4354780172011
1770453634636,121,-7,-5.110865536540557,-6.838756967223039,-6.943425591373446
1770453634640,121,-7,-4.682274918481973,-6.5551514929665515,-6.507145737821843
1770453634644,122,-6,-4.277956111608562,-5.8479114217724675,-6.094734060074573
1770453634648,122,-6,-3.864608233971538,-5.606843173997919,-5.672629248939638
1770453634652,123,-5,-3.4526253894956858,-4.8762922572556615,-5.2518478670019695
1770453634656,123,-5,-3.084352838952232,-4.665364321719192,-4.874924855184537
1770453634660,123,-5,-2.785708304815258,-4.695369961612118,-4.567359587837201
1770453634664,124,-4,-2.526553505714088,-3.7373930950716736,-4.298902100664282
1770453634668,124,-4,-2.221330707787581,-3.6771503884736743,-3.984381227048275
1770453634672,124,-4,-1.7790638079619563,-3.864026953044759,-3.5330656898128874
1770453634676,125,-3,-1.1762669917619866,-2.6001946606850552,-2.921461522055515
1770453634680,126,-2,-0.4922508863677732,-1.8111949272361751,-2.228947019252421
1770453634684,126,-2,0.1317646619073418,-1.5753649700260792,-1.5966870206530688
1770453634688,127,-1,0.5772901804107516,-0.8609110075365445,-1.1427033006920475
1770453634692,127,-1,0.8081197797868571,-0.6858328680148272,-0.9027153749900704
1770453634696,127,-1,0.8685633314787896,-0.7583236175142354,-0.8324588772602484
1770453634700,127,-1,0.8370226507320635,-0.6584516172082177,-0.8540690341938486
1770453634704,127,-1,0.7777076905656759,-0.7073635690381707,-0.903880634508002
1770453634708,127,-1,0.7235736886640513,-0.7412365886298691,-0.9490827153828472
1770453634712,127,-1,0.6919071207046752,-0.797851086365438,-0.9720691022789772
1770453634716,127,-1,0.7071107359967754,-0.6497233151417491,-0.9479088175782396
1770453634720,127,-1,0.8041746799711436,-0.7430337704743067,-0.8413058208633226
1770453634724,127,-1,1.0094764518023824,-0.6351944143615422,-0.6261372710375243
1770453634728,128,0,1.3196955299158637,0.2074830227549722,-0.3063223065644542
1770453634732,128,0,1.698198288656278,0.2296408213285327,0.0812912484911451
1770453634736,128,0,2.086509394424377,0.3478396701258077,0.4786394563277296
1770453634740,129,1,2.4206182040879836,1.2582400834560326,0.8220935371599132
1770453634744,129,1,2.650192062239095,1.3697167279714078,1.0612521358983404
1770453634748,129,1,2.753853552188781,1.203862800792317,1.174604824925594
1770453634752,129,1,2.7359588829043004,1.2282151178644272,1.1665102714452529
1770453634756,129,1,2.6087369337910875,1.36107693637889,1.0490668555448923
1770453634760,129,1,2.381157829459565,1.244396205605439,0.8311369237012923
1770453634764,128,0,2.0598122280020124,0.4030706725054829,0.51953423013845
1770453634768,128,0,1.6510233928189608,0.156823456542558,0.12063332575754
1770453634772,128,0,1.1654998868869315,0.2822720065939921,-0.3553882159919177
1770453634776,127,-1,0.6290322635754582,-0.6879985331087082,-0.8829398283009795
1770453634780,126,-2,0.082568699377437,-1.706070341057636,-1.4201810834324733
1770453634784,126,-2,-0.4352020421952643,-1.6190823895819342,-1.9275512130246772
1770453634788,126,-2,-0.893811399895909,-1.8487836099344173,-2.3750727857260143
1770453634792,125,-3,-1.249649989131384,-2.6930718522269803,-2.7203495308925274
1770453634796,125,-3,-1.435226866094126,-2.7104356879013163,-2.8963021700981177
1770453634800,125,-3,-1.3972337495866831,-2.679659009293867,-2.8490467031422417
1770453634804,125,-3,-1.1566498975580883,-2.62945693062333,-2.5989971114755215
1770453634808,126,-2,-0.8245301901289068,-1.85751740837952,-2.257216234380177
1770453634812,126,-2,-0.545320030975455,-1.6597482979880367,-1.9682990718789817
1770453634816,126,-2,-0.4109935909977665,-1.7603804595461126,-1.8240025432944729
1770453634820,126,-2,-0.4167489453209075,-1.6028843275786042,-1.819226341192564
1770453634824,126,-2,-0.4875388503459102,-1.7211314892533505,-1.8791522078935552
1770453634828,126,-2,-0.5438587138988018,-1.7637021823996808,-1.924945987768001
1770453634832,126,-2,-0.5531914921687987,-1.7342399482885045,-1.9244758368732937
1770453634836,126,-2,-0.5358433701942675,-1.70053960100928,-1.8977213043743
1770453634840,126,-2,-0.5311312736407339,-1.628478287995497,-1.8832899406969488
1770453634844,126,-2,-0.5561190062451817,-1.7226606759955572,-1.89783332028269
1770453634848,126,-2,-0.5904180396270493,-1.746271372878318,-1.9212403251776995
1770453634852,126,-2,-0.5974308080098685,-1.74914095180677,-1.9176362915795324
1770453634856,126,-2,-0.5632583998530063,-1.6872063627303462,-1.8735796012117236
1770453634860,126,-2,-0.5217074942279023,-1.6130064207479455,-1.8225801251656817
1770453634864,126,-2,-0.5435118991728132,-1.7678668972633516,-1.8346495841630297
1770453634868,126,-2,-0.6910390369398418,-1.6723055789149073,-1.9717866304660747
1770453634872,126,-2,-0.966312687161969,-1.8432126767451495,-2.2362400098899844
1770453634876,125,-3,-1.2950048753391106,-2.5681227962071698,-2.5540640176857514
1770453634880,125,-3,-1.5684433347798377,-2.733360834334822,-2.8168372674150732
1770453634884,125,-3,-1.714194109810108,-2.6484421963161973,-2.952319182616851
1770453634888,125,-3,-1.7366697667650175,-2.784337386461027,-2.9649277124624502
1770453634892,125,-3,-1.6988981660444566,-2.734494328991973,-2.9172870367860972
1770453634896,125,-3,-1.6689410068356934,-2.6521766477030546,-2.8769867830382574
1770453634900,125,-3,-1.6755686990705114,-2.665582692302654,-2.8728787643422904
1770453634904,125,-3,-1.7018377056905367,-2.700123225382977,-2.8886171528780538
1770453634908,125,-3,-1.7154617502446714,-2.7475500018545564,-2.892271976623864
1770453634912,125,-3,-1.7084364570273425,-2.750224377839823,-2.8754310816772604
1770453634916,125,-3,-1.7093877348456443,-2.6383548762175093,-2.8659464833853288
1770453634920,125,-3,-1.7524534272072516,-2.6616712440880885,-2.8977320995244575
1770453634924,125,-3,-1.8267239600975396,-2.7279867385140157,-2.9606100810260862
1770453634928,125,-3,-1.856381007483532,-2.6877828441385443,-2.979793430617596
1770453634932,125,-3,-1.7433189619632046,-2.8415827574253303,-2.8574003742755743
1770453634936,125,-3,-1.4471336347154913,-2.49598644263198,-2.5521124919310045
1770453634940,126,-2,-1.030097435943469,-1.8361060584970044,-2.125038276393746
1770453634944,126,-2,-0.6115786758900549,-1.527683520735258,-1.695303705208211
1770453634948,127,-1,-0.2577770791374383,-0.8984883408215628,-1.3299463566056025
1770453634952,127,-1,0.092986631854453,-0.63138000257341,-0.9681853689190028
1770453634956,127,-1,0.5834207375606444,-0.6748550573037548,-0.4673600684825384
1770453634960,128,0,1.2915394785699617,0.2987745395476966,0.2509887379928484
1770453634964,129,1,2.115542772304735,1.4097512911744454,1.0850639614363566
1770453634968,130,2,2.8055603787510828,2.080683326087527,1.7845892607382772
1770453634972,130,2,3.123922920112246,2.494028209462034,2.1120245593178124
1770453634976,130,2,2.996300381732111,2.1106063682720517,1.994047392613159
1770453634980,129,1,2.5322503944318253,1.577660865248392,1.5411814268127326
1770453634984,129,1,1.9179759306808368,1.092517557266903,0.9393860396519464
1770453634988,128,0,1.288366543357552,0.4145016844027968,0.3220318293889838
1770453634992,128,0,0.6791394883260317,0.1942442136578983,-0.276706994003455
1770453634996,127,-1,0.0672107526920642,-0.6196990417877677,-0.8800822784798461
1770453635000,126,-2,-0.5699377854940364,-1.6546804798634986,-1.509257586727088
1770453635004,126,-2,-1.2356499354447426,-1.7247009958248278,-2.1658695885040653
1770453635008,125,-3,-1.9306783670823264,-2.711191129501691,-2.849906893076605
1770453635012,124,-4,-2.6607028494325164,-3.7169226323473312,-3.5677636400137285
1770453635016,124,-4,-3.4106088881780545,-3.651037637526941,-4.306022863163871
1770453635020,123,-5,-4.110820914667839,-4.66892511533249,-4.996266820306673
1770453635024,122,-6,-4.65048813832208,-5.698162523131197,-5.526967168791542
1770453635028,122,-6,-4.955841710586448,-5.716488685735691,-5.82260804719335
1770453635032,122,-6,-5.069118290453852,-5.736525575627054,-5.924797727342489
1770453635036,122,-6,-5.139321428168631,-5.566545346254498,-5.983818793900491
1770453635040,122,-6,-5.3223970291374325,-5.81793930129766,-6.157248724283296
1770453635044,121,-7,-5.6857649823333025,-6.497042740065567,-6.5126821740781775
1770453635048,121,-7,-6.199705343979152,-6.967143697754486,-7.018985038243022
1770453635052,120,-8,-6.7958346374488245,-7.4353709680758975,-7.605880086726008
1770453635056,120,-8,-7.407559924677224,-7.879835202350689,-8.205449219866356
1770453635060,119,-9,-7.949723754518531,-8.495763775863379,-8.732600817430626
1770453635064,119,-9,-8.284250576933502,-8.807543097013228,-9.051529814647235
1770453635068,119,-9,-8.250055195816266,-8.697773985591368,-9.005423948931387
1770453635072,119,-9,-7.773028272869143,-8.628886234761179,-8.523993409803527
1770453635076,120,-8,-6.968183365847258,-7.757290595288503,-7.721811966406157
1770453635080,121,-7,-6.094373148189618,-6.517997160476787,-6.851079547058335
1770453635084,122,-6,-5.295190345014457,-5.885865358662346,-6.045421495354374
1770453635088,123,-5,-4.240708886817151,-4.542046770473103,-4.968896447322219
1770453635092,126,-2,-1.9509632493388416,-1.830170562148083,-2.645813744389773
1770453635096,130,2,2.9146458791772902,2.4824532914946964,2.2507666931940618
1770453635100,138,10,11.253463081571836,10.259851382762278,10.603911785793647
1770453635104,149,21,22.55547225345503,21.32013295846301,21.89872134870038
1770453635108,161,33,34.441547734682025,33.2943432189354,33.764160054699076
1770453635112,171,43,43.253870096349694,43.29031553087048,42.55855729388405
1770453635116,174,46,45.63511313176977,46.398719423557665,44.93938903405197
1770453635120,168,40,40.28547973261785,40.25993899684254,39.61215108625443
1770453635124,156,28,28.802545974710732,28.31671411124211,28.16739428186368
1770453635128,142,14,14.997677699329891,14.262930168312836,14.401233669781814
1770453635132,129,1,3.0423299130899504,1.369882098182701,2.47036471620409
1770453635136,122,-6,-4.452906266035662,-5.601173049928605,-5.0211555598349875
1770453635140,121,-7,-7.311215310937229,-6.702357394586956,-7.892243834043898
1770453635144,121,-7,-7.235054967035342,-6.704048372623722,-7.832937149139111
1770453635148,121,-7,-6.395578609220097,-6.760654129397529,-7.000294839374529
1770453635152,121,-7,-6.18720800423724,-6.613079304114722,-6.781052128660949
1770453635156,120,-8,-6.834067221689509,-7.632915764823874,-7.402807654585972
1770453635160,119,-9,-7.807484116256029,-8.658489505202054,-8.348696449356256
1770453635164,119,-9,-8.512920141225898,-8.723490800614611,-9.03579522953711
1770453635168,119,-9,-8.716089773624025,-8.767091448061233,-9.233649625513838
1770453635172,119,-9,-8.54179791210078,-8.580908171535674,-9.061747254890095
1770453635176,119,-9,-8.233262162818662,-8.67233452713555,-8.754038015965321
1770453635180,119,-9,-7.947128017361384,-8.61289739591889,-8.461293679623019
1770453635184,120,-8,-7.705639222426627,-7.748936426550311,-8.206821541860112
1770453635188,120,-8,-7.453141162899224,-7.768141665199034,-7.940318025685333
1770453635192,120,-8,-7.122931660021296,-7.557921098949366,-7.599318376412793
1770453635196,121,-7,-6.674537160487763,-6.693323418261118,-7.143614859174639
1770453635200,121,-7,-6.106396681056005,-6.593811487114262,-6.569270380757448
1770453635204,122,-6,-5.453678600747388,-5.745003204554735,-5.9094444332408775
1770453635208,123,-5,-4.773800904852807,-4.798352843646732,-5.221438881956746
1770453635212,123,-5,-4.1256784430077005,-4.494303351478494,-4.565111106190306
1770453635216,124,-4,-3.5564498755682563,-3.7873604085896138,-3.9880785335652855
1770453635220,124,-4,-3.1004836573030055,-3.4466589218758696,-3.5243922287459335
1770453635224,125,-3,-2.775341037591593,-2.9498426293614366,-3.1912106115098053
1770453635228,125,-3,-2.5628502819581236,-2.527360697652519,-2.9703093183001803
1770453635232,125,-3,-2.39388892828828,-2.822107425316113,-2.792756637142958
1770453635236,125,-3,-2.1672279701116044,-2.4057627867501283,-2.5577453676948085
1770453635240,126,-2,-1.8018887370559051,-1.848372633757807,-2.1848941345767336
1770453635244,126,-2,-1.2878366019095062,-1.5429795570158478,-1.6643362906030408
1770453635248,127,-1,-0.7004867734189173,-0.9165175004383728,-1.0707886793001269
1770453635252,127,-1,-0.1665207042642481,-0.4471358442665727,-0.5300558802392156
1770453635256,128,0,0.2090892758289958,0.2363958398567,-0.1470109631585263
1770453635260,128,0,0.41618335838911,0.5100401049933189,0.0677588748344483
1770453635264,128,0,0.5542543343212119,0.0927478681631746,0.2136666022739025
1770453635268,128,0,0.7649524106801935,0.4641957351538803,0.4324510899887523
1770453635272,129,1,1.134867400777977,1.164187388249557,0.8101222658556086
1770453635276,129,1,1.6505913080653642,1.6375884075167164,1.3323734476849245
1770453635280,130,2,2.227898102510874,2.121659195153514,1.915068149034791
1770453635284,130,2,2.7665950489368707,2.4698123200364233,2.459212201139186
1770453635288,131,3,3.185445495245705,3.1045249534050403,2.884454303699266
1770453635292,131,3,3.4375349670028066,3.4972035911519117,3.143565761680637
1770453635296,131,3,3.5208303016770532,3.35034621105908,3.233774459894323
1770453635300,131,3,3.4793490545007324,3.370743009257771,3.1989618599003236
1770453635304,131,3,3.3861810714822376,3.280308389846565,3.112505067709036
1770453635308,131,3,3.3180785981627854,3.222612902757847,3.0510910955974273
1770453635312,131,3,3.336936313896429,3.4543667194876804,3.0761764614757015
1770453635316,131,3,3.4769962457066312,3.3392812959401574,3.2218395478360953
1770453635320,131,3,3.729679817944984,3.444542457516905,3.4797801883489
1770453635324,132,4,4.036055084139985,4.166994838528939,3.791327982514439
1770453635328,132,4,4.307302354621958,4.3571893612059,4.067805392918584
1770453635332,132,4,4.468510132109291,4.308506629596158,4.234663251021281
1770453635336,132,4,4.492676651369753,4.504963412851988,4.265230089681212
1770453635340,132,4,4.401815779938071,4.283017652503254,4.181024372107126
1770453635344,132,4,4.242373267216038,4.318084360951339,4.027308254160203
1770453635348,132,4,4.051294347673913,4.224971485194406,3.8405587317946464
1770453635352,131,3,3.822638787095763,3.4199895662914908,3.615855979800032
1770453635356,131,3,3.4935881479945374,3.429622241088345,3.2916458234059394
1770453635360,131,3,2.9784408803314832,3.348210821835182,2.7821054711673963
1770453635364,130,2,2.243793428355743,2.250247291216615,2.052684979550387
1770453635368,129,1,1.3587993865412336,1.3109114848063144,1.1720769947512273
1770453635372,128,0,0.4602060798734473,0.308481137908643,0.2777719124300608
1770453635376,127,-1,-0.3408526139821453,-0.4170973538536617,-0.5183446131691352
1770453635380,127,-1,-1.0175270042649145,-0.8318801525007045,-1.1897340709542708
1770453635384,126,-2,-1.5966930751806876,-1.5295534306323968,-1.7642694299906156
1770453635388,126,-2,-2.0811902210611417,-1.9439265069678684,-2.2452461354805964
1770453635392,125,-3,-2.414403332118201,-2.400431280478602,-2.5753312077759207
1770453635396,125,-3,-2.527704958752387,-2.739360799734458,-2.6847432604509436
1770453635400,125,-3,-2.4188551935530285,-2.4702286637807873,-2.5710797928250257
1770453635404,126,-2,-2.1712012220471086,-1.907432337006846,-2.3188832595243256
1770453635408,126,-2,-1.88644173730076,-1.5513642847236284,-2.0309254204531086
1770453635412,126,-2,-1.60322289306829,-1.789036259012785,-1.7452300892322787
1770453635416,126,-2,-1.2911761115037763,-1.3753363075683178,-1.4297393387867463
1770453635420,127,-1,-0.920625739169023,-0.7835570268120258,-1.0542973756358789
1770453635424,127,-1,-0.5228934012393622,-0.6528357746840069,-0.6519261974171776
1770453635428,128,0,-0.1763702454464213,0.283965051012954,-0.3030254152008037
1770453635432,128,0,0.0542509581613828,0.2921575009838285,-0.0718975792764831
1770453635436,127,-1,0.1499406642243803,-0.382921667901029,0.0252072188950538
1770453635440,128,0,0.118407498154669,0.1602050152932708,-0.0021137003887229
1770453635444,128,0,-0.0196498583972694,0.4617725855241665,-0.13461187046497
1770453635448,128,0,-0.2025050329499955,0.1446810438395648,-0.3134924147019357
1770453635452,127,-1,-0.3147462878369819,-0.5371928181251808,-0.4241849796564664
1770453635456,127,-1,-0.2562166018784751,-0.5727428684119564,-0.3648777409586113
1770453635460,128,0,-0.0447568080564995,0.3435685538605598,-0.1518774677998939
1770453635464,128,0,0.1678496258307303,0.3073724434858376,0.0629017055157648
1770453635468,128,0,0.2048534646582286,0.2891400960725592,0.1019245205559647
1770453635472,128,0,0.0028484004834842,0.3569779269492239,-0.0983026420087129
1770453635476,127,-1,-0.3439712018463905,-0.5136377232410344,-0.4430302719008177
1770453635480,127,-1,-0.6643385331103808,-0.706489534224964,-0.7607357851341088
1770453635484,127,-1,-0.8363763582526907,-0.6237474858529637,-0.9300878596346398
1770453635488,127,-1,-0.8533844558562171,-0.7747258758563913,-0.9452369228055164
1770453635492,127,-1,-0.7908834475614026,-0.5475691630068257,-0.8820012134824348
1770453635496,127,-1,-0.7267752427127416,-0.6366897466028488,-0.8177863069871187
1770453635500,127,-1,-0.6931257423893159,-0.610649143225495,-0.783882571035321
1770453635504,127,-1,-0.6901260632120606,-0.6567438044843259,-0.7800732104739685
1770453635508,127,-1,-0.7264992506945095,-0.8004783662238426,-0.8152419431726139
1770453635512,127,-1,-0.829158919194587,-0.4093163129092716,-0.916632970857762
1770453635516,127,-1,-1.006456506979614,-0.8963234180611956,-1.0925732023654806
1770453635520,126,-2,-1.2078270060104856,-1.2713450106328916,-1.292313343818673
1770453635524,127,-1,-1.3313610620983165,-1.0457548573536344,-1.4144321920514975
1770453635528,126,-2,-1.2826873341082865,-1.3631766354634496,-1.3657664737638333
1770453635532,127,-1,-1.041252690321668,-0.8273535446644072,-1.1262630311098536
1770453635536,127,-1,-0.685175011300539,-0.5232680422375303,-0.7725859422931511
1770453635540,127,-1,-0.3511054078483775,-0.6054780006021637,-0.4390170899355898
1770453635544,128,0,-0.1389410875063448,0.2354048897753062,-0.2247617832037524
1770453635548,128,0,-0.0129567365481837,0.444810515649732,-0.0959689229032146
1770453635552,128,0,0.212555011238945,0.306053445950931,0.1307144436910681
1770453635556,128,0,0.7459976003841533,0.3953203262272025,0.6630622371532775
1770453635560,129,1,1.6193003485430462,1.4146401672086246,1.5338173780566664
1770453635564,131,3,2.5938997776922923,3.252703883931432,2.505353703231679
1770453635568,131,3,3.283535310893729,3.454224302625639,3.1923216430356276
1770453635572,131,3,3.4089850022130186,3.285125740981996,3.316543454217736
1770453635576,131,3,2.982264646227673,3.43333616623912,2.890409476412721
1770453635580,130,2,2.285104768543756,2.312931826177092,2.194803391372595
1770453635584,129,1,1.6666100583678791,1.3961293211747166,1.5774315761486153
1770453635588,129,1,1.3092923427033376,1.338068218928009,1.2195782514003854
1770453635592,129,1,1.1315749373503945,1.4108817342398683,1.0388408155364248
1770453635596,129,1,0.8873564446548896,1.309147648410902,0.789371724163466
1770453635600,128,0,0.3617119347692042,0.397481493367787,0.2583093082052321
1770453635604,127,-1,-0.5019444156516943,-0.674280394921112,-0.6080945450050006
1770453635608,126,-2,-1.612310879299275,-1.563506887208882,-1.717551544445708
1770453635612,125,-3,-2.8113014634568536,-2.6770232217438674,-2.9141942629308373
1770453635616,124,-4,-3.932484215039732,-3.608922419425471,-4.03519012026589
1770453635620,123,-5,-4.824744880353284,-4.696113997655148,-4.931117908913075
1770453635624,122,-6,-5.389311503236787,-5.590979275178585,-5.501632384907261
1770453635628,122,-6,-5.639639866014803,-5.595852552725265,-5.757122659987124
1770453635632,122,-6,-5.7207421244711965,-5.656428582517774,-5.840902971594748
1770453635636,122,-6,-5.829957133645139,-5.612896763659692,-5.9511773718947465
1770453635640,122,-6,-6.076757550630756,-5.725958763922771,-6.199630745031407
1770453635644,121,-7,-6.399272164527834,-6.550787498277806,-6.525743150815161
1770453635648,121,-7,-6.621838516608033,-6.623235295604505,-6.75305449268043
1770453635652,121,-7,-6.6128926012198255,-6.603181841493958,-6.747703523274624
1770453635656,121,-7,-6.405892315221599,-6.681819341050273,-6.541581400858653
1770453635660,122,-6,-6.1745198607668375,-5.657501940516923,-6.3095706531733455
1770453635664,122,-6,-6.0884062060180275,-5.6174391050659045,-6.224999890038386
1770453635668,121,-7,-6.191266422536935,-6.555002233536915,-6.335085616989581
1770453635672,121,-7,-6.408524981637053,-6.631900716293705,-6.56561355549601
1770453635676,121,-7,-6.622822453614689,-6.69791550701131,-6.795138078482125
1770453635680,121,-7,-6.646860188468065,-6.613789475309996,-6.828853115835883
1770453635684,122,-6,-6.029743117072652,-5.677593841592916,-6.208870042471745
1770453635688,124,-4,-3.871456460868481,-3.451851046159009,-4.034637440821292
1770453635692,129,1,1.0481495873324054,1.262063424801006,0.9044855917044284
1770453635696,137,9,9.657107590007715,9.41384358119577,9.52077997145074
1770453635700,149,21,21.690370328306575,21.27176230955095,21.538054452268412
1770453635704,162,34,35.05023166921301,34.45417817286444,34.86199986330117
1770453635708,173,45,46.03747052010874,45.4404320374985,45.81078418557792
1770453635712,179,51,50.67343557199812,51.33692960757706,50.4251632376007
1770453635716,176,48,46.623001385672936,48.307842184279195,46.37831138562442
1770453635720,163,35,34.62902252064744,35.30984101114188,34.406797297318555
1770453635724,145,17,18.42484347260656,17.425580353058134,18.22929665522765
1770453635728,129,1,2.9821714925980176,1.4981416616771035,2.8026545057809003
1770453635732,119,-9,-7.884635007255779,-8.671566518790877,-8.06821366591889
1770453635736,115,-13,-13.058564626137844,-12.614186199788357,-13.26660860749211
1770453635740,115,-13,-13.955855996701152,-12.751135097881225,-14.198601863810111
1770453635744,115,-13,-13.043316227237558,-12.498348568312174,-13.314692547913424
1770453635748,115,-13,-12.224204955532688,-12.62661279333116,-12.505747424272236
1770453635752,115,-13,-12.10151080740165,-12.575479270549495,-12.374955328974488
1770453635756,115,-13,-12.291212761160196,-12.711312969766004,-12.550320688034311
1770453635760,115,-13,-12.22423057140179,-12.633691760143352,-12.476828823185253
1770453635764,116,-12,-11.730881149991864,-11.572956932573632,-11.990969938388098
1770453635768,117,-11,-11.075601665698906,-10.582392738760063,-11.353042488514651
1770453635772,117,-11,-10.60524157743422,-10.620521250666004,-10.900480248359743
1770453635776,117,-11,-10.41773400646749,-10.689587221772245,-10.723785591326
1770453635780,117,-11,-10.32858920297134,-10.616417898330772,-10.63747988933323
1770453635784,117,-11,-10.09149706193463,-10.579795887464918,-10.40023690143422
1770453635788,118,-10,-9.620885515661648,-9.579436157057366,-9.933026562095668
1770453635792,119,-9,-9.022690211497771,-8.618535275923396,-9.344657196670138
1770453635796,119,-9,-8.458206975793676,-8.730057450293787,-8.793476566455277
1770453635800,119,-9,-8.00806478666496,-8.501740094293265,-8.354373892744729
1770453635804,120,-8,-7.646358448192767,-7.75169519204575,-7.998554548852283
1770453635808,120,-8,-7.291367568220759,-7.335885960984175,-7.64680515332748
1770453635812,121,-7,-6.852982514966258,-6.948124325205337,-7.213829722806433
1770453635816,121,-7,-6.262401739552922,-6.322557194999596,-6.632885543155148
1770453635820,122,-6,-5.51434460788008,-5.952781819305276,-5.8964219189927825
1770453635824,122,-6,-4.708193779793433,-5.254371577084362,-5.100353301679993
1770453635828,124,-4,-4.021095590826876,-3.846353327108909,-4.420985730877234
1770453635832,124,-4,-3.58876332496433,-3.463361508295464,-3.995930880996237
1770453635836,124,-4,-3.3850667771006795,-3.75697709672171,-3.8006090365485
1770453635840,124,-4,-3.2298448326780433,-3.5740119660618457,-3.654236660521452
1770453635844,124,-4,-2.9360264086450014,-3.5437316165845205,-3.3685652222881313
1770453635848,125,-3,-2.456278654015711,-2.6589850923976064,-2.896785636322401
1770453635852,126,-2,-1.88880959601757,-1.538634033374849,-2.338751325061219
1770453635856,126,-2,-1.356672774497835,-1.7755092709058768,-1.8177259071294705
1770453635860,126,-2,-0.9015109733636656,-1.4640847848178475,-1.373476684106118
1770453635864,127,-1,-0.4884128388093955,-0.711816446504565,-0.969468372823409
1770453635868,127,-1,-0.0790984119996431,-0.4757300550542707,-0.5680352430512862
1770453635872,128,0,0.3256429860183387,0.2921764598826559,-0.1718112419921812
1770453635876,128,0,0.7055362431559791,0.3927299476978017,0.1981260544543762
1770453635880,128,0,1.0566478938811874,0.3887140617340836,0.5385708870978252
1770453635884,129,1,1.398582086192703,1.4143935790401956,0.8700750576216298
1770453635888,129,1,1.753020998887746,1.4052167869112782,1.2145744118936186
1770453635892,129,1,2.1169812501106184,1.4059864997384146,1.5688211170307411
1770453635896,130,2,2.452444510995976,2.319187857062052,1.8943087952346405
1770453635900,130,2,2.7051354438295574,2.4392782732327376,2.1363092200866944
1770453635904,130,2,2.8415683440101733,2.373887187678249,2.261476613584845
1770453635908,130,2,2.870573779023288,2.4362514487807214,2.279484224350119
1770453635912,130,2,2.8316713989185422,2.375848706704782,2.2304890941917903
1770453635916,130,2,2.7715247860957883,2.38388358584193,2.160706577481444
1770453635920,130,2,2.736114828633327,2.3561191139964865,2.1149909472025743
1770453635924,130,2,2.774211164595007,2.473354350669345,2.1416346042698136
1770453635928,130,2,2.9257251679089955,2.3157551957793965,2.2813216179305584
1770453635932,130,2,3.190293237909681,2.511902432095085,2.5347085400468727
1770453635936,131,3,3.510050938487032,3.2679583793148086,2.8438647898376823
1770453635940,131,3,3.796890754692003,3.460418113414536,3.119723082798767
1770453635944,131,3,3.9820058960750577,3.392209709009675,3.292990911429091
1770453635948,131,3,4.035743788086396,3.354994468982294,3.3345271056036023
1770453635952,131,3,3.945181676617669,3.513055012510406,3.232111839155749
1770453635956,131,3,3.689725273182745,3.2503062045788993,2.9653212575453733
1770453635960,130,2,3.250839826631789,2.5095694250072675,2.515332001519721
1770453635964,130,2,2.646479047858472,2.3287100122089965,1.89966070617894
1770453635968,129,1,1.9519671032235089,1.41102615353811,1.1932959882090666
1770453635972,128,0,1.2785229044169482,0.46534885070177,0.5074985253999567
1770453635976,128,0,0.716430024652095,0.307655521749093,-0.0670139139144699
1770453635980,127,-1,0.2861302866359537,-0.5271188177200725,-0.5094306917147415
1770453635984,127,-1,-0.0578828371348366,-0.6509129627022123,-0.8654061239667079
1770453635988,127,-1,-0.3698721975539472,-0.5996548477268573,-1.1896586873431565
1770453635992,126,-2,-0.6550751307143333,-1.536931117790026,-1.4875312031474135
1770453635996,126,-2,-0.8685933453178686,-1.6698334743048031,-1.7137621068382405
1770453636000,126,-2,-0.9694707561683508,-1.5324517499172023,-1.8271450355891323
1770453636004,126,-2,-0.9694690643308248,-1.6703074414751689,-1.8395594862848677
1770453636008,126,-2,-0.9268924137152768,-1.5563996614805615,-1.8094078901669344
1770453636012,126,-2,-0.8973179017850955,-1.598146567592799,-1.7922146727821733
1770453636016,126,-2,-0.8916826533447597,-1.5905690253464897,-1.799105444139817
1770453636020,126,-2,-0.8788324442803543,-1.594543035408614,-1.7993943964620047
1770453636024,126,-2,-0.8296783704329415,-1.636168657619803,-1.7640738824643112
1770453636028,126,-2,-0.7653544703184068,-1.5586906614970784,-1.7135552800453488
1770453636032,126,-2,-0.7626584434389085,-1.6273246258299103,-1.7237842397427223
1770453636036,126,-2,-0.8984213121014979,-1.5177544123126685,-1.8716445117421536
1770453636040,126,-2,-1.17114809618804,-1.6878345876624006,-2.1565700183419336
1770453636044,125,-3,-1.4768896250032817,-2.523492412691898,-2.4753610887401516
1770453636048,125,-3,-1.6815411644059062,-2.6961512200387627,-2.693853307106986
1770453636052,125,-3,-1.7367786727703278,-2.465312062633735,-2.763246664751873
1770453636056,125,-3,-1.7301379835266233,-2.683422333340522,-2.770725055165907
1770453636060,125,-3,-1.813108530370487,-2.50246789684561,-2.8675827482240135
1770453636064,125,-3,-2.0646193586696455,-2.7054248513560184,-3.132539930712368
1770453636068,124,-4,-2.4090982312369795,-3.5484392212132265,-3.4898701333055517
1770453636072,124,-4,-2.662298673760032,-3.574144142703152,-3.755520042491592
1770453636076,124,-4,-2.6677242860619663,-3.6033700527895896,-3.7736518261090777
1770453636080,124,-4,-2.4112894813295807,-3.5283447458439428,-3.5309561786266905
1770453636084,125,-3,-2.0255795188291,-2.708917884229633,-3.160288663538422
1770453636088,125,-3,-1.6900958607474512,-2.529201924817047,-2.840478439603194
1770453636092,125,-3,-1.515440661153154,-2.6180103022963994,-2.6807592277218353
1770453636096,125,-3,-1.4991595567320128,-2.5287904354561515,-2.67768635041681
1770453636100,125,-3,-1.5658318621753569,-2.6119397226033874,-2.7562910345624
1770453636104,125,-3,-1.6336674259189634,-2.6060288372023797,-2.8364799667550074
1770453636108,125,-3,-1.6498488266169296,-2.645754800600519,-2.8668424864321573
1770453636112,125,-3,-1.588207326491602,-2.50220243463075,-2.8208939157414203
1770453636116,125,-3,-1.4393608887667773,-2.623538056393606,-2.687456542788893
1770453636120,125,-3,-1.2109004077834125,-2.529458849119671,-2.4727460700050914
1770453636124,126,-2,-0.9226492686532504,-1.6558398029207682,-2.1971675182094863
1770453636128,126,-2,-0.5836367128619282,-1.632289598920244,-1.871562269768463
1770453636132,126,-2,-0.1746076194140634,-1.486416037004396,-1.4775519507005908
1770453636136,127,-1,0.3305935611401036,-0.6522504428679097,-0.9879516592044832
1770453636140,127,-1,0.9187570527990488,-0.4803573758647064,-0.414336093329434
1770453636144,128,0,1.524146948162978,0.2897682096080152,0.1778713898533426
1770453636148,129,1,2.0801949302955287,1.4275731548893913,0.7208843684110744
1770453636152,129,1,2.588152014943465,1.4503347430624118,1.2149101671699611
1770453636156,129,1,3.1150979865977573,1.4181251624268247,1.727307553346312
1770453636160,130,2,3.703160129490441,2.453790964728238,2.300817509932787
1770453636164,131,3,4.282322107328558,3.3603946954774813,2.8651888882598033
1770453636168,131,3,4.686753345909955,3.350745588231288,3.2542043539738335
1770453636172,131,3,4.765749581130699,3.550808267004355,3.3178232003293955
1770453636176,131,3,4.49154403764823,3.2965388835034837,3.029544594927825
1770453636180,130,2,3.982229445298221,2.5896206962091526,2.5078415171624293
1770453636184,130,2,3.431490839559637,2.2227983952415515,1.9452855152366244
1770453636188,129,1,2.996415591675543,1.488449672416676,1.4971359020546284
1770453636192,129,1,2.7134552885437015,1.4408531086212903,1.1987011057460064
1770453636196,129,1,2.488847419187823,1.3841314765934352,0.9568444778761188
1770453636200,128,0,2.160336041382871,0.5290090385671671,0.6115221947861719
1770453636204,128,0,1.590321545249086,0.2530568737785292,0.0271524963922238
1770453636208,127,-1,0.7480540119789627,-0.5038296932881854,-0.8270912104899588
1770453636212,126,-2,-0.2527663920220364,-1.5966011639632256,-1.839533102022815
1770453636216,125,-3,-1.1909996512929903,-2.5409824144081217,-2.790884658368482
1770453636220,124,-4,-1.8519359149177443,-3.5703055690154515,-3.4664954950869125
1770453636224,124,-4,-2.1570880088930684,-3.6355893705154783,-3.7866993481191824
1770453636228,124,-4,-2.211362615462646,-3.599686103829792,-3.855608378456022
1770453636232,124,-4,-2.221736636228851,-3.5154939589019025,-3.880371824244341
1770453636236,124,-4,-2.352664859488817,-3.58410169525224,-4.025811476029877
1770453636240,123,-5,-2.6397333541137926,-4.568640064776606,-4.3274645063147155
1770453636244,123,-5,-3.0183283792970985,-4.615695121822581,-4.720538464975504
1770453636248,123,-5,-3.40888201496617,-4.6244134304070705,-5.125251175947007
1770453636252,122,-6,-3.763650758030883,-5.4813391143355545,-5.493067333302071
1770453636256,122,-6,-4.04709737550979,-5.594060599044185,-5.787424381001151
1770453636260,122,-6,-4.198635216032333,-5.580875623757704,-5.948227195636467
1770453636264,122,-6,-4.14058292420853,-5.601161887715511,-5.900743336513735
1770453636268,122,-6,-3.8512403003231848,-5.6316978306915315,-5.627060893042267
1770453636272,122,-6,-3.4468325939956457,-5.467323296735023,-5.244993918526273
1770453636276,123,-5,-3.1527447983364745,-4.586297402457941,-4.977024136858139
1770453636280,123,-5,-3.080703750833945,-4.613339579186331,-4.927488782298344
1770453636284,123,-5,-2.8891339798846847,-4.554174436054476,-4.746395170496266
1770453636288,125,-3,-1.571963337223924,-2.7006507958589028,-3.424517633087496
1770453636292,128,0,2.3586439953760925,0.6578115490408636,0.518934657641724
1770453636296,136,8,10.208976582930902,8.251606116614253,8.374818981567417
1770453636300,148,20,22.174111174342563,20.622173183523085,20.324049343450003
1770453636304,162,34,36.619476854409974,34.16044014745174,34.73036046102873
1770453636308,175,47,50.104522337501294,47.620348347947576,48.16693212376581
1770453636312,185,57,58.41762641834455,57.32897918741151,56.44236552325989
1770453636316,185,57,58.344615200231274,57.50881195464501,56.35568095057411
1770453636320,176,48,49.31411877781183,48.38606386334961,47.334431015962345
1770453636324,160,32,33.90251000925599,32.2964060695957,31.94247298012598
1770453636328,141,13,16.73711057681342,13.559762169672528,14.791394273837748
1770453636332,127,-1,2.346891531386067,-0.6313896599085467,0.3985372639074755
1770453636336,119,-9,-6.764909530289767,-8.401640321337752,-8.73616275077559
1770453636340,116,-12,-10.722010146239697,-11.711694470493889,-12.729954482665136
1770453636344,115,-13,-11.40294325321461,-12.541602480946828,-13.44770941161733
1770453636348,115,-13,-10.914376754928613,-12.67099864116458,-12.982793546806594
1770453636352,115,-13,-10.47359918297604,-12.418717200303846,-12.547901642228863
1770453636356,115,-13,-10.238344754332202,-12.62086743705026,-12.307250055852627
1770453636360,115,-13,-9.864581429477688,-12.48825843965631,-11.929017093196178
1770453636364,117,-11,-9.155538566746706,-10.717668508284172,-11.225953704823864
1770453636368,118,-10,-8.29716664644236,-9.530859062677695,-10.385119092704612
1770453636372,118,-10,-7.644371760516089,-9.551976693509388,-9.754399153678804
1770453636376,118,-10,-7.393100885573331,-9.508458358461322,-9.520693269939866
1770453636380,118,-10,-7.460781402266136,-9.571900668924028,-9.597640575562034
1770453636384,118,-10,-7.616668281717072,-9.636197399492422,-9.758138995289285
1770453636388,118,-10,-7.683038236526997,-9.590308268401536,-9.831015843278315
1770453636392,118,-10,-7.633513700789032,-9.523999712260103,-9.793077175447866
1770453636396,118,-10,-7.553002218458948,-9.511541561691775,-9.726952891957447
1770453636400,118,-10,-7.532974906892443,-9.582107677699105,-9.71959775028724
1770453636404,118,-10,-7.590065160909037,-9.59412537649703,-9.78559305295536
1770453636408,118,-10,-7.651291499587697,-9.647041499786992,-9.85393762463691
1770453636412,118,-10,-7.605012362767391,-9.469166413325643,-9.816317015490029
1770453636416,118,-10,-7.390766917394564,-9.558790114789812,-9.613261963494809
1770453636420,118,-10,-7.075392203466962,-9.54334480074807,-9.309656865621122
1770453636424,119,-9,-6.8453641620101155,-8.593245103986284,-9.08976009879772
1770453636428,119,-9,-6.887252955005872,-8.677243112759978,-9.140013080476116
1770453636432,118,-10,-7.233035476391277,-9.423923898510935,-9.49382877145166
1770453636436,118,-10,-7.709842582286066,-9.615872009667374,-9.979266977986072
1770453636440,117,-11,-8.05817466784414,-10.48296643843992,-10.336389702123444
1770453636444,117,-11,-8.124470626242037,-10.63037341228123,-10.41096892041152
1770453636448,118,-10,-7.952762852810016,-9.64918645397444,-10.247440418897556
1770453636452,118,-10,-7.690954966771968,-9.43036373703719,-9.994569744125052
1770453636456,118,-10,-7.412493388973585,-9.637395058526227,-9.725440681529369
1770453636460,118,-10,-7.038108576905285,-9.433809871783396,-9.359258014769782
1770453636464,119,-9,-6.427122111878736,-8.697974653118683,-8.754693096962711
1770453636468,120,-8,-5.529258571157782,-7.567227747228944,-7.862742527080481
1770453636472,121,-7,-4.445546975058097,-6.492720928843023,-6.786182798884187
1770453636476,122,-6,-3.3581155259584183,-5.599146114467024,-5.707461566461408
1770453636480,123,-5,-2.4089484056537245,-4.443543623327144,-4.767270494984814
1770453636484,124,-4,-1.6301278141021265,-3.716841101196783,-3.99601467418992
1770453636488,124,-4,-0.9656668247577812,-3.5364150450363727,-3.336974942022973
1770453636492,125,-3,-0.3447939938956551,-2.4987581543974025,-2.7202405522530615
1770453636496,126,-2,0.2672026275444514,-1.623149554006448,-2.1129235320047046
1770453636500,126,-2,0.8720698106400708,-1.373241358261986,-1.5143761353218017
1770453636504,127,-1,1.458892632335118,-0.8390975230507387,-0.9349303055920948
1770453636508,127,-1,1.9993717511603235,-0.3636940966509817,-0.4015743750453807
1770453636512,128,0,2.4331781664348893,0.2964608540886255,0.0259801817812428
1770453636516,128,0,2.6874849357022352,0.6120143378533376,0.274818081912726
1770453636520,128,0,2.73410526681922,0.3869601525872415,0.3168120586456617
1770453636524,128,0,2.6381357271890375,0.3843602804050849,0.2173100273439208
1770453636528,128,0,2.553318847915329,0.4437773576920271,0.1297946771019301
1770453636532,128,0,2.6565052973326138,0.4521769691514929,0.2301905036777123
1770453636536,128,0,3.049481514410195,0.5183620253287087,0.6192415487702319
1770453636540,129,1,3.682461500277716,1.4296638742476242,1.246561915827786
1770453636544,130,2,4.3560013813476095,2.3937512215931247,1.913113950301532
1770453636548,130,2,4.813313153129163,2.380700614758744,2.36394116949484
1770453636552,130,2,4.8706566900386985,2.568820564863461,2.4177066407248393
1770453636556,130,2,4.512395841594836,2.365354732737022,2.059591790898236
1770453636560,129,1,3.9053384764355688,1.6120944173825296,1.4543986207881523
1770453636564,129,1,3.320830483864665,1.1914445863688323,0.8700835492802439
1770453636568,128,0,2.983832949930739,0.597373545527793,0.5297082165069564
1770453636572,128,0,2.9151085159998376,0.3590007737851263,0.4550510593529144
1770453636576,128,0,2.8729090960303147,0.5753134559748515,0.4070588217225703
1770453636580,128,0,2.4701153692996387,0.4189121433336802,0.0007223308513331
1770453636584,127,-1,1.421983979261525,-0.642524612833201,-1.048225783916664
1770453636588,125,-3,-0.2432570327807403,-2.5398159328296157,-2.7122627649501916
1770453636592,123,-5,-2.175442580685581,-4.533897230470697,-4.642415482013561
1770453636596,121,-7,-3.909121234489123,-6.502210783331273,-6.374658586734471
1770453636600,120,-8,-5.129578186071248,-7.511263629417067,-7.595567498624704
1770453636604,120,-8,-5.804584499536504,-7.70065376205027,-8.273104971774814
1770453636608,119,-9,-6.1118340770308714,-8.461009767921936,-8.58342049478366
1770453636612,119,-9,-6.255047992620338,-8.644207091229486,-8.727978893108755
1770453636616,119,-9,-6.3210100671490705,-8.351698211239029,-8.792630496937377
1770453636620,119,-9,-6.264555636289149,-8.713217785418983,-8.733338719517047
1770453636624,119,-9,-6.00361805229481,-8.445009469667653,-8.46993465800065
1770453636628,120,-8,-5.536023457029906,-7.739259809802692,-8.00126028583722
1770453636632,120,-8,-4.983133927410721,-7.351968756072162,-7.448337625149174
1770453636636,121,-7,-4.52567024082027,-6.64538409296059,-6.990798518371
1770453636640,121,-7,-4.284457556164897,-6.4295685137282765,-6.74846206772821
1770453636644,121,-7,-4.242652316126531,-6.710245032605377,-6.704076201572249
1770453636648,121,-7,-4.2688127320022815,-6.486629798451758,-6.726520939831215
1770453636652,121,-7,-4.21586922113571,-6.577627377961167,-6.669606727184386
1770453636656,121,-7,-4.013610349941747,-6.455569589346748,-6.464098847202655
1770453636660,122,-6,-3.68824130783349,-5.5706796947580495,-6.136592683575301
1770453636664,122,-6,-3.3120027965997147,-5.60632967467513,-5.758677211339347
1770453636668,122,-6,-2.941445107566565,-5.552281150142391,-5.385651652963791
1770453636672,123,-5,-2.5938408521125327,-4.534039998970649,-5.034026098263317
1770453636676,123,-5,-2.261857718087077,-4.494898780774786,-4.696712801732334
1770453636680,123,-5,-1.939516305228039,-4.52402859435919,-4.36863222432677
1770453636684,124,-4,-1.6383721736314352,-3.650622701914392,-4.062409787904956
1770453636688,124,-4,-1.3859753877312075,-3.4950158508139215,-3.8062391297950096
1770453636692,124,-4,-1.2146930957317394,-3.609898170104792,-3.6319134230617487
1770453636696,124,-4,-1.1569832833779774,-3.399819548623102,-3.570243041651592
1770453636700,124,-4,-1.2423375097170115,-3.6314302723598577,-3.6495843581540153
1770453636704,124,-4,-1.4712455313453254,-3.5343723981992494,-3.871047072584822
1770453636708,124,-4,-1.7714700614827932,-3.587075017131079,-4.163937720197483
1770453636712,123,-5,-1.992524419286786,-4.557129209845392,-4.378478129285544
1770453636716,123,-5,-1.979949210390317,-4.406821786920439,-4.3598128962029605
1770453636720,124,-4,-1.6830776482032297,-3.665786077530284,-4.056921904970819
1770453636724,124,-4,-1.1958997081977856,-3.4586549996794216,-3.5638596912239304
1770453636728,125,-3,-0.6887164041514118,-2.6697309184353757,-3.0505828258211376
1770453636732,125,-3,-0.2909191432006697,-2.471124476722524,-2.645569881088258
1770453636736,125,-3,-0.0172924764183353,-2.500444872463513,-2.363304544681756
1770453636740,126,-2,0.2219297972812313,-1.5827283388531663,-2.1149621001510246
1770453636744,126,-2,0.548455081178191,-1.5119339531310687,-1.7798033266467674
1770453636748,126,-2,1.0262900918842175,-1.631002496849286,-1.2936042183622116
1770453636752,127,-1,1.6076981884302253,-0.4761062949985579,-0.7035394859464361
1770453636756,128,0,2.159605481066462,0.4633444587888553,-0.1430731186699185
1770453636760,128,0,2.555857710175044,0.4733932515207955,0.2610566714761562
1770453636764,128,0,2.7475954744042266,0.4371393607506769,0.4607127184549099
1770453636768,128,0,2.7452020144770115,0.4254759774225134,0.4677068918971361
1770453636772,128,0,2.554380714972491,0.4684782393042748,0.2879482683023638
1770453636776,128,0,2.159875084072728,0.5048491951314225,-0.0950672581029177
1770453636780,127,-1,1.5737567138392474,-0.5526804834817338,-0.6703304423990877
1770453636784,126,-2,0.873025684924238,-1.5380609805925096,-1.3608359513543773
1770453636788,126,-2,0.1664480146204551,-1.5780406417350532,-2.0574377628306513
1770453636792,125,-3,-0.482520986780668,-2.5521028511066457,-2.69642230490085
1770453636796,124,-4,-1.1048531133952846,-3.4637220128351167,-3.3083336161641133
1770453636800,124,-4,-1.8008836102978043,-3.5772786507579415,-3.9930581477675102
1770453636804,123,-5,-2.649779916768084,-4.510375613378844,-4.829885922260141
1770453636808,122,-6,-3.61743744755678,-5.595599861545666,-5.785248690103797
1770453636812,121,-7,-4.545306906264788,-6.548372343988324,-6.700806697232047
1770453636816,120,-8,-5.244391944155362,-7.465982881789822,-7.387325744089661
1770453636820,120,-8,-5.621404068660073,-7.569423739425064,-7.75143034328635
1770453636824,120,-8,-5.7293793817115795,-7.499091740994184,-7.846550190561034
1770453636828,120,-8,-5.704943310088605,-7.607157416644884,-7.809796901891141
1770453636832,120,-8,-5.657183345826832,-7.543143333046017,-7.750264943531334
1770453636836,120,-8,-5.6067025158775134,-7.471946316814916,-7.687899725469041
1770453636840,120,-8,-5.514214445781996,-7.579627240866371,-7.58242375424303
1770453636844,120,-8,-5.3508410917788645,-7.440825118038442,-7.404320779244861
1770453636848,121,-7,-5.129884584937219,-6.702399455528391,-7.167041360404843
1770453636852,121,-7,-4.874899563222594,-6.402627769679845,-6.894799477336006
1770453636856,121,-7,-4.584279813439315,-6.6698493909599135,-6.587034251935077
1770453636860,121,-7,-4.258676346923095,-6.33681543171782,-6.24660421485807
1770453636864,122,-6,-3.9605079633397384,-5.700068397106764,-5.93906969555523
1770453636868,122,-6,-3.795900638356798,-5.4302658177617955,-5.771219735856722
1770453636872,122,-6,-3.756976699297474,-5.654773904239702,-5.729470716343123
1770453636876,122,-6,-3.4854992269541887,-5.46872536273119,-5.445110587670278
1770453636880,124,-4,-2.1053973656555467,-3.4779268139377204,-4.035016740973528
1770453636884,128,0,1.7048467447422624,0.3851439647137122,-0.1820451982763891
1770453636888,135,7,9.264360981915026,7.575553984943005,7.417354863684908
1770453636892,147,19,21.08394562828731,19.291932932956968,19.257019325300732
1770453636896,161,33,36.00904231685373,33.63537967747823,34.17662921301247
1770453636900,176,48,50.878624852457015,48.3747767860337,49.02591977548468
1770453636904,187,59,61.2167262508132,59.55350113852738,59.349292514196925
1770453636908,190,62,62.96593036772914,62.37419411925348,61.10567776459772
1770453636912,182,54,54.51218978485405,54.45043440020079,52.68425204127462
1770453636916,164,36,37.7878952622055,36.447832949846095,36.0084322131152
1770453636920,142,14,17.597759581478655,14.513051004153931,15.868286232645106
1770453636924,124,-4,-0.577928480435677,-3.507785947943424,-2.270226600259288
1770453636928,113,-15,-12.991693448182044,-14.527126538721244,-14.6685828985792
1770453636932,108,-20,-18.829484276228836,-19.530761008355373,-20.511193713511013
1770453636936,107,-21,-19.713914076737403,-20.587375204320914,-21.407688570358335
1770453636940,108,-20,-18.16935345416049,-19.451426581685844,-19.86552054502256
1770453636944,110,-18,-16.183751597019572,-17.63122751993923,-17.863162156098962
1770453636948,111,-17,-14.62523189932441,-16.373576320171964,-16.27192627096418
1770453636952,112,-16,-13.523367267484389,-15.692161288443478,-15.132860761924547
1770453636956,113,-15,-12.68455624156962,-14.388226470582945,-14.263740130545104
1770453636960,115,-13,-12.06951609826019,-12.67930831163381,-13.630318291198206
1770453636964,115,-13,-11.744927205744762,-12.442828758211853,-13.295920398385189
1770453636968,114,-14,-11.659518661785048,-13.512798861801995,-13.20046649573675
1770453636972,114,-14,-11.58732711223537,-13.586384384496858,-13.110968596102596
1770453636976,115,-13,-11.298281721865507,-12.407067454660195,-12.7979831337093
1770453636980,116,-12,-10.73899965017018,-11.757458969374165,-12.214605850147144
1770453636984,116,-12,-10.04037054664239,-11.300611068437696,-11.496605600550282
1770453636988,117,-11,-9.388333400122184,-10.69489177224622,-10.828757597413762
1770453636992,117,-11,-8.901606281361413,-10.365768533064422,-10.325272015989098
1770453636996,118,-10,-8.589950943020199,-9.626346215762114,-9.993328187702993
1770453637000,118,-10,-8.372145107562174,-9.566543043569515,-9.752856965444243
1770453637004,118,-10,-8.11676655352105,-9.476705729847234,-9.475075397039497
1770453637008,119,-9,-7.694121598599453,-8.522449077321692,-9.031653982519234
1770453637012,119,-9,-7.0325509540798175,-8.51160785899946,-8.350521758047659
1770453637016,120,-8,-6.154040360570916,-7.490385833621756,-7.452874976701347
1770453637020,122,-6,-5.158814501791024,-5.696941777891309,-6.438676263154278
1770453637024,122,-6,-4.163524113793995,-5.370490460292288,-5.424094004960236
1770453637028,123,-5,-3.2432253048629285,-4.598402527680425,-4.4829922561642634
1770453637032,124,-4,-2.4171660293722548,-3.4420093646526366,-3.63417563517781
1770453637036,125,-3,-1.6622447547943795,-2.546182892708344,-2.8561602296260116
1770453637040,126,-2,-0.9257267941566668,-1.669975683697283,-2.0983937873649747
1770453637044,126,-2,-0.1514005733005856,-1.3656864482574278,-1.3047697104258398
1770453637048,127,-1,0.6639297220853244,-0.6353279177274005,-0.4700811625909777
1770453637052,128,0,1.4296362492848322,0.646337612563602,0.3165820703698421
1770453637056,129,1,2.005273329632184,1.3316884438503198,0.9142558494852192
1770453637060,129,1,2.3151582241840076,1.4599606724847651,1.2459216223280878
1770453637064,129,1,2.4248135560479755,1.5180025080184387,1.3768343131866054
1770453637068,129,1,2.4946837940275692,1.445400444022673,1.468239573122313
1770453637072,129,1,2.6508411150123425,1.6240311511115086,1.646603902040685
1770453637076,130,2,2.8960531305164907,2.3051832138943293,1.9139589628935376
1770453637080,130,2,3.137686844541557,2.534034362249724,2.1767926980057575
1770453637084,130,2,3.288209929418199,2.414327229923923,2.3478283988242974
1770453637088,130,2,3.3316950954453266,2.556299731544722,2.412325441323824
1770453637092,130,2,3.3032152729294846,2.526526354316736,2.406049673966839
1770453637096,130,2,3.224291894485947,2.375218621824881,2.349858057288371
1770453637100,130,2,3.0729206002548732,2.5154005252632032,2.220443663652111
1770453637104,130,2,2.818258844427771,2.382853443689278,1.986576779469036
1770453637108,129,1,2.4785865867018937,1.63729390648118,1.6677038992724262
1770453637112,129,1,2.141644020796019,1.3964832465325252,1.3530861517588588
1770453637116,129,1,1.931502360046568,1.551733529125619,1.1669056319988875
1770453637120,129,1,1.9533116373935424,1.307766711875848,1.2127498589183665
1770453637124,129,1,2.2471772180877294,1.629379178889601,1.5289181771767535
1770453637128,130,2,2.7609137474505365,2.3623286307841105,2.062722070612846
1770453637132,130,2,3.347911523547322,2.691246515935467,2.6687643550659255
1770453637136,131,3,3.803197366598266,3.236312484413342,3.1441295663582847
1770453637140,131,3,3.9422825472013927,3.6523412064992273,3.3057212076421196
1770453637144,131,3,3.696737429703822,3.2641327867283088,3.084780964213486
1770453637148,130,2,3.167785693153403,2.7435557730942364,2.5807109525851306
1770453637152,130,2,2.583129490961723,2.297379497681715,2.0193130053220605
1770453637156,129,1,2.159737444301238,1.6268014069468284,1.617071092829413
1770453637160,129,1,1.9529259442609708,1.2944035276403318,1.4303800055549991
1770453637164,129,1,1.8069254611867624,1.59144634284995,1.304785282019949
1770453637168,129,1,1.4651354932880116,1.4669808333524683,0.9841191502745008
1770453637172,128,0,0.7696614603986836,0.5073591399336437,0.3103650146756318
1770453637176,127,-1,-0.2089353119382357,-0.5206120471273195,-0.6457624312926757
1770453637180,126,-2,-1.217850333213407,-1.61549207185566,-1.6311669146345018
1770453637184,125,-3,-1.9965908806085304,-2.4451881719684274,-2.385840325044894
1770453637188,125,-3,-2.427573879505602,-2.520283604161039,-2.7936985753457684
1770453637192,125,-3,-2.551518413135272,-2.4907520891334425,-2.896732844277229
1770453637196,125,-3,-2.4730972988590976,-2.5175780415797986,-2.7990479757757454
1770453637200,125,-3,-2.2736859083442207,-2.6342948008458507,-2.57977362725447
1770453637204,125,-3,-2.0057511247830795,-2.4063169343234216,-2.2897536799818905
1770453637208,126,-2,-1.7309683719305446,-1.5799963846978906,-1.991468194522237
1770453637212,126,-2,-1.523344039192232,-1.4045180801142587,-1.761056133007403
1770453637216,126,-2,-1.4273185641827182,-1.617814235366582,-1.6438350693436807
1770453637220,126,-2,-1.4294453518010632,-1.5251305430343671,-1.6252819345027738
1770453637224,126,-2,-1.4796910012935751,-1.522821878551632,-1.6540592137052437
1770453637228,126,-2,-1.5335888176253687,-1.4702476004876122,-1.685720953408867
1770453637232,126,-2,-1.5717814061882864,-1.483840950199331,-1.7018946147530412
1770453637236,126,-2,-1.5919117001334369,-1.5604531610152306,-1.70088657513175
1770453637240,126,-2,-1.5971304370563248,-1.5551552491338976,-1.685642382870796
1770453637244,126,-2,-1.5957821135290249,-1.5289380101555188,-1.6638573048274232
1770453637248,126,-2,-1.6037462704402712,-1.439666780580707,-1.6508791564861274
1770453637252,126,-2,-1.636704046535124,-1.514059748511137,-1.662206962520144
1770453637256,126,-2,-1.6943717376098684,-1.5281898335109,-1.697836466301158
1770453637260,126,-2,-1.7510747239744149,-1.5713916630986775,-1.7328571436517348
1770453637264,126,-2,-1.7650758744616262,-1.5578529149415057,-1.7262945458069294
1770453637268,126,-2,-1.707579095082601,-1.357584332936477,-1.6492395644525537
1770453637272,126,-2,-1.5963102097200308,-1.6387230642933297,-1.518308022505686
1770453637276,126,-2,-1.50230998761545,-1.349254920399882,-1.4036319811140898
1770453637280,127,-1,-1.5043077302290104,-0.7878893533648625,-1.3843048504917383
1770453637284,126,-2,-1.6134333819448885,-1.3387401107500692,-1.4724621403592426
1770453637288,126,-2,-1.741498755040358,-1.560424529242916,-1.5801863104755245
1770453637292,126,-2,-1.7605986660808344,-1.460809315686906,-1.579059033943426
1770453637296,126,-2,-1.6070436220061852,-1.4704501665578067,-1.4052403900198422
1770453637300,127,-1,-1.3287201590776734,-0.73498735692479,-1.107174172692838
1770453637304,127,-1,-1.0319331548243165,-0.3198382825319295,-0.7913401714092005
1770453637308,127,-1,-0.7872086651404842,-0.6463488969611189,-0.5273533452080238
1770453637312,127,-1,-0.5847595231019593,-0.3210803879940134,-0.3045809166837321
1770453637316,128,0,-0.3636516042625632,0.3745792966641358,-0.0627473466663119
1770453637320,128,0,-0.0682298960835948,0.3930890400431119,0.25230589025551
1770453637324,128,0,0.3147501150960934,0.6183879042085245,0.6534685454026068
1770453637328,129,1,0.7520248670726926,1.330545514266854,1.1087560795024127
1770453637332,129,1,1.1922601544813736,1.8008548347401212,1.5682266774201516
1770453637336,130,2,1.614442863613486,2.1621839426781895,2.0108591118045416
1770453637340,130,2,2.059429843322531,2.6762963410877707,2.476163511610486
1770453637344,131,3,2.605050791566814,3.2948709210768934,3.040670407894841
1770453637348,131,3,3.285579639411744,3.666660363843971,3.738657369644499
1770453637352,132,4,4.013308246157177,4.485934232355696,4.4835196003138496
1770453637356,133,5,4.5813134380043685,5.436153535274628,5.069181986748143
1770453637360,133,5,4.774465895481312,5.4624702730052945,5.280351404859898
1770453637364,133,5,4.516791150805031,5.43592230331584,5.040626349685933
1770453637368,132,4,3.9317236553136192,4.607930010983043,4.473769247243866
1770453637372,131,3,3.2562686870611453,3.4527675637166277,3.8174576114380416
1770453637376,131,3,2.6814322069132093,3.560838508234718,3.262288563691769
1770453637380,131,3,2.255530411613321,3.268415101425749,2.8549036435930235
1770453637384,130,2,1.9115088462659244,2.691154762258105,2.527067307893737
1770453637388,130,2,1.552680750206728,2.3288928431817815,2.182869552892176
1770453637392,129,1,1.1000969488889991,1.7180658944352438,1.7453264296057729
1770453637396,129,1,0.4851636427614147,1.3233075225658255,1.1470562175206922
1770453637400,128,0,-0.3541989449270737,0.462156909346699,0.3255890662615135
1770453637404,127,-1,-1.431931777290603,-0.4283146124661474,-0.7341722621530851
1770453637408,126,-2,-2.657909414507527,-1.623460808139438,-1.9427814635143137
1770453637412,124,-4,-3.837469334562579,-3.26329151869048,-3.105507234034533
1770453637416,124,-4,-4.754317257352608,-3.7764075205081946,-4.00591263769892
1770453637420,123,-5,-5.286019663398078,-4.351088886132221,-4.52178190292507
1770453637424,123,-5,-5.468229583908576,-4.673607659552106,-4.688981857008812
1770453637428,123,-5,-5.463794063276429,-4.3122894663041675,-4.67017550941617
1770453637432,123,-5,-5.460421850553623,-4.6284962252967565,-4.652657588455622
1770453637436,123,-5,-5.563504018686269,-4.408583254121809,-4.741390781707156
1770453637440,123,-5,-5.749477326236507,-4.689442749727997,-4.912234761574388
1770453637444,122,-6,-5.90253047943981,-5.376135702528556,-5.04873877837141
1770453637448,123,-5,-5.89892448744439,-4.5371335003502455,-5.027110916408871
1770453637452,123,-5,-5.678414465465255,-4.478144670760761,-4.788170518478955
1770453637456,123,-5,-5.2742292657518055,-4.5180655783699954,-4.367264252359965
1770453637460,124,-4,-4.8117325352048335,-3.5901846215512467,-3.892369568479325
1770453637464,124,-4,-4.476590569301637,-3.47119625269634,-3.55077317174129
1770453637468,124,-4,-4.4237639678103395,-3.425050006961477,-3.495651522077645
1770453637472,124,-4,-4.607784792720568,-3.615659770959228,-3.6752396084537784
1770453637476,124,-4,-4.573125808199,-3.379496871350889,-3.62590931089761
1770453637480,126,-2,-3.326458161102265,-1.7141084926365169,-2.3503129743339235
1770453637484,129,1,0.5300766263827179,1.6506099398737142,1.5442957176138368
1770453637488,137,9,8.279104023753598,9.494631402243604,9.326806646259625
1770453637492,149,21,20.266160038881107,21.431909902331927,21.328273764168333
1770453637496,163,35,35.13880064840252,35.61800609602365,36.191893742735154
1770453637500,178,50,49.66974977245684,50.25161307449348,50.70093084614017
1770453637504,188,60,59.553612050344896,60.71948058000035,60.568856677458115
1770453637508,191,63,61.08344710720097,63.356128395619024,62.103312075620224
1770453637512,183,55,52.96952047084324,55.5428356430172,54.01691111911809
1770453637516,166,38,37.22065927671383,38.46852146776729,38.30984116411311
1770453637520,146,18,18.39642213067124,18.38057229498249,19.52792599606425
1770453637524,129,1,1.5475474888995375,1.6649163866209684,2.7084250557632767
1770453637528,119,-9,-9.945507264334854,-8.570921537802537,-8.77652093703485
1770453637532,114,-14,-15.401352434676358,-13.433126615764944,-14.243715981974235
1770453637536,113,-15,-16.351750669432583,-14.557690812416736,-15.212268669846647
1770453637540,114,-14,-15.14815930541543,-13.610592337970514,-14.017361326243387
1770453637544,115,-13,-13.653333083119042,-12.374005163651535,-12.512584714297017
1770453637548,116,-12,-12.677362249675042,-11.573236431109478,-11.51117004132238
1770453637552,116,-12,-12.18522936914265,-11.39127671785125,-10.989725450684665
1770453637556,117,-11,-11.84880276182962,-10.608469414066324,-10.631873567380753
1770453637560,118,-10,-11.465199878211202,-9.556959854591822,-10.239784639432663
1770453637564,118,-10,-11.041430902751705,-9.438606549206892,-9.81673524037427
1770453637568,118,-10,-10.668155926573318,-9.53555943833108,-9.444356475452198
1770453637572,118,-10,-10.402129901996275,-9.364408672129668,-9.172182540425249
1770453637576,119,-9,-10.240143386811074,-8.692128784577294,-8.99684801571535
1770453637580,119,-9,-10.128150072422615,-8.398860838323682,-8.869972933279609
1770453637584,119,-9,-9.963741872537332,-8.693489370751301,-8.694607560056884
1770453637588,119,-9,-9.626652120349751,-8.200994667607473,-8.35122801274623
1770453637592,120,-8,-9.060451961600837,-7.752928633566946,-7.780206955918006
1770453637596,120,-8,-8.343380203903894,-7.251434921121202,-7.056706277944793
1770453637600,122,-6,-7.656862526291924,-5.85748462180716,-6.361926150712265
1770453637604,122,-6,-7.148423729144294,-5.2541671154154335,-5.84500261287543
1770453637608,122,-6,-6.807891547680942,-5.607733714575275,-5.4965656822808455
1770453637612,122,-6,-6.4838011510130125,-5.40364773435584,-5.164663155316831
1770453637616,123,-5,-6.026839506658087,-4.505530591042421,-4.699984770907191
1770453637620,124,-4,-5.4157653418212615,-3.7162936310359247,-4.082349575389225
1770453637624,124,-4,-4.754038519093523,-3.2644082968887957,-3.4155753319371955
1770453637628,125,-3,-4.165811187940909,-2.73033706685374,-2.822383035375755
1770453637632,125,-3,-3.697666403308026,-2.1634550790392773,-2.3477118913822483
1770453637636,126,-2,-3.2951085006012137,-1.8377147734119093,-1.9373326587392792
1770453637640,126,-2,-2.8509951221096017,-1.3281265317826376,-1.4860525623197909
1770453637644,127,-1,-2.28546579975864,-0.6621082610160517,-0.9153543276710324
1770453637648,127,-1,-1.6110325977044169,-0.3527357794883909,-0.2370216042356716
1770453637652,128,0,-0.9410082990007954,0.5014524576741013,0.4373355281906923
1770453637656,129,1,-0.4218115429917529,1.4442981592210378,0.9619097470937216
1770453637660,129,1,-0.1253445563389724,1.441099913332086,1.263960546797804
1770453637664,129,1,0.009904567010409,1.530066707322924,1.40414526844725
1770453637668,129,1,0.1256075494601839,1.4871025357144885,1.524238598062437
1770453637672,129,1,0.3197464857685131,1.6277061018946246,1.722673550618235
1770453637676,130,2,0.5710433229560533,2.351221997265659,1.9780811337132067
1770453637680,130,2,0.7859235682856394,2.509571230603396,2.1965317584300896
1770453637684,130,2,0.9165018723238336,2.501478689793254,2.3303975137078177
1770453637688,130,2,1.0268216204464329,2.4709192122479906,2.4444996159657433
1770453637692,130,2,1.2424016559210216,2.6763650144308984,2.664540716407452
1770453637696,131,3,1.6355622393335367,3.2629574724773978,3.061868955180765
1770453637700,131,3,2.153069192786346,3.650580572328837,3.58199624879697
1770453637704,132,4,2.6443769113359075,4.334010915412232,4.074222572731436
1770453637708,132,4,2.960381706556255,4.655644655482454,4.3908164682905335
1770453637712,132,4,3.043852231482952,4.4653679554709145,4.47638396151127
1770453637716,132,4,2.9537168850474167,4.4747593086931,4.390405558753072
1770453637720,132,4,2.8244565578214926,4.45797196699251,4.265903015320438
1770453637724,132,4,2.798415538477513,4.525071805324887,4.243071285855508
1770453637728,132,4,2.9601800449994418,4.470765924479329,4.405730560000708
1770453637732,132,4,3.2876790053421843,4.63712934924422,4.732869019414176
1770453637736,133,5,3.6450142437861888,5.294147605823577,5.090006536591406
1770453637740,133,5,3.841686613985889,5.66391145033065,5.287182370309455
1770453637744,133,5,3.7355434140020183,5.31299183266869,5.182147205638712
1770453637748,132,4,3.3077324707076565,4.687306768210593,4.75593205429033
1770453637752,132,4,2.6561211417976462,4.405204036328639,4.1061999988661135
1770453637756,131,3,1.9220515860820653,3.508899355821278,3.3737828098895273
1770453637760,130,2,1.209615703048608,2.491073223297742,2.6621516126043296
1770453637764,130,2,0.5481711524391306,2.4645383503601357,2.000302122047442
1770453637768,129,1,-0.0898650553593026,1.5731285000772357,1.3608452949420808
1770453637772,128,0,-0.7430862689615949,0.4610274056786423,0.7059589071652299
1770453637776,128,0,-1.424499170959871,0.4810423193067739,0.0235517088206884
1770453637780,127,-1,-2.10933682270727,-0.4774857157701644,-0.6611243151619359
1770453637784,126,-2,-2.7402754985411155,-1.5758922364096848,-1.291088636720348
1770453637788,126,-2,-3.2392817738169613,-1.335186869601624,-1.7895051256900152
1770453637792,126,-2,-3.5227423229251067,-1.721142912971217,-2.0739475839764188
1770453637796,125,-3,-3.5296672395968764,-2.2644875511767095,-2.0833033308882305
1770453637800,126,-2,-3.267360782817598,-1.777994837154973,-1.8235166755920535
1770453637804,126,-2,-2.8404187835447576,-1.226696362462584,-1.3982501677031247
1770453637808,127,-1,-2.413990113542404,-0.6984263172877768,-0.9731261909689038
1770453637812,127,-1,-2.120794566573995,-0.3894895403853399,-0.6817656576797179
1770453637816,127,-1,-1.9910364112687335,-0.559945560072302,-0.5543419035852714
1770453637820,127,-1,-1.9695935045543873,-0.5349967335903696,-0.5349101581898112
1770453637824,127,-1,-1.996247563624586,-0.3877049330407929,-0.5629494806073053
1770453637828,127,-1,-2.0636474602619503,-0.6058704847561145,-0.6320187816924555
1770453637832,127,-1,-2.199021238868347,-0.444538279015666,-0.7705291988169606
1770453637836,127,-1,-2.4010209368746924,-0.5238038713349138,-0.9769475261598282
1770453637840,126,-2,-2.6095674452284228,-1.5821553981256034,-1.1894246405214002
1770453637844,126,-2,-2.7421021873955262,-1.2920523580970902,-1.32400390730566
1770453637848,127,-1,-2.7474094266261626,-0.7488925471633063,-1.330293243493334
1770453637852,126,-2,-2.615826573217878,-1.2724620736050805,-1.2008824051192442
1770453637856,127,-1,-2.3551390013170908,-0.7115021852140494,-0.9447377468277008
1770453637860,127,-1,-1.9875590309210824,-0.3950022473006787,-0.5829997327973028
1770453637864,127,-1,-1.581186530891061,-0.4518982238271991,-0.1817398105523181
1770453637868,128,0,-1.263331821990977,0.3670961981003226,0.1325706570603542
1770453637872,128,0,-1.164492211156615,0.664792585759084,0.2284923007521305
1770453637876,128,0,-1.3205461603296411,0.2834984937559097,0.0689069740327941
1770453637880,127,-1,-1.6288950600439376,-0.3192820500865195,-0.2436779525103064
1770453637884,127,-1,-1.9166518055918629,-0.5838642333514995,-0.5357589952979085
1770453637888,127,-1,-2.0649686431448133,-0.4683539958160716,-0.6884243072955613
1770453637892,127,-1,-2.0767746623088748,-0.5100157898669891,-0.7051564953510264
1770453637896,127,-1,-2.037327527881618,-0.5407083706847062,-0.6714282716228881
1770453637900,127,-1,-2.017617084667848,-0.4808911834464728,-0.6576821455962674
1770453637904,127,-1,-2.0082409057149477,-0.4361782114263478,-0.6537108675277608
1770453637908,127,-1,-1.9312225935130416,-0.6238715566409987,-0.5811783700459057
1770453637912,127,-1,-1.708025445058661,-0.3389730975579097,-0.3620290570302407
1770453637916,128,0,-1.3185570560643882,0.276747595838938,0.0226933844726551
1770453637920,128,0,-0.8026160463326841,0.7232191729259492,0.5323457888772505
1770453637924,129,1,-0.2164427398792132,1.3452059996120211,1.1111140462834288
1770453637928,129,1,0.4036466235167515,1.589173308225431,1.7241073571147876
1770453637932,130,2,1.043434939780388,2.4524896790093793,2.35811097992975
1770453637936,131,3,1.698665119736415,3.4821250868531948,3.008576071178199
1770453637940,131,3,2.3719723407593984,3.535396585892694,3.677099579724505
1770453637944,132,4,3.0704320671769434,4.516523587006915,4.369907935771311
1770453637948,133,5,3.785457951376008,5.426207880533791,5.078119214819611
1770453637952,133,5,4.460193547075964,5.594891619120688,5.745106918305253
1770453637956,134,6,4.972303653589582,6.3613436853289445,6.249091470238522
1770453637960,134,6,5.16147652247938,6.659339909900218,6.43033721343955
1770453637964,134,6,4.904489440016006,6.376795782104115,6.166120089739133
1770453637968,133,5,4.196146731056002,5.579786888703794,5.4516360112598345
1770453637972,132,4,3.175646241657984,4.408718769293082,4.425937587046999
1770453637976,131,3,2.0734751850731596,3.5808353836951428,3.3184660533898045
1770453637980,130,2,1.1087629714336231,2.429779236508669,2.3470241516193058
1770453637984,129,1,0.3927307979095519,1.617698147523443,1.6224321299898097
1770453637988,129,1,-0.1134596542760003,1.3285761957437332,1.1067470037969294
1770453637992,128,0,-0.5624397410677653,0.660970514146181,0.6486368049632578
1770453637996,128,0,-1.1202680522009336,0.3224614168187296,0.0826957590958837
1770453638000,127,-1,-1.859183885976192,-0.2875256113836466,-0.6634410300555713
1770453638004,126,-2,-2.714627806864093,-1.6891070087620352,-1.5256315644742506
1770453638008,125,-3,-3.53497428588722,-2.3580712158198587,-2.3527656478577756
1770453638012,125,-3,-4.179227146687445,-2.6568565445143744,-3.0044463433172086
1770453638016,124,-4,-4.586399533135462,-3.3683345877847044,-3.4199278579287187
1770453638020,124,-4,-4.78024028442579,-3.553375009407634,-3.622520368411413
1770453638024,124,-4,-4.829731666584865,-3.4645626252126567,-3.680696769316472
1770453638028,124,-4,-4.804375758148505,-3.555956516087582,-3.664156701390401
1770453638032,124,-4,-4.750741038453062,-3.499584623113663,-3.620018863840587
1770453638036,124,-4,-4.696838501327648,-3.4869318716183364,-3.575991132079767
1770453638040,124,-4,-4.670381415668856,-3.4524663270080893,-3.5581924303364065
1770453638044,124,-4,-4.7059419467948285,-3.543164567707186,-3.59963268173201
1770453638048,124,-4,-4.82869477960741,-3.510617764823226,-3.726105964300241
1770453638052,124,-4,-5.033265346450011,-3.535267187774828,-3.935820946576552
1770453638056,123,-5,-5.291266491483498,-4.4447897334492,-4.204992515297402
1770453638060,123,-5,-5.585999332415998,-4.501711152819408,-4.518665990220713
1770453638064,123,-5,-5.908804382372149,-4.462885123715718,-4.863946525477794
1770453638068,122,-6,-6.137997970778639,-5.645538828344783,-5.1098923941007355
1770453638072,123,-5,-5.808359830947279,-4.363070702478344,-4.782973694482965
1770453638076,126,-2,-3.931603442274797,-1.6241923110062344,-2.8945342812788653
1770453638080,129,1,0.8624847242992342,1.6813748393346954,1.9158018580171603
1770453638084,138,10,9.686635231392236,10.392634427070934,10.745274720889997
1770453638088,151,23,22.43539091433366,23.45590059622348,23.476677749988383
1770453638092,165,37,37.07142776527627,37.57630591924546,38.07390299886302
1770453638096,178,50,49.79052871524594,50.4163423312439,50.74836085174946
1770453638100,185,57,56.29630571519005,57.652510816823195,57.223734184979946
1770453638104,184,56,53.738196255148615,56.34927137191632,54.66018546476609
1770453638108,172,44,42.29063106483812,44.46267949209442,43.228048405185376
1770453638112,153,25,25.329080101394663,25.530435375438053,26.289216753486905
1770453638116,135,7,7.915725084144156,7.489502839336783,8.891127440050957
1770453638120,122,-6,-5.562940402868941,-5.352094900143706,-4.590243506127116
1770453638124,116,-12,-13.161537640044168,-11.620045520906062,-12.212215584666028
1770453638128,114,-14,-15.577116253528413,-13.48913700290662,-14.66431269224752
1770453638132,114,-14,-14.968894003440084,-13.56124402024576,-14.09068810708386
1770453638136,115,-13,-13.426428655622546,-12.42404522654764,-12.56747128045732
1770453638140,116,-12,-12.072772654305671,-11.47836779276079,-11.215006740768484
1770453638144,117,-11,-11.09191650750634,-10.527726611064455,-10.226109050818716
1770453638148,118,-10,-10.286389866746347,-9.509932988460122,-9.415994776827077
1770453638152,119,-9,-9.5647961149901,-8.601608157596646,-8.700958173240252
1770453638156,120,-8,-9.030521951832077,-7.323609287891339,-8.183399564587328
1770453638160,120,-8,-8.772698399237097,-7.655269281065023,-7.9451597830647165
1770453638164,119,-9,-8.687955603572565,-8.327321491903552,-7.875156688014423
1770453638168,120,-8,-8.539308795248614,-7.683506105785318,-7.733928109132994
1770453638172,120,-8,-8.16487502925192,-7.458452631356705,-7.363740841364551
1770453638176,121,-7,-7.604939468056808,-6.411755058051703,-6.811334753730299
1770453638180,122,-6,-7.039568281744611,-5.641324933127912,-6.259250472270488
1770453638184,121,-7,-6.635322806564444,-6.287702351037771,-5.870469128572489
1770453638188,122,-6,-6.451996552949966,-5.767944165188368,-5.699340123015505
1770453638192,122,-6,-6.4440116165850805,-5.327990416448887,-5.698650301327389
1770453638196,122,-6,-6.490727964906984,-5.574966266266533,-5.750958887891812
1770453638200,122,-6,-6.420635698549402,-5.4695882841182115,-5.6889407518960535
1770453638204,122,-6,-6.062529352066774,-5.448903043082761,-5.342737012390609
1770453638208,123,-5,-5.337151521014837,-4.643682828281317,-4.6311636945227805
1770453638212,124,-4,-4.327508279294505,-3.3898831498636097,-3.63411971129989
1770453638216,125,-3,-3.2507449506421553,-2.570077832575332,-2.566868568830595
1770453638220,126,-2,-2.3301714672805884,-1.434415949974227,-1.65344984429001
1770453638224,127,-1,-1.658764678044315,-0.507700617094647,-0.9897170380245488
1770453638228,127,-1,-1.169094119585142,-0.6013577839450488,-0.5109375675977683
1770453638232,127,-1,-0.7453639107710739,-0.3977978428245825,-0.1014098528612887
1770453638236,128,0,-0.3782227689592553,0.4043722383671976,0.2511009845698438
1770453638240,128,0,-0.1974029405853365,0.6189657791449099,0.4206451548068111
1770453638244,128,0,-0.3136939846055669,0.4272704161466034,0.2979688027251217
1770453638248,128,0,-0.5915655535057813,0.4507301097274259,0.0161630561540913
1770453638252,128,0,-0.582765644187785,0.5763031565167354,0.0189043282121981
1770453638256,128,0,0.2350123675005968,0.3910713439894973,0.8258397080502369
1770453638260,129,1,2.0246783695426886,1.6793666194268977,2.600900158814637
1770453638264,133,5,4.309058437167258,5.331528012518953,4.869613104200292
1770453638268,135,7,6.149374058344982,7.580429357044177,6.695434272921991
1770453638272,135,7,6.7188136990402905,7.425728168387211,7.253287825911304
1770453638276,134,6,5.839235708392893,6.533691659925415,6.366175147551973
1770453638280,132,4,4.065062486464745,4.527561032847934,4.5876976417813875
1770453638284,130,2,2.275680302629809,2.4455590514395613,2.79408055167234
1770453638288,129,1,1.1118360921216954,1.5396298000570556,1.6225055569084328
1770453638292,129,1,0.6665229105477184,1.4272675658049807,1.1644746406304405
1770453638296,129,1,0.6032801332606537,1.6010655273491277,1.0851486193123083
1770453638300,129,1,0.5359900095276228,1.373827951008991,1.002296291302219
1770453638304,128,0,0.3342453261554474,0.6426143829508973,0.7892699215947724
1770453638308,128,0,0.1412561333952022,0.29205112747216,0.5900998407374065
1770453638312,128,0,0.1700434032665542,0.7414366719803789,0.614739408917089
1770453638316,129,1,0.5080156644933558,1.2526251608806436,0.946057820126272
1770453638320,129,1,1.0820663230321583,1.7380900460870925,1.5088660814039954
1770453638324,130,2,1.7470086722273552,2.25612294854695,2.1599131620361702
1770453638328,130,2,2.37039955497119,2.6675058572051764,2.7704595861536205
1770453638332,131,3,2.8496589746837264,3.40188689170653,3.2399392543986316
1770453638336,131,3,3.096472630711812,3.5661783289005817,3.47906570020697
1770453638340,131,3,3.0457796313709107,3.4468363263771775,3.4203530238146542
1770453638344,131,3,2.694390085191539,3.5081118428981837,3.059239234728119
1770453638348,130,2,2.1223712643368144,2.433916124927835,2.476671515293128
1770453638352,129,1,1.4577095296228362,1.627201094104674,1.8025487987899471
1770453638356,129,1,0.8055220595084898,1.368743856463325,1.1424463442940018
1770453638360,128,0,0.2068198015661327,0.6166295038221198,0.5355197769070604
1770453638364,128,0,-0.3425253348938001,0.3481049473371894,-0.0243560668139255
1770453638368,127,-1,-0.8551599480026706,-0.4189464828418586,-0.5492156700716269
1770453638372,126,-2,-1.351294735474677,-1.5088171890881208,-1.0564202423568714
1770453638376,126,-2,-1.874594720689713,-1.4907036790651138,-1.587915001629454
1770453638380,126,-2,-2.458488976968044,-1.5333149087514597,-2.178498157141019
1770453638384,125,-3,-3.0454301860326103,-2.5047359213998464,-2.773045142918495
1770453638388,124,-4,-3.463017016484612,-3.5680672445326307,-3.1997757127563156
1770453638392,124,-4,-3.5288194896531997,-3.3530626206686476,-3.27528577335032
1770453638396,125,-3,-3.2047900209523736,-2.6531550623811526,-2.960954509003857
1770453638400,125,-3,-2.650018266223137,-2.3627084382809542,-2.416067104550238
1770453638404,126,-2,-2.1196541407625515,-1.6801719909092343,-1.8955878096943264
1770453638408,126,-2,-1.8008361211610746,-1.39180311225498,-1.5858447373321034
1770453638412,126,-2,-1.7161232883710205,-1.5386857672142265,-1.5090161683902226
1770453638416,126,-2,-1.7534569312248327,-1.4741885115703808,-1.5537353169349533
1770453638420,126,-2,-1.7815726789294952,-1.5320400254962232,-1.589794955821309
1770453638424,126,-2,-1.7563329638909717,-1.5172379522467698,-1.573396177358606
1770453638428,126,-2,-1.742033648756385,-1.5389099882482336,-1.5683718709711287
1770453638432,126,-2,-1.8393099716138013,-1.413618186164285,-1.674857948932827
1770453638436,126,-2,-2.0827919750377255,-1.5906803646418073,-1.927274928299186
1770453638440,125,-3,-2.398419859746828,-2.4248002458088647,-2.251311718024421
1770453638444,125,-3,-2.659710060713481,-2.6162280407436693,-2.520244720320016
1770453638448,125,-3,-2.7875280466934123,-2.4411298500365213,-2.6552570395578483
1770453638452,125,-3,-2.7970083771639023,-2.5155508517974927,-2.6722962797905527
1770453638456,125,-3,-2.7569759537998544,-2.489890545757209,-2.640677299207013
1770453638460,125,-3,-2.717634474310029,-2.519590725966281,-2.6103119158823747
1770453638464,125,-3,-2.681646936053229,-2.5346113491542495,-2.583153560289289
1770453638468,125,-3,-2.6366525936228413,-2.510198379107212,-2.5462755921218916
1770453638472,125,-3,-2.6036356213594183,-2.4659412210529177,-2.5205728645091465
1770453638476,125,-3,-2.642339274758682,-2.522585304806173,-2.5663165946183537
1770453638480,125,-3,-2.797810677068272,-2.4976032760175753,-2.7293644191372888
1770453638484,125,-3,-3.0355250433466776,-2.5541149244632555,-2.975333780388787
1770453638488,124,-4,-3.23750237364103,-3.489191815144027,-3.1852961549960184
1770453638492,124,-4,-3.277634593997231,-3.50871750767839,-3.2322838327553924
