timestamp_ms,ecg_u8_raw,ecg_counts_raw_int,ecg_counts_filt_monitor,ecg_counts_filt_diagnostic,ecg_counts_filt_st
1770448523180,122,-6,-5.719672397549274,-4.4071716879707346,-2.872971006616101
1770448523184,121,-7,-6.165815772138142,-5.273880860786445,-3.305988980412259
1770448523188,121,-7,-6.6467806962630425,-5.566207196851026,-3.773253884225536
1770448523192,120,-8,-7.1049147714976515,-6.2280075597696305,-4.217400258590013
1770448523196,120,-8,-7.423214028833064,-6.634889974779247,-4.521908025095467
1770448523200,120,-8,-7.507488630355744,-6.2086625235827535,-4.593283545722908
1770448523204,120,-8,-7.3525012497187054,-6.499710534534291,-4.426293374645953
1770448523208,120,-8,-7.051289583461608,-6.270209812455869,-4.113011627400753
1770448523212,121,-7,-6.743236406620001,-5.48726824686913,-3.7919936298423025
1770448523216,121,-7,-6.527778157854193,-5.4056954927447025,-3.5628323968158866
1770448523220,121,-7,-6.401920000038925,-5.33708550267633,-3.423048455658756
1770448523224,121,-7,-6.278446556469315,-5.406076339178885,-3.2854936269492843
1770448523228,121,-7,-6.076310308757813,-5.263556931499333,-3.06913283628384
1770448523232,122,-6,-5.800270779929713,-4.515740948479165,-2.7793183423794146
1770448523236,122,-6,-5.535766629746904,-4.322326193358996,-2.502056845915153
1770448523240,122,-6,-5.37381941609575,-4.4051082876054455,-2.327815456724418
1770448523244,122,-6,-5.344602100760569,-4.293095576510712,-2.285371464061258
1770448523248,122,-6,-5.410598056261051,-4.346700339084752,-2.33654561981723
1770448523252,122,-6,-5.502308557339973,-4.411397670794944,-2.4127617994880595
1770448523256,122,-6,-5.55346142202801,-4.393982396844789,-2.4492711905681364
1770448523260,122,-6,-5.5180502974832795,-4.300308771193517,-2.4005054941109485
1770448523264,122,-6,-5.379384965573324,-4.365449669026745,-2.248717232863144
1770448523268,122,-6,-5.156721813048674,-4.230794584868477,-2.012005693774342
1770448523272,123,-5,-4.894866006461124,-3.5249921580420045,-1.7353360140286105
1770448523276,123,-5,-4.630752600695512,-3.224338283323229,-1.4566264169738443
1770448523280,123,-5,-4.368342811133585,-3.462796938460135,-1.1800978599606666
1770448523284,123,-5,-4.096356520345756,-3.145100503857186,-0.8938436871922422
1770448523288,124,-4,-3.8288548743623503,-2.4355568877454457,-0.6116367661874138
1770448523292,124,-4,-3.6134311282084193,-2.2985073570438237,-0.3814971374757676
1770448523296,124,-4,-3.4940062091280932,-2.4011140424615176,-0.2475857505713339
1770448523300,124,-4,-3.4727858677509635,-2.27784612276474,-0.2117689606674657
1770448523304,124,-4,-3.51013658112235,-2.2663829598874763,-0.2341708348808664
1770448523308,124,-4,-3.5549597578783123,-2.32309846182263,-0.2639579167466488
1770448523312,124,-4,-3.5756306668630495,-2.3488103419348656,-0.2698020479543972
1770448523316,124,-4,-3.5717955545924713,-2.34608191550028,-0.2512133058844958
1770448523320,124,-4,-3.563874641863981,-2.27482739799523,-0.2282797700583891
1770448523324,124,-4,-3.5696905355320583,-2.2554244566533295,-0.2187915946837533
1770448523328,124,-4,-3.5867628057675827,-2.2988644436575605,-0.2206052732940717
1770448523332,124,-4,-3.59643926767179,-2.348242248918269,-0.2153911910480448
1770448523336,124,-4,-3.587141925929578,-2.3147267428400315,-0.1915015306611613
1770448523340,124,-4,-3.573323766334348,-2.266239422993047,-0.1629140208721748
1770448523344,124,-4,-3.5869322810903195,-2.241963871486542,-0.1610764910225306
1770448523348,124,-4,-3.6428124800703063,-2.273747397597248,-0.2008110156152325
1770448523352,124,-4,-3.707059014584608,-2.360395533654013,-0.2487987485948317
1770448523356,124,-4,-3.7025559323848745,-2.2545284176922484,-0.2286097582573178
1770448523360,124,-4,-3.560567671974566,-2.307056711384626,-0.0716334329292358
1770448523364,124,-4,-3.2849011004905195,-2.1547724115658022,0.2187481816301857
1770448523368,125,-3,-2.9699109455121273,-1.3498291564927474,0.5485739985920901
1770448523372,125,-3,-2.7415623063479706,-1.234309514974134,0.7920210893015351
1770448523376,125,-3,-2.6609338167703407,-1.3784985876606433,0.8882129861149726
1770448523380,125,-3,-2.6715381509886535,-1.1138165393097603,0.8939613813085225
1770448523384,125,-3,-2.636258611468589,-1.3577752879972864,0.9463672458482492
1770448523388,125,-3,-2.4332180712136293,-1.0910445083009548,1.1665537859939628
1770448523392,126,-2,-2.0353444434476216,-0.4698115132815964,1.5803569118955942
1770448523396,126,-2,-1.5183263292016984,-0.1204347725714238,2.111382426795891
1770448523400,127,-1,-1.0031003674625083,0.6926964228758165,2.63962505083644
1770448523404,127,-1,-0.5867907351691657,0.8177397922088342,3.070327141695793
1770448523408,127,-1,-0.3069905119003824,0.8055821523532342,3.3675501686465488
1770448523412,128,0,-0.136053351885772,1.6159594394223529,3.5577429889874335
1770448523416,128,0,0.0164226694149514,1.873654251817486,3.728136185531542
1770448523420,128,0,0.2776535573280307,1.69648607435054,4.004274811431985
1770448523424,128,0,0.7311351985269121,1.8704348648231024,4.471248714166221
1770448523428,129,1,1.3201705736786646,2.7600019018406208,5.074977119535898
1770448523432,130,2,1.843256301780683,3.687215553060585,5.614505092924897
1770448523436,130,2,2.086863522601311,3.867480361690442,5.874812880199484
1770448523440,130,2,1.989920621887805,3.694545084344101,5.79378732762283
1770448523444,129,1,1.6799612749817134,2.954153032655312,5.499618412082298
1770448523448,129,1,1.3447673021047657,2.6163619789041492,5.181062132908542
1770448523452,129,1,1.0705799617427818,2.9436241607267544,4.9240250886617565
1770448523456,129,1,0.8013247360766067,2.5844663781880675,4.671255299086308
1770448523460,128,0,0.4360419978982197,2.0811599976135686,4.321349038897948
1770448523464,128,0,-0.052867229132115,1.5495324349080897,3.8473403048845434
1770448523468,127,-1,-0.5939254338550002,1.0304010032951545,3.321499260701078
1770448523472,127,-1,-1.089801925759137,0.5926803866768398,2.8415765384342015
1770448523476,126,-2,-1.5073749690752571,-0.0772099237017376,2.4408328871367972
1770448523480,126,-2,-1.89699693720144,-0.1200098298193386,2.0685652420012173
1770448523484,126,-2,-2.320247329679184,-0.3378309935619901,1.6621710100709342
1770448523488,125,-3,-2.7557450570674193,-0.968341524898803,1.2421996057845228
1770448523492,125,-3,-3.088233249672012,-1.4764509453578591,0.9244295474302509
1770448523496,124,-4,-3.211588162433581,-1.881156924106267,0.816472890258388
1770448523500,125,-3,-3.149038457492236,-1.3227470913840809,0.8957449808077365
1770448523504,125,-3,-3.056730929934715,-1.0866808444708778,1.0050007489556898
1770448523508,125,-3,-3.090240068754712,-1.21547485926408,0.9872040021313082
1770448523512,125,-3,-3.262818532053716,-1.210702777291229,0.8293382628233963
1770448523516,124,-4,-3.442050197187524,-2.086539298897556,0.6657388241512914
1770448523520,124,-4,-3.489545487705286,-2.0974203904350013,0.6358576109835616
1770448523524,125,-3,-3.3951029956010697,-1.269131781944126,0.7481528968885063
1770448523528,125,-3,-3.266342984084372,-1.0257782483510225,0.8922321598389926
1770448523532,125,-3,-3.2025949309541684,-1.37013932838302,0.9687091876561792
1770448523536,124,-4,-3.2053052686461516,-1.8724578930852944,0.9794593627379866
1770448523540,125,-3,-3.208747605890145,-1.3067395653103804,0.99334650262359
1770448523544,125,-3,-3.1642294553365735,-1.0058085027064922,1.0586533155928586
1770448523548,125,-3,-3.0775674694412825,-1.2924261579862162,1.1659153696760691
1770448523552,125,-3,-2.988651483033163,-1.0492572724183629,1.271015922827437
1770448523556,125,-3,-2.941581622629869,-1.154231346940587,1.3276514117509048
1770448523560,125,-3,-2.9593757400953384,-1.0314420017804662,1.3146027788411605
1770448523564,125,-3,-2.984062044610583,-1.1944809374625498,1.296098086285085
1770448523568,125,-3,-2.7490472605597667,-1.163530627328912,1.5464610144667588
1770448523572,127,-1,-1.627563673980433,0.9603768807406738,2.6959581123837855
1770448523576,130,2,1.388637650437527,3.7785447349907058,5.748185224936149
1770448523580,135,7,7.383298257848695,9.146727855270765,11.77569229642138
1770448523584,145,17,16.83964592442533,18.610236833230264,21.250381418002544
1770448523588,156,28,28.885491717089057,30.085365115813666,33.29587205783666
1770448523592,169,41,41.00491056732152,42.750932678077945,45.402895228527505
1770448523596,178,50,49.644968091612846,52.00023277548503,54.03314238087699
1770448523600,180,52,51.636200859161704,53.95567276594982,56.03103251494208
1770448523604,175,47,45.75535217957924,48.74009712377456,50.177641322279776
1770448523608,162,34,33.515252421044366,36.008381619226974,37.97849902896092
1770448523612,146,18,18.609248401655485,19.78291997340596,23.113663806614035
1770448523616,132,4,5.229673485912236,6.118965254151728,9.76379919307961
1770448523620,124,-4,-3.7783005164842822,-2.1599909148798195,0.7684255458819464
1770448523624,121,-7,-7.849648315318729,-5.021733282134993,-3.305600357334555
1770448523628,121,-7,-8.30101163159435,-5.219674438174763,-3.765739544112062
1770448523632,121,-7,-7.102014320182246,-4.952392925345465,-2.568693570259521
1770448523636,122,-6,-5.746621885843264,-4.145684978469437,-1.19956848619596
1770448523640,123,-5,-4.832324916880564,-2.8933683253948135,-0.2575433254489363
1770448523644,124,-4,-4.303767470473737,-2.2594514123839273,0.3021166048093651
1770448523648,124,-4,-3.922035216978075,-1.9427905159621668,0.7074593433655818
1770448523652,125,-3,-3.5699080413963906,-1.1790598534040575,1.072214043587266
1770448523656,125,-3,-3.2834112583317423,-0.9179202188082678,1.364883924457399
1770448523660,125,-3,-3.131924159293712,-1.0872625573380963,1.5235383195017356
1770448523664,125,-3,-3.1203988687562547,-1.0583012874229167,1.5477782019534017
1770448523668,125,-3,-3.188634309426819,-1.0724839858170607,1.497010349135362
1770448523672,125,-3,-3.264552652708125,-1.0349872762674055,1.4390966755521035
1770448523676,125,-3,-3.2999463676882983,-1.0183777507456917,1.41876996691406
1770448523680,125,-3,-3.2696415921518893,-0.9921586328109931,1.461248963598612
1770448523684,125,-3,-3.161559687062038,-1.1103878717141644,1.5813280556518787
1770448523688,125,-3,-2.974614949270467,-0.981535437872152,1.7821885761762457
1770448523692,126,-2,-2.7098989401458624,-0.09045030880573,2.062160412453297
1770448523696,126,-2,-2.3505373671315146,0.0724828726065507,2.436165778391924
1770448523700,126,-2,-1.8637285987479788,-0.0896546698438949,2.9361945865744583
1770448523704,127,-1,-1.2469438781088815,1.0402857126276013,3.565560720295198
1770448523708,128,0,-0.5746485138120352,1.884617345326085,4.250729192649704
1770448523712,128,0,0.020048509884265,2.1036177673811105,4.858703928596126
1770448523716,129,1,0.4299922953422617,2.88774056014756,5.2819652409691304
1770448523720,129,1,0.6540649197560175,3.126377260502011,5.519277773311334
1770448523724,129,1,0.8009215988375775,2.8183381155643055,5.679630421558089
1770448523728,129,1,1.0106346015649403,3.1870161226106655,5.903289066162487
1770448523732,130,2,1.362011468446375,3.7990404835773295,6.26847114374261
1770448523736,130,2,1.842867020556345,4.266080046949506,6.762062269816045
1770448523740,131,3,2.3922926917085947,4.727102635619525,7.323090613806375
1770448523744,131,3,2.9554255958384816,5.263047255172611,7.897807460381563
1770448523748,132,4,3.4976713223116556,5.771246078971799,8.452737806578414
1770448523752,132,4,3.984969277240194,6.245335472142969,8.95363153482856
1770448523756,133,5,4.372730848922979,6.877654316388587,9.354539436971317
1770448523760,133,5,4.624040470088973,7.09016376866956,9.617576193976785
1770448523764,133,5,4.734279589437728,6.973102154600807,9.73877421060313
1770448523768,133,5,4.732011406346681,7.0409537349353535,9.748316726560798
1770448523772,133,5,4.660888882096486,7.068306624989735,9.690560345535657
1770448523776,133,5,4.57106124248715,7.040184823340055,9.614523032051476
1770448523780,133,5,4.525182121286393,6.984963348611381,9.581065330696472
1770448523784,133,5,4.588716274908041,7.0719611589631395,9.655187993067454
1770448523788,133,5,4.78372984413566,6.9979187506382585,9.86031426944629
1770448523792,133,5,5.040749157753377,7.1307196725785085,10.128453298080878
1770448523796,134,6,5.2172400326578545,8.028810061168237,10.316948355724003
1770448523800,134,6,5.198733076753525,7.998693934627845,10.31021040207073
1770448523804,133,5,4.997780685726816,7.09673960234708,10.120558626523485
1770448523808,133,5,4.746422350722266,6.990298542570826,9.880846759241589
1770448523812,133,5,4.584886990799307,7.177259691723448,9.731566541407355
1770448523816,133,5,4.554675511492991,7.024195135819085,9.71328584530628
1770448523820,133,5,4.584125732767349,7.008820490376729,9.75334921798502
1770448523824,133,5,4.555093244801525,7.155746674467963,9.73370443260452
1770448523828,133,5,4.378149588255152,6.890309066795913,9.56605624258793
1770448523832,132,4,4.0191500628225825,6.383726233232287,9.21748258424566
1770448523836,132,4,3.4774085654364284,5.778389111328728,8.687452730757705
1770448523840,131,3,2.762071288251981,5.339269071243426,7.98391621435806
1770448523844,131,3,1.9018605445270145,4.825248613103048,7.134385438359443
1770448523848,129,1,0.9643624543501984,3.2375143013082104,6.206743265694129
1770448523852,128,0,0.0374538772079353,2.109384916308378,5.290025775179687
1770448523856,128,0,-0.8199414694359026,2.017096711428911,4.443200111452894
1770448523860,127,-1,-1.6016479791886788,1.212200927586928,3.6713359530105825
1770448523864,126,-2,-2.3336659995052806,-0.0992415208615076,2.948171992435735
1770448523868,125,-3,-3.046836612879937,-0.7414866887484188,2.2440492737679025
1770448523872,125,-3,-3.7647179897815217,-0.9333980730916612,1.5363316211409948
1770448523876,124,-4,-4.488988527189937,-1.895403258078657,0.8228319179364458
1770448523880,123,-5,-5.180284057732331,-2.8262400704577537,0.1417926040879757
1770448523884,123,-5,-5.764169299075027,-3.066086682882584,-0.4328465749094343
1770448523888,122,-6,-6.173727598867108,-3.7038062628361534,-0.8337568533556574
1770448523892,122,-6,-6.39696603368182,-3.9939943152290263,-1.0481545870971205
1770448523896,122,-6,-6.48573473998063,-3.766225021214721,-1.1274891252615389
1770448523900,122,-6,-6.513550356057506,-3.9345177925251553,-1.1456722329765112
1770448523904,122,-6,-6.51579000225332,-3.94091701553071,-1.1388470249776423
1770448523908,122,-6,-6.467258991998738,-3.7695327001979018,-1.0820209759399697
1770448523912,122,-6,-6.322473393913156,-3.959590742857149,-0.9289872663746008
1770448523916,122,-6,-6.082152596483887,-3.7138473364408706,-0.6796798117861185
1770448523920,123,-5,-5.8143859078443025,-2.9908157258932726,-0.4024630351487444
1770448523924,123,-5,-5.598542417425658,-2.8345280513052793,-0.1777720819624457
1770448523928,123,-5,-5.447041761912969,-2.849521431015054,-0.0184147676914374
1770448523932,123,-5,-5.295013228439804,-2.8816272189262544,0.1413177486094294
1770448523936,123,-5,-5.075537552540514,-2.7303690461256926,0.369179805283343
1770448523940,124,-4,-4.798587244469278,-1.9749846760548524,0.654868246899734
1770448523944,124,-4,-4.547779867205188,-1.7757762499690262,0.9138795081954624
1770448523948,124,-4,-4.403691970198449,-1.917185420313084,1.0655141104934192
1770448523952,124,-4,-4.377448662145111,-1.7711334338138285,1.0992936282942347
1770448523956,124,-4,-4.413642429782562,-1.8310140073416392,1.0709597140116802
1770448523960,124,-4,-4.4458317145797075,-1.8403308211699616,1.0466103530979876
1770448523964,124,-4,-4.448183672132246,-1.8512656367503604,1.051782046990832
1770448523968,124,-4,-4.4430301093278715,-1.8459984869151809,1.0643678338150258
1770448523972,124,-4,-4.463260883813662,-1.7863801183547037,1.051749790645876
1770448523976,124,-4,-4.502277349632319,-1.834966502201153,1.020329596264272
1770448523980,124,-4,-4.497440936277169,-1.762486592654653,1.0324138073810616
1770448523984,124,-4,-4.37194351144694,-1.919132221778578,1.1649225007002917
1770448523988,124,-4,-4.107562628769573,-1.7310260718303787,1.4363779061407325
1770448523992,125,-3,-3.7793988931010176,-0.894809135989258,1.7714967178414462
1770448523996,125,-3,-3.5092466611045205,-0.6997997114925691,2.048056530680758
1770448524000,125,-3,-3.3761258793756848,-0.8588963737865734,2.1872596785649856
1770448524004,125,-3,-3.3684964825752677,-0.7906915797974832,2.20147962210051
1770448524008,125,-3,-3.415036019946012,-0.828921178697575,2.1623665651071367
1770448524012,125,-3,-3.4507666590692834,-0.7935425200110395,2.134162997063987
1770448524016,125,-3,-3.45490784332812,-0.7537179797166971,2.1366653395936375
1770448524020,125,-3,-3.4413663865600386,-0.7873427967857991,2.155831969990059
1770448524024,125,-3,-3.429073966031293,-0.8036124333316308,2.1735165474033376
1770448524028,125,-3,-3.424514446223634,-0.8156673345125571,2.184029471854411
1770448524032,125,-3,-3.4239051082477676,-0.7758198687656896,2.191166677699627
1770448524036,125,-3,-3.422271116686133,-0.7516169461326594,2.1992817764684043
1770448524040,125,-3,-3.4181629230976953,-0.7459836065579899,2.209353827398108
1770448524044,125,-3,-3.414212085935614,-0.8062929824705827,2.218882673633628
1770448524048,125,-3,-3.4164903969104765,-0.8026268448925362,2.2221648249352883
1770448524052,125,-3,-3.429591659547408,-0.7577844694494849,2.2146255450996506
1770448524056,125,-3,-3.444992874858846,-0.7607880756819521,2.2045509104342647
1770448524060,125,-3,-3.432387176190834,-0.6734441076232569,2.2224053442746934
1770448524064,125,-3,-3.3487309137506105,-0.863756972923881,2.3118202854650973
1770448524068,125,-3,-3.161236384606725,-0.7118486801702042,2.5056289320098735
1770448524072,126,-2,-2.8595005831695075,0.1610640973026966,2.813247210944513
1770448524076,126,-2,-2.446932284196776,0.3490563226735661,3.2304033507163217
1770448524080,126,-2,-1.9368943469313868,0.2675945390798102,3.7442265737496374
1770448524084,127,-1,-1.370191621127269,1.215158784313172,4.315101352655474
1770448524088,128,0,-0.8219500713168757,2.2411909517714346,4.868368380004232
1770448524092,128,0,-0.3646387704012566,2.207556533669216,5.331210796606658
1770448524096,128,0,-0.0143267170646423,2.3519539640918037,5.687106381811967
1770448524100,129,1,0.2830027070541259,3.2915430429547885,5.989696444776065
1770448524104,129,1,0.6068668338170642,3.230649447824545,6.318243889226614
1770448524108,129,1,0.9904312630422224,3.233134230544769,6.706001699715847
1770448524112,130,2,1.374445756961321,4.249374247378226,7.093907242822285
1770448524116,130,2,1.6310274467879995,4.33194765946964,7.354020049767752
1770448524120,130,2,1.6499584544943993,4.351844461074931,7.376270594616144
1770448524124,130,2,1.418105464466524,4.213539397806663,7.148377485232926
1770448524128,129,1,1.0244807072571966,3.236570447401183,6.7601106430322515
1770448524132,129,1,0.5969322375312933,3.298380135941408,6.338662338722896
1770448524136,129,1,0.2343964296653387,3.2887576476811473,5.9812432228897405
1770448524140,128,0,-0.0240749066416905,2.4563602105205207,5.72605881829105
1770448524144,128,0,-0.2057761917439993,2.139972540267177,5.546627657813232
1770448524148,128,0,-0.3983879404241439,2.3067345810347772,5.356341316801317
1770448524152,128,0,-0.7130850081648601,2.271104065688557,5.044329454845085
1770448524156,127,-1,-1.2180701649308114,1.314995904253688,4.542719246314779
1770448524160,126,-2,-1.891260265374862,0.5187732602358766,3.874335903428779
1770448524164,126,-2,-2.6286302462654474,0.0614634909598315,3.1429335978609823
1770448524168,125,-3,-3.2881692869112698,-0.5719158400269129,2.488481057891803
1770448524172,125,-3,-3.737398075710511,-0.8486083811913763,2.041686434958227
1770448524176,124,-4,-3.9049911647238944,-1.5208899057457794,1.874818887424703
1770448524180,124,-4,-3.8323658990878138,-1.588780548700938,1.9492290138611197
1770448524184,125,-3,-3.672948332321466,-0.83105294162405,2.112663878536802
1770448524188,125,-3,-3.5951528262303136,-0.640138581030611,2.1950174285707504
1770448524192,125,-3,-3.6501085897926,-0.7889354795851227,2.143236963898973
1770448524196,124,-4,-3.741012064403373,-1.5143389868878512,2.054573816583594
1770448524200,124,-4,-3.7433872270945994,-1.5790679899986344,2.0551076859730313
1770448524204,125,-3,-3.650921170584797,-0.8088765422269653,2.1509885548264664
1770448524208,125,-3,-3.5806225655060127,-0.6431507600707218,2.223448301444564
1770448524212,125,-3,-3.632176834362266,-0.7679211141569695,2.172719744507023
1770448524216,124,-4,-3.765529421029848,-1.4795173985352523,2.041719437356909
1770448524220,124,-4,-3.8314509531892025,-1.6084844764174138,1.9820910326507095
1770448524224,125,-3,-3.712316129446138,-0.745819625571551,2.1094722731243825
1770448524228,125,-3,-3.4283176903490764,-0.6833497434492306,2.3981195073853585
1770448524232,125,-3,-3.1299131964636424,-0.7046923999576977,2.693511819191128
1770448524236,125,-3,-3.0007529531578037,-0.4765181533960738,2.81344927334629
1770448524240,125,-3,-3.1110806393533057,-0.6364170643265921,2.694348390740225
1770448524244,125,-3,-3.237668202968541,-0.6567416451111203,2.567512988707591
1770448524248,126,-2,-2.705731289514076,0.2135258839719955,3.1122888228238264
1770448524252,128,0,-0.3963529631858362,2.477209678083686,5.4447959039353115
1770448524256,133,5,4.921099797228079,7.358307174842765,10.785168227632884
1770448524260,142,14,13.919712504653628,16.56464529498856,19.793264548882576
1770448524264,154,26,25.96210695738031,28.183207848885942,31.824450402847948
1770448524268,166,38,38.72620352126716,40.362981188952695,44.561669239957176
1770448524272,177,49,48.63608545918586,51.42697097292008,54.444289890770975
1770448524276,181,53,52.15859137563364,55.33020127439581,57.95512344680475
1770448524280,176,48,47.45732525343787,50.661670446954275,53.2645853751556
1770448524284,165,37,35.49187544233524,38.98867561856791,41.32675250603134
1770448524288,147,19,19.80057327040553,21.644866378968953,25.666578720178165
1770448524292,132,4,4.946203355130489,6.139060237658376,10.833151639947925
1770448524296,122,-6,-5.524898206764618,-3.247819461541307,0.3647762641904117
1770448524300,118,-10,-10.421690202235984,-7.721037775961261,-4.546867259831982
1770448524304,118,-10,-10.854493097548922,-7.575690668897698,-5.003034541459433
1770448524308,120,-8,-9.04985516625322,-5.735342311235618,-3.217061991802673
1770448524312,121,-7,-6.95697886307412,-4.552283628048694,-1.1280515011781451
1770448524316,122,-6,-5.494881679696246,-3.467168422879277,0.3459346955932592
1770448524320,123,-5,-4.661629150249991,-2.5741017681757556,1.1983078397433466
1770448524324,124,-4,-4.108400687693674,-1.6135177178131062,1.7660234779055166
1770448524328,125,-3,-3.6171310925556632,-0.7101315069288638,2.260238072724822
1770448524332,125,-3,-3.2072941124343335,-0.522837592280945,2.663571130893511
1770448524336,125,-3,-2.978980585307957,-0.4971317713046121,2.8838638077274887
1770448524340,125,-3,-2.949940493970965,-0.5168197457593791,2.9100943025899944
1770448524344,125,-3,-3.032516085727665,-0.6437969899618905,2.830822566525343
1770448524348,125,-3,-3.115131257065387,-0.6309250247435987,2.753722465729697
1770448524352,125,-3,-3.1365463681451575,-0.5823691885204847,2.735845726658749
1770448524356,125,-3,-3.090285033212545,-0.4138398569217443,2.782675614132
1770448524360,125,-3,-2.9822500950963517,-0.5862598085286781,2.8902481495322943
1770448524364,125,-3,-2.7976253644171347,-0.5433104926596957,3.07532955743472
1770448524368,126,-2,-2.502943507536128,0.3118256344439447,3.371343881315765
1770448524372,126,-2,-2.0733797144203345,0.5002056070291003,3.802036653658645
1770448524376,126,-2,-1.5281014890644091,0.5200196826615422,4.3479994436793845
1770448524380,127,-1,-0.9495739767500346,1.506900488903009,4.9272821166146
1770448524384,128,0,-0.4525539503179316,2.3726705061320654,5.4251705613345305
1770448524388,128,0,-0.1050236113269894,2.4641002617379275,5.773367997160418
1770448524392,128,0,0.13024364417847,2.3419085726709237,6.009401681930089
1770448524396,128,0,0.3684325619041191,2.7352679977116203,6.249097469717428
1770448524400,129,1,0.7133357254205762,3.2612290228347853,6.596105626257128
1770448524404,129,1,1.1897337527125245,3.6892622751406385,7.074216215919197
1770448524408,130,2,1.744918361350264,4.169880859933112,7.629869717407993
1770448524412,130,2,2.2969452358731575,4.669273541568588,8.181095235223983
1770448524416,131,3,2.781691694300271,5.438337621917045,8.66465441200402
1770448524420,131,3,3.1698896732054176,5.528548299961714,9.052791435265476
1770448524424,131,3,3.4580997383704384,5.510276764880517,9.343123224447204
1770448524428,132,4,3.6637553513298817,6.330966223999904,9.552283360898636
1770448524432,132,4,3.843899336246845,6.603668277434058,9.734999448493548
1770448524436,132,4,4.1039273611951606,6.453943355978394,9.99522109209964
1770448524440,132,4,4.5412452777287555,6.582333104564362,10.431270766856034
1770448524444,133,5,5.142887724895038,7.439511541152174,11.032143175251887
1770448524448,134,6,5.7434500673770925,8.480991640881097,11.633313364351563
1770448524452,134,6,6.115806669599588,8.469412131551,12.007071097119889
1770448524456,134,6,6.13329225366126,8.603471008658857,12.02578160527156
1770448524460,134,6,5.862772693875228,8.454119984708239,11.755970684725629
1770448524464,133,5,5.505967932574029,7.56100644902373,11.39989014923522
1770448524468,133,5,5.239055324492371,7.444922398617131,11.134419013946292
1770448524472,133,5,5.090743511471572,7.507278299767894,10.988003013864788
1770448524476,133,5,4.964824869131636,7.615760403069018,10.863147586102825
1770448524480,133,5,4.7731821952951385,7.430592948495324,10.670984921153917
1770448524484,132,4,4.533829899689929,6.612658322723709,10.430586272243524
1770448524488,132,4,4.332522454454592,6.43794584251523,10.229571250277306
1770448524492,132,4,4.203320342556767,6.535776109201387,10.102458859534709
1770448524496,132,4,4.072753432526207,6.633600256410953,9.974276544787006
1770448524500,132,4,3.8318469785448457,6.396614424779867,9.73440507321268
1770448524504,131,3,3.451239554202398,5.702787848150584,9.353563213291809
1770448524508,131,3,3.0096862519356593,5.345171671251902,8.912049249452155
1770448524512,130,2,2.6053937727736876,4.69383710018376,8.50916197455355
1770448524516,130,2,2.2448133504200314,4.4755395579750505,8.15066607864469
1770448524520,130,2,1.8232430145498628,4.586000350120363,7.7301857978668655
1770448524524,129,1,1.2124509501295786,3.5443136690755908,7.118894804510166
1770448524528,128,0,0.3632387425393872,2.5051036661564745,6.268908944486128
1770448524532,127,-1,-0.6688687983487616,1.612028538673696,5.237475807595252
1770448524536,126,-2,-1.7731894068049017,0.5126522077305053,4.135527587526505
1770448524540,125,-3,-2.841018305464459,-0.3574035250073915,3.070539318707902
1770448524544,124,-4,-3.7869412905533855,-1.5465949841502078,2.126624569882792
1770448524548,123,-5,-4.547576204960748,-2.322626911868543,1.366721830594524
1770448524552,123,-5,-5.0877003921720645,-2.568297529372791,0.8264100751956036
1770448524556,122,-6,-5.420582338746042,-3.26481560253612,0.4932157160341042
1770448524560,122,-6,-5.621922875648305,-3.5705020608591664,0.2921942044602916
1770448524564,122,-6,-5.807005713622695,-3.29307713736147,0.1082687416670129
1770448524568,122,-6,-6.0643005278048845,-3.5567295876776086,-0.147303476736945
1770448524572,121,-7,-6.388833624845759,-4.30291124086742,-0.4697879720366922
1770448524576,121,-7,-6.67737874470882,-4.511979151618088,-0.7561555483321047
1770448524580,121,-7,-6.797732716704577,-4.306517545554554,-0.8746730342207814
1770448524584,121,-7,-6.680343593627383,-4.516596003935904,-0.7562323144613421
1770448524588,121,-7,-6.368643111651241,-4.314331345417505,-0.4441625847234416
1770448524592,122,-6,-5.997033325586005,-3.4978144285106363,-0.0723601322520837
1770448524596,122,-6,-5.710531914680957,-3.3248001280891217,0.2146794061007169
1770448524600,122,-6,-5.581522345754549,-3.4489714170978307,0.3450396595191547
1770448524604,122,-6,-5.584373998568813,-3.369956556691345,0.3445459360139935
1770448524608,122,-6,-5.63848983607407,-3.40727720612021,0.2932677947260389
1770448524612,122,-6,-5.673198427621147,-3.4001442048383357,0.2607978966914874
1770448524616,122,-6,-5.663743650936034,-3.378452486881976,0.2712385724937993
1770448524620,122,-6,-5.626946893233849,-3.3961616571177435,0.3082578361683206
1770448524624,122,-6,-5.596505351830363,-3.374501858999038,0.3393555657921325
1770448524628,122,-6,-5.598307703183224,-3.389642469193846,0.3393555570235564
1770448524632,122,-6,-5.632745559852905,-3.3798782687871616,0.307395993191359
1770448524636,122,-6,-5.6666871997842705,-3.3857272887096204,0.2755595594317199
1770448524640,122,-6,-5.643388629739634,-3.358893300802103,0.3002669650537246
1770448524644,122,-6,-5.515081084447979,-3.397914787826233,0.4300869454495677
1770448524648,122,-6,-5.279687112854262,-3.310720997149598,0.6678233650347822
1770448524652,123,-5,-4.9850799497123095,-2.4772968074180977,0.9650301556966436
1770448524656,123,-5,-4.690380595354532,-2.197992486584938,1.261365117557192
1770448524660,123,-5,-4.427127565333,-2.6126073498729463,1.5251411233123662
1770448524664,123,-5,-4.207335438596367,-2.021699980014102,1.745576477908264
1770448524668,124,-4,-4.060521361177496,-1.75067844507169,1.8943397879654575
1770448524672,123,-5,-4.0367204161953945,-1.9485214927209016,1.9213577040489864
1770448524676,124,-4,-4.154659414815267,-1.7198454795610862,1.8068800888462857
1770448524680,123,-5,-4.349144919598756,-2.097180105342548,1.6151139858036163
1770448524684,123,-5,-4.4875563358391695,-2.439389882247151,1.4784643731520974
1770448524688,123,-5,-4.462099985697579,-2.424940221239856,1.5051956431066733
1770448524692,123,-5,-4.282817490014544,-2.0967438688814957,1.6858359781014318
1770448524696,124,-4,-4.080989255055241,-1.7083668455559846,1.8893963961700664
1770448524700,123,-5,-4.007926985523117,-1.9158447833910912,1.9646028775951343
1770448524704,124,-4,-4.109497907476117,-1.756083879243466,1.865555337559872
1770448524708,123,-5,-4.282265492408154,-1.9639875492006147,1.6957904343620491
1770448524712,123,-5,-4.352363532973421,-2.612121191756354,1.6292876211933232
1770448524716,123,-5,-4.21450586418956,-2.1323981566853307,1.7708096177519907
1770448524720,124,-4,-3.911826296065601,-1.4400378365151631,2.07593104697028
1770448524724,124,-4,-3.5911402695380588,-1.279272270561719,2.397145821926779
1770448524728,124,-4,-3.3881719443931364,-1.3181278587068368,2.6000192989931934
1770448524732,124,-4,-3.3504588092484897,-1.348223693706681,2.639378707259736
1770448524736,124,-4,-3.4395303627569205,-1.2691523047367328,2.5546249477716767
1770448524740,124,-4,-3.5677896837206378,-1.3557006068620443,2.431809902792712
1770448524744,124,-4,-3.6232583667269576,-1.2862290851097358,2.380598404057652
1770448524748,124,-4,-3.4917149530923246,-1.3052357880688432,2.5144505581927703
1770448524752,124,-4,-3.1045960148520084,-1.3455041614835306,2.9029595830815245
1770448524756,125,-3,-2.4934411637669394,-0.2313707472785773,3.5157241381390767
1770448524760,126,-2,-1.791489977964571,0.6179262535755774,4.219672902266138
1770448524764,126,-2,-1.160268516360616,0.7794461484782067,4.853159913073814
1770448524768,127,-1,-0.694409625571935,1.650809677890169,5.321991244027293
1770448524772,127,-1,-0.3786806664622626,1.7131804638965535,5.641894676904055
1770448524776,127,-1,-0.1201301781274903,1.7224602840814502,5.905301500234617
1770448524780,128,0,0.1804468136283947,2.7116825443370978,6.209988162724982
1770448524784,128,0,0.5660922061290727,2.696729911190325,6.598119599198169
1770448524788,128,0,0.9943529541971396,2.780657577569548,7.027839833286122
1770448524792,129,1,1.3489810206974446,3.5840369366050533,7.384098135041191
1770448524796,129,1,1.4979342385479089,3.872947826337173,7.535471137119663
1770448524800,129,1,1.3750853542946322,3.595282127027539,7.416016358159485
1770448524804,128,0,1.025953552528458,2.836488812149524,7.07139676522374
1770448524808,128,0,0.579132719241652,2.6809984037280365,6.629717605996887
1770448524812,128,0,0.1724670312978782,2.668220504033213,6.227482873452241
1770448524816,127,-1,-0.111820774081027,1.8515062026494689,5.946009378959653
1770448524820,127,-1,-0.2794632581441449,1.5996595977263524,5.7801505373978905
1770448524824,127,-1,-0.4197642754118498,1.9252380945353444,5.641908465587678
1770448524828,127,-1,-0.6581096881598218,1.5513156593618995,5.4065624631877185
1770448524832,126,-2,-1.0803178321980798,0.8602244416450548,4.9880713506125
1770448524836,126,-2,-1.6768384395812388,0.6481661528550184,4.3955670193806196
1770448524840,125,-3,-2.3488944349087517,-0.1503708276804736,3.7277777822776414
1770448524844,124,-4,-2.9724695574553186,-1.2939515709459557,3.108790826330628
1770448524848,124,-4,-3.469482777472935,-1.2176942565687194,2.616150382916878
1770448524852,124,-4,-3.830033840190827,-1.336502826788149,2.2587819678144943
1770448524856,123,-5,-4.08073073509741,-2.1574078305183857,2.01001090722915
1770448524860,123,-5,-4.248454954659602,-2.281539795063665,1.844357735759078
1770448524864,123,-5,-4.354531653091864,-2.167987686447652,1.741981654807729
1770448524868,123,-5,-4.418911189571209,-2.2934111141376077,1.6829089377987092
1770448524872,123,-5,-4.445806062838718,-2.274625674713338,1.661542207280446
1770448524876,123,-5,-4.406301152987978,-2.160314764296536,1.7054633927211509
1770448524880,123,-5,-4.2556067796210595,-2.2844445180398134,1.8591415598715937
1770448524884,123,-5,-3.985917909908231,-2.103880542639545,2.130887643870956
1770448524888,124,-4,-3.663734971431467,-1.369887148292099,2.455059083343259
1770448524892,124,-4,-3.401877386625202,-1.1546867894799804,2.7201146162301324
1770448524896,124,-4,-3.2808939396719605,-1.2671684552540428,2.8470010407208157
1770448524900,124,-4,-3.2901049377629423,-1.1482931641488867,2.8465108991704993
1770448524904,124,-4,-3.341495422028741,-1.2079373847399766,2.803679277961672
1770448524908,124,-4,-3.3444676880788435,-1.2695404006672528,2.804087001821631
1770448524912,124,-4,-3.2783559792138357,-1.1998056010876614,2.865644066977408
1770448524916,124,-4,-3.1871582878033093,-1.2295973373097056,2.9478588327655313
1770448524920,124,-4,-3.046809499462932,-1.1222988913963654,3.083823032218506
1770448524924,125,-3,-2.5299305577891023,-0.245585626274444,3.609309685898968
1770448524928,127,-1,-0.8134102321682133,1.8160904818077368,5.348141127757015
1770448524932,131,3,3.3320424122847196,5.718767383131706,9.520598762326674
1770448524936,138,10,10.999239268049571,12.908884184487048,17.20573837883591
1770448524940,149,21,22.27287381634404,23.755072307998773,28.478384445578452
1770448524944,162,34,35.520739888831635,36.924126853600214,41.70696493820861
1770448524948,175,47,47.45526129777175,49.644805699438685,53.615469368524224
1770448524952,182,54,54.22379539220336,56.91751458283084,60.3674062453971
1770448524956,181,53,53.1240043348297,55.68954818656697,59.27155165603848
1770448524960,172,44,44.02230192562385,46.95187562054607,50.19383128378887
1770448524964,157,29,29.59295719524312,31.752244370784343,35.7975984130977
1770448524968,140,12,14.140428198751998,14.781984354497594,20.373131987162708
1770448524972,128,0,1.6417732754701513,2.94814912816127,7.8871655342452
1770448524976,122,-6,-5.850543594493331,-3.3753542269871417,0.3894690461493475
1770448524980,119,-9,-8.584655662195601,-5.805459231320254,-2.3622822079598205
1770448524984,120,-8,-8.274295938577598,-5.577580189799395,-2.069920124368762
1770448524988,120,-8,-6.819567370735767,-4.801443137056709,-0.6219202114472484
1770448524992,122,-6,-5.433159714074257,-3.5465330266386688,0.7733242335638195
1770448524996,122,-6,-4.510154323457851,-2.814198845645688,1.7154309977816735
1770448525000,123,-5,-3.993202703569137,-2.348824347600907,2.2511260237228923
1770448525004,124,-4,-3.759768526680445,-1.0301325527865357,2.494430871879592
1770448525008,124,-4,-3.751286893559353,-1.2679791065445896,2.502876565932101
1770448525012,123,-5,-3.903277512575212,-2.1848451349848306,2.346963810889333
1770448525016,123,-5,-4.089288146709131,-2.003912849381968,2.160397648878652
1770448525020,123,-5,-4.175884332710143,-2.2794942943727756,2.0791041099693546
1770448525024,123,-5,-4.108952321909287,-1.9282264334912649,2.15416191929216
1770448525028,124,-4,-3.9258503090265138,-1.4519250248888054,2.343883149971914
1770448525032,123,-5,-3.693221730880032,-1.9304501460688095,2.5801454595256894
1770448525036,124,-4,-3.447711314845769,-1.2644159502919488,2.8279627900599147
1770448525040,124,-4,-3.189962403687709,-0.98584521573152,3.0889435152111178
1770448525044,124,-4,-2.912975221781791,-1.1830005936315129,3.3708235587356263
1770448525048,125,-3,-2.6184601454917873,-0.1885803242986998,3.671035224188896
1770448525052,125,-3,-2.3026915113734976,-0.1579618724512421,3.992121333103253
1770448525056,125,-3,-1.9362922838108352,-0.0560865222602848,4.363078048737037
1770448525060,126,-2,-1.4738878382989162,0.8808346802737459,4.829705328719076
1770448525064,126,-2,-0.8961550427563514,0.9387993111601168,5.411703058978898
1770448525068,127,-1,-0.2457033418842824,1.7388220460156298,6.066238152116644
1770448525072,128,0,0.3828882491470928,2.926117794776774,6.6984403016014085
1770448525076,128,0,0.8952571223360819,2.857296330538108,7.214489666565319
1770448525080,128,0,1.2479414983457835,3.0271385011098557,7.571947916941285
1770448525084,129,1,1.4648148927679665,3.787303809521362,7.794692679279653
1770448525088,129,1,1.6241988132599308,3.940413453494364,7.959714589084713
1770448525092,129,1,1.8270948372280331,3.716104270397719,8.166983569989846
1770448525096,129,1,2.14598854597116,4.111832545304375,8.489464643563567
1770448525100,130,2,2.576210323400375,4.775021456651894,8.923622424237573
1770448525104,130,2,3.036633777879488,5.0899279605387076,9.388649437704336
1770448525108,131,3,3.433075644288934,5.6425588914399984,9.789737867299053
1770448525112,131,3,3.732183737831061,6.042991055869688,10.093074761799478
1770448525116,131,3,3.975478318984095,5.798552263183195,10.340607491860167
1770448525120,131,3,4.220925293981146,6.10013876879421,10.590948163034112
1770448525124,132,4,4.475986560890049,6.820443767295062,10.851354957480543
1770448525128,132,4,4.6935600123273,6.898420725803789,11.07384930604514
1770448525132,132,4,4.827457496547927,6.853537333695027,11.211833065229792
1770448525136,132,4,4.8790868774596134,6.958781601050779,11.267194315895177
1770448525140,132,4,4.887114377679525,6.991895650327017,11.279329726906786
1770448525144,132,4,4.878948766656132,6.937802473395359,11.27596157953251
1770448525148,132,4,4.8380051015807,6.814413343857778,11.240224265211296
1770448525152,132,4,4.720763478397466,6.967762774950715,11.127950873863115
1770448525156,132,4,4.507664030570899,6.841191319910107,10.919201467082464
1770448525160,131,3,4.233475478098956,6.1470719344516045,10.649120403323383
1770448525164,131,3,3.959579433346047,5.792423283189848,10.379699192246909
1770448525168,131,3,3.7163394573301063,5.997080107219876,10.141225299287589
1770448525172,131,3,3.4797818024287777,5.809297816939408,9.90916684195384
1770448525176,130,2,3.2039914854763345,5.005395639565103,9.637565505212905
1770448525180,130,2,2.8696650059772404,5.017801134383792,9.307692298190942
1770448525184,130,2,2.5034663152565724,4.9272483477380185,8.946596810885394
1770448525188,129,1,2.155807617883758,3.9000864105705255,8.604448596662774
1770448525192,129,1,1.8537072258143077,3.9264964600644503,8.30755111476448
1770448525196,129,1,1.56381205805663,3.9084996986049303,8.021778208208639
1770448525200,128,0,1.197461787475779,3.128041482568342,7.658372133706136
1770448525204,128,0,0.6557864848005022,2.8444313014376283,7.119563732290515
1770448525208,127,-1,-0.1173370118733063,2.0063701467619173,6.350845896511666
1770448525212,126,-2,-1.1023737614494946,0.8404598213926633,5.372260770949134
1770448525216,125,-3,-2.1993882710051356,0.0147049302022748,4.282305732687574
1770448525220,124,-4,-3.2536235586401334,-0.9591660810724648,3.233607509494022
1770448525224,123,-5,-4.117054279226415,-2.0518832124896584,2.373602250295023
1770448525228,122,-6,-4.732383319649119,-3.0502547744668234,1.7609943946202264
1770448525232,122,-6,-5.179582777229676,-3.1099179941105852,1.317287039646768
1770448525236,122,-6,-5.618628860086717,-2.983576177140888,0.8825933696084842
1770448525240,121,-7,-6.150770194606765,-3.975193345804273,0.3552844698667536
1770448525244,120,-8,-6.721266174756621,-4.981202669477931,-0.2096389710195101
1770448525248,120,-8,-7.158674826019146,-5.126406309182072,-0.6406913514921797
1770448525252,120,-8,-7.309400513348033,-4.995242497972356,-0.7854723922007381
1770448525256,120,-8,-7.14699456255909,-5.091398507801205,-0.6188923100612378
1770448525260,120,-8,-6.784307080765952,-4.825691739270047,-0.2535894433399708
1770448525264,121,-7,-6.402336534035264,-4.117120672950142,0.1310991827919672
1770448525268,121,-7,-6.150473748319597,-3.975257126076426,0.3872339395808675
1770448525272,121,-7,-6.074642756519188,-4.121852142929836,0.4689079015353075
1770448525276,121,-7,-6.10955682455151,-3.963821609978525,0.4401820817033339
1770448525280,121,-7,-6.132803361913971,-3.8916595797594447,0.4222812975897909
1770448525284,121,-7,-6.0444022769199925,-4.075412005320121,0.5151541042617422
1770448525288,121,-7,-5.824068329162168,-3.9421423806178977,0.7398471630604151
1770448525292,122,-6,-5.528496882220987,-3.1981330770272005,1.0399307007696803
1770448525296,122,-6,-5.23025973958734,-2.807923331850488,1.342425851167647
1770448525300,122,-6,-4.956114412916184,-3.067232026869625,1.620584403128002
1770448525304,122,-6,-4.68867901800592,-2.848063234605799,1.8924786119105417
1770448525308,123,-5,-4.421729389500923,-2.167889662290928,2.164625475935143
1770448525312,123,-5,-4.1943246351879155,-1.962751872788612,2.397373301703696
1770448525316,123,-5,-4.061059584035502,-1.9926435322879832,2.5355290131675288
1770448525320,123,-5,-4.036430654809848,-1.8880840886414911,2.5647020364139728
1770448525324,123,-5,-4.075940180721919,-1.9717017225564883,2.529793339079297
1770448525328,123,-5,-4.111230574943714,-2.0729672733185796,2.499232835855733
1770448525332,123,-5,-4.104283554692748,-2.001525197855967,2.510812926153502
1770448525336,123,-5,-4.072508053282196,-1.9528511179098196,2.547031461962252
1770448525340,123,-5,-4.063786714832926,-1.8824317827755643,2.560233857853821
1770448525344,123,-5,-4.103230278534696,-1.9636985967422769,2.52561842563276
1770448525348,123,-5,-4.1574157866653545,-2.083173220730729,2.4766536250068105
1770448525352,123,-5,-4.148200826442768,-1.950787327031795,2.4912202225160884
1770448525356,123,-5,-4.008873083729364,-2.000909801898745,2.6356834179515234
1770448525360,123,-5,-3.740260978312928,-1.7794164893102815,2.9089211685357004
1770448525364,124,-4,-3.420061016968777,-1.0684792660360172,3.233106037452485
1770448525368,124,-4,-3.154714878324516,-0.9572453026809238,3.50215370005494
1770448525372,124,-4,-3.0134570235133724,-1.0632466978643391,3.647724184325849
1770448525376,124,-4,-2.9963707603145675,-0.8645886507367528,3.670366566109447
1770448525380,124,-4,-3.049983191259348,-0.879157678533296,3.623072243722535
1770448525384,124,-4,-3.105747532540151,-0.968210907643022,3.5731319301036475
1770448525388,124,-4,-3.1159694085237093,-1.0205246443861675,3.567425713839121
1770448525392,124,-4,-3.076016715990293,-1.0082847179835568,3.610899348939701
1770448525396,124,-4,-3.024514332050458,-0.8684573443889541,3.665972130592489
1770448525400,124,-4,-3.015646570529836,-0.8676003569927238,3.679364853214935
1770448525404,124,-4,-3.074126117153739,-0.9510382616444036,3.626499060653255
1770448525408,124,-4,-3.1612020256480644,-1.028678962379176,3.545448706728113
1770448525412,124,-4,-3.1796230074818403,-0.984504962436234,3.532614636105624
1770448525416,124,-4,-3.0242338893829084,-0.8660696557915788,3.6929213944124193
1770448525420,124,-4,-2.652140572777906,-0.8348180076518918,4.069615004448609
1770448525424,125,-3,-2.119916736109833,0.0165866092098863,4.606245306978275
1770448525428,126,-2,-1.5483538244745878,1.0471278444184997,5.1817966090201155
1770448525432,126,-2,-1.0387665354335724,0.919391922292117,5.695323813314108
1770448525436,126,-2,-0.616275346753852,1.2884126731946195,6.1228253745685235
1770448525440,127,-1,-0.2432467746157947,2.012840983777789,6.50232856722133
1770448525444,127,-1,0.1307766305881372,2.1881628623393197,6.882991550940636
1770448525448,128,0,0.5358798038411166,2.9050445350559917,7.293228926469202
1770448525452,128,0,0.9720931489826226,3.063401636341014,7.733036354064548
1770448525456,128,0,1.4014134227363784,3.184815402106799,8.165986052022518
1770448525460,129,1,1.7457284490349223,4.124213704103628,8.51516304231397
1770448525464,129,1,1.9177568933856295,4.10199161007777,8.692824774865668
1770448525468,129,1,1.8797481039056696,4.001667860920016,8.660066946151536
1770448525472,129,1,1.6766897493252584,3.996171843613862,8.46175835600894
1770448525476,128,0,1.4012925570919996,3.2645195122644832,8.191652029101224
1770448525480,128,0,1.1173322815206022,3.0641114282836157,7.913996642755471
1770448525484,128,0,0.8181596032465861,3.1898069234817896,7.620829780721248
1770448525488,128,0,0.4613863332472077,2.9223377739360368,7.26811109838344
1770448525492,127,-1,0.0300772888548809,2.109585460251685,6.8394529978396505
1770448525496,126,-2,-0.4583795121151606,1.1650434635909976,6.354799312503816
1770448525500,126,-2,-0.9923591771713864,1.1656736949113442,5.827197545560062
1770448525504,126,-2,-1.5745834626597444,1.1324249839547382,5.252489496701923
1770448525508,125,-3,-2.171072948111312,-0.0236137651070293,4.662379800476055
1770448525512,124,-4,-2.6792150548352813,-0.8908300087137406,4.158901522179457
1770448525516,124,-4,-2.985511416789173,-0.8433764997975697,3.856470881301755
1770448525520,124,-4,-3.0664094371644417,-0.8088144847054748,3.779561256955316
1770448525524,124,-4,-3.0256356038707772,-0.8658703449187812,3.8249818896969208
1770448525528,124,-4,-3.025959907314889,-0.9971259164749662,3.830221620574049
1770448525532,124,-4,-3.1682225106822495,-0.8935517660855177,3.6940364120901017
1770448525536,124,-4,-3.410344140655057,-0.8382702314629831,3.45766672304837
1770448525540,123,-5,-3.5970055647960417,-1.8010290298456946,3.2763225060006578
1770448525544,123,-5,-3.5922383292935987,-1.8603605573913256,3.2866862587033303
1770448525548,124,-4,-3.4065468761633912,-0.9424019017569624,3.478254915670126
1770448525552,124,-4,-3.1932109112907368,-0.9625766657261754,3.696446543578202
1770448525556,124,-4,-3.10997774671004,-0.7199911997573025,3.7827403564454993
1770448525560,124,-4,-3.182426985524276,-0.9445632491234144,3.7132067806355185
1770448525564,123,-5,-3.300118565996085,-1.6803663290337978,3.6013748926543077
1770448525568,124,-4,-3.3329619698984545,-1.0989688550436476,3.578563793446617
1770448525572,124,-4,-3.2399750753014933,-0.7793646323366885,3.683050188648388
1770448525576,124,-4,-3.0779157170768467,-0.8859325041580273,3.852932419176778
1770448525580,124,-4,-2.9380654362053455,-0.7663578210285182,3.99318151281604
1770448525584,124,-4,-2.8871907602248763,-0.8510641071899987,4.037975472709361
1770448525588,124,-4,-2.9205127800933086,-0.8988309744248704,3.9983286846348607
1770448525592,124,-4,-2.862486089977766,-0.9575017228030678,4.05824189493981
1770448525596,125,-3,-2.192249427873768,0.3176235651380668,4.743632252144982
1770448525600,128,0,0.0781316863829557,3.0392984014194555,7.03970262702189
1770448525604,132,4,5.222619348298748,7.367345427074027,12.210312663410612
1770448525608,141,13,14.16557288943388,15.90942867150909,21.167614836680173
1770448525612,153,25,26.596488022617468,28.27025332811554,33.59398126700563
1770448525616,167,39,40.40116910503928,42.12095539550262,47.378402620394795
1770448525620,179,51,51.97807556419889,54.22611133262026,58.93231251918984
1770448525624,185,57,57.54318548815449,60.212871921500074,64.4871095178666
1770448525628,183,55,54.86435344165764,57.98242871878002,61.81891377549552
1770448525632,172,44,44.46118556817162,47.25562956365578,51.443910787950344
1770448525636,156,28,29.493715049754407,31.057887337088413,36.51032779714988
1770448525640,140,12,14.314020761086446,15.391330194471497,21.357113154617306
1770448525644,129,1,2.507514150944405,4.068703453211366,9.560914717729414
1770448525648,123,-5,-4.4289059589575315,-1.795485697887842,2.617342513775289
1770448525652,121,-7,-7.115630439701885,-3.88566569592275,-0.0868702135356898
1770448525656,120,-8,-7.283061769841672,-4.841923083820603,-0.2693267533092029
1770448525660,120,-8,-6.580398169385752,-4.655213542793799,0.4320071405334236
1770448525664,121,-7,-5.926685299609021,-3.96671050719652,1.1002535005828928
1770448525668,121,-7,-5.543580856849247,-3.681232507181242,1.5057143652142797
1770448525672,122,-6,-5.329521880964601,-3.0077189035668885,1.738313942327677
1770448525676,122,-6,-5.174109852821265,-2.664778566371298,1.9017804724112688
1770448525680,122,-6,-5.052323065390115,-2.849082017334006,2.022975858039203
1770448525684,122,-6,-4.9787475566131505,-2.777134820199848,2.0943667831566906
1770448525688,122,-6,-4.95894728531266,-2.827760718867815,2.1164326289297124
1770448525692,122,-6,-4.987278924615524,-2.852633175394425,2.09594534930811
1770448525696,122,-6,-5.054614646809653,-2.748876321420192,2.0388250921894153
1770448525700,122,-6,-5.130425963407683,-2.8080886302842627,1.971586129380951
1770448525704,122,-6,-5.140049046612147,-2.785463249856059,1.9674681050205456
1770448525708,122,-6,-4.986447859049823,-2.8227628896535784,2.125367442579156
1770448525712,122,-6,-4.621538731181584,-2.799314317423947,2.496006239410261
1770448525716,123,-5,-4.099367596848641,-1.7885407038650518,3.0256163748487
1770448525720,124,-4,-3.540706516499467,-0.746523368631594,3.591264217894654
1770448525724,124,-4,-3.035045396753653,-0.8763957843793189,4.102006706555407
1770448525728,124,-4,-2.5879297157025714,-0.6771441156218767,4.553693117888708
1770448525732,125,-3,-2.1680005131431948,0.0520074605801021,4.980116600707472
1770448525736,125,-3,-1.7800843025221629,0.4199284504375336,5.376676603730253
1770448525740,126,-2,-1.4614186518968946,1.0250253597189225,5.703768479122742
1770448525744,126,-2,-1.2068051835521434,1.3745595570611466,5.96453749980867
1770448525748,126,-2,-0.9311505425236885,1.0858886695370973,6.244837789587036
1770448525752,126,-2,-0.5395924477559408,1.3007943745544384,6.642011498171533
1770448525756,127,-1,-0.0362164251009489,2.2377211689617384,7.15289749721738
1770448525760,128,0,0.4630762583965575,3.152140825748042,7.65993963743652
1770448525764,128,0,0.8427015260456248,3.342033931127116,8.045900291726804
1770448525768,128,0,1.1019009471066807,3.044741198853475,8.310739399138951
1770448525772,128,0,1.346337569861733,3.4436701216034145,8.56200793343231
1770448525776,129,1,1.6778168658557984,4.053998496842812,8.901764732213154
1770448525780,129,1,2.10839986756529,4.3841969110184085,9.34034218982389
1770448525784,130,2,2.5740351226730365,5.1256024048009,9.812367287159796
1770448525788,130,2,3.0045724464104797,5.257065678290742,10.248475518084692
1770448525792,130,2,3.3663655888227644,5.281862644560497,10.61671765647208
1770448525796,131,3,3.6530768511903897,6.1854882968117355,10.911101604910767
1770448525800,131,3,3.86301312942764,6.3230419946323515,11.128783752726768
1770448525804,131,3,3.992746970593629,6.149539701432802,11.265621680653789
1770448525808,131,3,4.03704992618867,6.311240902428754,11.317017945877106
1770448525812,131,3,3.985988431855097,6.181966845069004,11.273647676062565
1770448525816,131,3,3.8337472498569327,6.345041471908145,11.12907614655864
1770448525820,131,3,3.600135383539763,6.155083963934303,10.902272707769294
1770448525824,130,2,3.331728644778341,5.353308986401867,10.640294489076776
1770448525828,130,2,3.065480479468101,5.120137699111627,10.38132319361888
1770448525832,130,2,2.797557614408759,5.3792674638740685,10.121662528098849
1770448525836,130,2,2.5083207704547874,5.166940642231752,9.840629595907243
1770448525840,129,1,2.21831425800241,4.35817179272203,9.558251340752376
1770448525844,129,1,1.9966019808834785,4.16645816988124,9.344188197810478
1770448525848,129,1,1.8981364199299555,4.32588387323026,9.25376253283993
1770448525852,129,1,1.8960508674734131,4.16877722344228,9.259416271697637
1770448525856,129,1,1.8793424547800517,4.412032085606837,9.249495305824984
1770448525860,129,1,1.713609206117017,4.133366278077077,9.090295892969856
1770448525864,128,0,1.3090406785026552,3.400777365710423,8.693451257917486
1770448525868,128,0,0.6540194968388655,3.1176679898547386,8.04764177753756
1770448525872,127,-1,-0.1868268682463096,2.3503689394224065,7.216123729780347
1770448525876,126,-2,-1.1007131150738476,1.297785982304097,6.310387891801184
1770448525880,125,-3,-1.9801444497569831,0.2286234681731906,5.4382910893742435
1770448525884,124,-4,-2.781219587315518,-0.6293985527142971,4.64492092722553
1770448525888,124,-4,-3.535138720593057,-0.8944810019747047,3.899291702068532
1770448525892,123,-5,-4.289147379759529,-1.585571376986168,3.153464546319457
1770448525896,122,-6,-5.033771619436589,-2.771460441341308,2.4168230851418606
1770448525900,121,-7,-5.698592777608396,-3.660343506511969,1.760445966551985
1770448525904,121,-7,-6.218093090455781,-3.7292805384890864,1.249855541623054
1770448525908,121,-7,-6.586549258445936,-3.807103442819167,0.8899118699912432
1770448525912,120,-8,-6.8471377798895645,-4.623516279694389,0.6372419949808812
1770448525916,120,-8,-7.044091918052958,-4.750843169565062,0.4485845518971398
1770448525920,120,-8,-7.189868466028177,-4.6089874662307855,0.3120447540469637
1770448525924,120,-8,-7.261503266505744,-4.82736481513859,0.2497109078376489
1770448525928,120,-8,-7.219398893145518,-4.654553341965419,0.3001418978432415
1770448525932,120,-8,-7.045231623928383,-4.786966308125763,0.4820457720405997
1770448525936,120,-8,-6.7788500963267815,-4.556182169658257,0.7568530074187159
1770448525940,121,-7,-6.5107783100650245,-3.766972455893147,1.0344339077508469
1770448525944,121,-7,-6.3156836879194165,-3.6980120565040906,1.2392377299091883
1770448525948,121,-7,-6.184375162469342,-3.727748123617359,1.3796481811178651
1770448525952,121,-7,-6.0339761652452735,-3.745238333463784,1.5387105491714266
1770448525956,121,-7,-5.798149862901925,-3.5356150446625314,1.7832302605161097
1770448525960,122,-6,-5.505808768522745,-2.7994183219416757,2.08428831900693
1770448525964,122,-6,-5.264091238741456,-2.6316134600855294,2.3346844532862017
1770448525968,122,-6,-5.162026696643599,-2.790519989173592,2.4458526341099756
1770448525972,122,-6,-5.18716771239109,-2.675393203319572,2.4306782638903854
1770448525976,122,-6,-5.226314219360602,-2.5719688284404643,2.4019517055491955
1770448525980,122,-6,-5.1468366531499665,-2.770732289309334,2.491349328196632
1770448525984,122,-6,-4.897368041598538,-2.611284003078185,2.749689788055953
1770448525988,123,-5,-4.552145663999662,-1.8263037387149872,3.102992441064564
1770448525992,123,-5,-4.260104641471628,-1.6036847433559762,3.4032023944420144
1770448525996,123,-5,-4.135364533773485,-1.6471178108782745,3.537240144274196
1770448526000,123,-5,-4.176427614294855,-1.6591572646259791,3.5069752122194444
1770448526004,123,-5,-4.273779254002823,-1.735513990796778,3.421036312618378
1770448526008,123,-5,-4.292463389822071,-1.6534718804994566,3.412878672298879
1770448526012,123,-5,-4.16758185252791,-1.8084262874628385,3.546711818201911
1770448526016,123,-5,-3.949555505087762,-1.364980021168729,3.7728383662773366
1770448526020,124,-4,-3.768383165103734,-0.9878166006701612,3.962583732155714
1770448526024,123,-5,-3.7379315811837297,-1.3313710406338988,4.002788587821424
1770448526028,124,-4,-3.866393623532665,-1.1042102361985973,3.884959056985358
1770448526032,123,-5,-4.041031932358679,-1.2995727045836762,3.7212060002186993
1770448526036,123,-5,-4.105315733407892,-1.8821787495855824,3.667834787577564
1770448526040,123,-5,-3.9742066251927537,-1.4523926795768771,3.809750382933819
1770448526044,124,-4,-3.6941803207732384,-0.8203488074034784,4.099799945758354
1770448526048,124,-4,-3.39839112287983,-0.6628206768222387,4.404166302198433
1770448526052,124,-4,-3.2054682319296415,-0.645371359057628,4.604834559175899
1770448526056,124,-4,-3.1556685664980098,-0.6107677747282727,4.663415375588222
1770448526060,124,-4,-3.2209731477398553,-0.6313080652729806,4.609365785387599
1770448526064,124,-4,-3.344799340774117,-0.6913078232665684,4.498706181715688
1770448526068,124,-4,-3.45685787420674,-0.7284017026266874,4.399388560490206
1770448526072,124,-4,-3.465651254070204,-0.5938821139636556,4.400813541775836
1770448526076,124,-4,-3.277301776758243,-0.6270353501496237,4.59703179571911
1770448526080,124,-4,-2.862691881920581,-0.6218618823145357,5.01943647094011
1770448526084,125,-3,-2.3154638111253005,0.3297989103029195,5.576358390404352
1770448526088,126,-2,-1.8119934387860028,1.2548977910061985,6.0912832113837005
1770448526092,126,-2,-1.472253937242881,1.4483673813622828,6.442877828216796
1770448526096,126,-2,-1.246131159511485,1.345777164011768,6.680531131730948
1770448526100,126,-2,-0.9501596684341276,1.3948285008636805,6.98770627864827
1770448526104,127,-1,-0.4326160643624537,2.349559185221085,7.515791953479717
1770448526108,128,0,0.2827526461697449,3.2215933615649246,8.240594804220786
1770448526112,128,0,0.9951782198079604,3.552291429759194,8.961935487690239
1770448526116,129,1,1.4585579351771247,4.208816604539402,9.435032727300054
1770448526120,129,1,1.5435856221741022,4.572980632258998,9.531063063591262
1770448526124,129,1,1.3182685879531015,4.1392658908531885,9.31735892953372
1770448526128,128,0,0.9883966714798808,3.475257832382419,8.999122345006905
1770448526132,128,0,0.7373821896938175,3.326019506682574,8.759782500522217
1770448526136,128,0,0.5938579642155841,3.4307851289312987,8.627668298424984
1770448526140,128,0,0.4407839013363166,3.389739823516691,8.484748419193599
1770448526144,128,0,0.1482338395686582,3.284205097259109,8.200805268486647
1770448526148,127,-1,-0.3085498183764734,2.399901225807954,7.752713097201638
1770448526152,126,-2,-0.8575613751843412,1.3765480916556398,7.214648941575088
1770448526156,126,-2,-1.4272135860772424,1.425498885194486,6.658111222021393
1770448526160,126,-2,-1.999627062778662,1.3809110580503463,6.09842585307888
1770448526164,125,-3,-2.5652464696130406,0.3123206220174603,5.543309485510553
1770448526168,124,-4,-3.0644442323799854,-0.5976289855313102,5.053447582432934
1770448526172,124,-4,-3.409725242643791,-0.6261526245565752,4.718438835972132
1770448526176,124,-4,-3.561678933977688,-0.5516186004308383,4.577949078630779
1770448526180,124,-4,-3.564370683048305,-0.6421362404571047,4.5864538795318115
1770448526184,124,-4,-3.5075491477467224,-0.6371211118425739,4.65338682731997
1770448526188,124,-4,-3.4653585865540526,-0.630454300800777,4.7054694572776965
1770448526192,124,-4,-3.4654876466961144,-0.5901753507510112,4.716305634989725
1770448526196,124,-4,-3.4961391800024924,-0.5747740173144646,4.697832351302805
1770448526200,124,-4,-3.5290628021053836,-0.6172608017842074,4.67711447493568
1770448526204,124,-4,-3.5409531840204,-0.6280402900136437,4.676039319925841
1770448526208,124,-4,-3.527480013858329,-0.6302792495821858,4.698558925172005
1770448526212,124,-4,-3.5069031296302233,-0.5781945236146568,4.727654819749182
1770448526216,124,-4,-3.509105087225562,-0.581552274274872,4.735739554846914
1770448526220,124,-4,-3.5514824949633264,-0.6039604295903813,4.70705165167578
1770448526224,124,-4,-3.6153464022398913,-0.6078210621425333,4.65930261850342
1770448526228,124,-4,-3.6448317785396993,-0.647100971482109,4.644383159634371
1770448526232,124,-4,-3.58139639563376,-0.5405102989711654,4.716279209345212
1770448526236,124,-4,-3.412936130441015,-0.6240834211117949,4.8859714111817105
1770448526240,124,-4,-3.171049973017092,-0.5451579356710479,5.126489607385048
1770448526244,125,-3,-2.8033805574157946,0.3588770579249631,5.498698407016633
1770448526248,126,-2,-1.936756010086373,1.3971004647429457,6.382696381771235
1770448526252,128,0,0.2948818349828004,3.434772396596524,8.64416476311111
1770448526256,133,5,5.099462099745551,8.399105335547834,13.481618171820426
1770448526260,141,13,13.423296910342016,16.45874664855912,21.827734119002436
1770448526264,152,24,25.087309117825153,27.3777095924468,33.49457755300317
1770448526268,165,37,38.17523821253798,40.412401154005366,46.56822541281681
1770448526272,177,49,49.24033528575355,52.41880256563832,57.61438627157395
1770448526276,183,55,54.51793946429776,58.39821096005792,62.88379368622405
1770448526280,180,52,51.66050162980149,55.43534166744764,60.03890174156403
1770448526284,169,41,41.02493978722917,44.37987454661129,49.435933362706415
1770448526288,153,25,25.684136535863523,28.411462986077535,34.136552019968235
1770448526292,137,9,10.0779465578698,12.432237089514402,18.564889149366607
1770448526296,125,-3,-1.9461986015466497,0.4567752917967036,6.556879678572091
1770448526300,119,-9,-8.605980399992141,-5.583090620984676,-0.1063444164249407
1770448526304,118,-10,-10.435511757017531,-6.512851237537429,-1.949836074789186
1770448526308,119,-9,-9.38057018843569,-5.731314464943361,-0.9057541577494916
1770448526312,120,-8,-7.473058626268973,-4.39505734508344,1.004357741399767
1770448526316,122,-6,-5.9174589895474945,-2.784876682287917,2.577729919066509
1770448526320,122,-6,-4.966760990333129,-2.2902156371723272,3.554583795185856
1770448526324,123,-5,-4.374019769445736,-1.8226778921654203,4.1715369972673315
1770448526328,124,-4,-3.908020357933787,-0.3725720192839454,4.652225180116686
1770448526332,125,-3,-3.556324540314602,0.2361629707684356,5.008530728678817
1770448526336,124,-4,-3.411329676631145,-0.4224910890061371,5.154338157373903
1770448526340,124,-4,-3.490858098609942,-0.6149407872456387,5.079682179747812
1770448526344,124,-4,-3.6921619796000913,-0.513337734582417,4.890236141175323
1770448526348,124,-4,-3.86714019734228,-0.6298877870791442,4.730501508926574
1770448526352,124,-4,-3.903628545331494,-0.5215024292405541,4.707160681881059
1770448526356,124,-4,-3.755773795537418,-0.6429790334483139,4.8641504782223155
1770448526360,124,-4,-3.442019189846298,-0.3930088762982939,5.18538638395288
1770448526364,125,-3,-3.029593634498416,0.2816943615263065,5.606646240562812
1770448526368,125,-3,-2.597679592356822,0.5936229692154296,6.049195201318075
1770448526372,126,-2,-2.1857609203694324,1.265659447606684,6.471878157676884
1770448526376,126,-2,-1.770663452120984,1.573497803575818,6.89674633223265
1770448526380,126,-2,-1.306428338642812,1.406627596283815,7.370379930189194
1770448526384,127,-1,-0.7922017676213737,2.46650643636405,7.894560791325405
1770448526388,128,0,-0.287495011400805,3.4796622228939764,8.409567565783108
1770448526392,128,0,0.1502647106877725,3.3218070628122005,8.857260562950339
1770448526396,128,0,0.5328669245601183,3.611502043980767,9.249365016316872
1770448526400,129,1,0.9327039394403772,4.280374611293061,9.658613130239312
1770448526404,129,1,1.4085359993151538,4.679545972429777,10.14383629832525
1770448526408,130,2,1.9424365534652233,5.226753058317897,10.687097151137342
1770448526412,130,2,2.44454753853673,5.644576344874594,11.198693960796934
1770448526416,131,3,2.821902138908087,6.255608592285167,11.58560185161853
1770448526420,131,3,3.0584008102218023,6.661357741519739,11.831379608204532
1770448526424,131,3,3.237420640442333,6.289750740449016,12.019428489864048
1770448526428,131,3,3.478826825174676,6.638969839700829,12.270173515748109
1770448526432,132,4,3.842864146395097,7.273299536581506,12.64412863449786
1770448526436,132,4,4.292166625100014,7.592248794606935,13.103354626488496
1770448526440,133,5,4.7440807258072155,8.383588921505616,13.564428942691269
1770448526444,133,5,5.149828710580498,8.509753478942113,13.978538601965267
1770448526448,133,5,5.514509007940875,8.502511333846627,14.35140304523933
1770448526452,134,6,5.845583269254297,9.362615429154058,14.690955590526572
1770448526456,134,6,6.098501723159751,9.571201161324147,14.952697504241346
1770448526460,134,6,6.186493720358054,9.350081873971092,15.049839791354554
1770448526464,134,6,6.051596061193371,9.606963387608255,14.924362313491768
1770448526468,134,6,5.734498217959511,9.373888727691831,14.616634668365894
1770448526472,133,5,5.375706185577005,8.538273431916348,14.266818294680132
1770448526476,133,5,5.13027216735437,8.383702273432595,14.029955978148728
1770448526480,133,5,5.055384959634236,8.555668694752708,13.96340186378178
1770448526484,133,5,5.0666324495995685,8.403248435790776,13.98275695800008
1770448526488,133,5,5.005169168271074,8.60266522790658,13.929095000505937
1770448526492,133,5,4.760076860520206,8.318561146476222,13.69165092366013
1770448526496,132,4,4.343060527740297,7.605470501045902,13.282675260778056
1770448526500,132,4,3.857868170426803,7.340616604497809,12.806500257645537
1770448526504,131,3,3.4009611010661702,6.623324794649495,12.359438761872095
1770448526508,131,3,2.987485841626447,6.404066773678366,11.955415150080992
1770448526512,131,3,2.5630358731582614,6.538942209020681,11.53869529205718
1770448526516,130,2,2.0692814824304864,5.383861170335203,11.051065989284954
1770448526520,129,1,1.4815538606594656,4.560931295436516,10.469483169329903
1770448526524,129,1,0.7889841457477125,4.422176703830123,9.784469674290095
1770448526528,128,0,-0.0302150706381763,3.594986332925716,8.974163295224495
1770448526532,127,-1,-0.987843249725306,2.4115701234240796,8.025811666893198
1770448526536,126,-2,-2.040931529385966,1.464725903252389,6.981540253693129
1770448526540,125,-3,-3.0816624205455954,0.5378273923708572,5.948651852034014
1770448526544,124,-4,-3.986958792952011,-0.6182248886570783,5.050106167311685
1770448526548,123,-5,-4.697510166790766,-1.2772195869349106,4.345751469040084
1770448526552,123,-5,-5.2641251500585815,-1.746958659259199,3.785719350382988
1770448526556,122,-6,-5.812175187895708,-2.338526500207048,3.2451282619156068
1770448526560,122,-6,-6.4357162078268395,-2.6634699437449045,2.629556802617472
1770448526564,121,-7,-7.102577419835027,-3.4505161815479086,1.9705994892114589
1770448526568,120,-8,-7.660701993935904,-4.360103130306179,1.4202296356866349
1770448526572,120,-8,-7.953520974457169,-4.730972028471218,1.1350337730262705
1770448526576,120,-8,-7.944542534609392,-4.2503801673470925,1.1509532989544429
1770448526580,121,-7,-7.737131869951987,-3.8406787880119033,1.3641508665049642
1770448526584,120,-8,-7.480751505899989,-4.197765008913224,1.6259824656720312
1770448526588,121,-7,-7.260439724763162,-3.641598959998072,1.8530408551418187
1770448526592,121,-7,-7.060280803224922,-3.416426965781868,2.0616636274002413
1770448526596,121,-7,-6.808311307595742,-3.559345923029856,2.3221658741439164
1770448526600,122,-6,-6.451452122735877,-2.5458381546325293,2.6856168632391544
1770448526604,122,-6,-6.009809579402902,-2.4521095687825865,3.131938886144347
1770448526608,122,-6,-5.585408186432555,-2.4145695730170647,3.5612280800800464
1770448526612,123,-5,-5.316306055479078,-1.5828214392613278,3.8370291862859665
1770448526616,123,-5,-5.285347833815273,-1.4342640779419842,3.8757026242970474
1770448526620,123,-5,-5.440070216363811,-1.6360366929826942,3.727948584681629
1770448526624,122,-6,-5.609526721054836,-2.3692875752646376,3.564446051715173
1770448526628,122,-6,-5.632586469732131,-2.4786193482873227,3.547402008557988
1770448526632,123,-5,-5.4858490706037655,-1.512994346286174,3.70057017633615
1770448526636,123,-5,-5.2807809970491695,-1.4774664711292038,3.91163181284395
1770448526640,123,-5,-5.135985212696602,-1.6189351500422973,4.061519181914799
1770448526644,123,-5,-5.061601732914806,-1.3294693350427411,4.140943459667808
1770448526648,123,-5,-4.967363142389322,-1.57133311590314,4.241273249632188
1770448526652,123,-5,-4.769976912275269,-1.3655176703064091,4.44566739545776
1770448526656,124,-4,-4.483352342577139,-0.6348677101372777,4.738845398437328
1770448526660,124,-4,-4.20796624641222,-0.4493096246716419,5.019246158102542
1770448526664,124,-4,-4.043545630623768,-0.4717906667118825,5.187632229508402
1770448526668,124,-4,-4.016143030839992,-0.4593728491127518,5.219489460537493
1770448526672,124,-4,-4.076860265240407,-0.4465514863945823,5.1646092586009225
1770448526676,124,-4,-4.151285564356007,-0.553494020316259,5.096821402510407
1770448526680,124,-4,-4.184585518595281,-0.5217218868872644,5.069712451353911
1770448526684,124,-4,-4.153582178134798,-0.3595161344078526,5.105826293878307
1770448526688,124,-4,-4.056712921168492,-0.6223886018941633,5.207047308315331
1770448526692,124,-4,-3.904097041350802,-0.2209840516793524,5.363909112266348
1770448526696,125,-3,-3.7154481503951935,0.1776825724749056,5.557104778562761
1770448526700,124,-4,-3.5203890157428095,-0.1953541817107589,5.757084461677769
1770448526704,125,-3,-3.3529179236764546,0.3036342184853402,5.929585748828988
1770448526708,125,-3,-3.233726163015483,0.7076203691012068,6.053491608235973
1770448526712,125,-3,-3.148319671644737,0.4788241465877498,6.143332900588549
1770448526716,125,-3,-3.046356512761915,0.4431064879824529,6.250058651591546
1770448526720,125,-3,-2.871052601076533,0.6205314735213472,6.430575393227599
1770448526724,126,-2,-2.5886839198500575,1.419278426775775,6.717693392245474
1770448526728,126,-2,-2.1919649119164415,1.6677930287252474,7.118040513885876
1770448526732,126,-2,-1.694704289789295,1.4618735924738528,7.618575479532929
1770448526736,127,-1,-1.1386780305699231,2.5077876829365326,8.178642452632296
1770448526740,128,0,-0.5912671071192488,3.561878227439718,8.730750753530039
1770448526744,128,0,-0.112656148643242,3.4635915489497457,9.213805158692953
1770448526748,128,0,0.2760554556239343,3.666791106722356,9.606333797411756
1770448526752,129,1,0.5837174183640392,4.422541806297063,9.917448511409017
1770448526756,129,1,0.8129040229988305,4.583625781290684,10.150040133560504
1770448526760,129,1,0.9400626767399518,4.48922433381348,10.28083471007392
1770448526764,129,1,0.9299644421499385,4.540554159893693,10.274703644772366
1770448526768,129,1,0.7716730288246014,4.616716935495242,10.12029667222054
1770448526772,129,1,0.5073938090017489,4.431004643539321,9.859358715171624
1770448526776,128,0,0.2197388546653198,3.636740254153215,9.574836123286753
1770448526780,128,0,-0.0278515442286941,3.387514761996688,9.330843514828713
1770448526784,128,0,-0.2448901631888214,3.7225903327116217,9.117600677093344
1770448526788,128,0,-0.5008606703894436,3.367715362726017,8.86457793612215
1770448526792,127,-1,-0.8576888394337483,2.7463552354718344,8.509635056054325
1770448526796,127,-1,-1.321853115198099,2.275055015938132,8.04745449665565
1770448526800,126,-2,-1.8568845635817055,1.79599060966351,7.515622727354769
1770448526804,126,-2,-2.421213909091933,1.3007926369538303,6.955403482728412
1770448526808,125,-3,-2.9797032091533917,0.8039383103031716,6.400625231104181
1770448526812,125,-3,-3.4871301401497257,0.3231280146562278,5.8957228065706015
1770448526816,124,-4,-3.8835320218166416,-0.3197467014244939,5.501124643232944
1770448526820,124,-4,-4.123583251899777,-0.5656775018139952,5.263082887043443
1770448526824,124,-4,-4.212517958444913,-0.3766186879469542,5.176625608315209
1770448526828,124,-4,-4.205979471940898,-0.4525931088863442,5.185690291364499
1770448526832,124,-4,-4.170817573433109,-0.4775244379887837,5.22315332084048
1770448526836,124,-4,-4.145957888380779,-0.4514287307268105,5.250261992810607
1770448526840,124,-4,-4.136337763267442,-0.4913461823321445,5.262151553623105
1770448526844,124,-4,-4.134335885478036,-0.3940436364872903,5.266045276609036
1770448526848,124,-4,-4.139989484330094,-0.4562823246689516,5.261534876919024
1770448526852,124,-4,-4.160561956262594,-0.4573120040943794,5.241805313761115
1770448526856,124,-4,-4.193249763517942,-0.4562718598112441,5.210998177851151
1770448526860,124,-4,-4.21087319625212,-0.5140691525623198,5.197519064582979
1770448526864,124,-4,-4.171068987999744,-0.3244596144201255,5.243293842337722
1770448526868,124,-4,-4.052525836965454,-0.5531574545662297,5.366577536410202
1770448526872,124,-4,-3.891260509221945,-0.3263566431451203,5.526872744110299
1770448526876,125,-3,-3.76952196846242,0.4037502346476493,5.639969783444384
1770448526880,124,-4,-3.726270670705473,-0.3747372219633349,5.671383406685477
1770448526884,124,-4,-3.5988087073803054,-0.4413184669416266,5.7936260134234185
1770448526888,126,-2,-2.846125364916453,1.5453493899009243,6.55576790429555
1770448526892,128,0,-0.4685475070506735,3.6256610450554017,8.956367174304425
1770448526896,133,5,4.7893215421674356,8.401997655514618,14.239334276171816
1770448526900,142,14,13.825888111932382,17.724136902933424,23.287723015019782
1770448526904,154,26,26.31976729388479,29.3762857227861,35.77118422672804
1770448526908,167,39,40.12282072755451,42.83299119328526,49.54591460750438
1770448526912,180,52,51.50050884459805,55.26093143642849,60.89288573806805
1770448526916,185,57,56.43689500037486,60.81113742985298,65.8129345977967
1770448526920,182,54,52.5148353733515,57.23673753848688,61.89694801067718
1770448526924,169,41,40.31636180752174,44.855266832939726,49.72301438381635
1770448526928,151,23,23.38522243301271,26.32271001292711,32.822805788828276
1770448526932,133,5,6.6350848094665915,8.788190124616609,16.096130180045503
1770448526936,122,-6,-5.879880406904595,-2.629818400354468,3.58699819525968
1770448526940,116,-12,-12.498638250278772,-8.295785573343993,-3.045638508327201
1770448526944,115,-13,-14.011437794230218,-9.52198858685906,-4.5839907677360685
1770448526948,116,-12,-12.515367461487871,-8.347112769097382,-3.110633998642271
1770448526952,118,-10,-10.029951620150737,-6.551224605295163,-0.6331563014315762
1770448526956,120,-8,-7.718697169881741,-4.327775705387222,1.6865703378953878
1770448526960,122,-6,-5.91709805538977,-2.589406207095471,3.504565047708234
1770448526964,123,-5,-4.590786011998157,-1.1945974542588322,4.843806924739042
1770448526968,125,-3,-3.7135503616905816,0.3138377096263895,5.723885019728338
1770448526972,125,-3,-3.322638419115959,0.7864268250566355,6.108631916953702
1770448526976,125,-3,-3.370771123395236,0.3092186673952435,6.051774756754567
1770448526980,124,-4,-3.643558527044796,-0.2039108975807848,5.774297599754187
1770448526984,124,-4,-3.8671149064596495,-0.5446685560863709,5.552086768809077
1770448526988,124,-4,-3.888134822199669,-0.3576812915347775,5.534909172619117
1770448526992,125,-3,-3.732936167370248,0.4987303281077637,5.69127993829895
1770448526996,125,-3,-3.503836755650419,0.5252911685506381,5.9174343324312835
1770448527000,124,-4,-3.252052103666761,-0.3279474851127695,6.165438715479713
1770448527004,125,-3,-2.9585699755154544,0.5068403407239757,6.457758340344876
1770448527008,126,-2,-2.596697212514785,1.6843019577711065,6.820576774796294
1770448527012,126,-2,-2.1716540245246856,1.362657165057973,7.24573066738062
1770448527016,126,-2,-1.7099415706196657,1.737599848530432,7.70553779754828
1770448527020,127,-1,-1.2445186044086292,2.4261770877146143,8.168503335032696
1770448527024,127,-1,-0.8115268686699153,2.7628946288437595,8.600036704015332
1770448527028,128,0,-0.4338925019612818,3.468258560492659,8.977101652652358
1770448527032,128,0,-0.0945068871855068,3.511125429620612,9.315791247791964
1770448527036,128,0,0.2628609674577515,3.675621892857987,9.671727684427976
1770448527040,129,1,0.6912348510485363,4.404700030515135,10.098012925444412
1770448527044,129,1,1.193965354940382,4.874462742449126,10.598489063143598
1770448527048,130,2,1.718713681688571,5.295341709669209,11.12145618465996
1770448527052,130,2,2.1971712466080415,5.731068704129303,11.598835381882386
1770448527056,131,3,2.5988856080569724,6.436951437686587,11.999507359199496
1770448527060,131,3,2.957065134302467,6.633356228382387,12.3557157439689
1770448527064,131,3,3.33905442503519,6.695911671275937,12.734798735397677
1770448527068,132,4,3.777655115234344,7.41174972495253,13.170674362751596
1770448527072,132,4,4.227199386819883,7.705308767296357,13.61858289514498
1770448527076,133,5,4.600144881805635,8.358852733064804,13.99056137694972
1770448527080,133,5,4.860685335632761,8.827114160247366,14.24962839771294
1770448527084,133,5,5.078362239085864,8.402590502968105,14.464874905996137
1770448527088,133,5,5.369987901144812,8.793423266857683,14.753751979920068
1770448527092,134,6,5.774163937400069,9.269573315391613,15.155465615741544
1770448527096,134,6,6.185567291180425,9.81129175670237,15.564450047264028
1770448527100,135,7,6.423652317624909,10.409530307181983,15.79972991984092
1770448527104,134,6,6.37475771957406,9.771115140973286,15.747933736452117
1770448527108,134,6,6.077266886401141,9.494580446260915,15.448101796063703
1770448527112,134,6,5.682708591218459,9.480914885277734,15.051827515149547
1770448527116,133,5,5.339155492922796,8.685239056922857,14.706579436366814
1770448527120,133,5,5.096383513655786,8.4734523866676,14.461515543982877
1770448527124,133,5,4.9009425107786075,8.787198179133268,14.26297783603297
1770448527128,133,5,4.671767947093434,8.418592680233374,14.030219248945718
1770448527132,132,4,4.379505021229572,7.584062224248688,13.73455412254336
1770448527136,132,4,4.0574361316110075,7.571900594581605,13.409670965258403
1770448527140,132,4,3.747615321570885,7.588788532273534,13.097450276883684
1770448527144,131,3,3.4447795796396035,6.7051612355358365,12.792319841221646
1770448527148,131,3,3.0888530413646627,6.475046886545256,12.4339716451143
1770448527152,131,3,2.6106144497977297,6.537124733370261,11.95275562845353
1770448527156,130,2,1.991689068399551,5.615444967588402,11.33008940416304
1770448527160,129,1,1.277975756065671,4.535506298302423,10.612623214577672
1770448527164,128,0,0.5238576143646665,3.8145169292282017,9.855709895455478
1770448527168,128,0,-0.271926504245048,3.299093886865541,9.05772164980478
1770448527172,127,-1,-1.1572004300745382,2.7736352984955186,8.169455519794363
1770448527176,126,-2,-2.151584160767289,1.3298852297690855,7.170976026028223
1770448527180,124,-4,-3.197298977656147,-0.1444278491918851,6.12140093928194
1770448527184,124,-4,-4.189703305239914,-0.4921220673968172,5.126450502440422
1770448527188,123,-5,-5.043281195089977,-1.437952977582606,4.2709367298476915
1770448527192,122,-6,-5.72388113545391,-2.430460467495818,3.5874709059586785
1770448527196,122,-6,-6.235751026479426,-2.528008326306198,3.07127859040477
1770448527200,121,-7,-6.597467835095527,-3.206291853727336,2.7047514425096217
1770448527204,121,-7,-6.8313663432033795,-3.50374399514215,2.4669317618512494
1770448527208,121,-7,-6.9611890930338065,-3.3601288873551693,2.334511287846203
1770448527212,121,-7,-7.002699756120036,-3.5692780830019375,2.290907189665866
1770448527216,121,-7,-6.950792413520153,-3.340186640747648,2.340086333519377
1770448527220,121,-7,-6.786573944880526,-3.4052147522984075,2.500532396869442
1770448527224,121,-7,-6.513100382020604,-3.312695410118065,2.769570001480652
1770448527228,122,-6,-6.188664380684724,-2.5323970860167067,3.0894770011408372
1770448527232,122,-6,-5.915373541756068,-2.4255007786566365,3.3586318178857795
1770448527236,122,-6,-5.7810770233960405,-2.4533782522741467,3.489574953822183
1770448527240,122,-6,-5.798484208694617,-2.296846430236279,3.469526590170787
1770448527244,122,-6,-5.88779193501559,-2.4282740413569224,3.3775442763483667
1770448527248,122,-6,-5.918255666133805,-2.412925597788431,3.3436789587892903
1770448527252,122,-6,-5.789442899864136,-2.550795940640344,3.46854304360882
1770448527256,122,-6,-5.502049888576484,-2.313791651974075,3.752041605422736
1770448527260,123,-5,-5.159770945327642,-1.4302665911192554,4.090457811427232
1770448527264,123,-5,-4.891129549757279,-1.3020333725661146,4.354781434076231
1770448527268,123,-5,-4.757958820212796,-1.5411280024478091,4.483338990092973
1770448527272,123,-5,-4.733859276239001,-1.4278467566229698,4.503440970228689
1770448527276,123,-5,-4.759001149453093,-1.423606170242624,4.475384515558048
1770448527280,123,-5,-4.798689072865672,-1.3322371684117114,4.4331764295578155
1770448527284,123,-5,-4.845245528245358,-1.367813940012586,4.383386587444607
1770448527288,123,-5,-4.8786543831821465,-1.520994444815773,4.345681100943081
1770448527292,123,-5,-4.846598031435008,-1.4034750583104652,4.37308501573585
1770448527296,123,-5,-4.696563415618053,-1.4905242714425544,4.5190754570153775
1770448527300,123,-5,-4.429962360189153,-1.2244462647893566,4.782380906594806
1770448527304,124,-4,-4.118273238193735,-0.4917373260092197,5.090674444974246
1770448527308,124,-4,-3.858199798154089,-0.3962149414112748,5.346506145016422
1770448527312,124,-4,-3.708644451942973,-0.5240548740588586,5.491345686778415
1770448527316,124,-4,-3.6683989669736943,-0.3862247775761105,5.527405702062734
1770448527320,124,-4,-3.701312679628622,-0.3091043340372077,5.491170761211087
1770448527324,124,-4,-3.7666682723766223,-0.4158194524568506,5.422713558191378
1770448527328,124,-4,-3.8240792935529586,-0.4685168931134011,5.361729145213948
1770448527332,124,-4,-3.82431375760652,-0.4422965583968996,5.357488841255477
1770448527336,124,-4,-3.7126623368721674,-0.5005179321867077,5.4651876887303885
1770448527340,124,-4,-3.450671869971454,-0.1473750308504948,5.723438483704303
1770448527344,125,-3,-3.03799647255014,0.3748719954084842,6.1322512938929865
1770448527348,125,-3,-2.516428077573974,0.7914723663200629,6.6495863864763125
1770448527352,126,-2,-1.955765636011436,1.259629208175005,7.205865702521717
1770448527356,126,-2,-1.429896251967928,1.8042676981260704,7.727540448522287
1770448527360,127,-1,-0.9890920501914608,2.563515640644157,8.164457326721836
1770448527364,127,-1,-0.6401416012549936,2.627608347317567,8.509906497548396
1770448527368,127,-1,-0.3514221421522543,2.599872587695675,8.795510145871521
1770448527372,128,0,-0.0807521174686327,3.3775589896871705,9.062947019710595
1770448527376,128,0,0.1988233732776869,3.7503225732486407,9.338519803764168
1770448527380,128,0,0.4872363792645315,3.55954836483237,9.62236940855384
1770448527384,128,0,0.7503170868125051,3.6856022432386726,9.881204285012023
1770448527388,129,1,0.9230104736699376,4.506199362210925,10.050171402477732
1770448527392,129,1,0.9405452723779528,4.488831956183459,10.063853199269742
1770448527396,128,0,0.7797140079589324,3.616335191956849,9.898791856142989
1770448527400,128,0,0.4669924995775001,3.7175892985045143,9.582008279181496
1770448527404,128,0,0.0496949242917668,3.5037037306178256,9.161250717801742
1770448527408,127,-1,-0.430485317907523,2.713075646367643,8.678018508704659
1770448527412,127,-1,-0.9388517674829218,2.2575342810775108,8.166504188251732
1770448527416,126,-2,-1.4385007023496297,1.8613076996347175,7.663132764970056
1770448527420,126,-2,-1.8919319230451823,1.4691609082982433,7.205238354739665
1770448527424,125,-3,-2.2799626361988095,0.7392524031066312,6.812455677682694
1770448527428,125,-3,-2.6242300178533924,0.5116312607262641,6.463923384308423
1770448527432,125,-3,-2.983406293759609,0.4031372667853738,6.101245531693203
1770448527436,124,-4,-3.4074974682280144,-0.2191695339043233,5.673948355670968
1770448527440,124,-4,-3.881496698146541,-0.5259370673619865,5.196525582603152
1770448527444,123,-5,-4.315999606551168,-1.1909181766809152,4.758449969391702
1770448527448,123,-5,-4.605449375062162,-1.6263241962669728,4.465611702420137
1770448527452,123,-5,-4.7071427027418675,-1.413160755924122,4.3605682848215555
1770448527456,123,-5,-4.670139985122479,-1.4259088745708013,4.393650466928791
1770448527460,123,-5,-4.59192444189652,-1.32142531475583,4.4672061348103345
1770448527464,123,-5,-4.549083682650291,-1.3664176400756571,4.505439041635709
1770448527468,123,-5,-4.562436837011184,-1.507092210870474,4.488478425946278
1770448527472,123,-5,-4.6095701613606455,-1.4785184877864723,4.438565903410075
1770448527476,123,-5,-4.650528872167767,-1.4203066233281003,4.394405216432538
1770448527480,123,-5,-4.637985969626839,-1.2679194079917022,4.402728726737724
1770448527484,123,-5,-4.523483720375573,-1.4641132113443267,4.513384706207569
1770448527488,123,-5,-4.28336728038415,-1.384369522742122,4.752050476694347
1770448527492,124,-4,-3.952223684417022,-0.6278812810166783,5.083738673658629
1770448527496,124,-4,-3.625051471132906,-0.2639423645832544,5.40959727443737
1770448527500,124,-4,-3.4164255330647824,-0.4085607915441316,5.61064996402257
1770448527504,124,-4,-3.3991800160410257,-0.3513739495049832,5.613643694524047
1770448527508,124,-4,-3.5280144502308444,-0.4652467763850367,5.469565799550538
1770448527512,124,-4,-3.522925216833774,-0.6139689651519613,5.467610835236907
1770448527516,125,-3,-2.727647841055335,0.7872153876315795,6.270347850425024
1770448527520,128,0,-0.0706380762377483,3.5071198565706863,8.946659989041843
1770448527524,133,5,5.673378451285441,8.757906695530307,14.709525837682769
1770448527528,143,15,15.232179813941755,18.435886851742403,24.27169141725438
1770448527532,155,27,28.008150271504956,30.441794612483417,37.02849663454185
1770448527536,168,40,41.59482286446469,43.792766097257775,50.58073073204227
1770448527540,180,52,52.18444469132189,55.45204970313319,61.138085699599074
1770448527544,184,56,55.989739491795646,59.81987469542715,64.92908744334682
1770448527548,180,52,51.09277765753325,55.31626345556408,60.04009235577915
1770448527552,167,39,38.634129942268615,42.48578924921449,47.60394610278097
1770448527556,149,21,22.46472297672642,24.79573532229894,31.45885671154094
1770448527560,133,5,7.319995136968533,8.388350966461262,16.32910212907713
1770448527564,123,-5,-3.385500833880144,-0.9563552068945428,5.621999867575506
1770448527568,121,-7,-8.765450740010946,-3.963752184437483,0.2225862365755642
1770448527572,118,-10,-10.08096038344771,-6.12597353477848,-1.122290435253502
1770448527576,118,-10,-9.363700752709027,-6.662856275330907,-0.4290459108660389
1770448527580,119,-9,-8.167878400273658,-5.181051033844744,0.7602867730229512
1770448527584,120,-8,-7.139752063938355,-4.395963417708707,1.798822659370785
1770448527588,121,-7,-6.305905124849783,-3.580473741966446,2.647995145802863
1770448527592,122,-6,-5.558976996666557,-2.388689055196804,3.4024159873891797
1770448527596,123,-5,-4.919219488751258,-1.512102934736597,4.037447582375144
1770448527600,123,-5,-4.496162515106028,-1.2622090192399569,4.448476519471649
1770448527604,123,-5,-4.33774513330816,-1.4215565258616951,4.595988990251524
1770448527608,123,-5,-4.369913418068818,-1.4894266566639889,4.559192174886325
1770448527612,123,-5,-4.465181074518535,-1.4802138541438865,4.464679593027223
1770448527616,123,-5,-4.53621425658713,-1.4098341846820954,4.39518276070099
1770448527620,123,-5,-4.557072426641095,-1.3920387114917112,4.372894655470303
1770448527624,123,-5,-4.519265241213934,-1.3213119803541824,4.406169832817004
1770448527628,123,-5,-4.39811013470355,-1.5698352495234555,4.52220957128513
1770448527632,123,-5,-4.171089274817097,-1.3954309293236309,4.745586140549149
1770448527636,124,-4,-3.8521271074740064,-0.4638488223624897,5.062167457697762
1770448527640,124,-4,-3.4872242303291885,-0.40498551155338,5.424682374742375
1770448527644,124,-4,-3.1135526810280254,-0.2836687170525778,5.795659256131441
1770448527648,125,-3,-2.728660635107959,0.3521405680538683,6.178230310122675
1770448527652,125,-3,-2.2950785005392196,0.7419528738480285,6.610025582625539
1770448527656,126,-2,-1.767864230136016,1.3700510189107185,7.135151189095463
1770448527660,126,-2,-1.1277775879488892,1.753710647528048,7.772086657780178
1770448527664,127,-1,-0.4088987820594193,2.538678945670278,8.487035325727444
1770448527668,128,0,0.297307632018674,3.5080120265794963,9.189615130301096
1770448527672,128,0,0.8777730226002547,3.6570663481489225,9.767576861220377
1770448527676,129,1,1.263130491958182,4.377196890414338,10.151305120810107
1770448527680,129,1,1.481070077825005,4.8202171083158,10.367521209620255
1770448527684,129,1,1.6498976778313827,4.345165935021599,10.534024795628545
1770448527688,129,1,1.9012269707561908,4.793172134940048,10.782836451317875
1770448527692,130,2,2.2864841010784085,5.3402679580523245,11.165793146564106
1770448527696,130,2,2.7507221862748517,5.700690971030361,11.627552503711776
1770448527700,131,3,3.199179830767548,6.5184405670661665,12.072775757687008
1770448527704,131,3,3.589133746928505,6.546809962660834,12.45918990829162
1770448527708,131,3,3.955911834408549,6.6813913792644595,12.823517538341871
1770448527712,132,4,4.355648623557756,7.3791434352480785,13.222583598304082
1770448527716,132,4,4.794881378542395,7.7406630712581155,13.661665124360647
1770448527720,133,5,5.2198299173907685,8.402746811797334,14.08475987527577
1770448527724,133,5,5.56015279102616,8.681734702413198,14.42077571310317
1770448527728,133,5,5.76287327965961,8.519085537947454,14.61854615439852
1770448527732,133,5,5.783132822475067,8.560307607124503,14.635786341410142
1770448527736,133,5,5.573822356342205,8.569244456980037,14.42595618298106
1770448527740,133,5,5.126758238005392,8.535698767812802,13.979055427162663
1770448527744,132,4,4.535778964158096,7.566111259949883,13.387079639969354
1770448527748,131,3,3.9875271159015537,6.584780062778714,12.83662636581228
1770448527752,131,3,3.646892589981253,6.555327928253008,12.493455326965298
1770448527756,131,3,3.530447766577213,6.519776975511876,12.374270680546026
1770448527760,131,3,3.4914742256002596,6.631452261938889,12.331981251254534
1770448527764,131,3,3.3332017520812856,6.404405131547433,12.170339041310951
1770448527768,130,2,2.949400513491449,5.78327875203618,11.784512869642406
1770448527772,130,2,2.383587728330611,5.317618513835104,11.218572580814095
1770448527776,129,1,1.7812461445916057,4.784748313893105,10.616708907819255
1770448527780,129,1,1.2849343458290892,4.342650182688097,10.119587710644494
1770448527784,128,0,0.939404989036626,3.6874975931296303,9.771352287744216
1770448527788,128,0,0.6572042900654835,3.5037815871848723,9.485461382712444
1770448527792,128,0,0.2677628220283727,3.57039319131424,9.092610421411004
1770448527796,127,-1,-0.3746752403192288,2.56744855327772,8.447821417305347
1770448527800,126,-2,-1.2971090246908448,1.502942807165697,7.52424728929334
1770448527804,125,-3,-2.392578598404633,0.5698145531654539,6.428357397090728
1770448527808,124,-4,-3.483258837867115,-0.447254932628363,5.337190015555972
1770448527812,123,-5,-4.410021925902406,-1.424187015753664,4.409534987706123
1770448527816,122,-6,-5.096289367299567,-2.4746815538182467,3.722082856030278
1770448527820,122,-6,-5.557153633946133,-2.440432939588054,3.2594516854469866
1770448527824,122,-6,-5.85646542622567,-2.502397653327005,2.957196864302661
1770448527828,121,-7,-6.055691811341025,-3.4000720406378724,2.754341189939348
1770448527832,121,-7,-6.204512316412365,-3.4509794016653377,2.602990703990347
1770448527836,121,-7,-6.361709017028115,-3.465539226518948,2.44541917926335
1770448527840,121,-7,-6.581855493836646,-3.458014844984257,2.2258827675228208
1770448527844,121,-7,-6.851325698617243,-3.4796019708968657,1.9560209638836952
1770448527848,120,-8,-7.051804310144498,-4.4588754260756005,1.7537419214602448
1770448527852,120,-8,-7.027493503178276,-4.366885679473959,1.776082483986432
1770448527856,121,-7,-6.7153871753911725,-3.578243175327887,2.086917362507892
1770448527860,121,-7,-6.213322089583435,-3.335488959593115,2.587839945243225
1770448527864,122,-6,-5.717799781040808,-2.614925443787314,3.081388503143817
1770448527868,122,-6,-5.391285852902347,-2.32695586646462,3.405170008217608
1770448527872,122,-6,-5.274872130055578,-2.5173765118173828,3.5192800036393024
1770448527876,122,-6,-5.304406561299602,-2.4339764149282086,3.489003856788091
1770448527880,122,-6,-5.389227090914496,-2.48304358508482,3.404894709207193
1770448527884,122,-6,-5.469039931839716,-2.478144302941921,3.3258078041509176
1770448527888,122,-6,-5.508768849703269,-2.4528197657824657,3.2852260667409148
1770448527892,122,-6,-5.467791106463947,-2.420939152187488,3.3235077654382277
1770448527896,122,-6,-5.305002759142185,-2.527650811207268,3.4831658925473388
1770448527900,122,-6,-5.027705844475298,-2.4019880172981,3.758599942908221
1770448527904,123,-5,-4.721475573425088,-1.5664516539214262,4.0644804827892465
1770448527908,123,-5,-4.501658699338865,-1.3513042179828734,4.284199121782772
1770448527912,123,-5,-4.41541937889971,-1.5596073819607463,4.369496472169128
1770448527916,123,-5,-4.393073915825914,-1.3737951129286,4.390375224694017
1770448527920,123,-5,-4.30699874591118,-1.5914508157850031,4.475546445554318
1770448527924,123,-5,-4.086397949734555,-1.3696567316488473,4.696043076428876
1770448527928,124,-4,-3.777993192269984,-0.5390729791033966,5.0040045731793175
1770448527932,124,-4,-3.4989006358578525,-0.4018764592548418,5.281171245810347
1770448527936,124,-4,-3.337908091439527,-0.515166580323938,5.43924349265367
1770448527940,124,-4,-3.3037346047721963,-0.49612209699636,5.471327042168251
1770448527944,124,-4,-3.3514736986562315,-0.4517856769563124,5.423500471257035
1770448527948,124,-4,-3.431724663179284,-0.4642222064888832,5.344392680524847
1770448527952,124,-4,-3.5024917621388436,-0.4854552928419737,5.2741008264958635
1770448527956,124,-4,-3.50946754825549,-0.4236584551612647,5.2658022827256
1770448527960,124,-4,-3.3855468866336205,-0.6346496313513619,5.387219333492086
1770448527964,124,-4,-3.092757404280776,-0.2925349242168886,5.677879690535538
1770448527968,125,-3,-2.666422666308382,0.355202519549147,6.103351473177934
1770448527972,125,-3,-2.2026808916665357,0.7004790484521299,6.567037136036814
1770448527976,126,-2,-1.7860516231505528,1.3927284352368638,6.98338428354152
1770448527980,126,-2,-1.4233443053424268,1.4964010531001093,7.34515020593002
1770448527984,126,-2,-1.0522168343181773,1.6102292127605224,7.715082159099895
1770448527988,127,-1,-0.6189419418577808,2.392809012737702,8.147394368782216
1770448527992,127,-1,-0.147976976386611,2.7282298672509775,8.617578035393691
1770448527996,128,0,0.2657909012682602,3.291552858415814,9.030410028661311
1770448528000,128,0,0.5328912138094317,3.6380214398759456,9.296392341934936
1770448528004,128,0,0.6392982161688416,3.410029094268753,9.401850291862807
1770448528008,128,0,0.6471694315379373,3.601311929968574,9.409188072420138
1770448528012,128,0,0.6303556820466252,3.5425605093970134,9.392035798475778
1770448528016,128,0,0.6056757652597684,3.410677451353297,9.366703639126708
1770448528020,128,0,0.5193213846569271,3.593972246229655,9.279077627492146
1770448528024,128,0,0.2961507115461577,3.3303792761900897,9.05427126437707
1770448528028,127,-1,-0.0946731333609691,2.7835758011340235,8.662153183846362
1770448528032,127,-1,-0.6141748366088149,2.2607049301891937,8.142205142876694
1770448528036,126,-2,-1.182964887906193,1.7596258955328636,7.573492019959493
1770448528040,126,-2,-1.7314686266856507,1.1825796141543377,7.024644703899677
1770448528044,125,-3,-2.2288110885960606,0.7441704561064229,6.525998685865233
1770448528048,125,-3,-2.678370678069998,0.3800033262412263,6.0747391112310005
1770448528052,124,-4,-3.096540614929184,-0.3807841778770848,5.655526184786422
1770448528056,124,-4,-3.4924157000113216,-0.5480309549210354,5.259459627343481
1770448528060,124,-4,-3.854297968194782,-0.5965869683748712,4.89724897830218
1770448528064,123,-5,-4.149667613422398,-1.4173377329713102,4.600513605507276
1770448528068,123,-5,-4.347608345634141,-1.5341660302865074,4.400560006702763
1770448528072,123,-5,-4.450358162691453,-1.4042853603998111,4.296430448212104
1770448528076,123,-5,-4.497482116514342,-1.595767136543845,4.249331904578324
1770448528080,123,-5,-4.527628600246284,-1.514453943980615,4.220006100427618
1770448528084,123,-5,-4.532887519351567,-1.5439300291784992,4.214793883074123
1770448528088,123,-5,-4.459923126099814,-1.4054316816525605,4.285941397424989
1770448528092,123,-5,-4.273954189057421,-1.5265274501880093,4.46873362950779
1770448528096,123,-5,-4.032325511487105,-1.515709111865979,4.707395109075631
1770448528100,124,-4,-3.8781125578359545,-0.5652277365892973,4.86009130879391
1770448528104,124,-4,-3.9248931400737743,-0.5511266603959832,4.813855711944106
1770448528108,123,-5,-4.12989817340545,-1.3634840655481169,4.6117911912577325
1770448528112,123,-5,-4.296889089445047,-1.612244520240831,4.4490216018019
1770448528116,123,-5,-4.228846538300533,-1.4193349449775088,4.518429323341651
1770448528120,124,-4,-3.8908407515745895,-0.695058020318851,4.849956664706319
1770448528124,124,-4,-3.425354437233689,-0.4071926797530292,5.301161695269101
1770448528128,124,-4,-2.980750662626786,-0.5197423958299217,5.731732818628142
1770448528132,125,-3,-2.430239143332586,0.5252271270118296,6.279518536724051
1770448528136,127,-1,-1.1237872343533808,2.436629408453574,7.599406747340659
1770448528140,130,2,2.127615464464762,5.41230143803219,10.874158557612695
1770448528144,136,8,8.639545685330903,11.527691560476471,17.40533173700006
1770448528148,146,18,19.021667526412948,21.51940002839897,27.789375598160586
1770448528152,159,31,32.30541313843723,34.499751837530525,41.05358322549407
1770448528156,173,45,45.65541645941445,48.4291971386503,54.370889861723086
1770448528160,183,55,55.105700301044216,58.40757481994018,63.7920458199875
1770448528164,185,57,57.172275228802064,60.500608747813665,65.8482778930685
1770448528168,179,51,50.56456659041102,54.49119081883501,59.25327280572361
1770448528172,165,37,37.00062000962823,40.485998125049576,45.716615020123164
1770448528176,147,19,20.545499378865408,22.39198469330741,29.288680103118068
1770448528180,132,4,5.759586517190594,7.504396578208427,14.517186086331634
1770448528184,123,-5,-4.282774449547405,-1.5757228905687262,4.470524712275134
1770448528188,119,-9,-8.963986971263438,-5.36348167230855,-0.2313939867339005
1770448528192,119,-9,-9.676298980830564,-5.68296671298075,-0.9706637739109762
1770448528196,119,-9,-8.515697197641408,-5.455098798665036,0.1704727305379734
1770448528200,120,-8,-7.095643830956185,-4.719428422693523,1.5876998599715932
1770448528204,121,-7,-6.102772188662896,-3.343866651466353,2.5926131072152803
1770448528208,122,-6,-5.538355896066858,-2.6359064767446956,3.1731107242722008
1770448528212,122,-6,-5.187874410070585,-2.3737160998261304,3.532412746223036
1770448528216,123,-5,-4.92266132033636,-1.8203444734067944,3.7948822246070826
1770448528220,123,-5,-4.7343715853173585,-1.3537321876846642,3.9726998558308466
1770448528224,123,-5,-4.639913259757527,-1.747972248543879,4.056792665444169
1770448528228,122,-6,-4.628224842780256,-2.2127747534754247,4.06418094655511
1770448528232,123,-5,-4.686287980819681,-1.8006797034343904,4.007915557161425
1770448528236,123,-5,-4.815331318830189,-1.4241868384089535,3.8818099261801464
1770448528240,123,-5,-4.982123647076901,-1.7503299308807971,3.7146157521277487
1770448528244,122,-6,-5.077866436281344,-2.404219780018125,3.615407759512001
1770448528248,122,-6,-4.973331411631401,-2.5065287207873093,3.7167045547147968
1770448528252,123,-5,-4.626333558921811,-1.5713121395747542,4.062104654622527
1770448528256,124,-4,-4.112688537442829,-0.6122109665782203,4.574099629376745
1770448528260,124,-4,-3.5459109326462346,-0.6260829631324514,5.137798474958557
1770448528264,124,-4,-2.9877620159039653,-0.5167100646695797,5.692705988937145
1770448528268,125,-3,-2.4400414690355143,0.5917070017685377,6.238881662940831
1770448528272,126,-2,-1.889201372473675,1.2976127958735124,6.78954546659929
1770448528276,126,-2,-1.3311129788887364,1.547510567943894,7.346804935544908
1770448528280,127,-1,-0.7659366053584296,2.1543789660483004,7.909243530780997
1770448528284,127,-1,-0.1993160870657593,2.7342348301791075,8.471835229152644
1770448528288,128,0,0.3409238417716947,3.277293192266717,9.008370645040443
1770448528292,128,0,0.8013626481465518,3.6437212231470015,9.466583393330456
1770448528296,129,1,1.1355126060952,4.160225560398847,9.799826778688578
1770448528300,129,1,1.354786010586238,4.55189351599601,10.01830001989393
1770448528304,129,1,1.5472907980041866,4.305463690364782,10.208924724137509
1770448528308,129,1,1.8282291679633933,4.685700842706164,10.486640064233
1770448528312,130,2,2.248781204393913,5.245287628145948,10.90332300175089
1770448528316,130,2,2.7420484657444937,5.5165168974774055,11.39309984337933
1770448528320,131,3,3.1642594161434374,6.233801660322444,11.81277567590301
1770448528324,131,3,3.409024285163693,6.546912812534616,12.05574688840799
1770448528328,131,3,3.5014413408972676,6.482881736726595,12.146500181396632
1770448528332,131,3,3.583241270687043,6.374583679958766,12.226314074498328
1770448528336,131,3,3.790724812807198,6.440124089047126,12.431205789149608
1770448528340,132,4,4.129752944871427,7.239597213968212,12.76679442122051
1770448528344,132,4,4.460292828555969,7.586996271869198,13.093247160258766
1770448528348,132,4,4.602522761176111,7.367315281627735,13.231637903602897
1770448528352,132,4,4.472244249555763,7.5223317519593556,13.09860235222922
1770448528356,132,4,4.140680366922698,7.242824632250827,12.765229830631496
1770448528360,131,3,3.780727364502659,6.444433641859214,12.403521603653338
1770448528364,131,3,3.544109966892115,6.3632562361469605,12.1644306948157
1770448528368,131,3,3.4624992268067953,6.5740572841045966,12.079438854347382
1770448528372,131,3,3.4461289391925014,6.309567423570892,12.059094891582117
1770448528376,131,3,3.371757221784036,6.427744214682224,11.980737677790865
1770448528380,131,3,3.178039013924642,6.272432504489355,11.78356009691174
1770448528384,130,2,2.888790961449621,5.476194688619282,11.491509064766875
1770448528388,130,2,2.5568829653929503,5.496456917844231,11.15700531791144
1770448528392,130,2,2.193086044014315,5.3148045941903295,10.790158174827209
1770448528396,129,1,1.748616983085743,4.470196302987657,10.341982239193712
1770448528400,129,1,1.1619409596946129,4.16656111696089,9.751375230688422
1770448528404,128,0,0.4232688106171667,3.604630626942086,9.009138024454105
1770448528408,127,-1,-0.4012073928017425,2.317681656646209,8.181689594112505
1770448528412,126,-2,-1.2083295198126436,1.4942489179294811,7.3718185274216
1770448528416,126,-2,-1.9277249879146552,1.2839510897659756,6.649147358139839
1770448528420,125,-3,-2.563381178232623,0.3252722761459354,6.0092940970321775
1770448528424,124,-4,-3.177807294502088,-0.5474333620364824,5.3901864980126435
1770448528428,124,-4,-3.836483067186415,-0.573771864815475,4.727139365314036
1770448528432,123,-5,-4.551894378881992,-1.6143291899799417,4.008104416321162
1770448528436,122,-6,-5.26433652403682,-2.6297010146879094,3.292701862589981
1770448528440,122,-6,-5.873992135655384,-2.767082249180489,2.680266105622044
1770448528444,121,-7,-6.300044390809694,-3.4690142024403023,2.250934342739175
1770448528448,121,-7,-6.523032355158834,-3.685844742648114,2.023732246957202
1770448528452,121,-7,-6.586443749663349,-3.4950253368214224,1.955380801456112
1770448528456,121,-7,-6.566241834128909,-3.7806112320286873,1.9706415517175344
1770448528460,121,-7,-6.532756757665421,-3.6254894228861785,1.9997944798676952
1770448528464,121,-7,-6.523918770650948,-3.6049063505313583,2.004879142810317
1770448528468,121,-7,-6.536203869293843,-3.6309374070018943,1.9889605438950504
1770448528472,121,-7,-6.534456502813407,-3.476933470001726,1.9869847054218912
1770448528476,121,-7,-6.478525880630331,-3.9096702020124496,2.039218001425615
1770448528480,121,-7,-6.351076948188277,-3.4191258476191706,2.1627648587240635
1770448528484,122,-6,-6.163484881454507,-2.893719571418642,2.3456045433356483
1770448528488,121,-7,-5.939627399109379,-3.3353981145707188,2.563858062313221
1770448528492,122,-6,-5.704631900423901,-2.7782808874639615,2.7935599394384205
1770448528496,122,-6,-5.490334987491789,-2.6563815167192537,3.003927079758208
1770448528500,122,-6,-5.3320718602648505,-2.6399362341681565,3.159072420281168
1770448528504,123,-5,-5.238289723074167,-1.7461891146882111,3.2489628740958363
1770448528508,122,-6,-5.165800726347053,-2.440749781094544,3.316232230411064
1770448528512,122,-6,-5.049069042293429,-2.7507119131618465,3.4274963420053233
1770448528516,123,-5,-4.86771961534981,-1.6472220003934537,3.604131468576478
1770448528520,123,-5,-4.673373746786161,-1.6944225050192578,3.794146994002597
1770448528524,123,-5,-4.536780038649782,-1.7138886429625335,3.92600021846868
1770448528528,123,-5,-4.473359259153337,-1.4360040850340825,3.984363635674612
1770448528532,123,-5,-4.428098421030908,-1.8657708922870997,4.024873173008265
1770448528536,123,-5,-4.328704218595357,-1.4523146044345294,4.119860187998327
1770448528540,124,-4,-4.148126711917904,-0.992153815842955,4.295808334472236
1770448528544,123,-5,-3.922933717136659,-1.3612302608596425,4.515855015031582
1770448528548,124,-4,-3.7228012836981863,-0.8391519588772383,4.710529525791682
1770448528552,124,-4,-3.5993280082765176,-0.4785967423228214,4.828415457161965
1770448528556,124,-4,-3.548630957194564,-0.8527804811574056,4.873505135476027
1770448528560,124,-4,-3.5145337694588163,-0.6305171522272044,4.902417601570506
1770448528564,124,-4,-3.4303643514544366,-0.6900390908215845,4.982262642058468
1770448528568,124,-4,-3.25886891338715,-0.5832152286857619,5.14979880669645
1770448528572,125,-3,-2.9902500317400205,0.3027452645687378,5.413542532571321
1770448528576,125,-3,-2.611864715959702,0.2929313728357385,5.785625411274137
1770448528580,125,-3,-2.1045179626154873,0.2425576532796141,6.286325522959189
1770448528584,126,-2,-1.483082469375174,1.4183362709189904,6.902111058772618
1770448528588,127,-1,-0.8268751086877821,2.2706062101540243,7.553617138351427
1770448528592,127,-1,-0.2463602362585888,2.4621996322845363,8.129245618266603
1770448528596,128,0,0.1881813197097195,3.073564436908378,8.5580241686156
1770448528600,128,0,0.4823117330873792,3.4854024230865113,8.845957729138824
1770448528604,128,0,0.6832786815506431,3.124620220332919,9.04116905938272
1770448528608,128,0,0.8154487679125335,3.5631132075460084,9.168224245702476
1770448528612,129,1,0.8539014436025469,4.155685923829989,9.20152966777436
1770448528616,128,0,0.7597868146524787,3.3400269808242986,9.101609008106378
1770448528620,128,0,0.5317384280064665,3.235881070334106,8.867223208390838
1770448528624,128,0,0.216201534841298,3.3216145583910666,8.545358564245221
1770448528628,127,-1,-0.1290556819228681,2.365513711051772,8.194154050422721
1770448528632,127,-1,-0.4785907648068621,2.3294923906437797,7.839107011170316
1770448528636,127,-1,-0.8497860576204845,2.1517921668120263,7.462596333285923
1770448528640,126,-2,-1.2723926826742364,1.4107908141197831,7.034383105070843
1770448528644,126,-2,-1.7477243349158815,1.117022868554978,6.552685215008518
1770448528648,125,-3,-2.2386913279459835,0.5621908201066232,6.054645150177953
1770448528652,125,-3,-2.702376857655037,0.0925501340987891,5.584015938833386
1770448528656,124,-4,-3.1337424675633927,-0.5959346135522221,5.146754167037065
1770448528660,124,-4,-3.5692759784411474,-0.8884397086363931,4.706123694803134
1770448528664,124,-4,-4.030770881389507,-0.5831005482582636,4.239022906660075
1770448528668,123,-5,-4.462574464623083,-1.7645742979294257,3.800551402835733
1770448528672,122,-6,-4.747785916257453,-2.6156950193372346,3.5085976498731526
1770448528676,123,-5,-4.808400165283703,-1.868878341111264,3.441990050047828
1770448528680,123,-5,-4.685312585616076,-1.6808811171293732,3.559102945721012
1770448528684,123,-5,-4.510239501964805,-1.7600549198532898,3.7271910838385582
1770448528688,123,-5,-4.405163041652335,-1.6411940039529327,3.824655274128771
1770448528692,123,-5,-4.410216970426215,-1.7422289347693187,3.812573727330772
1770448528696,123,-5,-4.486061341564914,-1.779987241144724,3.7305497014061046
1770448528700,123,-5,-4.5581298333408355,-1.7798166810622345,3.652274442489128
1770448528704,123,-5,-4.555438560949846,-1.675748869046334,3.648384680925623
1770448528708,123,-5,-4.431852956942164,-1.741820968150476,3.766203718475145
1770448528712,123,-5,-4.1817185668877945,-1.6622978060712912,4.012549108905544
1770448528716,124,-4,-3.850644368689344,-0.899027398144348,4.340378535124163
1770448528720,124,-4,-3.5285792175757846,-0.656467081451316,4.655687614499847
1770448528724,124,-4,-3.3214350123188146,-0.835783178093247,4.8494443511998355
1770448528728,124,-4,-3.300757309402433,-0.5766762669659657,4.851920926896298
1770448528732,124,-4,-3.408704325012933,-0.8687065922538406,4.728054227906583
1770448528736,124,-4,-3.2988602463749817,-0.730076088350367,4.832209084424662
1770448528740,126,-2,-2.1772607979256327,1.1962414349237775,5.961004014173369
1770448528744,129,1,1.1711911892440732,4.254624574727938,9.32380690534048
1770448528748,135,7,7.972489986659889,10.384576479314912,16.13496922834568
1770448528752,146,18,18.68390817947144,21.086067831875596,26.84081892100427
1770448528756,159,31,32.21484966002763,34.35294682653008,40.34750788428904
1770448528760,173,45,45.722663441868235,48.05021057676842,53.819908998726945
1770448528764,183,55,55.362302971232104,58.42394693369117,63.42765000004344
1770448528768,186,58,57.81859886607095,61.13806738636804,65.86866914124438
1770448528772,180,52,51.882487883114955,55.261763184182286,59.93766895994267
1770448528776,167,39,39.15850912840075,42.13540342037983,47.23222306987415
1770448528780,150,22,23.41038979501114,25.207263251138222,31.503233442980346
1770448528784,135,7,8.861850268199538,10.35184425296802,16.96237033643224
1770448528788,126,-2,-1.5701720551484382,1.175662624219286,6.520350125487382
1770448528792,121,-7,-7.131175619370271,-3.701059260074937,0.9341111438198908
1770448528796,119,-9,-8.86777858357236,-5.968809164671852,-0.8325868829749172
1770448528800,119,-9,-8.538919296623881,-5.678309505167231,-0.5261714817127885
1770448528804,120,-8,-7.599498254447125,-4.818360425591842,0.4051629866664274
1770448528808,120,-8,-6.771052261361852,-4.692822543522233,1.2370759448996722
1770448528812,121,-7,-6.191729182574415,-3.841292922125565,1.8223906509895669
1770448528816,122,-6,-5.790155841951088,-2.874944030872932,2.2241848150573613
1770448528820,122,-6,-5.53089251664224,-2.770994138602364,2.475472625622082
1770448528824,122,-6,-5.426501251586567,-2.759946340181367,2.5671060684308813
1770448528828,122,-6,-5.442033922944051,-2.772653810577647,2.5391181342565066
1770448528832,122,-6,-5.458169505922224,-2.7839231128173614,2.5135797753224676
1770448528836,122,-6,-5.345972425242777,-2.9546766653427436,2.61905110996128
1770448528840,122,-6,-5.077730632592394,-2.704075655884151,2.8813323932185178
1770448528844,123,-5,-4.757127223945748,-1.8443830174609852,3.1950537975428777
1770448528848,123,-5,-4.525738457931009,-1.7207712873859826,3.418241310833132
1770448528852,123,-5,-4.427464537695446,-1.849173885406015,3.5079793820356215
1770448528856,123,-5,-4.360331865422184,-1.9290507629248344,3.5674500599484418
1770448528860,123,-5,-4.15889337896105,-1.7289972483315896,3.762121579605303
1770448528864,124,-4,-3.726061936784275,-0.8665481140628399,4.187992969011905
1770448528868,124,-4,-3.1014800668340348,-0.6783689409222085,4.80461742591884
1770448528872,125,-3,-2.423702528806369,0.035522477028393,5.4736536506098386
1770448528876,126,-2,-1.82814775032337,1.2191998784545333,6.060368712180515
1770448528880,126,-2,-1.3615065794590542,1.0406129795760737,6.518655236681709
1770448528884,126,-2,-0.975589166048754,1.3834810431057871,6.8970639576415795
1770448528888,127,-1,-0.5960812772284456,2.039840679821858,7.2697795196149215
1770448528892,127,-1,-0.1936719466017012,2.272114600614968,7.665318567441733
1770448528896,128,0,0.2095326673757258,3.012713727800635,8.0607261287008
1770448528900,128,0,0.5897699898975608,3.1528045533666247,8.432209326949163
1770448528904,128,0,0.9624637589431811,3.3292999869844735,8.795994550950784
1770448528908,129,1,1.3706714707425371,3.990667405261448,9.195952301895767
1770448528912,129,1,1.8401449929117597,4.369920953307704,9.658027151322177
1770448528916,130,2,2.35047622225905,4.834989454219195,10.161381114048824
1770448528920,130,2,2.8494489823318463,5.351986409955442,10.653007227438057
1770448528924,131,3,3.2953135091260584,6.085480908402359,11.090498177562834
1770448528928,131,3,3.684444114198159,6.206358825379701,11.470425505933306
1770448528932,131,3,4.033331544152979,6.153711149454496,11.810377734909125
1770448528936,132,4,4.335149262036973,6.988432758003601,12.104431717522424
1770448528940,132,4,4.54881435132063,7.230282517514423,12.31127699058207
1770448528944,132,4,4.643260683976569,7.126976150461218,12.39887985229938
1770448528948,132,4,4.646932240111727,7.198994023542699,12.394942653590036
1770448528952,132,4,4.637568850595446,7.080455755366227,12.377077929418956
1770448528956,132,4,4.670351717202141,7.08098070580453,12.400792342191869
1770448528960,132,4,4.710730481200569,7.084936492168654,12.43207454013314
1770448528964,132,4,4.6430220980430015,7.2797589961076525,12.355799274032371
1770448528968,132,4,4.361866705028504,7.000441035563379,12.066994589547514
1770448528972,131,3,3.874980875573682,6.266676883152033,11.573356070269066
1770448528976,131,3,3.3255772825209218,5.854228368454413,11.0174752205083
1770448528980,130,2,2.904974588938633,5.2964477381872115,10.58969119552816
1770448528984,130,2,2.7158261632904788,5.056438551143692,10.39203890492351
1770448528988,130,2,2.6886368925110644,5.183407875631597,10.355276044658543
1770448528992,130,2,2.618612089253934,5.094450074025198,10.275518778260754
1770448528996,130,2,2.3019050372628755,4.941701439907917,9.949920595743135
1770448529000,129,1,1.672052359777861,4.251423257711884,9.3126726854051
1770448529004,128,0,0.8336060749609584,3.010850068944582,8.468211869957592
1770448529008,127,-1,-0.0266551474075957,2.2616855384310814,7.602098678592672
1770448529012,127,-1,-0.7713111756230404,1.958701489151525,6.850067113848244
1770448529016,126,-2,-1.3867835860296274,1.054390023878177,6.225142343641712
1770448529020,125,-3,-1.9652138912654056,0.149938293819277,5.636443837452278
1770448529024,125,-3,-2.6242736624468925,0.0309530277046272,4.968093516302869
1770448529028,124,-4,-3.417358349739512,-0.7113081645698287,4.16748361519536
1770448529032,123,-5,-4.287393881831097,-2.176572754554739,3.291264310419786
1770448529036,122,-6,-5.097416874965361,-2.7629998879454156,2.4752485348676228
1770448529040,122,-6,-5.715909960635281,-3.1003180204245906,1.849614346210858
1770448529044,121,-7,-6.092089133476612,-3.7321828340297714,1.464545993310022
1770448529048,121,-7,-6.274473701306668,-3.9420646912849833,1.2723437142997778
1770448529052,121,-7,-6.371388082639793,-4.032541504921464,1.1662191303955378
1770448529056,121,-7,-6.478507276671261,-3.85830003274687,1.0513698321702698
1770448529060,121,-7,-6.61388645409555,-4.106704469646495,0.9094779939735992
1770448529064,120,-8,-6.706712680225765,-4.683163945228525,0.8104268747976171
1770448529068,121,-7,-6.654164170731955,-4.064071271081041,0.8560157201838656
1770448529072,121,-7,-6.405623348235245,-3.910066302093897,1.096325063147246
1770448529076,121,-7,-6.012454805228752,-4.01377109940891,1.4803707975027205
1770448529080,122,-6,-5.609155776689817,-2.9847741013525955,1.874631326811219
1770448529084,122,-6,-5.33617217862161,-2.796886293192726,2.139429632155137
1770448529088,122,-6,-5.254144485510119,-3.031937498192791,2.2142722997388837
1770448529092,122,-6,-5.311068546230296,-2.9067044871111465,2.1507223029467095
1770448529096,122,-6,-5.385121996251097,-3.104592346438146,2.0698538934053268
1770448529100,122,-6,-5.367117424992462,-2.876962911022094,2.080416157264068
1770448529104,122,-6,-5.224338553674651,-2.930968550965071,2.215370200518409
1770448529108,122,-6,-5.008099512487803,-2.953185061997015,2.4237335947314698
1770448529112,123,-5,-4.803366853570185,-1.959807387883348,2.6203124522240966
1770448529116,123,-5,-4.659766462533925,-2.1447693642094103,2.755335706107392
1770448529120,122,-6,-4.566160480496261,-2.801777410095583,2.8407320851678683
1770448529124,123,-5,-4.490149390397363,-2.071786499769126,2.9098280004342243
1770448529128,123,-5,-4.426679965562809,-1.8172156087788585,2.967318593618735
1770448529132,123,-5,-4.391986764267623,-2.1306269186446007,2.995565100288017
1770448529136,123,-5,-4.377502044167705,-2.005130961873681,3.0022091754875895
1770448529140,123,-5,-4.3315788389296905,-1.9424768835238817,3.039279373218299
1770448529144,123,-5,-4.199093190990382,-2.0032225760347693,3.163110556207398
1770448529148,123,-5,-3.9775916313154407,-1.8511946770868972,3.37710314965274
1770448529152,124,-4,-3.7240163006676568,-1.1960179061619876,3.6242480091491114
1770448529156,124,-4,-3.493975771983317,-0.8837262969392681,3.8481381699173927
1770448529160,124,-4,-3.273336969382882,-1.1641208771323277,4.062221114737438
1770448529164,124,-4,-2.982124260984604,-0.753283572102907,4.346161282235865
1770448529168,125,-3,-2.558336366436686,-0.1699112148925117,4.76177986168882
1770448529172,125,-3,-2.042913752049275,0.1133232838349131,5.268290037389747
1770448529176,126,-2,-1.5808989422706117,0.794262778853271,5.721552586174308
1770448529180,126,-2,-1.3255340385173238,1.1114386642322829,5.969554064015092
1770448529184,126,-2,-1.3125414936173112,0.964906234572537,5.976991417480151
1770448529188,126,-2,-1.4031402117337122,1.0448098993814965,5.881705804530704
1770448529192,126,-2,-1.3548772534401363,0.909721268603088,5.924532005443135
1770448529196,126,-2,-0.9879122437171894,0.9416318146970308,6.284154959733567
1770448529200,127,-1,-0.3308421167939372,1.98108370238594,6.93195184696486
1770448529204,128,0,0.3712128157698531,3.026935666849119,7.624034648787619
1770448529208,128,0,0.802182847518691,2.983368875136641,8.046306597456944
1770448529212,128,0,0.7698435977508997,2.912266414795233,8.007759156375444
1770448529216,128,0,0.3159259598182697,2.939802520089573,7.549299792678715
1770448529220,127,-1,-0.3241478191468379,1.9321377416976069,6.9043281854809315
1770448529224,126,-2,-0.8828462664612136,1.0620817013246886,6.339265102472169
1770448529228,126,-2,-1.237627675953077,0.9198245882176996,5.977005062539716
1770448529232,126,-2,-1.4736194284554864,0.9373469293048372,5.732990026742307
1770448529236,126,-2,-1.7802081550901547,0.9152218398791216,5.418004344340149
1770448529240,125,-3,-2.27480558590982,-0.0953722678482491,4.915139206501367
1770448529244,124,-4,-2.9128568485948323,-0.924175881291552,4.270022795593321
1770448529248,124,-4,-3.5495229072721854,-1.1412282829773233,3.6280558045163183
1770448529252,123,-5,-4.070014385955002,-2.0255689991940926,3.103128948969257
1770448529256,123,-5,-4.459523228805404,-2.135497952154746,2.7081850238291327
1770448529260,123,-5,-4.76661903018109,-2.069983190743217,2.3933974548847132
1770448529264,122,-6,-5.024103602509933,-2.979219763189485,2.1265752073213253
1770448529268,122,-6,-5.219716979481657,-3.1384953996363585,1.9221044243912535
1770448529272,122,-6,-5.335810670269702,-3.0351189288240077,1.7994510304666402
1770448529276,122,-6,-5.391570848656645,-3.175049035499568,1.7393710426515927
1770448529280,122,-6,-5.425432596130319,-3.0145097374271352,1.701577757076036
1770448529284,122,-6,-5.437754930378869,-3.0945739325782147,1.6835648794405067
1770448529288,122,-6,-5.372174595847657,-3.0572705970384586,1.7409555829863257
1770448529292,122,-6,-5.179802976188413,-3.1384361555786975,1.9238466462887516
1770448529296,122,-6,-4.912456890861941,-3.112498131973603,2.182418705139721
1770448529300,123,-5,-4.731295911606025,-2.068554510641349,2.3567798672505127
1770448529304,123,-5,-4.7837092526123355,-2.087663609012111,2.2999123467204345
1770448529308,122,-6,-5.050122354581859,-3.10929549597599,2.0312657518314285
1770448529312,122,-6,-5.322762538411496,-3.1049534487406967,1.7570830220935338
1770448529316,122,-6,-5.358722933382408,-3.193910416839335,1.7163625134852527
1770448529320,122,-6,-5.07424210628004,-2.9834545745095475,1.9887380378956616
1770448529324,123,-5,-4.596277228962424,-2.1978268240805257,2.4476836760585705
1770448529328,123,-5,-4.0892249244711945,-2.053165384753906,2.936109862245445
1770448529332,124,-4,-3.4313869906237895,-1.1716326350378448,3.5859336860045445
1770448529336,126,-2,-1.9398941229724096,0.8002415299412409,5.085201684803321
1770448529340,129,1,1.610619245198194,4.064152526845811,8.65396763125785
1770448529344,136,8,8.511980074681336,10.671735503883664,15.57001555610674
1770448529348,146,18,19.272325689730096,21.128111550931703,26.327087620302137
1770448529352,160,32,32.798026988278686,34.53391895248978,39.826759180604355
1770448529356,173,45,46.17861015934378,48.141627089842174,53.16802089157988
1770448529360,183,55,55.450891737430176,57.641840126453346,62.40626027689509
1770448529364,185,57,57.191564898105455,60.057810791488066,64.13359308884941
1770448529368,179,51,50.20467896022904,53.67507168297905,57.15655688376627
1770448529372,164,36,36.32267425613504,38.86937696882068,43.29745636659847
1770448529376,146,18,19.71029131094243,20.84028242446928,26.706374197300228
1770448529380,131,3,4.953362904423749,5.882134675410816,11.957571923034246
1770448529384,122,-6,-4.9542139588341705,-3.0756275662987225,2.039768181972981
1770448529388,119,-9,-9.536573446616735,-6.26009380961255,-2.568621074502568
1770448529392,118,-10,-10.291520504664687,-7.129443003711235,-3.3549966626997847
